20.00000 592.233
20.01000 585.084
20.02000 576.913
20.03000 570.590
20.04000 571.474
20.05000 573.083
20.06000 574.264
20.07000 566.817
20.08000 560.713
20.09000 555.984
20.10000 553.690
20.11000 551.442
20.12000 552.014
20.13000 555.889
20.14000 559.759
20.15000 564.273
20.16000 569.237
20.17000 574.110
20.18000 575.645
20.19000 575.498
20.20000 574.895
20.21000 567.249
20.22000 557.204
20.23000 548.038
20.24000 551.868
20.25000 557.887
20.26000 563.347
20.27000 565.861
20.28000 567.946
20.29000 567.801
20.30000 559.922
20.31000 551.386
20.32000 545.335
20.33000 551.001
20.34000 555.678
20.35000 558.406
20.36000 558.059
20.37000 557.675
20.38000 559.118
20.39000 562.443
20.40000 565.749
20.41000 568.298
20.42000 570.314
20.43000 572.155
20.44000 569.192
20.45000 564.069
20.46000 559.368
20.47000 560.036
20.48000 562.334
20.49000 564.397
20.50000 555.937
20.51000 546.687
20.52000 540.346
20.53000 547.520
20.54000 556.396
20.55000 562.558
20.56000 560.339
20.57000 557.526
20.58000 555.605
20.59000 558.766
20.60000 561.250
20.61000 560.391
20.62000 554.851
20.63000 549.284
20.64000 549.512
20.65000 554.974
20.66000 560.382
20.67000 562.074
20.68000 561.567
20.69000 561.059
20.70000 560.512
20.71000 559.949
20.72000 559.331
20.73000 558.114
20.74000 556.736
20.75000 555.520
20.76000 556.589
20.77000 557.860
20.78000 559.180
20.79000 560.705
20.80000 562.252
20.81000 562.877
20.82000 560.962
20.83000 558.899
20.84000 557.546
20.85000 570.145
20.86000 579.643
20.87000 580.431
20.88000 570.427
20.89000 560.413
20.90000 556.640
20.91000 557.837
20.92000 559.016
20.93000 563.054
20.94000 568.438
20.95000 572.890
20.96000 561.576
20.97000 544.609
20.98000 529.318
20.99000 529.258
21.00000 532.855
21.01000 535.969
21.02000 541.125
21.03000 545.779
21.04000 549.278
21.05000 548.565
21.06000 547.466
21.07000 546.800
21.08000 547.204
21.09000 547.657
21.10000 547.942
21.11000 546.592
21.12000 545.599
21.13000 543.549
21.14000 540.345
21.15000 537.189
21.16000 540.710
21.17000 548.939
21.18000 556.992
21.19000 555.414
21.20000 549.528
21.21000 543.812
21.22000 540.457
21.23000 537.856
21.24000 535.677
21.25000 536.789
21.26000 538.600
21.27000 540.136
21.28000 543.443
21.29000 546.415
21.30000 548.958
21.31000 550.106
21.32000 551.147
21.33000 551.126
21.34000 548.772
21.35000 546.334
21.36000 544.875
21.37000 558.946
21.38000 569.031
21.39000 565.522
21.40000 549.001
21.41000 532.623
21.42000 527.265
21.43000 528.808
21.44000 530.307
21.45000 536.320
21.46000 543.837
21.47000 550.431
21.48000 546.381
21.49000 539.299
21.50000 533.953
21.51000 540.371
21.52000 548.992
21.53000 556.138
21.54000 553.628
21.55000 550.632
21.56000 550.601
21.57000 559.167
21.58000 568.280
21.59000 571.135
21.60000 561.717
21.61000 551.976
21.62000 546.443
21.63000 557.743
21.64000 565.650
21.65000 565.502
21.66000 558.572
21.67000 551.692
21.68000 547.252
21.69000 544.174
21.70000 541.212
21.71000 536.295
21.72000 530.989
21.73000 527.132
21.74000 537.420
21.75000 551.290
21.76000 563.604
21.77000 566.716
21.78000 568.315
21.79000 569.608
21.80000 569.507
21.81000 569.313
21.82000 569.378
21.83000 570.116
21.84000 570.889
21.85000 573.852
21.86000 580.644
21.87000 587.507
21.88000 591.188
21.89000 598.034
21.90000 602.678
21.91000 601.145
21.92000 595.016
21.93000 589.232
21.94000 595.626
21.95000 608.080
21.96000 619.946
21.97000 628.190
21.98000 634.701
21.99000 640.185
22.00000 637.088
22.01000 632.065
22.02000 628.614
22.03000 633.328
22.04000 639.210
22.05000 643.843
22.06000 639.696
22.07000 635.786
22.08000 635.150
22.09000 642.082
22.10000 649.318
22.11000 655.484
22.12000 659.983
22.13000 664.463
22.14000 666.720
22.15000 659.307
22.16000 654.355
22.17000 649.709
22.18000 645.265
22.19000 640.880
22.20000 638.072
22.21000 635.964
22.22000 633.978
22.23000 620.287
22.24000 604.545
22.25000 590.090
22.26000 584.923
22.27000 581.596
22.28000 578.181
22.29000 574.353
22.30000 570.475
22.31000 567.507
22.32000 558.978
22.33000 551.943
22.34000 547.447
22.35000 548.189
22.36000 549.090
22.37000 549.382
22.38000 548.832
22.39000 548.277
22.40000 543.359
22.41000 534.566
22.42000 525.898
22.43000 524.752
22.44000 528.023
22.45000 531.457
22.46000 538.260
22.47000 546.400
22.48000 553.971
22.49000 554.095
22.50000 552.411
22.51000 550.567
22.52000 547.708
22.53000 544.673
22.54000 541.191
22.55000 535.890
22.56000 530.396
22.57000 526.320
22.58000 527.585
22.59000 528.802
22.60000 529.740
22.61000 530.162
22.62000 530.573
22.63000 530.119
22.64000 528.607
22.65000 527.096
22.66000 519.343
22.67000 506.749
22.68000 494.714
22.69000 505.593
22.70000 528.467
22.71000 549.926
22.72000 547.995
22.73000 537.781
22.74000 528.414
22.75000 526.468
22.76000 526.300
22.77000 527.035
22.78000 532.733
22.79000 539.188
22.80000 542.033
22.81000 531.863
22.82000 520.519
22.83000 512.380
22.84000 526.168
22.85000 537.463
22.86000 540.094
22.87000 528.515
22.88000 516.730
22.89000 510.618
22.90000 510.612
22.91000 510.608
22.92000 509.491
22.93000 507.620
22.94000 506.023
22.95000 512.645
22.96000 523.105
22.97000 532.692
22.98000 530.431
22.99000 524.427
23.00000 519.006
23.01000 521.343
23.02000 524.828
23.03000 527.393
23.04000 525.506
23.05000 523.030
23.06000 521.166
23.07000 521.263
23.08000 521.508
23.09000 521.677
23.10000 527.278
23.11000 531.633
23.12000 531.451
23.13000 524.657
23.14000 517.808
23.15000 515.702
23.16000 518.074
23.17000 520.426
23.18000 515.935
23.19000 507.371
23.20000 499.420
23.21000 505.512
23.22000 517.463
23.23000 528.078
23.24000 523.555
23.25000 514.774
23.26000 506.979
23.27000 510.593
23.28000 515.552
23.29000 517.558
23.30000 506.916
23.31000 494.832
23.32000 487.742
23.33000 494.952
23.34000 503.049
23.35000 508.435
23.36000 509.629
23.37000 510.434
23.38000 514.299
23.39000 522.119
23.40000 529.935
23.41000 528.306
23.42000 518.832
23.43000 509.483
23.44000 504.378
23.45000 501.687
23.46000 498.790
23.47000 492.159
23.48000 484.136
23.49000 477.837
23.50000 488.069
23.51000 502.434
23.52000 514.952
23.53000 513.134
23.54000 509.598
23.55000 505.861
23.56000 501.360
23.57000 496.786
23.58000 495.248
23.59000 501.476
23.60000 508.092
23.61000 512.308
23.62000 507.014
23.63000 503.043
23.64000 504.177
23.65000 511.132
23.66000 518.065
23.67000 520.324
23.68000 519.150
23.69000 517.998
23.70000 515.492
23.71000 512.436
23.72000 509.455
23.73000 507.562
23.74000 506.032
23.75000 505.145
23.76000 509.539
23.77000 515.104
23.78000 519.856
23.79000 514.599
23.80000 508.983
23.81000 506.324
23.82000 513.664
23.83000 521.822
23.84000 527.955
23.85000 529.463
23.86000 530.790
23.87000 531.598
23.88000 520.284
23.89000 512.109
23.90000 508.123
23.91000 508.331
23.92000 508.585
23.93000 513.099
23.94000 520.389
23.95000 527.487
23.96000 526.998
23.97000 523.360
23.98000 520.008
23.99000 520.150
24.00000 521.328
24.01000 522.474
24.02000 523.395
24.03000 524.273
24.04000 525.006
24.05000 525.130
24.06000 525.171
24.07000 523.755
24.08000 517.948
24.09000 511.843
24.10000 510.218
24.11000 517.722
24.12000 525.494
24.13000 529.989
24.14000 517.763
24.15000 509.132
24.16000 507.310
24.17000 511.472
24.18000 515.576
24.19000 516.354
24.20000 515.204
24.21000 514.093
24.22000 510.891
24.23000 507.103
24.24000 503.774
24.25000 505.184
24.26000 507.845
24.27000 510.646
24.28000 514.317
24.29000 518.139
24.30000 521.256
24.31000 525.079
24.32000 528.266
24.33000 529.176
24.34000 523.968
24.35000 518.422
24.36000 511.226
24.37000 501.030
24.38000 490.771
24.39000 485.156
24.40000 501.362
24.41000 512.489
24.42000 512.135
24.43000 502.878
24.44000 493.742
24.45000 489.379
24.46000 487.485
24.47000 485.674
24.48000 481.181
24.49000 476.126
24.50000 472.340
24.51000 479.707
24.52000 489.683
24.53000 497.871
24.54000 496.361
24.55000 493.395
24.56000 491.038
24.57000 493.613
24.58000 496.039
24.59000 498.755
24.60000 502.168
24.61000 505.611
24.62000 504.230
24.63000 495.037
24.64000 485.736
24.65000 480.947
24.66000 485.823
24.67000 489.096
24.68000 491.056
24.69000 492.114
24.70000 493.178
24.71000 494.405
24.72000 495.708
24.73000 496.939
24.74000 496.793
24.75000 496.264
24.76000 494.998
24.77000 488.156
24.78000 480.160
24.79000 473.822
24.80000 475.405
24.81000 478.020
24.82000 480.041
24.83000 481.453
24.84000 482.537
24.85000 483.374
24.86000 483.682
24.87000 483.972
24.88000 481.082
24.89000 473.617
24.90000 466.116
24.91000 464.738
24.92000 469.056
24.93000 473.358
24.94000 476.507
24.95000 478.952
24.96000 481.255
24.97000 480.385
24.98000 478.207
24.99000 476.173
25.00000 480.482
25.01000 485.990
25.02000 491.023
25.03000 492.938
25.04000 494.286
25.05000 495.605
25.06000 496.804
25.07000 497.989
25.08000 498.879
25.09000 494.844
25.10000 491.459
25.11000 487.658
25.12000 483.060
25.13000 478.443
25.14000 474.833
25.15000 472.508
25.16000 470.190
25.17000 468.632
25.18000 467.700
25.19000 466.834
25.20000 469.045
25.21000 472.929
25.22000 476.572
25.23000 475.940
25.24000 473.733
25.25000 471.699
25.26000 466.408
25.27000 460.952
25.28000 456.604
25.29000 458.630
25.30000 461.673
25.31000 464.773
25.32000 468.084
25.33000 471.416
25.34000 473.834
25.35000 468.631
25.36000 464.346
25.37000 464.379
25.38000 471.780
25.39000 479.305
25.40000 478.828
25.41000 469.353
25.42000 459.905
25.43000 462.509
25.44000 473.751
25.45000 484.652
25.46000 484.293
25.47000 478.469
25.48000 472.781
25.49000 469.070
25.50000 466.008
25.51000 463.227
25.52000 463.811
25.53000 464.975
25.54000 465.933
25.55000 465.845
25.56000 465.611
25.57000 466.639
25.58000 471.875
25.59000 477.450
25.60000 481.356
25.61000 482.007
25.62000 482.407
25.63000 479.607
25.64000 471.952
25.65000 464.247
25.66000 462.231
25.67000 465.829
25.68000 469.402
25.69000 470.644
25.70000 470.390
25.71000 470.052
25.72000 467.600
25.73000 464.232
25.74000 461.359
25.75000 464.444
25.76000 469.271
25.77000 473.582
25.78000 468.981
25.79000 463.478
25.80000 460.423
25.81000 468.296
25.82000 477.481
25.83000 483.407
25.84000 479.636
25.85000 475.221
25.86000 472.243
25.87000 456.629
25.88000 444.745
25.89000 440.533
25.90000 446.649
25.91000 452.817
25.92000 457.095
25.93000 459.733
25.94000 462.342
25.95000 462.483
25.96000 461.241
25.97000 460.067
25.98000 460.233
25.99000 460.916
26.00000 461.276
26.01000 458.353
26.02000 454.575
26.03000 451.262
26.04000 440.400
26.05000 429.974
26.06000 424.621
26.07000 439.333
26.08000 456.104
26.09000 467.926
26.10000 466.600
26.11000 464.565
26.12000 463.249
26.13000 461.792
26.14000 460.725
26.15000 459.013
26.16000 456.535
26.17000 454.076
26.18000 456.527
26.19000 462.736
26.20000 468.838
26.21000 473.729
26.22000 477.860
26.23000 481.506
26.24000 477.483
26.25000 470.809
26.26000 464.762
26.27000 464.127
26.28000 464.742
26.29000 465.271
26.30000 462.885
26.31000 460.500
26.32000 457.830
26.33000 454.156
26.34000 450.395
26.35000 448.481
26.36000 450.949
26.37000 453.603
26.38000 455.245
26.39000 452.977
26.40000 451.310
26.41000 455.749
26.42000 466.579
26.43000 477.303
26.44000 476.227
26.45000 467.146
26.46000 458.281
26.47000 452.329
26.48000 447.906
26.49000 443.603
26.50000 440.855
26.51000 438.586
26.52000 436.790
26.53000 438.515
26.54000 440.960
26.55000 443.018
26.56000 450.395
26.57000 457.118
26.58000 460.287
26.59000 452.326
26.60000 443.558
26.61000 438.919
26.62000 443.026
26.63000 447.416
26.64000 450.001
26.65000 446.716
26.66000 444.370
26.67000 448.104
26.68000 457.418
26.69000 466.597
26.70000 466.866
26.71000 461.761
26.72000 456.818
26.73000 451.604
26.74000 446.569
26.75000 441.786
26.76000 439.741
26.77000 438.448
26.78000 437.813
26.79000 441.445
26.80000 445.842
26.81000 449.459
26.82000 448.510
26.83000 447.316
26.84000 445.515
26.85000 442.014
26.86000 438.412
26.87000 438.695
26.88000 446.322
26.89000 454.123
26.90000 458.475
26.91000 474.455
26.92000 485.493
26.93000 479.599
26.94000 460.016
26.95000 440.840
26.96000 439.776
26.97000 448.446
26.98000 456.764
26.99000 450.286
27.00000 439.205
27.01000 429.261
27.02000 429.855
27.03000 433.015
27.04000 435.937
27.05000 437.500
27.06000 438.851
27.07000 439.934
27.08000 449.324
27.09000 457.557
27.10000 462.207
27.11000 457.916
27.12000 453.202
27.13000 448.009
27.14000 442.009
27.15000 435.997
27.16000 432.835
27.17000 440.567
27.18000 445.765
27.19000 443.619
27.20000 436.218
27.21000 429.001
27.22000 427.710
27.23000 429.259
27.24000 430.730
27.25000 434.669
27.26000 439.044
27.27000 442.696
27.28000 440.601
27.29000 437.266
27.30000 435.437
27.31000 441.117
27.32000 447.823
27.33000 453.058
27.34000 443.292
27.35000 434.562
27.36000 430.531
27.37000 436.971
27.38000 443.796
27.39000 448.861
27.40000 451.289
27.41000 453.690
27.42000 456.571
27.43000 459.917
27.44000 463.159
27.45000 457.858
27.46000 447.129
27.47000 436.812
27.48000 436.507
27.49000 440.489
27.50000 444.226
27.51000 438.178
27.52000 430.092
27.53000 423.846
27.54000 430.291
27.55000 439.151
27.56000 446.526
27.57000 447.363
27.58000 447.428
27.59000 447.477
27.60000 451.520
27.61000 454.898
27.62000 453.901
27.63000 444.203
27.64000 434.266
27.65000 434.436
27.66000 448.037
27.67000 461.692
27.68000 465.395
27.69000 460.598
27.70000 455.795
27.71000 450.666
27.72000 445.354
27.73000 440.343
27.74000 441.108
27.75000 444.081
27.76000 446.835
27.77000 447.533
27.78000 447.685
27.79000 447.543
27.80000 445.628
27.81000 443.417
27.82000 439.736
27.83000 430.315
27.84000 420.315
27.85000 412.974
27.86000 415.586
27.87000 418.010
27.88000 424.359
27.89000 437.671
27.90000 451.117
27.91000 457.482
27.92000 455.535
27.93000 453.580
27.94000 441.969
27.95000 423.194
27.96000 404.991
27.97000 407.871
27.98000 421.385
27.99000 434.096
28.00000 434.381
28.01000 430.426
28.02000 426.815
28.03000 421.874
28.04000 417.222
28.05000 414.135
28.06000 419.307
28.07000 425.683
28.08000 431.210
28.09000 433.793
28.10000 436.125
28.11000 437.778
28.12000 441.278
28.13000 443.998
28.14000 446.196
28.15000 447.572
28.16000 448.938
28.17000 447.620
28.18000 443.532
28.19000 439.468
28.20000 436.347
28.21000 433.892
28.22000 431.494
28.23000 430.661
28.24000 430.532
28.25000 430.333
28.26000 429.244
28.27000 427.884
28.28000 426.662
28.29000 424.880
28.30000 423.222
28.31000 422.249
28.32000 424.464
28.33000 427.082
28.34000 429.459
28.35000 431.094
28.36000 432.676
28.37000 433.757
28.38000 437.064
28.39000 439.591
28.40000 438.511
28.41000 432.373
28.42000 426.204
28.43000 425.947
28.44000 431.041
28.45000 436.086
28.46000 435.650
28.47000 432.026
28.48000 428.385
28.49000 424.343
28.50000 420.141
28.51000 416.468
28.52000 418.460
28.53000 421.987
28.54000 425.099
28.55000 423.125
28.56000 420.644
28.57000 418.527
28.58000 417.909
28.59000 417.453
28.60000 418.739
28.61000 424.831
28.62000 431.202
28.63000 435.383
28.64000 426.300
28.65000 419.397
28.66000 416.307
28.67000 417.952
28.68000 419.615
28.69000 422.831
28.70000 427.286
28.71000 431.674
28.72000 434.840
28.73000 437.281
28.74000 439.273
28.75000 433.650
28.76000 425.292
28.77000 417.170
28.78000 411.197
28.79000 405.741
28.80000 401.017
28.81000 407.902
28.82000 415.289
28.83000 420.947
28.84000 420.283
28.85000 419.037
28.86000 420.492
28.87000 428.600
28.88000 437.015
28.89000 442.301
28.90000 426.981
28.91000 415.677
28.92000 409.847
28.93000 410.004
28.94000 410.183
28.95000 413.023
28.96000 417.742
28.97000 422.361
28.98000 424.760
28.99000 426.054
29.00000 427.026
29.01000 423.523
29.02000 418.587
29.03000 413.570
29.04000 407.918
29.05000 402.132
29.06000 397.225
29.07000 400.783
29.08000 404.722
29.09000 407.187
29.10000 404.853
29.11000 402.148
29.12000 403.574
29.13000 414.092
29.14000 424.935
29.15000 431.428
29.16000 419.823
29.17000 411.467
29.18000 408.365
29.19000 410.302
29.20000 412.253
29.21000 415.314
29.22000 419.070
29.23000 422.718
29.24000 414.907
29.25000 402.889
29.26000 392.319
29.27000 398.520
29.28000 409.507
29.29000 419.031
29.30000 418.617
29.31000 416.339
29.32000 414.450
29.33000 416.902
29.34000 419.345
29.35000 422.531
29.36000 427.879
29.37000 433.365
29.38000 435.165
29.39000 429.727
29.40000 424.097
29.41000 420.896
29.42000 422.366
29.43000 423.403
29.44000 423.344
29.45000 422.359
29.46000 421.427
29.47000 423.107
29.48000 426.247
29.49000 429.269
29.50000 426.085
29.51000 420.897
29.52000 416.104
29.53000 415.185
29.54000 415.248
29.55000 416.070
29.56000 421.381
29.57000 427.432
29.58000 432.327
29.59000 430.665
29.60000 428.783
29.61000 426.805
29.62000 424.580
29.63000 422.341
29.64000 417.842
29.65000 409.383
29.66000 400.850
29.67000 396.268
29.68000 409.311
29.69000 418.212
29.70000 422.820
29.71000 424.227
29.72000 425.561
29.73000 424.342
29.74000 421.851
29.75000 419.476
29.76000 417.717
29.77000 416.279
29.78000 415.477
29.79000 420.007
29.80000 425.736
29.81000 430.441
29.82000 429.816
29.83000 428.427
29.84000 427.332
29.85000 419.165
29.86000 412.144
29.87000 409.466
29.88000 416.842
29.89000 424.623
29.90000 427.954
29.91000 424.346
29.92000 420.656
29.93000 418.795
29.94000 434.942
29.95000 445.624
29.96000 445.224
29.97000 437.495
29.98000 430.358
29.99000 438.948
30.00000 454.533
30.01000 469.217
30.02000 459.308
30.03000 443.474
30.04000 428.590
30.05000 420.579
30.06000 413.934
30.07000 409.712
30.08000 416.619
30.09000 424.909
30.10000 431.256
30.11000 441.044
30.12000 448.959
30.13000 449.813
30.14000 436.069
30.15000 421.881
30.16000 416.675
30.17000 423.903
30.18000 431.207
30.19000 431.648
30.20000 425.969
30.21000 420.320
30.22000 416.466
30.23000 413.667
30.24000 410.897
30.25000 408.699
30.26000 406.729
30.27000 404.896
30.28000 414.903
30.29000 426.803
30.30000 436.008
30.31000 428.257
30.32000 417.546
30.33000 409.529
30.34000 412.470
30.35000 416.579
30.36000 419.630
30.37000 421.134
30.38000 422.235
30.39000 422.351
30.40000 420.653
30.41000 418.915
30.42000 417.863
30.43000 417.649
30.44000 417.439
30.45000 420.463
30.46000 426.006
30.47000 431.368
30.48000 429.244
30.49000 423.196
30.50000 417.556
30.51000 418.686
30.52000 422.218
30.53000 425.457
30.54000 421.772
30.55000 417.023
30.56000 413.069
30.57000 413.495
30.58000 414.590
30.59000 417.645
30.60000 427.780
30.61000 438.554
30.62000 446.289
30.63000 440.151
30.64000 434.978
30.65000 431.168
30.66000 429.597
30.67000 428.059
30.68000 432.208
30.69000 442.491
30.70000 452.729
30.71000 453.475
30.72000 447.666
30.73000 442.018
30.74000 441.213
30.75000 442.675
30.76000 443.722
30.77000 439.137
30.78000 432.769
30.79000 427.017
30.80000 441.339
30.81000 457.635
30.82000 471.363
30.83000 472.627
30.84000 472.237
30.85000 470.375
30.86000 463.777
30.87000 456.820
30.88000 452.004
30.89000 454.011
30.90000 455.699
30.91000 460.973
30.92000 471.481
30.93000 482.034
30.94000 487.239
30.95000 487.388
30.96000 487.535
30.97000 492.194
30.98000 499.512
30.99000 506.843
31.00000 514.463
31.01000 522.203
31.02000 530.841
31.03000 549.666
31.04000 571.361
31.05000 590.625
31.06000 609.747
31.07000 626.302
31.08000 644.810
31.09000 671.699
31.10000 699.546
31.11000 733.263
31.12000 783.819
31.13000 835.422
31.14000 869.769
31.15000 963.680
31.16000 1034.293
31.17000 1107.615
31.18000 1184.446
31.19000 1261.318
31.20000 1351.772
31.21000 1453.528
31.22000 1553.944
31.23000 1665.151
31.24000 1779.154
31.25000 1893.570
31.26000 2015.519
31.27000 2140.278
31.28000 2264.518
31.29000 2383.762
31.30000 2501.755
31.31000 2604.602
31.32000 2723.198
31.33000 2826.745
31.34000 2915.555
31.35000 2948.262
31.36000 2975.503
31.37000 3000.552
31.38000 3019.989
31.39000 3039.144
31.40000 3051.361
31.41000 3039.220
31.42000 3030.078
31.43000 2988.497
31.44000 2909.862
31.45000 2831.127
31.46000 2742.044
31.47000 2645.348
31.48000 2550.500
31.49000 2450.620
31.50000 2352.007
31.51000 2251.794
31.52000 2127.885
31.53000 1996.086
31.54000 1865.205
31.55000 1741.887
31.56000 1620.249
31.57000 1516.346
31.58000 1407.499
31.59000 1315.214
31.60000 1224.376
31.61000 1138.441
31.62000 1052.908
31.63000 970.583
31.64000 895.593
31.65000 820.890
31.66000 775.406
31.67000 723.790
31.68000 686.868
31.69000 657.889
31.70000 636.877
31.71000 615.908
31.72000 598.989
31.73000 584.714
31.74000 570.813
31.75000 553.878
31.76000 536.465
31.77000 519.285
31.78000 504.960
31.79000 491.481
31.80000 478.496
31.81000 469.032
31.82000 460.257
31.83000 452.924
31.84000 447.128
31.85000 442.472
31.86000 439.415
31.87000 441.184
31.88000 443.281
31.89000 443.343
31.90000 439.250
31.91000 435.034
31.92000 432.594
31.93000 421.016
31.94000 412.864
31.95000 409.009
31.96000 408.937
31.97000 408.882
31.98000 409.865
31.99000 411.450
32.00000 412.980
32.01000 415.600
32.02000 418.470
32.03000 420.666
32.04000 415.877
32.05000 409.243
32.06000 402.745
32.07000 397.086
32.08000 391.571
32.09000 387.070
32.10000 397.651
32.11000 407.597
32.12000 414.003
32.13000 410.875
32.14000 407.218
32.15000 404.652
32.16000 404.070
32.17000 403.531
32.18000 403.236
32.19000 390.702
32.20000 382.100
32.21000 382.748
32.22000 390.580
32.23000 398.258
32.24000 399.803
32.25000 398.171
32.26000 396.611
32.27000 396.334
32.28000 396.495
32.29000 396.539
32.30000 395.551
32.31000 394.322
32.32000 394.114
32.33000 399.458
32.34000 405.637
32.35000 410.551
32.36000 407.063
32.37000 403.651
32.38000 400.403
32.39000 397.547
32.40000 394.708
32.41000 392.150
32.42000 390.048
32.43000 387.952
32.44000 386.872
32.45000 381.623
32.46000 378.101
32.47000 376.250
32.48000 375.548
32.49000 375.010
32.50000 379.249
32.51000 385.695
32.52000 391.793
32.53000 392.637
32.54000 391.903
32.55000 390.905
32.56000 387.904
32.57000 384.488
32.58000 381.438
32.59000 380.137
32.60000 379.065
32.61000 378.235
32.62000 378.661
32.63000 379.073
32.64000 379.413
32.65000 379.600
32.66000 379.783
32.67000 376.288
32.68000 367.492
32.69000 358.655
32.70000 358.052
32.71000 365.124
32.72000 372.116
32.73000 373.483
32.74000 371.408
32.75000 369.426
32.76000 369.536
32.77000 370.510
32.78000 371.420
32.79000 366.984
32.80000 361.608
32.81000 357.069
32.82000 358.038
32.83000 360.014
32.84000 362.326
32.85000 366.065
32.86000 369.965
32.87000 372.892
32.88000 371.677
32.89000 370.532
32.90000 370.219
32.91000 371.502
32.92000 372.824
32.93000 374.160
32.94000 375.515
32.95000 376.868
32.96000 379.306
32.97000 382.623
32.98000 385.889
32.99000 386.722
33.00000 386.229
33.01000 385.893
33.02000 388.328
33.03000 391.785
33.04000 394.971
33.05000 389.002
33.06000 381.630
33.07000 375.108
33.08000 373.477
33.09000 372.628
33.10000 371.809
33.11000 371.100
33.12000 370.401
33.13000 369.894
33.14000 361.993
33.15000 355.639
33.16000 352.493
33.17000 354.827
33.18000 357.253
33.19000 356.786
33.20000 353.059
33.21000 349.342
33.22000 345.339
33.23000 341.165
33.24000 337.356
33.25000 345.700
33.26000 359.954
33.27000 372.971
33.28000 368.043
33.29000 357.211
33.30000 347.376
33.31000 342.109
33.32000 338.341
33.33000 336.063
33.34000 341.332
33.35000 347.652
33.36000 352.016
33.37000 349.843
33.38000 347.143
33.39000 345.250
33.40000 351.030
33.41000 355.624
33.42000 355.222
33.43000 347.224
33.44000 339.147
33.45000 335.741
33.46000 336.954
33.47000 338.158
33.48000 336.638
33.49000 333.411
33.50000 330.378
33.51000 332.172
33.52000 336.062
33.53000 339.287
33.54000 334.492
33.55000 327.346
33.56000 320.964
33.57000 328.889
33.58000 338.201
33.59000 345.148
33.60000 341.520
33.61000 336.620
33.62000 332.596
33.63000 331.181
33.64000 329.941
33.65000 329.104
33.66000 342.171
33.67000 352.190
33.68000 357.070
33.69000 355.016
33.70000 352.924
33.71000 349.118
33.72000 343.824
33.73000 338.591
33.74000 340.032
33.75000 345.176
33.76000 350.044
33.77000 349.490
33.78000 346.832
33.79000 344.385
33.80000 344.076
33.81000 344.325
33.82000 344.543
33.83000 343.417
33.84000 342.253
33.85000 340.019
33.86000 333.537
33.87000 326.619
33.88000 324.038
33.89000 332.998
33.90000 342.581
33.91000 348.784
33.92000 358.681
33.93000 365.976
33.94000 365.601
33.95000 356.081
33.96000 346.540
33.97000 335.921
33.98000 324.475
33.99000 313.223
34.00000 319.530
34.01000 334.311
34.02000 348.288
34.03000 349.518
34.04000 346.337
34.05000 343.946
34.06000 348.397
34.07000 354.431
34.08000 359.622
34.09000 360.680
34.10000 361.058
34.11000 361.245
34.12000 360.763
34.13000 360.223
34.14000 358.233
34.15000 352.796
34.16000 347.213
34.17000 343.758
34.18000 348.956
34.19000 352.774
34.20000 354.480
34.21000 353.971
34.22000 353.482
34.23000 355.153
34.24000 358.292
34.25000 361.357
34.26000 352.058
34.27000 337.762
34.28000 324.724
34.29000 328.126
34.30000 336.602
34.31000 343.849
34.32000 341.907
34.33000 338.086
34.34000 334.869
34.35000 344.703
34.36000 354.307
34.37000 359.446
34.38000 350.580
34.39000 340.696
34.40000 337.340
34.41000 347.833
34.42000 358.777
34.43000 365.225
34.44000 359.085
34.45000 354.687
34.46000 354.116
34.47000 357.066
34.48000 359.980
34.49000 360.482
34.50000 359.527
34.51000 358.602
34.52000 358.236
34.53000 358.105
34.54000 357.723
34.55000 354.586
34.56000 350.693
34.57000 348.551
34.58000 357.779
34.59000 369.052
34.60000 378.328
34.61000 365.562
34.62000 353.066
34.63000 345.321
34.64000 350.878
34.65000 357.227
34.66000 358.728
34.67000 351.053
34.68000 343.160
34.69000 338.753
34.70000 349.373
34.71000 356.739
34.72000 356.722
34.73000 350.723
34.74000 344.786
34.75000 341.603
34.76000 339.902
34.77000 338.270
34.78000 335.881
34.79000 333.390
34.80000 330.989
34.81000 329.419
34.82000 328.052
34.83000 326.596
34.84000 324.637
34.85000 322.600
34.86000 320.965
34.87000 326.190
34.88000 330.943
34.89000 333.771
34.90000 331.785
34.91000 329.571
34.92000 327.655
34.93000 326.244
34.94000 324.842
34.95000 324.103
34.96000 338.036
34.97000 347.441
34.98000 348.809
34.99000 344.416
35.00000 339.982
35.01000 334.201
35.02000 327.774
35.03000 321.672
35.04000 321.205
35.05000 322.464
35.06000 323.539
35.07000 323.139
35.08000 322.422
35.09000 320.882
35.10000 315.238
35.11000 309.031
35.12000 304.185
35.13000 323.958
35.14000 341.280
35.15000 349.706
35.16000 338.277
35.17000 326.114
35.18000 320.258
35.19000 323.868
35.20000 327.572
35.21000 328.312
35.22000 326.163
35.23000 323.996
35.24000 320.258
35.25000 315.522
35.26000 311.117
35.27000 314.821
35.28000 322.003
35.29000 328.743
35.30000 331.386
35.31000 332.714
35.32000 332.407
35.33000 320.815
35.34000 307.072
35.35000 298.267
35.36000 311.254
35.37000 326.820
35.38000 338.623
35.39000 333.548
35.40000 328.698
35.41000 325.122
35.42000 324.085
35.43000 323.118
35.44000 318.271
35.45000 308.258
35.46000 298.227
35.47000 296.891
35.48000 302.988
35.49000 309.044
35.50000 312.901
35.51000 315.510
35.52000 318.048
35.53000 319.204
35.54000 319.830
35.55000 320.410
35.56000 320.692
35.57000 320.875
35.58000 321.004
35.59000 320.802
35.60000 320.545
35.61000 319.676
35.62000 316.410
35.63000 312.901
35.64000 310.324
35.65000 309.019
35.66000 308.061
35.67000 309.103
35.68000 313.696
35.69000 318.358
35.70000 320.766
35.71000 320.523
35.72000 320.276
35.73000 317.596
35.74000 313.106
35.75000 308.786
35.76000 310.799
35.77000 316.010
35.78000 320.646
35.79000 316.340
35.80000 308.977
35.81000 302.255
35.82000 298.031
35.83000 294.789
35.84000 292.836
35.85000 297.699
35.86000 303.556
35.87000 307.594
35.88000 305.306
35.89000 302.477
35.90000 300.469
35.91000 306.855
35.92000 311.979
35.93000 312.586
35.94000 306.046
35.95000 299.416
35.96000 299.023
35.97000 305.077
35.98000 311.097
35.99000 311.986
36.00000 309.466
36.01000 307.090
36.02000 308.710
36.03000 312.133
36.04000 315.424
36.05000 317.025
36.06000 318.111
36.07000 319.087
36.08000 312.431
36.09000 305.258
36.10000 299.965
36.11000 303.434
36.12000 308.011
36.13000 312.029
36.14000 314.317
36.15000 316.482
36.16000 317.962
36.17000 303.848
36.18000 292.917
36.19000 290.193
36.20000 299.001
36.21000 307.885
36.22000 309.463
36.23000 304.418
36.24000 299.421
36.25000 299.774
36.26000 303.245
36.27000 306.500
36.28000 305.180
36.29000 302.017
36.30000 299.060
36.31000 298.313
36.32000 298.166
36.33000 298.036
36.34000 297.939
36.35000 297.860
36.36000 298.470
36.37000 301.922
36.38000 305.684
36.39000 307.953
36.40000 306.092
36.41000 303.991
36.42000 302.612
36.43000 299.156
36.44000 296.579
36.45000 297.104
36.46000 301.488
36.47000 305.871
36.48000 306.342
36.49000 303.687
36.50000 301.072
36.51000 300.681
36.52000 301.449
36.53000 302.411
36.54000 306.670
36.55000 312.115
36.56000 316.374
36.57000 309.797
36.58000 300.610
36.59000 292.652
36.60000 293.736
36.61000 295.852
36.62000 297.922
36.63000 299.824
36.64000 301.711
36.65000 302.557
36.66000 300.837
36.67000 298.997
36.68000 297.840
36.69000 306.378
36.70000 312.660
36.71000 315.616
36.72000 314.924
36.73000 314.216
36.74000 311.344
36.75000 306.941
36.76000 302.632
36.77000 299.685
36.78000 297.475
36.79000 295.361
36.80000 294.583
36.81000 294.233
36.82000 294.371
36.83000 298.343
36.84000 303.131
36.85000 307.194
36.86000 305.841
36.87000 304.094
36.88000 303.813
36.89000 308.312
36.90000 313.182
36.91000 313.912
36.92000 305.519
36.93000 296.798
36.94000 291.571
36.95000 297.355
36.96000 301.534
36.97000 301.475
36.98000 297.344
36.99000 293.293
37.00000 295.450
37.01000 301.511
37.02000 307.397
37.03000 310.324
37.04000 311.913
37.05000 313.386
37.06000 313.519
37.07000 313.269
37.08000 313.186
37.09000 314.233
37.10000 315.492
37.11000 316.537
37.12000 316.765
37.13000 316.875
37.14000 316.992
37.15000 317.130
37.16000 317.270
37.17000 315.356
37.18000 309.399
37.19000 303.336
37.20000 299.886
37.21000 297.066
37.22000 295.107
37.23000 295.295
37.24000 297.297
37.25000 299.327
37.26000 302.776
37.27000 307.019
37.28000 311.104
37.29000 307.892
37.30000 302.286
37.31000 297.402
37.32000 299.595
37.33000 303.587
37.34000 306.524
37.35000 303.197
37.36000 298.837
37.37000 295.308
37.38000 301.403
37.39000 307.144
37.40000 310.396
37.41000 307.188
37.42000 303.647
37.43000 302.633
37.44000 306.053
37.45000 309.556
37.46000 311.438
37.47000 306.195
37.48000 302.605
37.49000 298.753
37.50000 294.703
37.51000 290.792
37.52000 291.816
37.53000 295.305
37.54000 298.629
37.55000 302.169
37.56000 305.519
37.57000 307.995
37.58000 303.152
37.59000 296.659
37.60000 291.663
37.61000 294.473
37.62000 298.405
37.63000 301.505
37.64000 301.512
37.65000 301.311
37.66000 301.035
37.67000 300.587
37.68000 300.132
37.69000 298.980
37.70000 296.740
37.71000 294.487
37.72000 293.350
37.73000 291.996
37.74000 291.102
37.75000 291.364
37.76000 292.391
37.77000 293.397
37.78000 293.841
37.79000 294.034
37.80000 294.217
37.81000 293.222
37.82000 291.986
37.83000 290.780
37.84000 289.793
37.85000 288.850
37.86000 288.371
37.87000 290.035
37.88000 291.965
37.89000 293.443
37.90000 289.192
37.91000 285.520
37.92000 283.695
37.93000 285.696
37.94000 287.814
37.95000 291.212
37.96000 296.386
37.97000 301.569
37.98000 301.167
37.99000 295.775
38.00000 290.483
38.01000 291.291
38.02000 295.694
38.03000 299.989
38.04000 302.052
38.05000 303.227
38.06000 304.320
38.07000 302.354
38.08000 299.838
38.09000 296.814
38.10000 290.584
38.11000 283.793
38.12000 280.549
38.13000 291.752
38.14000 304.498
38.15000 313.964
38.16000 316.777
38.17000 318.670
38.18000 317.026
38.19000 308.850
38.20000 300.530
38.21000 297.297
38.22000 300.305
38.23000 303.323
38.24000 303.005
38.25000 300.069
38.26000 297.319
38.27000 302.258
38.28000 311.234
38.29000 319.907
38.30000 323.551
38.31000 325.409
38.32000 327.112
38.33000 326.540
38.34000 325.548
38.35000 325.455
38.36000 330.327
38.37000 335.960
38.38000 341.640
38.39000 347.492
38.40000 353.360
38.41000 357.574
38.42000 366.205
38.43000 372.960
38.44000 380.378
38.45000 388.888
38.46000 397.413
38.47000 410.723
38.48000 429.203
38.49000 447.602
38.50000 468.154
38.51000 489.975
38.52000 511.868
38.53000 535.929
38.54000 561.006
38.55000 586.333
38.56000 615.072
38.57000 644.893
38.58000 671.833
38.59000 708.672
38.60000 742.896
38.61000 776.177
38.62000 804.869
38.63000 832.951
38.64000 862.413
38.65000 896.319
38.66000 930.562
38.67000 954.280
38.68000 971.210
38.69000 983.772
38.70000 1000.130
38.71000 1022.040
38.72000 1043.997
38.73000 1055.809
38.74000 1058.010
38.75000 1060.193
38.76000 1060.466
38.77000 1059.572
38.78000 1058.045
38.79000 1041.904
38.80000 1019.647
38.81000 996.845
38.82000 967.857
38.83000 937.121
38.84000 909.822
38.85000 860.104
38.86000 813.389
38.87000 772.037
38.88000 753.733
38.89000 738.068
38.90000 719.482
38.91000 692.504
38.92000 665.003
38.93000 646.688
38.94000 593.221
38.95000 552.983
38.96000 515.785
38.97000 482.531
38.98000 449.319
38.99000 428.864
39.00000 419.044
39.01000 409.353
39.02000 396.420
39.03000 382.090
39.04000 367.705
39.05000 352.308
39.06000 336.532
39.07000 322.073
39.08000 320.300
39.09000 321.710
39.10000 322.939
39.11000 316.156
39.12000 309.245
39.13000 305.460
39.14000 313.597
39.15000 322.897
39.16000 327.407
39.17000 319.629
39.18000 311.233
39.19000 305.874
39.20000 288.737
39.21000 276.118
39.22000 272.100
39.23000 277.925
39.24000 283.725
39.25000 283.089
39.26000 277.708
39.27000 272.429
39.28000 272.176
39.29000 274.321
39.30000 276.668
39.31000 282.023
39.32000 288.382
39.33000 293.930
39.34000 292.786
39.35000 290.154
39.36000 287.905
39.37000 290.019
39.38000 292.320
39.39000 292.622
39.40000 286.145
39.41000 279.110
39.42000 275.058
39.43000 277.836
39.44000 280.883
39.45000 282.740
39.46000 272.855
39.47000 265.698
39.48000 262.567
39.49000 263.482
39.50000 264.408
39.51000 266.290
39.52000 268.797
39.53000 271.239
39.54000 274.954
39.55000 279.029
39.56000 282.664
39.57000 280.890
39.58000 277.507
39.59000 273.827
39.60000 268.025
39.61000 261.807
39.62000 256.609
39.63000 264.730
39.64000 272.829
39.65000 279.590
39.66000 282.305
39.67000 284.743
39.68000 284.765
39.69000 279.841
39.70000 274.772
39.71000 271.835
39.72000 270.207
39.73000 269.074
39.74000 270.669
39.75000 274.671
39.76000 278.556
39.77000 275.697
39.78000 268.912
39.79000 262.360
39.80000 263.628
39.81000 267.721
39.82000 271.298
39.83000 269.535
39.84000 266.360
39.85000 263.888
39.86000 265.788
39.87000 268.443
39.88000 270.610
39.89000 274.689
39.90000 278.190
39.91000 278.024
39.92000 267.964
39.93000 257.354
39.94000 252.933
39.95000 259.805
39.96000 266.916
39.97000 270.815
39.98000 266.559
39.99000 263.627
40.00000 262.808
40.01000 263.635
40.02000 264.441
40.03000 264.438
40.04000 264.014
40.05000 263.608
40.06000 262.043
40.07000 260.206
40.08000 258.237
40.09000 255.104
40.10000 251.697
40.11000 249.726
40.12000 255.565
40.13000 262.581
40.14000 268.163
40.15000 269.143
40.16000 269.602
40.17000 267.703
40.18000 260.120
40.19000 252.287
40.20000 249.233
40.21000 253.945
40.22000 258.766
40.23000 261.253
40.24000 271.010
40.25000 277.520
40.26000 276.218
40.27000 269.528
40.28000 262.856
40.29000 256.710
40.30000 250.806
40.31000 245.221
40.32000 250.764
40.33000 259.062
40.34000 266.079
40.35000 263.355
40.36000 258.609
40.37000 254.910
40.38000 256.236
40.39000 258.219
40.40000 259.754
40.41000 260.477
40.42000 261.004
40.43000 261.456
40.44000 261.749
40.45000 262.036
40.46000 262.244
40.47000 262.337
40.48000 262.428
40.49000 261.433
40.50000 259.423
40.51000 257.428
40.52000 256.575
40.53000 256.421
40.54000 256.261
40.55000 255.975
40.56000 255.638
40.57000 255.322
40.58000 256.615
40.59000 258.195
40.60000 259.553
40.61000 259.446
40.62000 259.071
40.63000 258.984
40.64000 260.116
40.65000 261.385
40.66000 262.337
40.67000 258.232
40.68000 254.783
40.69000 251.645
40.70000 249.106
40.71000 246.581
40.72000 247.559
40.73000 253.020
40.74000 258.490
40.75000 259.155
40.76000 255.879
40.77000 252.696
40.78000 253.837
40.79000 257.340
40.80000 260.436
40.81000 256.268
40.82000 249.418
40.83000 243.102
40.84000 247.848
40.85000 254.552
40.86000 259.732
40.87000 256.120
40.88000 251.100
40.89000 248.259
40.90000 253.623
40.91000 259.773
40.92000 264.243
40.93000 258.995
40.94000 254.593
40.95000 250.317
40.96000 246.258
40.97000 242.203
40.98000 243.102
40.99000 249.593
41.00000 256.065
41.01000 252.061
41.02000 240.534
41.03000 229.447
41.04000 233.061
41.05000 243.835
41.06000 254.038
41.07000 255.914
41.08000 255.048
41.09000 254.261
41.10000 250.200
41.11000 245.977
41.12000 243.010
41.13000 246.406
41.14000 250.691
41.15000 254.316
41.16000 255.734
41.17000 256.974
41.18000 257.843
41.19000 250.789
41.20000 245.221
41.21000 243.210
41.22000 246.615
41.23000 250.077
41.24000 251.454
41.25000 250.764
41.26000 250.080
41.27000 247.251
41.28000 243.104
41.29000 239.392
41.30000 246.627
41.31000 258.624
41.32000 269.483
41.33000 266.594
41.34000 259.667
41.35000 253.479
41.36000 245.651
41.37000 238.555
41.38000 233.497
41.39000 237.568
41.40000 242.739
41.41000 246.744
41.42000 247.267
41.43000 247.557
41.44000 247.753
41.45000 245.803
41.46000 244.306
41.47000 240.400
41.48000 233.242
41.49000 226.073
41.50000 224.785
41.51000 228.612
41.52000 232.397
41.53000 241.279
41.54000 252.810
41.55000 263.723
41.56000 262.440
41.57000 256.420
41.58000 251.008
41.59000 251.780
41.60000 254.168
41.61000 256.264
41.62000 246.582
41.63000 236.545
41.64000 229.576
41.65000 234.789
41.66000 241.260
41.67000 245.953
41.68000 245.909
41.69000 245.608
41.70000 245.413
41.71000 242.303
41.72000 239.983
41.73000 237.166
41.74000 233.755
41.75000 230.353
41.76000 229.481
41.77000 230.553
41.78000 231.606
41.79000 230.969
41.80000 229.514
41.81000 228.191
41.82000 228.965
41.83000 230.465
41.84000 231.916
41.85000 232.929
41.86000 233.842
41.87000 234.627
41.88000 236.575
41.89000 238.370
41.90000 239.972
41.91000 240.893
41.92000 241.754
41.93000 241.758
41.94000 239.722
41.95000 237.600
41.96000 236.285
41.97000 238.403
41.98000 239.958
41.99000 240.294
42.00000 239.349
42.01000 238.427
42.02000 240.044
42.03000 243.390
42.04000 246.658
42.05000 247.285
42.06000 246.730
42.07000 246.288
42.08000 247.310
42.09000 248.786
42.10000 250.135
42.11000 250.539
42.12000 250.749
42.13000 250.926
42.14000 254.536
42.15000 257.918
42.16000 259.478
42.17000 255.314
42.18000 250.732
42.19000 245.222
42.20000 237.738
42.21000 230.189
42.22000 225.738
42.23000 231.449
42.24000 235.535
42.25000 238.960
42.26000 241.776
42.27000 244.583
42.28000 246.768
42.29000 248.575
42.30000 250.325
42.31000 247.560
42.32000 243.200
42.33000 238.805
42.34000 234.030
42.35000 229.150
42.36000 225.113
42.37000 226.564
42.38000 229.005
42.39000 231.014
42.40000 230.058
42.41000 229.002
42.42000 228.463
42.43000 229.376
42.44000 230.375
42.45000 232.430
42.46000 236.487
42.47000 240.592
42.48000 242.886
42.49000 248.286
42.50000 252.016
42.51000 248.981
42.52000 240.458
42.53000 232.050
42.54000 228.813
42.55000 228.364
42.56000 227.933
42.57000 232.325
42.58000 238.076
42.59000 242.968
42.60000 239.871
42.61000 234.819
42.62000 230.347
42.63000 229.168
42.64000 228.510
42.65000 227.982
42.66000 232.740
42.67000 236.998
42.68000 239.782
42.69000 238.876
42.70000 237.794
42.71000 235.820
42.72000 232.337
42.73000 228.830
42.74000 226.982
42.75000 232.172
42.76000 235.668
42.77000 234.798
42.78000 230.792
42.79000 226.852
42.80000 225.015
42.81000 224.190
42.82000 223.407
42.83000 223.910
42.84000 224.761
42.85000 225.664
42.86000 226.985
42.87000 228.397
42.88000 229.622
42.89000 229.906
42.90000 230.061
42.91000 230.182
42.92000 228.124
42.93000 226.345
42.94000 226.680
42.95000 231.739
42.96000 236.974
42.97000 238.792
42.98000 235.471
42.99000 232.099
43.00000 229.903
43.01000 228.855
43.02000 227.816
43.03000 227.508
43.04000 227.667
43.05000 227.683
43.06000 224.213
43.07000 219.245
43.08000 214.582
43.09000 214.418
43.10000 215.459
43.11000 216.256
43.12000 215.370
43.13000 214.163
43.14000 214.396
43.15000 221.001
43.16000 228.360
43.17000 233.943
43.18000 226.339
43.19000 219.688
43.20000 216.013
43.21000 218.279
43.22000 220.710
43.23000 224.645
43.24000 230.588
43.25000 236.536
43.26000 237.438
43.27000 234.016
43.28000 230.588
43.29000 226.843
43.30000 222.918
43.31000 219.540
43.32000 226.707
43.33000 237.920
43.34000 248.308
43.35000 242.263
43.36000 233.014
43.37000 225.114
43.38000 225.366
43.39000 226.983
43.40000 228.573
43.41000 230.054
43.42000 231.523
43.43000 232.603
43.44000 231.912
43.45000 231.305
43.46000 229.645
43.47000 226.111
43.48000 222.540
43.49000 219.356
43.50000 216.626
43.51000 213.904
43.52000 213.711
43.53000 215.424
43.54000 217.079
43.55000 216.619
43.56000 215.089
43.57000 213.481
43.58000 210.662
43.59000 207.427
43.60000 204.474
43.61000 213.529
43.62000 224.002
43.63000 232.064
43.64000 227.357
43.65000 220.782
43.66000 216.376
43.67000 219.526
43.68000 223.323
43.69000 226.019
43.70000 223.667
43.71000 221.716
43.72000 220.635
43.73000 220.934
43.74000 221.249
43.75000 221.526
43.76000 221.763
43.77000 221.999
43.78000 223.901
43.79000 226.883
43.80000 229.695
43.81000 227.804
43.82000 223.788
43.83000 219.638
43.84000 213.750
43.85000 207.331
43.86000 201.563
43.87000 207.459
43.88000 214.683
43.89000 221.224
43.90000 224.574
43.91000 227.520
43.92000 228.381
43.93000 222.765
43.94000 216.688
43.95000 212.530
43.96000 217.021
43.97000 220.589
43.98000 223.967
43.99000 227.078
44.00000 230.185
44.01000 228.700
44.02000 223.043
44.03000 217.441
44.04000 217.197
44.05000 220.093
44.06000 222.916
44.07000 224.162
44.08000 224.773
44.09000 225.048
44.10000 221.716
44.11000 217.403
44.12000 213.594
44.13000 215.440
44.14000 217.901
44.15000 219.617
44.16000 218.250
44.17000 216.549
44.18000 216.402
44.19000 220.564
44.20000 224.978
44.21000 227.878
44.22000 221.071
44.23000 215.897
44.24000 213.495
44.25000 214.547
44.26000 215.611
44.27000 217.052
44.28000 218.796
44.29000 220.514
44.30000 225.175
44.31000 231.219
44.32000 236.702
44.33000 232.622
44.34000 225.097
44.35000 218.165
44.36000 216.654
44.37000 216.453
44.38000 216.278
44.39000 215.440
44.40000 214.639
44.41000 214.327
44.42000 215.810
44.43000 217.458
44.44000 220.586
44.45000 227.368
44.46000 234.321
44.47000 238.694
44.48000 236.017
44.49000 234.001
44.50000 231.174
44.51000 227.455
44.52000 223.752
44.53000 222.377
44.54000 222.652
44.55000 222.921
44.56000 227.997
44.57000 235.066
44.58000 241.654
44.59000 241.530
44.60000 239.247
44.61000 236.904
44.62000 234.078
44.63000 231.150
44.64000 228.665
44.65000 228.603
44.66000 228.826
44.67000 229.960
44.68000 234.073
44.69000 238.417
44.70000 240.880
44.71000 239.189
44.72000 237.348
44.73000 236.244
44.74000 236.905
44.75000 237.387
44.76000 239.835
44.77000 244.178
44.78000 248.509
44.79000 251.829
44.80000 254.513
44.81000 257.121
44.82000 258.904
44.83000 260.265
44.84000 261.498
44.85000 261.251
44.86000 260.580
44.87000 260.575
44.88000 265.111
44.89000 270.502
44.90000 274.976
44.91000 277.471
44.92000 279.342
44.93000 279.862
44.94000 276.449
44.95000 272.784
44.96000 272.842
44.97000 280.240
44.98000 287.835
44.99000 292.159
45.00000 299.196
45.01000 304.110
45.02000 308.529
45.03000 312.529
45.04000 316.425
45.05000 315.008
45.06000 310.614
45.07000 306.382
45.08000 306.831
45.09000 308.918
45.10000 311.202
45.11000 315.428
45.12000 320.149
45.13000 324.170
45.14000 324.029
45.15000 323.201
45.16000 322.530
45.17000 317.861
45.18000 313.735
45.19000 310.237
45.20000 308.371
45.21000 306.589
45.22000 305.813
45.23000 306.807
45.24000 307.833
45.25000 308.385
45.26000 295.307
45.27000 286.393
45.28000 284.769
45.29000 288.597
45.30000 292.271
45.31000 290.412
45.32000 285.786
45.33000 281.377
45.34000 273.634
45.35000 265.409
45.36000 257.962
45.37000 257.052
45.38000 257.618
45.39000 257.900
45.40000 256.698
45.41000 255.282
45.42000 254.165
45.43000 248.377
45.44000 243.420
45.45000 240.204
45.46000 241.033
45.47000 242.026
45.48000 244.318
45.49000 248.644
45.50000 252.995
45.51000 255.193
45.52000 242.101
45.53000 233.394
45.54000 229.977
45.55000 230.069
45.56000 230.098
45.57000 228.416
45.58000 225.972
45.59000 223.668
45.60000 224.176
45.61000 225.418
45.62000 226.083
45.63000 222.566
45.64000 218.215
45.65000 214.681
45.66000 214.915
45.67000 215.619
45.68000 216.159
45.69000 207.830
45.70000 200.763
45.71000 196.292
45.72000 197.205
45.73000 198.283
45.74000 200.681
45.75000 204.915
45.76000 209.159
45.77000 209.244
45.78000 205.607
45.79000 202.033
45.80000 202.332
45.81000 204.916
45.82000 207.560
45.83000 211.438
45.84000 215.808
45.85000 219.874
45.86000 217.520
45.87000 213.834
45.88000 210.396
45.89000 208.516
45.90000 206.910
45.91000 206.779
45.92000 212.668
45.93000 219.201
45.94000 224.056
45.95000 221.128
45.96000 218.508
45.97000 214.347
45.98000 207.339
45.99000 200.267
46.00000 200.297
46.01000 209.056
46.02000 217.822
46.03000 219.646
46.04000 216.005
46.05000 212.382
46.06000 209.564
46.07000 207.169
46.08000 205.045
46.09000 207.456
46.10000 211.480
46.11000 215.173
46.12000 210.096
46.13000 203.706
46.14000 198.292
46.15000 198.273
46.16000 199.081
46.17000 199.793
46.18000 200.157
46.19000 200.490
46.20000 200.730
46.21000 211.060
46.22000 219.315
46.23000 221.498
46.24000 213.671
46.25000 205.697
46.26000 200.824
46.27000 199.309
46.28000 197.803
46.29000 200.474
46.30000 206.010
46.31000 211.397
46.32000 212.297
46.33000 211.090
46.34000 210.192
46.35000 213.519
46.36000 218.188
46.37000 222.406
46.38000 217.041
46.39000 210.544
46.40000 205.796
46.41000 209.560
46.42000 214.457
46.43000 216.275
46.44000 208.155
46.45000 199.280
46.46000 193.129
46.47000 197.060
46.48000 200.285
46.49000 204.261
46.50000 209.337
46.51000 214.423
46.52000 213.690
46.53000 207.434
46.54000 201.230
46.55000 201.939
46.56000 206.858
46.57000 211.688
46.58000 214.474
46.59000 216.404
46.60000 217.717
46.61000 211.986
46.62000 204.263
46.63000 197.402
46.64000 199.835
46.65000 203.442
46.66000 205.699
46.67000 202.141
46.68000 197.915
46.69000 194.709
46.70000 194.437
46.71000 194.349
46.72000 194.290
46.73000 193.431
46.74000 192.780
46.75000 193.466
46.76000 195.889
46.77000 198.314
46.78000 198.435
46.79000 196.630
46.80000 194.849
46.81000 195.538
46.82000 197.540
46.83000 199.566
46.84000 202.048
46.85000 204.700
46.86000 206.934
46.87000 205.134
46.88000 202.319
46.89000 199.865
46.90000 198.389
46.91000 197.264
46.92000 196.547
46.93000 197.389
46.94000 198.383
46.95000 199.431
46.96000 200.615
46.97000 201.806
46.98000 202.567
46.99000 200.148
47.00000 198.347
47.01000 195.831
47.02000 192.495
47.03000 189.176
47.04000 188.882
47.05000 190.823
47.06000 192.727
47.07000 195.526
47.08000 198.648
47.09000 201.538
47.10000 200.975
47.11000 199.259
47.12000 197.668
47.13000 197.114
47.14000 196.792
47.15000 196.516
47.16000 192.989
47.17000 189.628
47.18000 187.330
47.19000 188.646
47.20000 190.260
47.21000 192.830
47.22000 197.596
47.23000 202.449
47.24000 205.408
47.25000 209.572
47.26000 212.557
47.27000 210.778
47.28000 204.200
47.29000 197.676
47.30000 196.097
47.31000 197.759
47.32000 199.378
47.33000 196.446
47.34000 191.738
47.35000 187.538
47.36000 189.617
47.37000 193.567
47.38000 196.732
47.39000 194.294
47.40000 190.754
47.41000 187.793
47.42000 190.358
47.43000 193.052
47.44000 195.846
47.45000 198.943
47.46000 202.061
47.47000 202.170
47.48000 196.113
47.49000 189.873
47.50000 186.255
47.51000 186.962
47.52000 187.477
47.53000 189.274
47.54000 192.204
47.55000 195.131
47.56000 197.910
47.57000 200.602
47.58000 203.201
47.59000 200.344
47.60000 195.624
47.61000 191.324
47.62000 191.372
47.63000 192.572
47.64000 194.107
47.65000 197.728
47.66000 201.709
47.67000 204.960
47.68000 198.631
47.69000 192.626
47.70000 188.375
47.71000 188.860
47.72000 189.609
47.73000 191.368
47.74000 194.975
47.75000 198.622
47.76000 200.622
47.77000 195.434
47.78000 191.855
47.79000 188.763
47.80000 186.051
47.81000 183.329
47.82000 180.227
47.83000 176.927
47.84000 173.771
47.85000 175.602
47.86000 178.939
47.87000 182.414
47.88000 187.110
47.89000 192.092
47.90000 196.075
47.91000 194.605
47.92000 192.311
47.93000 190.486
47.94000 185.932
47.95000 182.065
47.96000 179.555
47.97000 180.318
47.98000 181.227
47.99000 182.644
48.00000 184.890
48.01000 187.148
48.02000 188.314
48.03000 184.364
48.04000 181.710
48.05000 180.036
48.06000 179.041
48.07000 178.159
48.08000 180.597
48.09000 184.575
48.10000 188.340
48.11000 187.402
48.12000 185.184
48.13000 183.284
48.14000 183.817
48.15000 184.855
48.16000 186.046
48.17000 187.970
48.18000 189.990
48.19000 191.553
48.20000 187.626
48.21000 184.183
48.22000 182.287
48.23000 183.725
48.24000 185.276
48.25000 183.845
48.26000 178.099
48.27000 172.319
48.28000 170.193
48.29000 171.486
48.30000 172.818
48.31000 176.930
48.32000 182.748
48.33000 188.404
48.34000 190.405
48.35000 190.892
48.36000 191.347
48.37000 184.935
48.38000 177.374
48.39000 171.694
48.40000 178.457
48.41000 187.498
48.42000 193.901
48.43000 189.089
48.44000 183.011
48.45000 178.446
48.46000 177.176
48.47000 176.342
48.48000 177.164
48.49000 181.172
48.50000 185.260
48.51000 187.338
48.52000 186.842
48.53000 186.337
48.54000 184.983
48.55000 182.937
48.56000 180.935
48.57000 180.957
48.58000 182.087
48.59000 183.098
48.60000 181.965
48.61000 180.038
48.62000 178.262
48.63000 179.113
48.64000 180.459
48.65000 181.532
48.66000 181.022
48.67000 180.259
48.68000 178.881
48.69000 175.183
48.70000 171.261
48.71000 168.410
48.72000 174.549
48.73000 179.611
48.74000 184.816
48.75000 190.264
48.76000 195.717
48.77000 194.197
48.78000 184.790
48.79000 175.410
48.80000 172.379
48.81000 173.963
48.82000 175.574
48.83000 178.083
48.84000 181.030
48.85000 183.840
48.86000 184.650
48.87000 184.799
48.88000 184.935
48.89000 182.545
48.90000 179.942
48.91000 177.681
48.92000 177.161
48.93000 176.885
48.94000 176.735
48.95000 177.010
48.96000 177.321
48.97000 177.538
48.98000 180.172
48.99000 182.235
49.00000 183.406
49.01000 183.214
49.02000 183.007
49.03000 180.517
49.04000 175.761
49.05000 171.037
49.06000 169.936
49.07000 171.159
49.08000 172.456
49.09000 175.638
49.10000 179.641
49.11000 183.400
49.12000 184.212
49.13000 184.156
49.14000 184.106
49.15000 187.521
49.16000 191.083
49.17000 192.791
49.18000 186.186
49.19000 178.576
49.20000 173.223
49.21000 174.618
49.22000 176.465
49.23000 177.713
49.24000 179.458
49.25000 180.767
49.26000 181.770
49.27000 182.358
49.28000 182.943
49.29000 184.008
49.30000 185.492
49.31000 186.958
49.32000 188.303
49.33000 189.549
49.34000 190.508
49.35000 185.801
49.36000 178.888
49.37000 172.377
49.38000 169.959
49.39000 168.612
49.40000 167.430
49.41000 171.540
49.42000 175.845
49.43000 178.314
49.44000 173.479
49.45000 167.889
49.46000 164.822
49.47000 168.492
49.48000 172.528
49.49000 175.144
49.50000 176.469
49.51000 177.420
49.52000 177.753
49.53000 177.347
49.54000 176.954
49.55000 179.947
49.56000 185.548
49.57000 191.054
49.58000 190.454
49.59000 186.842
49.60000 183.451
49.61000 183.581
49.62000 184.933
49.63000 185.901
49.64000 183.516
49.65000 180.352
49.66000 177.630
49.67000 187.009
49.68000 196.479
49.69000 202.179
49.70000 194.556
49.71000 185.768
49.72000 178.688
49.73000 175.681
49.74000 172.850
49.75000 171.096
49.76000 168.334
49.77000 166.339
49.78000 169.097
49.79000 176.862
49.80000 184.557
49.81000 184.231
49.82000 178.436
49.83000 172.777
49.84000 174.420
49.85000 179.194
49.86000 183.468
49.87000 181.170
49.88000 176.837
49.89000 173.045
49.90000 173.304
49.91000 174.394
49.92000 175.313
49.93000 174.856
49.94000 174.327
49.95000 174.828
49.96000 178.574
49.97000 182.557
49.98000 184.509
49.99000 182.139
50.00000 179.627
50.01000 178.144
50.02000 179.912
50.03000 181.177
50.04000 179.006
50.05000 173.665
50.06000 168.387
50.07000 167.425
50.08000 169.079
50.09000 170.682
50.10000 172.846
50.11000 175.112
50.12000 177.014
50.13000 174.910
50.14000 171.702
50.15000 169.366
50.16000 172.707
50.17000 177.074
50.18000 180.669
50.19000 184.099
50.20000 186.906
50.21000 188.243
50.22000 185.453
50.23000 182.417
50.24000 181.848
50.25000 185.967
50.26000 190.199
50.27000 192.566
50.28000 186.370
50.29000 182.059
50.30000 178.280
50.31000 174.936
50.32000 171.707
50.33000 173.707
50.34000 178.533
50.35000 183.165
50.36000 184.976
50.37000 185.706
50.38000 186.264
50.39000 185.213
50.40000 183.769
50.41000 182.535
50.42000 182.504
50.43000 182.663
50.44000 182.791
50.45000 189.788
50.46000 195.982
50.47000 201.999
50.48000 207.568
50.49000 213.115
50.50000 215.054
50.51000 210.883
50.52000 206.611
50.53000 204.358
50.54000 212.558
50.55000 218.096
50.56000 218.522
50.57000 215.271
50.58000 212.218
50.59000 215.581
50.60000 222.036
50.61000 228.168
50.62000 231.406
50.63000 233.527
50.64000 235.135
50.65000 232.642
50.66000 229.259
50.67000 227.446
50.68000 233.507
50.69000 240.652
50.70000 246.236
50.71000 249.329
50.72000 251.640
50.73000 253.520
50.74000 254.435
50.75000 255.315
50.76000 253.285
50.77000 246.871
50.78000 240.414
50.79000 240.695
50.80000 247.569
50.81000 254.303
50.82000 249.271
50.83000 236.724
50.84000 224.625
50.85000 223.552
50.86000 227.223
50.87000 230.670
50.88000 226.791
50.89000 221.314
50.90000 216.195
50.91000 213.553
50.92000 211.386
50.93000 208.997
50.94000 205.626
50.95000 202.138
50.96000 199.490
50.97000 198.507
50.98000 197.820
50.99000 195.924
51.00000 191.613
51.01000 187.235
51.02000 184.494
51.03000 183.942
51.04000 183.402
51.05000 181.725
51.06000 179.076
51.07000 176.467
51.08000 175.936
51.09000 176.589
51.10000 177.112
51.11000 175.143
51.12000 172.216
51.13000 169.505
51.14000 169.382
51.15000 169.873
51.16000 170.671
51.17000 173.331
51.18000 176.304
51.19000 177.782
51.20000 173.397
51.21000 168.416
51.22000 164.754
51.23000 166.220
51.24000 167.564
51.25000 167.826
51.26000 166.159
51.27000 164.454
51.28000 163.471
51.29000 163.341
51.30000 163.213
51.31000 160.631
51.32000 156.214
51.33000 152.019
51.34000 156.103
51.35000 164.385
51.36000 172.177
51.37000 172.309
51.38000 169.813
51.39000 167.533
51.40000 164.842
51.41000 162.369
51.42000 159.916
51.43000 157.568
51.44000 155.236
51.45000 154.115
51.46000 157.223
51.47000 160.695
51.48000 163.162
51.49000 163.085
51.50000 162.945
51.51000 164.778
51.52000 169.744
51.53000 174.750
51.54000 174.295
51.55000 168.174
51.56000 162.086
51.57000 160.640
51.58000 162.296
51.59000 163.901
51.60000 164.062
51.61000 163.570
51.62000 163.257
51.63000 165.255
51.64000 167.961
51.65000 170.392
51.66000 168.867
51.67000 166.830
51.68000 164.837
51.69000 163.052
51.70000 161.293
51.71000 160.131
51.72000 160.824
51.73000 161.650
51.74000 162.215
51.75000 157.560
51.76000 153.950
51.77000 153.014
51.78000 155.849
51.79000 158.710
51.80000 162.176
51.81000 166.191
51.82000 170.168
51.83000 167.961
51.84000 162.173
51.85000 156.606
51.86000 155.766
51.87000 156.837
51.88000 158.018
51.89000 160.393
51.90000 163.093
51.91000 165.479
51.92000 170.903
51.93000 176.055
51.94000 178.534
51.95000 169.953
51.96000 160.165
51.97000 154.331
51.98000 159.466
51.99000 165.244
52.00000 169.043
52.01000 160.203
52.02000 153.480
52.03000 150.750
52.04000 153.002
52.05000 155.273
52.06000 158.496
52.07000 162.484
52.08000 166.412
52.09000 167.750
52.10000 167.707
52.11000 167.669
52.12000 167.719
52.13000 167.800
52.14000 167.646
52.15000 165.332
52.16000 162.495
52.17000 160.036
52.18000 157.230
52.19000 154.795
52.20000 151.733
52.21000 146.364
52.22000 140.782
52.23000 139.187
52.24000 147.468
52.25000 156.210
52.26000 161.713
52.27000 160.825
52.28000 160.110
52.29000 158.799
52.30000 156.831
52.31000 154.877
52.32000 154.825
52.33000 156.124
52.34000 157.396
52.35000 158.928
52.36000 160.518
52.37000 161.956
52.38000 161.267
52.39000 159.893
52.40000 159.074
52.41000 162.625
52.42000 167.111
52.43000 170.919
52.44000 165.656
52.45000 160.210
52.46000 156.653
52.47000 159.281
52.48000 162.391
52.49000 162.899
52.50000 157.652
52.51000 152.197
52.52000 148.923
52.53000 155.709
52.54000 160.598
52.55000 164.746
52.56000 168.179
52.57000 171.541
52.58000 169.254
52.59000 163.405
52.60000 157.722
52.61000 156.122
52.62000 156.252
52.63000 156.392
52.64000 156.661
52.65000 156.966
52.66000 156.975
52.67000 154.959
52.68000 152.562
52.69000 150.572
52.70000 156.511
52.71000 162.186
52.72000 166.334
52.73000 166.025
52.74000 165.429
52.75000 164.587
52.76000 163.261
52.77000 161.922
52.78000 161.159
52.79000 161.566
52.80000 161.853
52.81000 161.745
52.82000 161.300
52.83000 160.875
52.84000 161.393
52.85000 162.442
52.86000 163.453
52.87000 163.076
52.88000 162.228
52.89000 161.172
52.90000 158.071
52.91000 154.448
52.92000 150.926
52.93000 147.999
52.94000 145.171
52.95000 142.881
52.96000 145.137
52.97000 147.345
52.98000 149.944
52.99000 153.561
53.00000 157.232
53.01000 160.685
53.02000 163.756
53.03000 166.820
53.04000 168.470
53.05000 169.413
53.06000 170.038
53.07000 166.832
53.08000 160.754
53.09000 154.813
53.10000 153.806
53.11000 155.270
53.12000 156.666
53.13000 155.244
53.14000 153.038
53.15000 151.191
53.16000 152.358
53.17000 154.208
53.18000 155.676
53.19000 155.153
53.20000 154.343
53.21000 153.703
53.22000 153.072
53.23000 152.566
53.24000 153.142
53.25000 156.235
53.26000 159.430
53.27000 160.909
53.28000 159.696
53.29000 158.451
53.30000 157.822
53.31000 165.905
53.32000 171.259
53.33000 170.948
53.34000 166.871
53.35000 163.052
53.36000 166.178
53.37000 172.409
53.38000 178.282
53.39000 174.557
53.40000 168.490
53.41000 163.548
53.42000 166.784
53.43000 171.654
53.44000 175.066
53.45000 171.747
53.46000 167.586
53.47000 164.395
53.48000 159.735
53.49000 155.972
53.50000 155.370
53.51000 161.336
53.52000 167.504
53.53000 170.297
53.54000 168.392
53.55000 166.456
53.56000 163.171
53.57000 158.678
53.58000 154.254
53.59000 154.034
53.60000 156.301
53.61000 158.502
53.62000 159.347
53.63000 159.650
53.64000 159.932
53.65000 158.128
53.66000 155.991
53.67000 154.353
53.68000 155.872
53.69000 157.946
53.70000 159.023
53.71000 156.027
53.72000 152.594
53.73000 150.042
53.74000 149.904
53.75000 149.905
53.76000 151.698
53.77000 156.814
53.78000 162.003
53.79000 164.111
53.80000 162.424
53.81000 160.730
53.82000 158.258
53.83000 155.186
53.84000 152.192
53.85000 152.515
53.86000 154.584
53.87000 156.765
53.88000 160.813
53.89000 165.527
53.90000 169.855
53.91000 167.312
53.92000 163.582
53.93000 159.757
53.94000 155.402
53.95000 150.967
53.96000 147.666
53.97000 148.489
53.98000 149.687
53.99000 150.548
54.00000 155.966
54.01000 160.271
54.02000 162.895
54.03000 162.741
54.04000 162.547
54.05000 161.152
54.06000 158.455
54.07000 155.770
54.08000 155.298
54.09000 156.365
54.10000 157.576
54.11000 163.152
54.12000 170.779
54.13000 177.452
54.14000 171.023
54.15000 160.426
54.16000 150.850
54.17000 152.520
54.18000 156.079
54.19000 158.815
54.20000 157.542
54.21000 155.734
54.22000 153.905
54.23000 152.010
54.24000 150.110
54.25000 148.793
54.26000 152.811
54.27000 155.977
54.28000 157.089
54.29000 155.183
54.30000 153.250
54.31000 153.390
54.32000 155.499
54.33000 157.592
54.34000 157.000
54.35000 154.777
54.36000 152.718
54.37000 154.469
54.38000 157.820
54.39000 160.735
54.40000 158.655
54.41000 155.161
54.42000 152.055
54.43000 151.805
54.44000 152.048
54.45000 152.374
54.46000 153.056
54.47000 153.778
54.48000 153.723
54.49000 151.423
54.50000 148.983
54.51000 147.355
54.52000 151.558
54.53000 154.782
54.54000 155.642
54.55000 153.424
54.56000 151.200
54.57000 152.106
54.58000 155.630
54.59000 159.108
54.60000 158.549
54.61000 155.824
54.62000 153.439
54.63000 157.309
54.64000 163.526
54.65000 168.475
54.66000 161.153
54.67000 150.741
54.68000 141.658
54.69000 146.659
54.70000 152.902
54.71000 156.818
54.72000 151.830
54.73000 145.968
54.74000 144.128
54.75000 152.638
54.76000 161.672
54.77000 167.445
54.78000 158.592
54.79000 151.957
54.80000 150.405
54.81000 154.692
54.82000 158.970
54.83000 160.493
54.84000 159.978
54.85000 159.472
54.86000 157.912
54.87000 155.906
54.88000 154.110
54.89000 155.442
54.90000 157.821
54.91000 159.730
54.92000 157.734
54.93000 154.867
54.94000 152.415
54.95000 153.403
54.96000 154.649
54.97000 155.246
54.98000 153.637
54.99000 151.846
55.00000 151.226
55.01000 153.298
55.02000 155.476
55.03000 156.805
55.04000 153.202
55.05000 150.586
55.06000 151.186
55.07000 155.031
55.08000 158.859
55.09000 160.994
55.10000 162.017
55.11000 163.014
55.12000 160.442
55.13000 156.486
55.14000 152.682
55.15000 150.775
55.16000 149.434
55.17000 148.736
55.18000 152.649
55.19000 157.470
55.20000 161.503
55.21000 157.371
55.22000 153.104
55.23000 150.828
55.24000 154.593
55.25000 158.773
55.26000 161.766
55.27000 162.323
55.28000 162.806
55.29000 163.087
55.30000 164.957
55.31000 166.277
55.32000 168.545
55.33000 171.654
55.34000 174.727
55.35000 175.646
55.36000 175.308
55.37000 174.982
55.38000 173.689
55.39000 172.111
55.40000 170.721
55.41000 171.293
55.42000 172.386
55.43000 173.604
55.44000 175.597
55.45000 177.725
55.46000 179.463
55.47000 187.491
55.48000 194.605
55.49000 198.503
55.50000 193.692
55.51000 188.395
55.52000 185.189
55.53000 185.811
55.54000 186.514
55.55000 186.901
55.56000 194.181
55.57000 199.201
55.58000 203.801
55.59000 208.074
55.60000 212.364
55.61000 217.299
55.62000 222.571
55.63000 227.615
55.64000 238.712
55.65000 251.033
55.66000 262.393
55.67000 265.233
55.68000 266.066
55.69000 270.075
55.70000 291.440
55.71000 315.432
55.72000 334.534
55.73000 341.146
55.74000 345.576
55.75000 354.993
55.76000 376.466
55.77000 398.473
55.78000 417.414
55.79000 431.355
55.80000 445.226
55.81000 452.396
55.82000 483.186
55.83000 503.902
55.84000 519.060
55.85000 530.371
55.86000 541.563
55.87000 549.237
55.88000 555.276
55.89000 560.992
55.90000 581.752
55.91000 605.192
55.92000 626.665
55.93000 633.119
55.94000 636.444
55.95000 639.248
55.96000 639.546
55.97000 639.514
55.98000 639.490
55.99000 631.484
56.00000 624.653
56.01000 616.666
56.02000 606.182
56.03000 595.613
56.04000 584.345
56.05000 572.061
56.06000 559.771
56.07000 547.016
56.08000 533.828
56.09000 520.562
56.10000 501.651
56.11000 479.269
56.12000 457.427
56.13000 447.827
56.14000 443.306
56.15000 439.079
56.16000 419.047
56.17000 396.846
56.18000 374.802
56.19000 353.798
56.20000 332.985
56.21000 314.481
56.22000 305.810
56.23000 298.251
56.24000 292.572
56.25000 293.817
56.26000 295.123
56.27000 293.335
56.28000 285.587
56.29000 277.690
56.30000 267.848
56.31000 255.510
56.32000 243.177
56.33000 231.018
56.34000 219.041
56.35000 207.227
56.36000 203.057
56.37000 203.074
56.38000 202.880
56.39000 198.888
56.40000 193.488
56.41000 188.507
56.42000 182.163
56.43000 176.177
56.44000 171.521
56.45000 174.574
56.46000 178.867
56.47000 181.940
56.48000 180.402
56.49000 178.420
56.50000 176.978
56.51000 166.162
56.52000 157.483
56.53000 153.971
56.54000 159.331
56.55000 164.845
56.56000 165.644
56.57000 161.100
56.58000 156.567
56.59000 154.672
56.60000 154.704
56.61000 154.699
56.62000 153.460
56.63000 151.617
56.64000 150.193
56.65000 154.901
56.66000 161.636
56.67000 167.756
56.68000 162.269
56.69000 155.161
56.70000 149.241
56.71000 149.370
56.72000 150.346
56.73000 151.253
56.74000 151.921
56.75000 152.571
56.76000 153.027
56.77000 150.387
56.78000 148.298
56.79000 150.209
56.80000 158.234
56.81000 166.324
56.82000 164.962
56.83000 154.199
56.84000 143.509
56.85000 142.273
56.86000 147.088
56.87000 151.717
56.88000 151.617
56.89000 149.452
56.90000 147.321
56.91000 145.596
56.92000 143.990
56.93000 142.555
56.94000 144.484
56.95000 146.735
56.96000 148.297
56.97000 146.759
56.98000 144.847
56.99000 144.270
57.00000 147.696
57.01000 151.390
57.02000 153.888
57.03000 153.869
57.04000 153.800
57.05000 152.276
57.06000 148.777
57.07000 145.271
57.08000 145.484
57.09000 148.943
57.10000 152.364
57.11000 152.014
57.12000 149.549
57.13000 147.310
57.14000 149.564
57.15000 153.569
57.16000 156.627
57.17000 149.990
57.18000 140.811
57.19000 132.752
57.20000 131.057
57.21000 130.533
57.22000 131.298
57.23000 137.199
57.24000 143.633
57.25000 148.161
57.26000 147.589
57.27000 146.740
57.28000 146.189
57.29000 146.822
57.30000 147.303
57.31000 146.631
57.32000 144.577
57.33000 142.529
57.34000 142.409
57.35000 143.776
57.36000 145.120
57.37000 144.921
57.38000 143.961
57.39000 142.842
57.40000 139.168
57.41000 134.606
57.42000 130.644
57.43000 131.913
57.44000 134.399
57.45000 136.540
57.46000 137.534
57.47000 138.231
57.48000 139.390
57.49000 142.181
57.50000 145.115
57.51000 146.766
57.52000 145.353
57.53000 143.807
57.54000 142.849
57.55000 147.672
57.56000 151.198
57.57000 149.487
57.58000 142.254
57.59000 135.074
57.60000 134.251
57.61000 137.771
57.62000 141.208
57.63000 144.914
57.64000 148.578
57.65000 151.873
57.66000 150.295
57.67000 147.207
57.68000 144.340
57.69000 143.139
57.70000 142.280
57.71000 141.556
57.72000 139.196
57.73000 137.049
57.74000 135.593
57.75000 136.319
57.76000 137.205
57.77000 139.603
57.78000 145.226
57.79000 150.956
57.80000 154.340
57.81000 151.109
57.82000 148.791
57.83000 147.500
57.84000 147.158
57.85000 146.798
57.86000 145.237
57.87000 142.946
57.88000 140.727
57.89000 143.109
57.90000 147.148
57.91000 150.777
57.92000 149.880
57.93000 147.732
57.94000 145.409
57.95000 141.944
57.96000 138.271
57.97000 135.246
57.98000 136.957
57.99000 138.797
58.00000 139.824
58.01000 138.561
58.02000 137.160
58.03000 137.002
58.04000 139.207
58.05000 141.470
58.06000 142.736
58.07000 138.408
58.08000 135.402
58.09000 134.642
58.10000 135.712
58.11000 136.721
58.12000 134.944
58.13000 131.661
58.14000 128.508
58.15000 129.021
58.16000 130.755
58.17000 132.687
58.18000 136.475
58.19000 140.718
58.20000 144.275
58.21000 143.909
58.22000 142.922
58.23000 142.129
58.24000 141.038
58.25000 140.131
58.26000 139.881
58.27000 141.281
58.28000 142.761
58.29000 143.803
58.30000 144.102
58.31000 144.389
58.32000 144.541
58.33000 143.520
58.34000 142.827
58.35000 142.263
58.36000 141.793
58.37000 141.267
58.38000 138.945
58.39000 135.757
58.40000 132.727
58.41000 134.807
58.42000 138.269
58.43000 141.716
58.44000 145.038
58.45000 148.333
58.46000 150.254
58.47000 145.275
58.48000 139.345
58.49000 134.708
58.50000 133.193
58.51000 132.183
58.52000 132.995
58.53000 137.897
58.54000 142.951
58.55000 144.927
58.56000 142.256
58.57000 139.538
58.58000 138.956
58.59000 140.469
58.60000 141.978
58.61000 143.069
58.62000 143.895
58.63000 144.617
58.64000 142.814
58.65000 139.922
58.66000 137.207
58.67000 140.735
58.68000 145.609
58.69000 149.682
58.70000 148.192
58.71000 145.636
58.72000 142.916
58.73000 139.471
58.74000 135.938
58.75000 133.256
58.76000 144.181
58.77000 153.470
58.78000 156.533
58.79000 147.127
58.80000 137.372
58.81000 132.200
58.82000 133.160
58.83000 134.151
58.84000 135.101
58.85000 136.014
58.86000 136.927
58.87000 137.802
58.88000 138.656
58.89000 139.472
58.90000 139.552
58.91000 139.347
58.92000 139.158
58.93000 137.889
58.94000 136.495
58.95000 135.347
58.96000 135.690
58.97000 136.284
58.98000 136.714
58.99000 136.497
59.00000 136.214
59.01000 136.006
59.02000 136.450
59.03000 136.820
59.04000 136.607
59.05000 135.353
59.06000 134.077
59.07000 132.966
59.08000 132.049
59.09000 131.134
59.10000 131.660
59.11000 133.271
59.12000 134.863
59.13000 135.719
59.14000 136.203
59.15000 136.890
59.16000 140.774
59.17000 145.757
59.18000 150.308
59.19000 144.654
59.20000 137.554
59.21000 131.041
59.22000 127.651
59.23000 124.719
59.24000 123.847
59.25000 130.176
59.26000 137.125
59.27000 142.064
59.28000 135.840
59.29000 130.743
59.30000 129.034
59.31000 132.711
59.32000 136.457
59.33000 137.075
59.34000 134.439
59.35000 131.818
59.36000 131.273
59.37000 132.117
59.38000 132.928
59.39000 132.853
59.40000 132.376
59.41000 131.772
59.42000 129.536
59.43000 126.801
59.44000 124.341
59.45000 125.152
59.46000 126.442
59.47000 128.116
59.48000 131.585
59.49000 135.283
59.50000 138.639
59.51000 140.930
59.52000 143.145
59.53000 144.662
59.54000 139.340
59.55000 135.189
59.56000 133.804
59.57000 136.324
59.58000 138.871
59.59000 139.274
59.60000 137.721
59.61000 136.184
59.62000 135.125
59.63000 134.369
59.64000 133.699
59.65000 134.865
59.66000 136.775
59.67000 138.403
59.68000 136.988
59.69000 134.742
59.70000 132.759
59.71000 132.728
59.72000 133.003
59.73000 133.521
59.74000 135.046
59.75000 136.681
59.76000 138.298
59.77000 139.864
59.78000 141.427
59.79000 142.455
59.80000 134.305
59.81000 128.147
59.82000 126.097
59.83000 129.184
59.84000 132.280
59.85000 133.333
59.86000 132.744
59.87000 132.164
59.88000 128.928
59.89000 124.411
59.90000 120.111
59.91000 119.548
59.92000 120.337
59.93000 121.369
59.94000 124.640
59.95000 128.452
59.96000 131.758
59.97000 134.980
59.98000 137.713
59.99000 140.922
60.00000 145.890
60.01000 151.021
60.02000 153.645
60.03000 150.051
60.04000 146.164
60.05000 143.716
60.06000 138.951
60.07000 135.475
60.08000 133.917
60.09000 134.471
60.10000 135.027
60.11000 135.797
60.12000 136.720
60.13000 137.623
60.14000 137.768
60.15000 137.561
60.16000 137.230
60.17000 135.155
60.18000 132.517
60.19000 130.271
60.20000 131.119
60.21000 132.631
60.22000 133.914
60.23000 130.693
60.24000 127.477
60.25000 125.829
60.26000 129.320
60.27000 133.212
60.28000 134.841
60.29000 131.457
60.30000 127.890
60.31000 125.748
60.32000 124.874
60.33000 124.262
60.34000 124.983
60.35000 126.991
60.36000 128.998
60.37000 130.937
60.38000 132.834
60.39000 134.677
60.40000 133.935
60.41000 132.184
60.42000 130.376
60.43000 127.894
60.44000 125.217
60.45000 123.349
60.46000 127.012
60.47000 131.722
60.48000 135.632
60.49000 133.171
60.50000 130.519
60.51000 128.815
60.52000 129.882
60.53000 131.128
60.54000 132.514
60.55000 134.176
60.56000 135.845
60.57000 136.797
60.58000 133.558
60.59000 131.291
60.60000 132.840
60.61000 137.630
60.62000 142.315
60.63000 141.567
60.64000 137.763
60.65000 134.098
60.66000 132.680
60.67000 132.150
60.68000 131.484
60.69000 129.472
60.70000 127.115
60.71000 125.132
60.72000 125.373
60.73000 125.983
60.74000 126.477
60.75000 130.516
60.76000 134.094
60.77000 137.137
60.78000 138.782
60.79000 140.355
60.80000 140.061
60.81000 136.474
60.82000 132.826
60.83000 130.859
60.84000 134.102
60.85000 136.301
60.86000 133.802
60.87000 127.777
60.88000 121.866
60.89000 120.127
60.90000 120.481
60.91000 120.819
60.92000 121.568
60.93000 122.392
60.94000 123.509
60.95000 127.088
60.96000 131.224
60.97000 134.809
60.98000 135.497
60.99000 135.766
61.00000 135.978
61.01000 136.858
61.02000 137.609
61.03000 137.779
61.04000 136.593
61.05000 135.351
61.06000 133.803
61.07000 131.775
61.08000 129.741
61.09000 128.711
61.10000 130.844
61.11000 132.294
61.12000 135.876
61.13000 140.880
61.14000 145.609
61.15000 142.941
61.16000 136.959
61.17000 131.319
61.18000 132.247
61.19000 134.918
61.20000 137.253
61.21000 137.146
61.22000 136.550
61.23000 136.163
61.24000 136.745
61.25000 137.449
61.26000 137.989
61.27000 138.852
61.28000 139.551
61.29000 139.147
61.30000 136.446
61.31000 133.674
61.32000 134.334
61.33000 139.779
61.34000 145.255
61.35000 145.577
61.36000 141.268
61.37000 137.004
61.38000 135.564
61.39000 135.796
61.40000 136.172
61.41000 139.572
61.42000 144.182
61.43000 148.473
61.44000 143.910
61.45000 137.629
61.46000 132.769
61.47000 136.918
61.48000 142.653
61.49000 148.271
61.50000 153.409
61.51000 158.496
61.52000 162.279
61.53000 168.813
61.54000 174.018
61.55000 179.973
61.56000 187.321
61.57000 194.699
61.58000 201.354
61.59000 207.114
61.60000 212.862
61.61000 214.931
61.62000 214.084
61.63000 213.363
61.64000 217.901
61.65000 225.215
61.66000 232.561
61.67000 240.436
61.68000 248.501
61.69000 255.904
61.70000 261.378
61.71000 265.848
61.72000 268.860
61.73000 263.776
61.74000 257.445
61.75000 250.698
61.76000 242.441
61.77000 234.045
61.78000 228.006
61.79000 217.198
61.80000 208.757
61.81000 201.010
61.82000 194.412
61.83000 187.831
61.84000 176.778
61.85000 160.864
61.86000 145.017
61.87000 141.667
61.88000 147.034
61.89000 152.169
61.90000 150.179
61.91000 144.834
61.92000 139.836
61.93000 139.629
61.94000 140.948
61.95000 142.140
61.96000 142.165
61.97000 141.970
61.98000 141.297
61.99000 138.283
62.00000 134.956
62.01000 132.666
62.02000 133.735
62.03000 135.061
62.04000 135.980
62.05000 139.363
62.06000 141.976
62.07000 143.978
62.08000 145.081
62.09000 146.175
62.10000 146.154
62.11000 145.069
62.12000 143.993
62.13000 141.375
62.14000 137.860
62.15000 134.402
62.16000 132.296
62.17000 130.758
62.18000 129.869
62.19000 136.438
62.20000 145.122
62.21000 152.841
62.22000 152.567
62.23000 151.037
62.24000 148.997
62.25000 144.751
62.26000 140.251
62.27000 137.890
62.28000 141.703
62.29000 145.906
62.30000 148.709
62.31000 141.758
62.32000 136.421
62.33000 132.698
62.34000 131.076
62.35000 129.470
62.36000 131.125
62.37000 135.516
62.38000 139.850
62.39000 139.910
62.40000 137.656
62.41000 135.553
62.42000 136.253
62.43000 138.006
62.44000 139.426
62.45000 137.608
62.46000 134.973
62.47000 132.673
62.48000 135.142
62.49000 137.922
62.50000 139.989
62.51000 139.327
62.52000 138.397
62.53000 138.483
62.54000 141.186
62.55000 144.023
62.56000 145.836
62.57000 145.577
62.58000 145.360
62.59000 145.926
62.60000 147.392
62.61000 148.855
62.62000 149.559
62.63000 149.700
62.64000 149.838
62.65000 147.755
62.66000 144.686
62.67000 141.956
62.68000 144.308
62.69000 148.363
62.70000 152.256
62.71000 154.799
62.72000 157.041
62.73000 158.958
62.74000 152.138
62.75000 145.336
62.76000 139.907
62.77000 139.155
62.78000 138.792
62.79000 138.875
62.80000 139.987
62.81000 141.140
62.82000 141.844
62.83000 148.330
62.84000 153.015
62.85000 152.930
62.86000 148.023
62.87000 143.129
62.88000 139.561
62.89000 136.865
62.90000 134.238
62.91000 134.784
62.92000 136.644
62.93000 138.498
62.94000 140.262
62.95000 141.999
62.96000 143.440
62.97000 142.751
62.98000 141.643
62.99000 140.715
63.00000 142.423
63.01000 144.112
63.02000 144.598
63.03000 141.430
63.04000 138.011
63.05000 138.698
63.06000 147.826
63.07000 157.207
63.08000 162.655
63.09000 154.841
63.10000 149.303
63.11000 147.932
63.12000 150.259
63.13000 152.571
63.14000 154.049
63.15000 155.039
63.16000 155.996
63.17000 155.583
63.18000 154.684
63.19000 153.561
63.20000 150.109
63.21000 146.036
63.22000 142.850
63.23000 145.201
63.24000 148.512
63.25000 151.218
63.26000 147.235
63.27000 143.395
63.28000 140.765
63.29000 141.417
63.30000 142.254
63.31000 142.505
63.32000 141.681
63.33000 140.835
63.34000 140.370
63.35000 138.548
63.36000 137.295
63.37000 136.893
63.38000 137.156
63.39000 137.535
63.40000 142.611
63.41000 150.136
63.42000 157.336
63.43000 156.274
63.44000 152.568
63.45000 149.164
63.46000 148.438
63.47000 148.344
63.48000 148.666
63.49000 151.268
63.50000 154.215
63.51000 156.563
63.52000 151.673
63.53000 147.206
63.54000 143.931
63.55000 143.540
63.56000 143.279
63.57000 144.869
63.58000 149.484
63.59000 154.142
63.60000 156.552
63.61000 152.926
63.62000 150.492
63.63000 149.614
63.64000 149.815
63.65000 150.015
63.66000 150.160
63.67000 150.278
63.68000 150.391
63.69000 155.849
63.70000 162.417
63.71000 167.588
63.72000 162.070
63.73000 154.321
63.74000 147.586
63.75000 145.741
63.76000 144.541
63.77000 143.611
63.78000 151.318
63.79000 157.953
63.80000 161.219
63.81000 157.200
63.82000 152.932
63.83000 149.932
63.84000 148.773
63.85000 147.629
63.86000 145.440
63.87000 142.268
63.88000 139.178
63.89000 141.945
63.90000 148.322
63.91000 154.499
63.92000 156.142
63.93000 155.900
63.94000 155.674
63.95000 154.497
63.96000 153.185
63.97000 152.159
63.98000 153.024
63.99000 154.237
64.00000 155.568
64.01000 157.402
64.02000 159.293
64.03000 160.714
64.04000 161.355
64.05000 161.819
64.06000 161.819
64.07000 160.925
64.08000 160.008
64.09000 160.756
64.10000 163.647
64.11000 166.542
64.12000 164.665
64.13000 158.858
64.14000 153.149
64.15000 152.086
64.16000 153.573
64.17000 155.113
64.18000 157.615
64.19000 160.475
64.20000 163.113
64.21000 163.343
64.22000 163.011
64.23000 162.541
64.24000 161.263
64.25000 159.856
64.26000 158.356
64.27000 156.509
64.28000 154.628
64.29000 153.260
64.30000 156.567
64.31000 159.292
64.32000 160.544
64.33000 159.267
64.34000 157.945
64.35000 159.373
64.36000 163.922
64.37000 168.458
64.38000 168.036
64.39000 164.020
64.40000 160.140
64.41000 160.875
64.42000 163.868
64.43000 166.571
64.44000 165.019
64.45000 162.058
64.46000 159.367
64.47000 160.288
64.48000 161.806
64.49000 162.117
64.50000 156.272
64.51000 149.562
64.52000 145.104
64.53000 148.225
64.54000 151.963
64.55000 154.590
64.56000 163.291
64.57000 170.058
64.58000 173.708
64.59000 172.588
64.60000 171.415
64.61000 169.581
64.62000 167.087
64.63000 164.610
64.64000 167.348
64.65000 173.378
64.66000 179.142
64.67000 178.135
64.68000 174.169
64.69000 170.528
64.70000 170.862
64.71000 172.370
64.72000 173.717
64.73000 173.127
64.74000 172.283
64.75000 171.268
64.76000 169.483
64.77000 167.604
64.78000 165.552
64.79000 162.981
64.80000 160.376
64.81000 158.614
64.82000 161.782
64.83000 164.250
64.84000 168.184
64.85000 174.110
64.86000 180.042
64.87000 180.352
64.88000 175.745
64.89000 171.188
64.90000 170.035
64.91000 170.830
64.92000 171.621
64.93000 172.354
64.94000 173.064
64.95000 173.994
64.96000 177.174
64.97000 180.946
64.98000 184.258
64.99000 187.929
65.00000 191.136
65.01000 193.610
65.02000 193.156
65.03000 192.398
65.04000 192.553
65.05000 195.153
65.06000 197.888
65.07000 199.663
65.08000 200.770
65.09000 201.571
65.10000 201.535
65.11000 200.495
65.12000 199.445
65.13000 196.623
65.14000 192.430
65.15000 188.308
65.16000 193.303
65.17000 202.678
65.18000 211.686
65.19000 214.826
65.20000 215.921
65.21000 217.068
65.22000 218.676
65.23000 220.390
65.24000 221.867
65.25000 229.968
65.26000 237.670
65.27000 243.890
65.28000 244.854
65.29000 245.355
65.30000 246.641
65.31000 249.805
65.32000 253.051
65.33000 255.064
65.34000 265.971
65.35000 273.906
65.36000 278.150
65.37000 278.494
65.38000 278.894
65.39000 285.868
65.40000 297.343
65.41000 308.551
65.42000 316.426
65.43000 322.499
65.44000 328.266
65.45000 329.994
65.46000 330.467
65.47000 331.838
65.48000 339.970
65.49000 349.495
65.50000 357.526
65.51000 362.790
65.52000 366.886
65.53000 371.093
65.54000 375.647
65.55000 380.228
65.56000 382.478
65.57000 379.750
65.58000 376.858
65.59000 375.148
65.60000 389.332
65.61000 399.439
65.62000 407.597
65.63000 413.949
65.64000 420.272
65.65000 424.581
65.66000 427.665
65.67000 430.654
65.68000 451.275
65.69000 477.646
65.70000 503.484
65.71000 523.426
65.72000 541.736
65.73000 562.962
65.74000 603.275
65.75000 647.048
65.76000 683.115
65.77000 728.324
65.78000 766.362
65.79000 800.802
65.80000 825.103
65.81000 848.793
65.82000 871.078
65.83000 890.685
65.84000 910.228
65.85000 921.176
65.86000 924.697
65.87000 927.107
65.88000 924.526
65.89000 917.872
65.90000 911.186
65.91000 903.000
65.92000 894.002
65.93000 885.363
65.94000 839.970
65.95000 784.906
65.96000 731.191
65.97000 690.127
65.98000 652.172
65.99000 613.049
66.00000 567.240
66.01000 520.369
66.02000 482.703
66.03000 447.008
66.04000 418.226
66.05000 391.172
66.06000 368.465
66.07000 345.968
66.08000 326.910
66.09000 313.694
66.10000 300.575
66.11000 293.642
66.12000 283.360
66.13000 276.416
66.14000 275.909
66.15000 280.049
66.16000 283.861
66.17000 276.964
66.18000 264.889
66.19000 253.414
66.20000 255.185
66.21000 260.824
66.22000 267.251
66.23000 280.010
66.24000 294.148
66.25000 305.763
66.26000 304.679
66.27000 301.840
66.28000 299.619
66.29000 315.287
66.30000 328.935
66.31000 342.275
66.32000 354.923
66.33000 367.544
66.34000 374.492
66.35000 372.863
66.36000 371.147
66.37000 369.183
66.38000 366.976
66.39000 364.844
66.40000 369.144
66.41000 377.567
66.42000 385.911
66.43000 392.299
66.44000 397.842
66.45000 403.048
66.46000 401.049
66.47000 397.311
66.48000 393.089
66.49000 385.503
66.50000 377.272
66.51000 369.946
66.52000 366.642
66.53000 363.819
66.54000 361.675
66.55000 345.686
66.56000 332.398
66.57000 318.666
66.58000 304.041
66.59000 289.390
66.60000 285.362
66.61000 295.577
66.62000 305.858
66.63000 310.002
66.64000 308.853
66.65000 307.666
66.66000 304.487
66.67000 300.169
66.68000 295.889
66.69000 292.314
66.70000 289.012
66.71000 285.951
66.72000 292.503
66.73000 300.644
66.74000 307.120
66.75000 303.485
66.76000 298.144
66.77000 294.974
66.78000 300.350
66.79000 306.599
66.80000 311.198
66.81000 306.351
66.82000 302.209
66.83000 300.769
66.84000 304.160
66.85000 307.647
66.86000 310.610
66.87000 312.951
66.88000 315.286
66.89000 310.660
66.90000 300.791
66.91000 291.255
66.92000 294.211
66.93000 303.522
66.94000 312.362
66.95000 313.808
66.96000 312.709
66.97000 311.705
66.98000 317.340
66.99000 323.700
67.00000 328.882
67.01000 327.788
67.02000 325.770
67.03000 322.852
67.04000 316.779
67.05000 310.434
67.06000 305.921
67.07000 310.164
67.08000 313.677
67.09000 316.720
67.10000 319.012
67.11000 321.296
67.12000 327.117
67.13000 336.627
67.14000 346.085
67.15000 347.974
67.16000 344.791
67.17000 341.697
67.18000 341.117
67.19000 341.677
67.20000 342.655
67.21000 349.041
67.22000 357.087
67.23000 364.322
67.24000 354.220
67.25000 342.285
67.26000 334.233
67.27000 344.411
67.28000 356.915
67.29000 366.403
67.30000 366.481
67.31000 365.882
67.32000 365.471
67.33000 361.908
67.34000 359.162
67.35000 359.165
67.36000 363.056
67.37000 366.975
67.38000 370.510
67.39000 373.695
67.40000 376.849
67.41000 378.579
67.42000 379.437
67.43000 380.358
67.44000 382.662
67.45000 385.528
67.46000 387.867
67.47000 384.495
67.48000 379.562
67.49000 375.202
67.50000 383.067
67.51000 391.748
67.52000 398.509
67.53000 397.293
67.54000 395.202
67.55000 394.952
67.56000 399.831
67.57000 405.011
67.58000 408.421
67.59000 408.063
67.60000 407.734
67.61000 406.439
67.62000 403.936
67.63000 401.438
67.64000 402.384
67.65000 406.104
67.66000 409.768
67.67000 411.264
67.68000 411.587
67.69000 412.122
67.70000 416.285
67.71000 421.762
67.72000 426.959
67.73000 429.568
67.74000 431.550
67.75000 433.269
67.76000 426.335
67.77000 419.278
67.78000 413.201
67.79000 410.736
67.80000 408.608
67.81000 413.018
67.82000 433.676
67.83000 455.099
67.84000 468.601
67.85000 456.523
67.86000 447.486
67.87000 445.773
67.88000 452.146
67.89000 458.493
67.90000 460.401
67.91000 459.145
67.92000 457.914
67.93000 460.849
67.94000 465.579
67.95000 470.578
67.96000 479.361
67.97000 489.366
67.98000 497.472
67.99000 490.538
68.00000 480.373
68.01000 471.740
68.02000 472.242
68.03000 473.708
68.04000 477.711
68.05000 490.046
68.06000 503.033
68.07000 513.362
68.08000 517.791
68.09000 522.005
68.10000 524.537
68.11000 533.981
68.12000 540.742
68.13000 540.902
68.14000 534.671
68.15000 528.500
68.16000 527.079
68.17000 528.664
68.18000 530.205
68.19000 537.379
68.20000 546.479
68.21000 555.179
68.22000 559.187
68.23000 561.844
68.24000 564.526
68.25000 567.381
68.26000 570.268
68.27000 572.666
68.28000 581.372
68.29000 589.184
68.30000 592.978
68.31000 585.005
68.32000 576.273
68.33000 572.979
68.34000 580.460
68.35000 588.233
68.36000 592.669
68.37000 610.245
68.38000 622.541
68.39000 628.176
68.40000 628.141
68.41000 628.197
68.42000 633.025
68.43000 640.540
68.44000 647.779
68.45000 657.441
68.46000 667.383
68.47000 677.137
68.48000 685.042
68.49000 692.472
68.50000 700.547
68.51000 712.474
68.52000 725.042
68.53000 735.229
68.54000 740.360
68.55000 744.127
68.56000 753.598
68.57000 777.978
68.58000 803.136
68.59000 827.156
68.60000 849.164
68.61000 871.133
68.62000 882.981
68.63000 941.516
68.64000 981.619
68.65000 1025.807
68.66000 1073.070
68.67000 1119.873
68.68000 1149.965
68.69000 1171.661
68.70000 1192.351
68.71000 1234.396
68.72000 1280.142
68.73000 1327.331
68.74000 1386.738
68.75000 1448.916
68.76000 1506.451
68.77000 1539.597
68.78000 1569.206
68.79000 1592.584
68.80000 1647.778
68.81000 1694.234
68.82000 1751.546
68.83000 1834.196
68.84000 1917.887
68.85000 2007.555
68.86000 2106.626
68.87000 2205.812
68.88000 2256.076
68.89000 2611.088
68.90000 2850.978
68.91000 3309.616
68.92000 3914.177
68.93000 4545.991
68.94000 5916.746
68.95000 7618.993
68.96000 9224.205
68.97000 12321.226
68.98000 15572.732
68.99000 18906.709
69.00000 22843.113
69.01000 26900.285
69.02000 30861.854
69.03000 34380.480
69.04000 37843.477
69.05000 40500.902
69.06000 42739.410
69.07000 44485.059
69.08000 45776.629
69.09000 46121.734
69.10000 46437.348
69.11000 46684.660
69.12000 46836.578
69.13000 46987.801
69.14000 47374.730
69.15000 47973.465
69.16000 48569.219
69.17000 48979.586
69.18000 49279.965
69.19000 49536.484
69.20000 48869.871
69.21000 47833.418
69.22000 46868.281
69.23000 44198.516
69.24000 41368.656
69.25000 38588.719
69.26000 36126.008
69.27000 33719.230
69.28000 31461.141
69.29000 29813.010
69.30000 28230.637
69.31000 27053.197
69.32000 25901.252
69.33000 25006.189
69.34000 24246.961
69.35000 23740.357
69.36000 23239.436
69.37000 22579.057
69.38000 21721.586
69.39000 20865.111
69.40000 19534.166
69.41000 17834.145
69.42000 16127.777
69.43000 14153.423
69.44000 12037.372
69.45000 9949.203
69.46000 8330.650
69.47000 6880.082
69.48000 5548.058
69.49000 4545.262
69.50000 3720.953
69.51000 2958.335
69.52000 2538.956
69.53000 2172.522
69.54000 1853.684
69.55000 1708.264
69.56000 1578.717
69.57000 1485.482
69.58000 1404.224
69.59000 1342.426
69.60000 1284.798
69.61000 1234.080
69.62000 1183.467
69.63000 1140.635
69.64000 1106.277
69.65000 1072.071
69.66000 1037.450
69.67000 1002.896
69.68000 968.643
69.69000 943.638
69.70000 922.995
69.71000 902.246
69.72000 880.018
69.73000 857.318
69.74000 836.792
69.75000 824.369
69.76000 814.949
69.77000 807.239
69.78000 807.903
69.79000 809.691
69.80000 804.352
69.81000 775.896
69.82000 745.668
69.83000 724.684
69.84000 724.296
69.85000 724.553
69.86000 719.788
69.87000 707.621
69.88000 695.389
69.89000 690.969
69.90000 694.009
69.91000 697.024
69.92000 692.840
69.93000 684.308
69.94000 675.616
69.95000 663.130
69.96000 649.047
69.97000 636.166
69.98000 637.117
69.99000 641.999
70.00000 646.340
