20.00000 573.720
20.01000 577.634
20.02000 582.107
20.03000 583.705
20.04000 574.096
20.05000 563.358
20.06000 555.479
20.07000 564.662
20.08000 572.449
20.09000 575.982
20.10000 571.982
20.11000 567.837
20.12000 568.059
20.13000 573.398
20.14000 578.731
20.15000 577.587
20.16000 571.602
20.17000 565.846
20.18000 568.514
20.19000 575.423
20.20000 581.529
20.21000 575.240
20.22000 564.729
20.23000 555.138
20.24000 556.577
20.25000 560.079
20.26000 562.744
20.27000 560.999
20.28000 558.613
20.29000 557.184
20.30000 559.072
20.31000 561.241
20.32000 562.779
20.33000 566.560
20.34000 569.506
20.35000 570.938
20.36000 569.984
20.37000 569.001
20.38000 568.631
20.39000 568.893
20.40000 569.153
20.41000 567.513
20.42000 564.642
20.43000 561.864
20.44000 561.604
20.45000 562.476
20.46000 563.447
20.47000 565.669
20.48000 568.272
20.49000 570.609
20.50000 564.963
20.51000 558.621
20.52000 552.392
20.53000 546.690
20.54000 541.055
20.55000 538.274
20.56000 544.307
20.57000 550.965
20.58000 555.512
20.59000 551.672
20.60000 548.603
20.61000 546.483
20.62000 545.690
20.63000 544.909
20.64000 549.846
20.65000 559.949
20.66000 569.951
20.67000 566.664
20.68000 555.712
20.69000 545.107
20.70000 541.854
20.71000 541.551
20.72000 541.351
20.73000 542.244
20.74000 543.432
20.75000 544.481
20.76000 553.536
20.77000 562.567
20.78000 567.940
20.79000 558.271
20.80000 546.975
20.81000 540.534
20.82000 547.470
20.83000 555.179
20.84000 560.236
20.85000 557.883
20.86000 556.030
20.87000 549.863
20.88000 538.353
20.89000 526.852
20.90000 522.766
20.91000 524.587
20.92000 526.380
20.93000 533.650
20.94000 543.515
20.95000 553.066
20.96000 557.311
20.97000 559.655
20.98000 561.539
20.99000 559.251
21.00000 555.962
21.01000 553.114
21.02000 551.260
21.03000 549.813
21.04000 549.213
21.05000 551.704
21.06000 554.479
21.07000 556.330
21.08000 555.908
21.09000 555.382
21.10000 555.051
21.11000 558.221
21.12000 560.551
21.13000 560.316
21.14000 557.283
21.15000 554.280
21.16000 555.604
21.17000 559.978
21.18000 564.258
21.19000 564.569
21.20000 563.065
21.21000 561.770
21.22000 563.364
21.23000 565.882
21.24000 566.376
21.25000 551.052
21.26000 532.368
21.27000 516.527
21.28000 533.567
21.29000 551.552
21.30000 565.199
21.31000 564.745
21.32000 563.206
21.33000 558.935
21.34000 548.662
21.35000 538.176
21.36000 531.900
21.37000 540.135
21.38000 546.074
21.39000 548.499
21.40000 547.562
21.41000 546.639
21.42000 546.747
21.43000 547.501
21.44000 548.233
21.45000 549.212
21.46000 550.240
21.47000 551.437
21.48000 554.584
21.49000 558.286
21.50000 561.027
21.51000 557.265
21.52000 552.284
21.53000 548.156
21.54000 554.382
21.55000 560.515
21.56000 563.534
21.57000 557.526
21.58000 550.946
21.59000 548.075
21.60000 552.479
21.61000 557.074
21.62000 559.685
21.63000 562.022
21.64000 563.648
21.65000 564.397
21.66000 564.408
21.67000 564.483
21.68000 567.747
21.69000 572.791
21.70000 577.645
21.71000 573.269
21.72000 565.899
21.73000 559.318
21.74000 560.445
21.75000 563.525
21.76000 567.903
21.77000 579.967
21.78000 593.292
21.79000 604.070
21.80000 594.256
21.81000 584.613
21.82000 581.247
21.83000 594.124
21.84000 607.832
21.85000 614.599
21.86000 609.227
21.87000 603.633
21.88000 600.631
21.89000 617.391
21.90000 628.826
21.91000 635.459
21.92000 638.519
21.93000 641.654
21.94000 647.419
21.95000 654.493
21.96000 661.233
21.97000 667.886
21.98000 674.025
21.99000 682.031
22.00000 705.633
22.01000 732.737
22.02000 752.788
22.03000 736.212
22.04000 714.391
22.05000 697.203
22.06000 703.870
22.07000 710.808
22.08000 717.704
22.09000 724.505
22.10000 731.302
22.11000 734.075
22.12000 730.585
22.13000 727.022
22.14000 725.227
22.15000 716.563
22.16000 710.633
22.17000 691.140
22.18000 662.693
22.19000 634.945
22.20000 625.682
22.21000 624.630
22.22000 623.639
22.23000 621.359
22.24000 618.919
22.25000 615.537
22.26000 605.359
22.27000 593.833
22.28000 582.994
22.29000 575.304
22.30000 568.004
22.31000 562.416
22.32000 559.743
22.33000 557.793
22.34000 555.483
22.35000 552.432
22.36000 549.358
22.37000 544.905
22.38000 538.544
22.39000 532.174
22.40000 530.941
22.41000 534.281
22.42000 537.576
22.43000 538.232
22.44000 537.339
22.45000 536.753
22.46000 542.503
22.47000 550.767
22.48000 558.454
22.49000 553.625
22.50000 546.247
22.51000 539.451
22.52000 536.312
22.53000 533.811
22.54000 531.006
22.55000 526.974
22.56000 522.812
22.57000 519.723
22.58000 520.104
22.59000 520.552
22.60000 524.514
22.61000 534.948
22.62000 545.522
22.63000 545.808
22.64000 533.518
22.65000 521.221
22.66000 518.896
22.67000 524.379
22.68000 529.732
22.69000 529.750
22.70000 526.974
22.71000 524.532
22.72000 527.613
22.73000 532.649
22.74000 537.267
22.75000 537.689
22.76000 537.178
22.77000 535.796
22.78000 529.620
22.79000 522.713
22.80000 518.582
22.81000 524.462
22.82000 531.244
22.83000 536.110
22.84000 534.179
22.85000 532.469
22.86000 528.717
22.87000 521.615
22.88000 514.464
22.89000 514.839
22.90000 523.316
22.91000 531.756
22.92000 537.113
22.93000 540.288
22.94000 543.342
22.95000 542.798
22.96000 540.573
22.97000 538.230
22.98000 534.288
22.99000 529.841
23.00000 525.826
23.01000 528.200
23.02000 531.464
23.03000 535.396
23.04000 542.557
23.05000 550.147
23.06000 553.426
23.07000 542.866
23.08000 531.262
23.09000 523.233
23.10000 527.873
23.11000 531.692
23.12000 529.691
23.13000 519.204
23.14000 508.647
23.15000 507.683
23.16000 515.773
23.17000 523.796
23.18000 528.219
23.19000 530.375
23.20000 532.252
23.21000 527.722
23.22000 520.518
23.23000 514.002
23.24000 515.271
23.25000 518.729
23.26000 521.799
23.27000 520.923
23.28000 519.531
23.29000 517.722
23.30000 514.123
23.31000 510.320
23.32000 508.945
23.33000 514.524
23.34000 520.533
23.35000 524.531
23.36000 519.227
23.37000 515.128
23.38000 510.913
23.39000 506.546
23.40000 502.189
23.41000 503.013
23.42000 508.140
23.43000 513.198
23.44000 514.832
23.45000 514.586
23.46000 514.461
23.47000 516.536
23.48000 519.431
23.49000 522.139
23.50000 523.064
23.51000 523.542
23.52000 523.958
23.53000 521.539
23.54000 519.080
23.55000 516.326
23.56000 512.454
23.57000 508.473
23.58000 509.270
23.59000 522.279
23.60000 535.897
23.61000 544.577
23.62000 526.179
23.63000 512.457
23.64000 504.574
23.65000 503.347
23.66000 502.125
23.67000 500.467
23.68000 498.488
23.69000 496.548
23.70000 498.764
23.71000 502.866
23.72000 506.773
23.73000 507.802
23.74000 507.875
23.75000 508.641
23.76000 515.099
23.77000 522.818
23.78000 529.409
23.79000 527.547
23.80000 524.975
23.81000 523.222
23.82000 524.240
23.83000 525.485
23.84000 525.773
23.85000 523.876
23.86000 521.894
23.87000 520.688
23.88000 522.696
23.89000 524.155
23.90000 525.020
23.91000 525.290
23.92000 525.544
23.93000 524.277
23.94000 522.017
23.95000 519.818
23.96000 526.010
23.97000 535.419
23.98000 543.750
23.99000 538.879
24.00000 530.096
24.01000 522.114
24.02000 519.821
24.03000 518.641
24.04000 517.655
24.05000 514.619
24.06000 511.890
24.07000 511.687
24.08000 519.091
24.09000 527.011
24.10000 533.782
24.11000 538.212
24.12000 542.573
24.13000 545.096
24.14000 519.963
24.15000 502.249
24.16000 500.876
24.17000 513.863
24.18000 526.696
24.19000 530.713
24.20000 529.617
24.21000 528.559
24.22000 527.929
24.23000 527.493
24.24000 526.728
24.25000 522.559
24.26000 517.494
24.27000 513.621
24.28000 517.123
24.29000 521.893
24.30000 525.783
24.31000 524.354
24.32000 522.730
24.33000 520.946
24.34000 518.728
24.35000 516.487
24.36000 515.253
24.37000 515.850
24.38000 516.486
24.39000 516.834
24.40000 505.021
24.41000 496.911
24.42000 495.969
24.43000 500.587
24.44000 504.948
24.45000 499.135
24.46000 488.061
24.47000 477.473
24.48000 481.664
24.49000 490.375
24.50000 497.894
24.51000 494.920
24.52000 489.492
24.53000 485.057
24.54000 486.007
24.55000 487.765
24.56000 489.163
24.57000 487.180
24.58000 485.341
24.59000 484.100
24.60000 484.297
24.61000 484.557
24.62000 484.329
24.63000 483.311
24.64000 482.282
24.65000 481.752
24.66000 473.542
24.67000 468.074
24.68000 469.929
24.69000 476.817
24.70000 483.597
24.71000 487.242
24.72000 489.441
24.73000 491.521
24.74000 490.959
24.75000 489.684
24.76000 487.662
24.77000 479.969
24.78000 471.104
24.79000 465.849
24.80000 477.850
24.81000 492.099
24.82000 503.113
24.83000 497.862
24.84000 492.742
24.85000 490.304
24.86000 493.617
24.87000 497.122
24.88000 498.273
24.89000 496.034
24.90000 493.769
24.91000 489.804
24.92000 484.261
24.93000 478.777
24.94000 477.430
24.95000 478.608
24.96000 479.629
24.97000 477.118
24.98000 473.152
24.99000 469.447
25.00000 474.404
25.01000 481.084
25.02000 487.118
25.03000 488.904
25.04000 489.915
25.05000 489.727
25.06000 484.464
25.07000 478.632
25.08000 474.258
25.09000 471.059
25.10000 468.616
25.11000 468.951
25.12000 474.603
25.13000 480.385
25.14000 484.324
25.15000 485.913
25.16000 487.492
25.17000 485.937
25.18000 481.829
25.19000 477.707
25.20000 472.925
25.21000 467.785
25.22000 462.799
25.23000 460.558
25.24000 459.327
25.25000 458.193
25.26000 466.751
25.27000 476.554
25.28000 485.024
25.29000 485.835
25.30000 485.424
25.31000 486.115
25.32000 490.940
25.33000 496.160
25.34000 499.949
25.35000 480.859
25.36000 465.327
25.37000 458.220
25.38000 465.485
25.39000 472.992
25.40000 476.761
25.41000 476.329
25.42000 475.896
25.43000 473.939
25.44000 470.906
25.45000 468.081
25.46000 472.165
25.47000 479.603
25.48000 486.210
25.49000 480.794
25.50000 471.430
25.51000 462.929
25.52000 470.905
25.53000 481.130
25.54000 488.622
25.55000 482.307
25.56000 474.075
25.57000 468.852
25.58000 473.680
25.59000 479.314
25.60000 483.262
25.61000 472.697
25.62000 464.290
25.63000 460.889
25.64000 465.088
25.65000 469.366
25.66000 475.633
25.67000 483.863
25.68000 492.035
25.69000 490.640
25.70000 483.208
25.71000 475.929
25.72000 472.513
25.73000 470.772
25.74000 469.287
25.75000 470.890
25.76000 473.395
25.77000 475.633
25.78000 479.041
25.79000 482.205
25.80000 484.146
25.81000 480.622
25.82000 476.443
25.83000 473.099
25.84000 472.242
25.85000 471.549
25.86000 471.082
25.87000 476.186
25.88000 480.101
25.89000 481.512
25.90000 479.552
25.91000 477.574
25.92000 475.900
25.93000 474.489
25.94000 473.094
25.95000 472.515
25.96000 472.406
25.97000 472.394
25.98000 474.283
25.99000 476.907
26.00000 478.727
26.01000 472.400
26.02000 463.951
26.03000 456.542
26.04000 456.484
26.05000 457.504
26.06000 458.174
26.07000 457.459
26.08000 456.601
26.09000 457.567
26.10000 463.376
26.11000 469.447
26.12000 473.373
26.13000 472.006
26.14000 470.928
26.15000 466.442
26.16000 457.903
26.17000 449.377
26.18000 445.738
26.19000 445.840
26.20000 445.940
26.21000 447.776
26.22000 450.407
26.23000 453.258
26.24000 459.590
26.25000 467.124
26.26000 473.404
26.27000 468.840
26.28000 461.773
26.29000 455.696
26.30000 458.088
26.31000 461.173
26.32000 464.502
26.33000 468.689
26.34000 472.949
26.35000 476.517
26.36000 478.440
26.37000 480.294
26.38000 481.440
26.39000 470.147
26.40000 461.915
26.41000 457.908
26.42000 458.325
26.43000 458.757
26.44000 460.798
26.45000 463.932
26.46000 466.991
26.47000 461.267
26.48000 451.961
26.49000 443.350
26.50000 443.772
26.51000 446.979
26.52000 449.981
26.53000 451.461
26.54000 452.630
26.55000 453.614
26.56000 450.325
26.57000 447.124
26.58000 447.251
26.59000 457.798
26.60000 469.099
26.61000 475.367
26.62000 470.973
26.63000 466.232
26.64000 463.441
26.65000 456.212
26.66000 451.090
26.67000 447.798
26.68000 446.187
26.69000 444.637
26.70000 447.136
26.71000 452.077
26.72000 456.862
26.73000 448.130
26.74000 434.668
26.75000 423.456
26.76000 436.817
26.77000 456.920
26.78000 472.793
26.79000 461.266
26.80000 444.817
26.81000 431.288
26.82000 437.884
26.83000 445.129
26.84000 451.345
26.85000 454.689
26.86000 457.862
26.87000 459.219
26.88000 457.143
26.89000 454.987
26.90000 453.783
26.91000 455.143
26.92000 456.087
26.93000 456.026
26.94000 455.151
26.95000 454.210
26.96000 450.343
26.97000 444.904
26.98000 439.685
26.99000 440.729
27.00000 443.833
27.01000 446.408
27.02000 444.082
27.03000 440.562
27.04000 437.689
27.05000 438.485
27.06000 439.857
27.07000 440.958
27.08000 439.122
27.09000 437.411
27.10000 435.827
27.11000 434.556
27.12000 433.299
27.13000 432.433
27.14000 432.225
27.15000 432.028
27.16000 431.924
27.17000 441.627
27.18000 448.178
27.19000 449.912
27.20000 448.198
27.21000 446.461
27.22000 443.979
27.23000 441.141
27.24000 438.446
27.25000 445.146
27.26000 454.142
27.27000 461.030
27.28000 451.139
27.29000 437.629
27.30000 428.325
27.31000 439.988
27.32000 454.520
27.33000 465.863
27.34000 456.779
27.35000 448.252
27.36000 440.824
27.37000 435.844
27.38000 430.955
27.39000 429.052
27.40000 431.623
27.41000 434.237
27.42000 433.254
27.43000 428.770
27.44000 424.430
27.45000 431.850
27.46000 446.741
27.47000 460.957
27.48000 458.766
27.49000 449.550
27.50000 440.902
27.51000 438.136
27.52000 437.165
27.53000 436.409
27.54000 437.143
27.55000 438.160
27.56000 438.812
27.57000 437.855
27.58000 436.708
27.59000 435.838
27.60000 436.991
27.61000 437.999
27.62000 438.716
27.63000 438.855
27.64000 438.978
27.65000 441.478
27.66000 447.139
27.67000 452.810
27.68000 454.123
27.69000 451.716
27.70000 449.375
27.71000 450.496
27.72000 453.576
27.73000 456.461
27.74000 455.630
27.75000 453.378
27.76000 451.293
27.77000 452.590
27.78000 454.539
27.79000 455.558
27.80000 450.983
27.81000 445.475
27.82000 441.543
27.83000 443.768
27.84000 446.616
27.85000 448.706
27.86000 439.098
27.87000 431.196
27.88000 428.701
27.89000 435.797
27.90000 443.078
27.91000 440.586
27.92000 426.622
27.93000 412.677
27.94000 412.427
27.95000 422.452
27.96000 432.289
27.97000 435.212
27.98000 434.646
27.99000 433.967
28.00000 431.546
28.01000 428.531
28.02000 425.779
28.03000 427.372
28.04000 429.664
28.05000 432.484
28.06000 438.093
28.07000 444.107
28.08000 447.273
28.09000 440.547
28.10000 432.978
28.11000 427.610
28.12000 425.856
28.13000 424.637
28.14000 423.586
28.15000 422.801
28.16000 422.020
28.17000 419.654
28.18000 415.653
28.19000 411.675
28.20000 416.267
28.21000 426.462
28.22000 436.236
28.23000 434.492
28.24000 427.562
28.25000 421.552
28.26000 427.300
28.27000 436.627
28.28000 445.004
28.29000 446.830
28.30000 447.273
28.31000 446.465
28.32000 439.839
28.33000 432.479
28.34000 428.135
28.35000 433.123
28.36000 438.773
28.37000 442.634
28.38000 436.560
28.39000 431.782
28.40000 429.782
28.41000 431.677
28.42000 433.600
28.43000 435.736
28.44000 438.064
28.45000 440.370
28.46000 437.082
28.47000 430.601
28.48000 424.373
28.49000 423.504
28.50000 424.791
28.51000 426.508
28.52000 432.837
28.53000 440.416
28.54000 447.104
28.55000 445.350
28.56000 442.546
28.57000 440.145
28.58000 439.400
28.59000 438.834
28.60000 438.312
28.61000 437.908
28.62000 437.511
28.63000 437.250
28.64000 430.322
28.65000 425.114
28.66000 422.103
28.67000 421.817
28.68000 421.540
28.69000 421.779
28.70000 422.430
28.71000 423.070
28.72000 423.891
28.73000 424.780
28.74000 425.330
28.75000 420.124
28.76000 412.852
28.77000 406.746
28.78000 411.272
28.79000 418.355
28.80000 424.487
28.81000 420.265
28.82000 415.309
28.83000 412.945
28.84000 420.064
28.85000 428.055
28.86000 432.636
28.87000 428.812
28.88000 424.599
28.89000 421.953
28.90000 423.884
28.91000 425.331
28.92000 429.444
28.93000 436.473
28.94000 443.447
28.95000 442.828
28.96000 436.844
28.97000 430.989
28.98000 424.297
28.99000 417.492
29.00000 411.215
29.01000 412.265
29.02000 415.663
29.03000 418.519
29.04000 417.140
29.05000 414.859
29.06000 412.924
29.07000 417.317
29.08000 421.713
29.09000 423.356
29.10000 416.030
29.11000 408.012
29.12000 403.956
29.13000 408.620
29.14000 413.595
29.15000 416.574
29.16000 429.804
29.17000 439.263
29.18000 441.098
29.19000 435.620
29.20000 430.161
29.21000 426.120
29.22000 422.968
29.23000 419.908
29.24000 419.191
29.25000 419.453
29.26000 419.769
29.27000 420.723
29.28000 421.859
29.29000 422.278
29.30000 417.833
29.31000 412.474
29.32000 408.031
29.33000 410.453
29.34000 413.112
29.35000 415.046
29.36000 414.874
29.37000 414.568
29.38000 413.920
29.39000 412.602
29.40000 411.265
29.41000 410.506
29.42000 426.027
29.43000 436.874
29.44000 437.819
29.45000 430.413
29.46000 423.141
29.47000 422.602
29.48000 425.826
29.49000 428.930
29.50000 422.043
29.51000 412.039
29.52000 403.202
29.53000 405.780
29.54000 411.253
29.55000 415.571
29.56000 413.042
29.57000 409.386
29.58000 406.428
29.59000 410.797
29.60000 414.943
29.61000 417.526
29.62000 416.054
29.63000 414.374
29.64000 413.687
29.65000 414.741
29.66000 415.827
29.67000 416.411
29.68000 419.982
29.69000 422.411
29.70000 422.450
29.71000 420.707
29.72000 418.973
29.73000 417.522
29.74000 416.213
29.75000 414.965
29.76000 416.716
29.77000 419.275
29.78000 421.379
29.79000 419.666
29.80000 417.094
29.81000 415.789
29.82000 421.071
29.83000 427.298
29.84000 432.205
29.85000 430.288
29.86000 428.293
29.87000 427.194
29.88000 428.170
29.89000 429.230
29.90000 430.389
29.91000 431.706
29.92000 433.024
29.93000 433.689
29.94000 431.789
29.95000 430.571
29.96000 434.422
29.97000 441.626
29.98000 448.557
29.99000 448.214
30.00000 444.636
30.01000 441.265
30.02000 442.858
30.03000 445.682
30.04000 448.239
30.05000 448.873
30.06000 449.124
30.07000 450.372
30.08000 456.198
30.09000 462.592
30.10000 467.488
30.11000 464.148
30.12000 461.060
30.13000 458.026
30.14000 455.103
30.15000 452.183
30.16000 447.624
30.17000 440.798
30.18000 433.961
30.19000 429.298
30.20000 426.581
30.21000 424.022
30.22000 431.005
30.23000 443.602
30.24000 455.464
30.25000 452.144
30.26000 442.791
30.27000 434.091
30.28000 428.223
30.29000 423.606
30.30000 419.785
30.31000 420.971
30.32000 423.032
30.33000 425.717
30.34000 430.940
30.35000 436.434
30.36000 440.512
30.37000 436.817
30.38000 433.604
30.39000 432.937
30.40000 436.965
30.41000 441.096
30.42000 439.923
30.43000 432.254
30.44000 424.584
30.45000 424.772
30.46000 431.114
30.47000 437.327
30.48000 438.244
30.49000 436.384
30.50000 434.826
30.51000 438.271
30.52000 443.490
30.53000 448.277
30.54000 439.223
30.55000 428.225
30.56000 417.937
30.57000 411.564
30.58000 405.789
30.59000 402.730
30.60000 409.479
30.61000 417.115
30.62000 422.597
30.63000 417.676
30.64000 413.555
30.65000 415.540
30.66000 427.558
30.67000 439.723
30.68000 445.012
30.69000 442.884
30.70000 440.763
30.71000 445.248
30.72000 454.241
30.73000 462.917
30.74000 462.101
30.75000 456.842
30.76000 451.808
30.77000 449.817
30.78000 448.789
30.79000 447.861
30.80000 456.887
30.81000 466.660
30.82000 474.841
30.83000 475.299
30.84000 474.733
30.85000 475.197
30.86000 478.975
30.87000 483.004
30.88000 485.793
30.89000 485.967
30.90000 486.030
30.91000 485.623
30.92000 484.530
30.93000 483.432
30.94000 487.584
30.95000 496.701
30.96000 505.741
30.97000 517.557
30.98000 530.846
30.99000 544.024
31.00000 554.671
31.01000 564.260
31.02000 574.475
31.03000 591.786
31.04000 611.099
31.05000 628.247
31.06000 654.986
31.07000 679.706
31.08000 706.820
31.09000 744.210
31.10000 782.773
31.11000 824.697
31.12000 876.264
31.13000 928.432
31.14000 963.153
31.15000 1065.566
31.16000 1142.623
31.17000 1223.041
31.18000 1307.806
31.19000 1392.625
31.20000 1494.529
31.21000 1610.651
31.22000 1725.244
31.23000 1862.187
31.24000 2007.440
31.25000 2152.313
31.26000 2290.224
31.27000 2425.538
31.28000 2561.172
31.29000 2699.886
31.30000 2839.371
31.31000 2960.950
31.32000 3046.917
31.33000 3115.453
31.34000 3186.556
31.35000 3267.433
31.36000 3349.262
31.37000 3414.002
31.38000 3434.983
31.39000 3453.772
31.40000 3465.756
31.41000 3379.101
31.42000 3314.811
31.43000 3251.550
31.44000 3189.464
31.45000 3127.219
31.46000 3036.729
31.47000 2925.455
31.48000 2816.310
31.49000 2693.851
31.50000 2569.556
31.51000 2444.146
31.52000 2302.220
31.53000 2154.793
31.54000 2007.611
31.55000 1862.437
31.56000 1717.709
31.57000 1594.083
31.58000 1472.441
31.59000 1370.202
31.60000 1266.348
31.61000 1157.029
31.62000 1047.261
31.63000 956.805
31.64000 910.513
31.65000 865.952
31.66000 838.819
31.67000 771.695
31.68000 723.425
31.69000 687.068
31.70000 662.657
31.71000 638.251
31.72000 614.186
31.73000 590.346
31.74000 567.129
31.75000 555.212
31.76000 548.587
31.77000 541.315
31.78000 526.100
31.79000 508.528
31.80000 491.635
31.81000 479.578
31.82000 468.468
31.83000 459.184
31.84000 452.917
31.85000 448.020
31.86000 446.288
31.87000 454.107
31.88000 462.576
31.89000 462.366
31.90000 444.432
31.91000 425.976
31.92000 415.293
31.93000 428.728
31.94000 438.239
31.95000 438.147
31.96000 429.598
31.97000 421.120
31.98000 416.664
31.99000 414.546
32.00000 412.500
32.01000 411.268
32.02000 410.410
32.03000 410.008
32.04000 414.329
32.05000 419.898
32.06000 424.246
32.07000 421.026
32.08000 416.503
32.09000 412.812
32.10000 415.475
32.11000 418.197
32.12000 418.465
32.13000 412.122
32.14000 405.413
32.15000 403.087
32.16000 408.744
32.17000 414.570
32.18000 417.760
32.19000 407.080
32.20000 399.733
32.21000 397.092
32.22000 398.109
32.23000 398.981
32.24000 394.091
32.25000 386.218
32.26000 378.688
32.27000 387.940
32.28000 402.028
32.29000 414.092
32.30000 408.333
32.31000 398.398
32.32000 390.999
32.33000 397.379
32.34000 405.833
32.35000 412.556
32.36000 411.045
32.37000 409.239
32.38000 405.578
32.39000 397.455
32.40000 389.135
32.41000 386.504
32.42000 393.100
32.43000 399.825
32.44000 403.292
32.45000 394.313
32.46000 388.328
32.47000 389.973
32.48000 396.871
32.49000 403.288
32.50000 395.667
32.51000 381.558
32.52000 368.212
32.53000 367.026
32.54000 369.429
32.55000 372.252
32.56000 378.260
32.57000 384.927
32.58000 390.679
32.59000 392.045
32.60000 392.838
32.61000 393.452
32.62000 387.361
32.63000 382.134
32.64000 378.691
32.65000 379.078
32.66000 379.594
32.67000 377.230
32.68000 370.713
32.69000 364.164
32.70000 364.734
32.71000 371.939
32.72000 379.000
32.73000 375.992
32.74000 366.823
32.75000 358.243
32.76000 362.887
32.77000 372.989
32.78000 382.429
32.79000 376.083
32.80000 366.339
32.81000 358.339
32.82000 361.831
32.83000 367.420
32.84000 371.473
32.85000 369.018
32.86000 365.833
32.87000 363.443
32.88000 375.132
32.89000 384.934
32.90000 389.315
32.91000 383.304
32.92000 377.037
32.93000 375.072
32.94000 378.601
32.95000 382.146
32.96000 383.067
32.97000 381.839
32.98000 380.744
32.99000 385.784
33.00000 394.170
33.01000 402.093
33.02000 401.781
33.03000 398.434
33.04000 395.348
33.05000 396.894
33.06000 399.304
33.07000 400.662
33.08000 395.963
33.09000 390.295
33.10000 386.154
33.11000 387.753
33.12000 389.901
33.13000 391.461
33.14000 387.990
33.15000 385.132
33.16000 379.924
33.17000 370.703
33.18000 361.414
33.19000 356.350
33.20000 356.049
33.21000 355.752
33.22000 354.953
33.23000 353.800
33.24000 352.588
33.25000 349.431
33.26000 345.328
33.27000 341.346
33.28000 339.125
33.29000 337.483
33.30000 335.991
33.31000 337.995
33.32000 340.441
33.33000 342.694
33.34000 343.974
33.35000 345.117
33.36000 345.981
33.37000 345.908
33.38000 345.759
33.39000 345.655
33.40000 352.042
33.41000 357.061
33.42000 358.052
33.43000 352.919
33.44000 347.723
33.45000 347.192
33.46000 351.273
33.47000 355.326
33.48000 352.740
33.49000 345.981
33.50000 339.556
33.51000 341.509
33.52000 347.098
33.53000 352.564
33.54000 356.535
33.55000 360.068
33.56000 363.223
33.57000 359.402
33.58000 354.899
33.59000 350.035
33.60000 343.555
33.61000 336.881
33.62000 332.978
33.63000 337.335
33.64000 342.242
33.65000 345.554
33.66000 343.238
33.67000 341.396
33.68000 340.742
33.69000 341.691
33.70000 342.645
33.71000 340.471
33.72000 335.579
33.73000 330.744
33.74000 332.366
33.75000 337.567
33.76000 342.629
33.77000 344.957
33.78000 346.225
33.79000 346.808
33.80000 340.430
33.81000 332.237
33.82000 325.050
33.83000 328.673
33.84000 333.361
33.85000 337.947
33.86000 342.133
33.87000 346.278
33.88000 348.532
33.89000 345.754
33.90000 342.704
33.91000 340.729
33.92000 347.561
33.93000 352.689
33.94000 351.400
33.95000 342.462
33.96000 333.542
33.97000 332.316
33.98000 336.988
33.99000 341.582
34.00000 342.825
34.01000 342.370
34.02000 342.185
34.03000 346.289
34.04000 351.876
34.05000 356.915
34.06000 357.197
34.07000 356.378
34.08000 355.673
34.09000 347.262
34.10000 339.174
34.11000 333.490
34.12000 336.275
34.13000 339.797
34.14000 341.879
34.15000 340.536
34.16000 339.047
34.17000 338.126
34.18000 344.881
34.19000 349.809
34.20000 351.133
34.21000 348.676
34.22000 346.254
34.23000 347.860
34.24000 352.202
34.25000 356.441
34.26000 350.532
34.27000 340.446
34.28000 331.110
34.29000 331.562
34.30000 335.035
34.31000 338.369
34.32000 340.669
34.33000 342.756
34.34000 344.514
34.35000 344.803
34.36000 344.886
34.37000 344.594
34.38000 343.126
34.39000 341.573
34.40000 343.433
34.41000 352.538
34.42000 361.878
34.43000 367.381
34.44000 356.735
34.45000 349.138
34.46000 344.870
34.47000 343.662
34.48000 342.466
34.49000 341.970
34.50000 341.897
34.51000 341.827
34.52000 341.875
34.53000 341.967
34.54000 342.202
34.55000 344.015
34.56000 346.261
34.57000 348.143
34.58000 347.658
34.59000 346.746
34.60000 345.997
34.61000 346.376
34.62000 346.791
34.63000 346.877
34.64000 346.045
34.65000 345.157
34.66000 342.437
34.67000 336.249
34.68000 329.978
34.69000 326.476
34.70000 331.870
34.71000 335.612
34.72000 335.061
34.73000 331.031
34.74000 327.110
34.75000 328.052
34.76000 331.612
34.77000 335.027
34.78000 335.113
34.79000 334.060
34.80000 333.142
34.81000 333.490
34.82000 334.145
34.83000 334.223
34.84000 331.019
34.85000 327.298
34.86000 324.312
34.87000 325.844
34.88000 327.429
34.89000 327.754
34.90000 324.928
34.91000 321.953
34.92000 320.797
34.93000 322.714
34.94000 324.680
34.95000 325.715
34.96000 333.111
34.97000 338.104
34.98000 339.126
34.99000 337.301
35.00000 335.262
35.01000 326.356
35.02000 314.152
35.03000 302.563
35.04000 305.473
35.05000 312.508
35.06000 318.989
35.07000 321.054
35.08000 322.164
35.09000 322.518
35.10000 319.093
35.11000 315.150
35.12000 312.071
35.13000 312.744
35.14000 313.517
35.15000 314.917
35.16000 317.717
35.17000 320.569
35.18000 321.869
35.19000 320.842
35.20000 319.792
35.21000 321.087
35.22000 324.668
35.23000 328.209
35.24000 328.478
35.25000 326.665
35.26000 324.955
35.27000 325.749
35.28000 327.618
35.29000 329.372
35.30000 328.143
35.31000 326.236
35.32000 324.296
35.33000 322.127
35.34000 319.914
35.35000 318.172
35.36000 318.509
35.37000 319.093
35.38000 319.535
35.39000 317.025
35.40000 314.903
35.41000 312.431
35.42000 309.260
35.43000 306.070
35.44000 307.457
35.45000 314.933
35.46000 322.435
35.47000 324.756
35.48000 322.645
35.49000 320.580
35.50000 320.961
35.51000 322.728
35.52000 324.170
35.53000 319.384
35.54000 312.213
35.55000 305.571
35.56000 313.190
35.57000 323.344
35.58000 331.982
35.59000 331.487
35.60000 329.464
35.61000 326.371
35.62000 319.092
35.63000 311.389
35.64000 305.731
35.65000 298.836
35.66000 293.454
35.67000 292.219
35.68000 298.351
35.69000 304.626
35.70000 308.624
35.71000 309.944
35.72000 311.257
35.73000 314.369
35.74000 318.813
35.75000 323.133
35.76000 322.880
35.77000 320.316
35.78000 317.852
35.79000 316.938
35.80000 316.553
35.81000 316.201
35.82000 313.879
35.83000 311.420
35.84000 308.760
35.85000 305.046
35.86000 301.178
35.87000 298.406
35.88000 299.448
35.89000 300.817
35.90000 301.788
35.91000 305.428
35.92000 308.282
35.93000 311.289
35.94000 314.538
35.95000 317.790
35.96000 316.992
35.97000 312.005
35.98000 307.046
35.99000 303.360
36.00000 300.566
36.01000 297.869
36.02000 297.852
36.03000 299.045
36.04000 300.153
36.05000 300.164
36.06000 299.841
36.07000 299.550
36.08000 299.072
36.09000 298.620
36.10000 298.983
36.11000 303.148
36.12000 307.794
36.13000 309.865
36.14000 303.956
36.15000 297.480
36.16000 293.051
36.17000 296.973
36.18000 300.105
36.19000 303.390
36.20000 306.888
36.21000 310.387
36.22000 312.252
36.23000 312.635
36.24000 313.015
36.25000 310.623
36.26000 306.661
36.27000 302.850
36.28000 302.232
36.29000 302.900
36.30000 303.257
36.31000 300.260
36.32000 296.354
36.33000 292.905
36.34000 297.285
36.35000 302.263
36.36000 305.137
36.37000 299.330
36.38000 292.579
36.39000 289.942
36.40000 298.679
36.41000 308.077
36.42000 314.250
36.43000 312.370
36.44000 310.852
36.45000 310.718
36.46000 312.305
36.47000 313.892
36.48000 313.555
36.49000 311.681
36.50000 309.835
36.51000 309.797
36.52000 310.693
36.53000 311.168
36.54000 304.476
36.55000 295.205
36.56000 286.775
36.57000 286.023
36.58000 287.122
36.59000 288.073
36.60000 293.016
36.61000 297.748
36.62000 302.562
36.63000 307.676
36.64000 312.818
36.65000 314.460
36.66000 307.463
36.67000 300.064
36.68000 295.414
36.69000 296.547
36.70000 297.431
36.71000 299.335
36.72000 302.357
36.73000 305.344
36.74000 303.278
36.75000 297.638
36.76000 292.117
36.77000 285.354
36.78000 278.294
36.79000 271.940
36.80000 275.410
36.81000 282.032
36.82000 288.211
36.83000 290.908
36.84000 292.862
36.85000 294.520
36.86000 288.560
36.87000 282.701
36.88000 280.395
36.89000 289.682
36.90000 299.866
36.91000 303.826
36.92000 294.063
36.93000 283.807
36.94000 277.661
36.95000 285.056
36.96000 290.397
36.97000 293.504
36.98000 294.466
36.99000 295.446
37.00000 297.777
37.01000 300.959
37.02000 304.048
37.03000 307.659
37.04000 311.298
37.05000 313.908
37.06000 304.582
37.07000 291.844
37.08000 281.089
37.09000 283.827
37.10000 289.102
37.11000 293.476
37.12000 305.602
37.13000 316.367
37.14000 321.858
37.15000 312.011
37.16000 301.185
37.17000 295.086
37.18000 298.293
37.19000 301.747
37.20000 303.712
37.21000 301.172
37.22000 299.388
37.23000 297.747
37.24000 296.226
37.25000 294.693
37.26000 292.507
37.27000 289.956
37.28000 287.500
37.29000 293.137
37.30000 301.300
37.31000 309.021
37.32000 312.403
37.33000 314.681
37.34000 315.915
37.35000 310.951
37.36000 304.964
37.37000 300.118
37.38000 300.763
37.39000 301.732
37.40000 300.996
37.41000 295.831
37.42000 290.439
37.43000 289.878
37.44000 297.797
37.45000 305.873
37.46000 310.213
37.47000 303.990
37.48000 299.736
37.49000 296.942
37.50000 295.238
37.51000 293.569
37.52000 293.138
37.53000 293.326
37.54000 293.505
37.55000 290.698
37.56000 287.162
37.57000 284.278
37.58000 286.870
37.59000 290.695
37.60000 293.737
37.61000 292.695
37.62000 291.066
37.63000 289.781
37.64000 287.750
37.65000 286.072
37.66000 285.560
37.67000 287.755
37.68000 290.060
37.69000 289.936
37.70000 286.017
37.71000 282.054
37.72000 280.053
37.73000 284.954
37.74000 288.233
37.75000 291.662
37.76000 295.190
37.77000 298.587
37.78000 298.472
37.79000 296.791
37.80000 295.208
37.81000 297.449
37.82000 300.554
37.83000 302.975
37.84000 300.439
37.85000 296.915
37.86000 294.362
37.87000 296.269
37.88000 298.731
37.89000 300.618
37.90000 292.371
37.91000 285.302
37.92000 281.940
37.93000 286.252
37.94000 290.799
37.95000 293.492
37.96000 293.616
37.97000 293.722
37.98000 293.145
37.99000 291.959
38.00000 290.803
38.01000 291.567
38.02000 293.461
38.03000 295.062
38.04000 290.583
38.05000 283.685
38.06000 277.267
38.07000 276.307
38.08000 276.762
38.09000 278.547
38.10000 288.726
38.11000 300.373
38.12000 309.488
38.13000 308.292
38.14000 305.994
38.15000 304.288
38.16000 301.427
38.17000 299.152
38.18000 296.259
38.19000 292.225
38.20000 288.166
38.21000 291.140
38.22000 302.745
38.23000 314.349
38.24000 317.160
38.25000 313.055
38.26000 308.992
38.27000 306.659
38.28000 305.234
38.29000 304.335
38.30000 312.172
38.31000 323.113
38.32000 333.152
38.33000 331.931
38.34000 328.455
38.35000 324.701
38.36000 319.408
38.37000 313.879
38.38000 312.677
38.39000 327.130
38.40000 343.001
38.41000 354.400
38.42000 361.641
38.43000 367.036
38.44000 372.319
38.45000 377.418
38.46000 382.514
38.47000 398.000
38.48000 424.715
38.49000 451.313
38.50000 465.691
38.51000 471.471
38.52000 477.644
38.53000 495.706
38.54000 519.339
38.55000 543.341
38.56000 572.380
38.57000 603.016
38.58000 630.692
38.59000 665.974
38.60000 698.405
38.61000 728.167
38.62000 744.952
38.63000 760.011
38.64000 778.086
38.65000 805.873
38.66000 834.397
38.67000 854.155
38.68000 866.577
38.69000 875.733
38.70000 886.732
38.71000 900.428
38.72000 914.146
38.73000 922.673
38.74000 926.283
38.75000 929.863
38.76000 915.847
38.77000 891.362
38.78000 867.702
38.79000 863.096
38.80000 866.465
38.81000 867.945
38.82000 847.910
38.83000 821.802
38.84000 798.613
38.85000 762.586
38.86000 729.283
38.87000 697.135
38.88000 669.950
38.89000 643.333
38.90000 615.582
38.91000 584.573
38.92000 553.361
38.93000 532.575
38.94000 504.450
38.95000 483.495
38.96000 461.681
38.97000 438.755
38.98000 415.836
38.99000 399.282
39.00000 388.034
39.01000 376.933
39.02000 361.459
39.03000 344.048
39.04000 327.401
39.05000 324.757
39.06000 327.347
39.07000 329.390
39.08000 326.162
39.09000 321.612
39.10000 317.645
39.11000 317.624
39.12000 318.155
39.13000 318.447
39.14000 317.830
39.15000 317.123
39.16000 312.120
39.17000 296.096
39.18000 279.517
39.19000 268.937
39.20000 284.185
39.21000 295.612
39.22000 297.926
39.23000 289.812
39.24000 281.727
39.25000 281.016
39.26000 285.741
39.27000 290.376
39.28000 289.427
39.29000 285.861
39.30000 282.419
39.31000 280.822
39.32000 279.840
39.33000 279.423
39.34000 283.667
39.35000 288.947
39.36000 293.459
39.37000 295.974
39.38000 297.856
39.39000 297.417
39.40000 289.111
39.41000 280.156
39.42000 274.023
39.43000 274.351
39.44000 274.933
39.45000 275.288
39.46000 283.032
39.47000 288.625
39.48000 289.350
39.49000 285.182
39.50000 280.981
39.51000 273.730
39.52000 264.483
39.53000 255.478
39.54000 250.215
39.55000 246.767
39.56000 244.158
39.57000 251.874
39.58000 262.660
39.59000 272.278
39.60000 273.573
39.61000 273.233
39.62000 272.949
39.63000 271.757
39.64000 270.674
39.65000 269.711
39.66000 269.106
39.67000 268.526
39.68000 267.470
39.69000 265.441
39.70000 263.384
39.71000 262.192
39.72000 267.629
39.73000 271.467
39.74000 272.272
39.75000 270.399
39.76000 268.596
39.77000 270.844
39.78000 275.449
39.79000 279.896
39.80000 275.769
39.81000 268.704
39.82000 262.047
39.83000 259.622
39.84000 258.316
39.85000 258.314
39.86000 266.409
39.87000 275.902
39.88000 283.651
39.89000 274.128
39.90000 264.853
39.91000 258.710
39.92000 261.018
39.93000 263.794
39.94000 265.852
39.95000 266.600
39.96000 267.319
39.97000 267.713
39.98000 274.060
39.99000 278.416
40.00000 277.773
40.01000 273.238
40.02000 268.658
40.03000 262.226
40.04000 254.834
40.05000 247.763
40.06000 247.792
40.07000 250.139
40.08000 252.068
40.09000 250.311
40.10000 247.689
40.11000 246.605
40.12000 253.893
40.13000 262.443
40.14000 269.244
40.15000 270.940
40.16000 271.941
40.17000 270.641
40.18000 263.801
40.19000 256.716
40.20000 251.111
40.21000 247.911
40.22000 244.744
40.23000 243.111
40.24000 245.375
40.25000 246.908
40.26000 249.159
40.27000 251.906
40.28000 254.636
40.29000 256.848
40.30000 258.820
40.31000 260.687
40.32000 264.605
40.33000 268.797
40.34000 272.211
40.35000 269.701
40.36000 265.961
40.37000 262.835
40.38000 262.650
40.39000 262.849
40.40000 263.003
40.41000 257.795
40.42000 253.346
40.43000 251.681
40.44000 256.007
40.45000 260.535
40.46000 264.329
40.47000 267.062
40.48000 269.786
40.49000 266.812
40.50000 258.519
40.51000 250.353
40.52000 251.080
40.53000 257.258
40.54000 263.240
40.55000 264.794
40.56000 264.517
40.57000 264.259
40.58000 261.848
40.59000 259.115
40.60000 256.624
40.61000 255.732
40.62000 255.132
40.63000 254.625
40.64000 254.511
40.65000 254.441
40.66000 254.388
40.67000 257.295
40.68000 259.708
40.69000 261.482
40.70000 262.031
40.71000 262.550
40.72000 260.694
40.73000 255.799
40.74000 250.898
40.75000 249.653
40.76000 251.406
40.77000 253.130
40.78000 253.454
40.79000 253.012
40.80000 252.474
40.81000 250.193
40.82000 247.269
40.83000 244.574
40.84000 246.956
40.85000 250.216
40.86000 252.027
40.87000 245.480
40.88000 237.593
40.89000 232.477
40.90000 237.794
40.91000 244.112
40.92000 248.702
40.93000 251.396
40.94000 253.397
40.95000 255.488
40.96000 257.733
40.97000 259.981
40.98000 261.551
40.99000 262.355
41.00000 263.156
41.01000 262.631
41.02000 261.153
41.03000 259.501
41.04000 252.053
41.05000 241.781
41.06000 232.211
41.07000 232.841
41.08000 236.834
41.09000 240.459
41.10000 244.686
41.11000 248.536
41.12000 251.826
41.13000 252.278
41.14000 252.335
41.15000 251.525
41.16000 247.817
41.17000 243.875
41.18000 241.109
41.19000 241.737
41.20000 242.309
41.21000 244.071
41.22000 247.644
41.23000 251.236
41.24000 251.320
41.25000 247.929
41.26000 244.561
41.27000 243.526
41.28000 243.990
41.29000 244.428
41.30000 244.185
41.31000 243.646
41.32000 243.126
41.33000 242.819
41.34000 242.576
41.35000 242.358
41.36000 243.812
41.37000 245.361
41.38000 247.506
41.39000 252.320
41.40000 257.455
41.41000 259.455
41.42000 252.092
41.43000 244.102
41.44000 238.708
41.45000 246.722
41.46000 252.973
41.47000 255.936
41.48000 254.456
41.49000 252.952
41.50000 250.847
41.51000 248.219
41.52000 245.621
41.53000 246.921
41.54000 250.376
41.55000 253.670
41.56000 253.779
41.57000 252.651
41.58000 250.998
41.59000 243.987
41.60000 235.577
41.61000 228.197
41.62000 240.447
41.63000 253.837
41.64000 263.409
41.65000 257.819
41.66000 250.665
41.67000 245.480
41.68000 245.546
41.69000 245.896
41.70000 246.123
41.71000 248.559
41.72000 250.374
41.73000 250.084
41.74000 247.280
41.75000 244.456
41.76000 238.418
41.77000 229.911
41.78000 221.547
41.79000 217.438
41.80000 215.574
41.81000 214.572
41.82000 227.280
41.83000 244.742
41.84000 260.336
41.85000 259.708
41.86000 255.321
41.87000 251.547
41.88000 245.976
41.89000 241.032
41.90000 236.379
41.91000 232.747
41.92000 229.205
41.93000 229.894
41.94000 240.654
41.95000 251.846
41.96000 258.776
41.97000 248.378
41.98000 240.736
41.99000 236.863
42.00000 236.948
42.01000 237.028
42.02000 236.330
42.03000 235.104
42.04000 233.907
42.05000 238.270
42.06000 244.878
42.07000 250.756
42.08000 247.084
42.09000 240.458
42.10000 234.611
42.11000 234.599
42.12000 235.781
42.13000 236.778
42.14000 234.313
42.15000 231.885
42.16000 230.178
42.17000 230.741
42.18000 231.469
42.19000 232.231
42.20000 233.065
42.21000 233.902
42.22000 234.395
42.23000 241.251
42.24000 246.123
42.25000 247.480
42.26000 245.597
42.27000 243.734
42.28000 243.156
42.29000 243.355
42.30000 243.548
42.31000 246.906
42.32000 251.306
42.33000 254.597
42.34000 245.716
42.35000 233.483
42.36000 223.443
42.37000 227.667
42.38000 234.463
42.39000 240.057
42.40000 242.645
42.41000 244.498
42.42000 244.654
42.43000 240.050
42.44000 235.161
42.45000 233.292
42.46000 237.150
42.47000 241.145
42.48000 243.377
42.49000 233.060
42.50000 225.908
42.51000 226.600
42.52000 233.659
42.53000 240.577
42.54000 241.134
42.55000 238.261
42.56000 235.505
42.57000 237.040
42.58000 239.938
42.59000 242.945
42.60000 246.966
42.61000 251.236
42.62000 254.099
42.63000 248.964
42.64000 242.565
42.65000 237.429
42.66000 230.162
42.67000 224.112
42.68000 220.037
42.69000 220.902
42.70000 222.003
42.71000 225.821
42.72000 234.234
42.73000 242.721
42.74000 247.194
42.75000 250.213
42.76000 252.214
42.77000 246.962
42.78000 236.503
42.79000 226.334
42.80000 225.552
42.81000 229.285
42.82000 232.831
42.83000 233.807
42.84000 233.937
42.85000 233.722
42.86000 230.756
42.87000 227.194
42.88000 223.858
42.89000 221.654
42.90000 219.606
42.91000 218.006
42.92000 225.953
42.93000 232.896
42.94000 237.106
42.95000 235.207
42.96000 233.081
42.97000 232.541
42.98000 234.386
42.99000 236.254
43.00000 235.840
43.01000 233.198
43.02000 230.578
43.03000 229.828
43.04000 230.269
43.05000 230.604
43.06000 228.331
43.07000 224.937
43.08000 221.751
43.09000 225.773
43.10000 231.344
43.11000 236.256
43.12000 236.606
43.13000 236.086
43.14000 236.331
43.15000 239.962
43.16000 243.994
43.17000 247.053
43.18000 242.712
43.19000 238.921
43.20000 235.197
43.21000 231.607
43.22000 228.020
43.23000 228.173
43.24000 233.316
43.25000 238.479
43.26000 240.508
43.27000 239.849
43.28000 239.191
43.29000 238.607
43.30000 238.066
43.31000 237.176
43.32000 229.557
43.33000 219.357
43.34000 209.908
43.35000 214.767
43.36000 222.456
43.37000 229.412
43.38000 231.935
43.39000 233.715
43.40000 235.106
43.41000 234.972
43.42000 234.684
43.43000 234.472
43.44000 235.562
43.45000 236.459
43.46000 235.038
43.47000 229.493
43.48000 223.867
43.49000 219.587
43.50000 216.891
43.51000 214.204
43.52000 214.004
43.53000 215.679
43.54000 217.405
43.55000 221.080
43.56000 225.741
43.57000 229.967
43.58000 227.427
43.59000 222.571
43.60000 218.136
43.61000 215.954
43.62000 214.474
43.63000 213.735
43.64000 216.921
43.65000 220.682
43.66000 224.714
43.67000 229.696
43.68000 234.760
43.69000 238.355
43.70000 229.384
43.71000 222.158
43.72000 217.846
43.73000 218.155
43.74000 218.521
43.75000 218.993
43.76000 219.574
43.77000 220.153
43.78000 218.300
43.79000 214.858
43.80000 211.601
43.81000 213.471
43.82000 217.657
43.83000 221.549
43.84000 221.674
43.85000 220.647
43.86000 219.725
43.87000 216.285
43.88000 212.828
43.89000 210.395
43.90000 212.748
43.91000 215.708
43.92000 220.006
43.93000 228.462
43.94000 237.214
43.95000 243.202
43.96000 240.396
43.97000 238.086
43.98000 235.703
43.99000 233.218
44.00000 230.733
44.01000 229.163
44.02000 228.426
44.03000 227.696
44.04000 229.238
44.05000 232.078
44.06000 234.577
44.07000 229.808
44.08000 222.105
44.09000 215.342
44.10000 218.697
44.11000 224.803
44.12000 230.194
44.13000 229.545
44.14000 228.058
44.15000 227.003
44.16000 227.737
44.17000 228.665
44.18000 228.490
44.19000 225.258
44.20000 221.848
44.21000 219.607
44.22000 221.145
44.23000 222.341
44.24000 222.613
44.25000 221.735
44.26000 220.850
44.27000 218.552
44.28000 215.122
44.29000 211.744
44.30000 209.758
44.31000 208.550
44.32000 207.756
44.33000 214.024
44.34000 222.837
44.35000 230.346
44.36000 225.925
44.37000 218.625
44.38000 212.301
44.39000 215.916
44.40000 220.309
44.41000 223.818
44.42000 224.085
44.43000 224.052
44.44000 224.799
44.45000 227.477
44.46000 230.244
44.47000 231.985
44.48000 225.241
44.49000 220.268
44.50000 220.147
44.51000 225.352
44.52000 230.516
44.53000 229.577
44.54000 224.312
44.55000 219.159
44.56000 220.782
44.57000 225.433
44.58000 229.933
44.59000 232.323
44.60000 234.035
44.61000 235.446
44.62000 234.492
44.63000 233.033
44.64000 231.794
44.65000 233.247
44.66000 234.770
44.67000 236.098
44.68000 236.785
44.69000 237.422
44.70000 239.071
44.71000 242.956
44.72000 246.921
44.73000 249.299
44.74000 246.587
44.75000 244.628
44.76000 245.709
44.77000 249.717
44.78000 253.726
44.79000 257.695
44.80000 261.639
44.81000 265.471
44.82000 267.260
44.83000 268.135
44.84000 269.136
44.85000 271.588
44.86000 274.456
44.87000 277.056
44.88000 277.831
44.89000 278.261
44.90000 278.618
44.91000 288.083
44.92000 296.783
44.93000 305.694
44.94000 315.220
44.95000 324.785
44.96000 332.196
44.97000 335.359
44.98000 338.408
44.99000 340.145
45.00000 345.732
45.01000 349.635
45.02000 351.414
45.03000 351.393
45.04000 351.516
45.05000 358.921
45.06000 370.408
45.07000 381.468
45.08000 386.116
45.09000 388.197
45.10000 390.288
45.11000 392.483
45.12000 394.705
45.13000 395.733
45.14000 389.666
45.15000 382.425
45.16000 376.563
45.17000 365.537
45.18000 356.142
45.19000 349.628
45.20000 350.610
45.21000 351.979
45.22000 350.662
45.23000 344.624
45.24000 338.497
45.25000 335.202
45.26000 326.807
45.27000 321.066
45.28000 315.308
45.29000 309.539
45.30000 303.777
45.31000 298.271
45.32000 292.893
45.33000 287.767
45.34000 281.724
45.35000 275.834
45.36000 270.907
45.37000 274.082
45.38000 279.085
45.39000 281.426
45.40000 269.867
45.41000 256.304
45.42000 245.609
45.43000 250.597
45.44000 255.655
45.45000 259.045
45.46000 258.558
45.47000 257.914
45.48000 255.122
45.49000 248.969
45.50000 242.776
45.51000 239.647
45.52000 242.955
45.53000 245.117
45.54000 242.221
45.55000 235.968
45.56000 229.821
45.57000 226.500
45.58000 224.440
45.59000 222.499
45.60000 222.582
45.61000 223.217
45.62000 223.839
45.63000 224.368
45.64000 224.878
45.65000 225.347
45.66000 225.624
45.67000 225.878
45.68000 226.072
45.69000 230.118
45.70000 233.526
45.71000 235.360
45.72000 233.930
45.73000 232.399
45.74000 227.517
45.75000 217.978
45.76000 208.413
45.77000 206.604
45.78000 211.737
45.79000 216.801
45.80000 217.565
45.81000 215.791
45.82000 214.065
45.83000 213.328
45.84000 212.985
45.85000 212.666
45.86000 217.187
45.87000 222.446
45.88000 225.688
45.89000 216.195
45.90000 204.469
45.91000 195.828
45.92000 199.774
45.93000 205.068
45.94000 209.002
45.95000 204.162
45.96000 200.011
45.97000 198.351
45.98000 201.300
45.99000 204.350
46.00000 204.717
46.01000 201.783
46.02000 198.847
46.03000 199.452
46.04000 202.840
46.05000 206.165
46.06000 206.866
46.07000 206.188
46.08000 205.682
46.09000 208.068
46.10000 211.482
46.11000 214.615
46.12000 211.048
46.13000 206.443
46.14000 202.307
46.15000 200.757
46.16000 199.604
46.17000 199.552
46.18000 203.487
46.19000 207.785
46.20000 210.873
46.21000 206.687
46.22000 203.231
46.23000 202.356
46.24000 205.736
46.25000 209.178
46.26000 210.554
46.27000 209.692
46.28000 208.833
46.29000 208.941
46.30000 209.717
46.31000 210.378
46.32000 207.570
46.33000 203.132
46.34000 199.103
46.35000 200.669
46.36000 204.011
46.37000 207.030
46.38000 202.310
46.39000 196.723
46.40000 192.605
46.41000 195.643
46.42000 199.633
46.43000 202.953
46.44000 204.110
46.45000 205.103
46.46000 205.791
46.47000 207.754
46.48000 209.265
46.49000 208.715
46.50000 205.143
46.51000 201.545
46.52000 199.409
46.53000 198.661
46.54000 197.919
46.55000 198.416
46.56000 199.661
46.57000 200.811
46.58000 199.773
46.59000 197.818
46.60000 196.199
46.61000 198.428
46.62000 201.744
46.63000 204.691
46.64000 205.262
46.65000 205.375
46.66000 205.665
46.67000 206.717
46.68000 207.856
46.69000 208.206
46.70000 206.284
46.71000 204.219
46.72000 202.843
46.73000 197.270
46.74000 193.065
46.75000 192.039
46.76000 195.144
46.77000 198.266
46.78000 201.136
46.79000 203.796
46.80000 206.422
46.81000 202.452
46.82000 195.034
46.83000 188.047
46.84000 188.979
46.85000 192.877
46.86000 196.649
46.87000 199.209
46.88000 201.465
46.89000 203.432
46.90000 204.718
46.91000 205.723
46.92000 205.835
46.93000 202.537
46.94000 198.904
46.95000 196.187
46.96000 195.823
46.97000 195.578
46.98000 195.422
46.99000 196.318
47.00000 196.984
47.01000 198.060
47.02000 199.605
47.03000 201.152
47.04000 202.915
47.05000 204.836
47.06000 206.721
47.07000 205.599
47.08000 203.086
47.09000 200.562
47.10000 197.865
47.11000 195.110
47.12000 192.847
47.13000 194.648
47.14000 197.354
47.15000 199.667
47.16000 202.779
47.17000 205.497
47.18000 207.133
47.19000 205.092
47.20000 202.748
47.21000 200.102
47.22000 196.762
47.23000 193.396
47.24000 191.343
47.25000 196.694
47.26000 200.578
47.27000 201.114
47.28000 198.279
47.29000 195.484
47.30000 196.441
47.31000 199.857
47.32000 203.184
47.33000 199.417
47.34000 192.842
47.35000 186.795
47.36000 187.253
47.37000 189.650
47.38000 191.395
47.39000 188.482
47.40000 184.654
47.41000 181.453
47.42000 179.762
47.43000 178.512
47.44000 178.185
47.45000 180.658
47.46000 183.321
47.47000 187.176
47.48000 193.470
47.49000 199.837
47.50000 203.528
47.51000 197.842
47.52000 193.814
47.53000 192.007
47.54000 192.162
47.55000 192.309
47.56000 191.939
47.57000 191.268
47.58000 190.620
47.59000 188.139
47.60000 185.121
47.61000 182.474
47.62000 183.693
47.63000 185.937
47.64000 187.361
47.65000 183.690
47.66000 179.137
47.67000 175.420
47.68000 180.236
47.69000 184.912
47.70000 187.776
47.71000 185.740
47.72000 183.432
47.73000 184.649
47.74000 192.310
47.75000 200.108
47.76000 204.386
47.77000 192.130
47.78000 183.698
47.79000 182.240
47.80000 186.220
47.81000 190.178
47.82000 193.242
47.83000 195.841
47.84000 198.327
47.85000 197.381
47.86000 195.377
47.87000 193.415
47.88000 191.823
47.89000 190.318
47.90000 188.924
47.91000 188.130
47.92000 187.426
47.93000 186.867
47.94000 187.502
47.95000 188.100
47.96000 187.950
47.97000 185.994
47.98000 183.959
47.99000 184.452
48.00000 189.060
48.01000 193.725
48.02000 196.135
48.03000 194.854
48.04000 193.987
48.05000 192.719
48.06000 191.176
48.07000 189.676
48.08000 189.442
48.09000 189.797
48.10000 190.132
48.11000 190.432
48.12000 190.698
48.13000 190.849
48.14000 190.126
48.15000 189.221
48.16000 188.390
48.17000 187.911
48.18000 187.479
48.19000 187.144
48.20000 189.392
48.21000 191.329
48.22000 190.171
48.23000 182.342
48.24000 174.287
48.25000 171.816
48.26000 177.425
48.27000 183.099
48.28000 185.706
48.29000 185.444
48.30000 185.166
48.31000 183.774
48.32000 181.699
48.33000 179.986
48.34000 186.470
48.35000 196.348
48.36000 205.582
48.37000 197.572
48.38000 185.930
48.39000 175.729
48.40000 175.060
48.41000 176.137
48.42000 177.385
48.43000 179.357
48.44000 181.411
48.45000 182.954
48.46000 183.240
48.47000 183.404
48.48000 182.680
48.49000 180.251
48.50000 177.778
48.51000 177.344
48.52000 179.522
48.53000 181.708
48.54000 182.680
48.55000 182.652
48.56000 182.589
48.57000 180.820
48.58000 178.119
48.59000 175.877
48.60000 181.867
48.61000 190.900
48.62000 199.231
48.63000 195.228
48.64000 188.902
48.65000 183.514
48.66000 183.552
48.67000 184.461
48.68000 186.004
48.69000 189.938
48.70000 194.103
48.71000 197.131
48.72000 191.572
48.73000 186.970
48.74000 182.380
48.75000 177.811
48.76000 173.242
48.77000 172.993
48.78000 177.629
48.79000 182.254
48.80000 184.417
48.81000 184.783
48.82000 185.103
48.83000 183.879
48.84000 181.902
48.85000 179.960
48.86000 178.532
48.87000 177.273
48.88000 176.130
48.89000 173.233
48.90000 170.334
48.91000 168.335
48.92000 170.913
48.93000 174.130
48.94000 177.329
48.95000 180.468
48.96000 183.601
48.97000 185.800
48.98000 188.399
48.99000 190.378
49.00000 189.665
49.01000 184.844
49.02000 179.980
49.03000 177.023
49.04000 175.958
49.05000 174.901
49.06000 175.264
49.07000 176.525
49.08000 177.829
49.09000 180.211
49.10000 183.064
49.11000 185.603
49.12000 184.347
49.13000 181.976
49.14000 179.856
49.15000 179.471
49.16000 179.428
49.17000 179.731
49.18000 181.582
49.19000 183.619
49.20000 184.285
49.21000 180.846
49.22000 177.132
49.23000 174.623
49.24000 178.719
49.25000 181.911
49.26000 182.026
49.27000 177.976
49.28000 173.909
49.29000 174.902
49.30000 180.305
49.31000 185.648
49.32000 185.196
49.33000 181.498
49.34000 178.119
49.35000 181.072
49.36000 186.489
49.37000 191.054
49.38000 186.917
49.39000 180.503
49.40000 174.873
49.41000 177.322
49.42000 180.609
49.43000 182.517
49.44000 178.938
49.45000 174.791
49.46000 173.853
49.47000 181.482
49.48000 189.577
49.49000 194.824
49.50000 191.879
49.51000 189.601
49.52000 184.515
49.53000 176.068
49.54000 167.655
49.55000 168.957
49.56000 177.735
49.57000 186.365
49.58000 189.464
49.59000 189.715
49.60000 189.644
49.61000 184.446
49.62000 177.466
49.63000 171.512
49.64000 174.491
49.65000 179.543
49.66000 183.891
49.67000 180.046
49.68000 175.756
49.69000 172.100
49.70000 170.683
49.71000 169.462
49.72000 169.971
49.73000 174.604
49.74000 179.415
49.75000 182.396
49.76000 180.006
49.77000 178.235
49.78000 175.635
49.79000 172.161
49.80000 168.735
49.81000 170.779
49.82000 176.555
49.83000 182.195
49.84000 181.211
49.85000 177.364
49.86000 173.638
49.87000 171.488
49.88000 169.826
49.89000 168.439
49.90000 169.115
49.91000 170.215
49.92000 171.141
49.93000 179.646
49.94000 187.563
49.95000 191.902
49.96000 184.981
49.97000 177.237
49.98000 173.182
49.99000 176.977
50.00000 181.032
50.01000 183.424
50.02000 180.685
50.03000 178.723
50.04000 176.609
50.05000 174.354
50.06000 172.163
50.07000 174.330
50.08000 179.139
50.09000 183.797
50.10000 181.195
50.11000 175.921
50.12000 171.435
50.13000 175.608
50.14000 182.168
50.15000 187.930
50.16000 188.489
50.17000 188.108
50.18000 187.795
50.19000 184.250
50.20000 181.040
50.21000 180.604
50.22000 187.958
50.23000 195.778
50.24000 198.907
50.25000 193.123
50.26000 187.125
50.27000 183.770
50.28000 177.928
50.29000 173.889
50.30000 174.769
50.31000 179.648
50.32000 184.458
50.33000 186.114
50.34000 186.067
50.35000 186.021
50.36000 186.919
50.37000 188.081
50.38000 189.256
50.39000 190.542
50.40000 191.855
50.41000 193.086
50.42000 193.841
50.43000 194.522
50.44000 195.069
50.45000 200.846
50.46000 205.927
50.47000 209.039
50.48000 207.211
50.49000 205.147
50.50000 205.457
50.51000 209.790
50.52000 214.188
50.53000 216.507
50.54000 218.344
50.55000 219.618
50.56000 225.146
50.57000 233.734
50.58000 242.172
50.59000 245.737
50.60000 246.953
50.61000 248.107
50.62000 252.259
50.63000 256.994
50.64000 261.207
50.65000 261.229
50.66000 260.343
50.67000 260.254
50.68000 264.164
50.69000 268.625
50.70000 272.112
50.71000 272.462
50.72000 272.542
50.73000 273.382
50.74000 275.921
50.75000 278.524
50.76000 276.229
50.77000 266.557
50.78000 256.811
50.79000 254.633
50.80000 259.861
50.81000 265.015
50.82000 264.027
50.83000 259.117
50.84000 254.331
50.85000 252.613
50.86000 252.216
50.87000 251.843
50.88000 241.807
50.89000 230.096
50.90000 219.045
50.91000 212.564
50.92000 206.958
50.93000 202.183
50.94000 201.088
50.95000 200.430
50.96000 199.931
50.97000 196.336
50.98000 193.352
50.99000 193.071
51.00000 198.192
51.01000 203.464
51.02000 204.908
51.03000 201.239
51.04000 197.547
51.05000 193.406
51.06000 188.888
51.07000 184.456
51.08000 184.632
51.09000 187.429
51.10000 189.830
51.11000 184.581
51.12000 176.394
51.13000 168.807
51.14000 174.164
51.15000 181.993
51.16000 188.470
51.17000 186.767
51.18000 183.690
51.19000 182.035
51.20000 185.960
51.21000 190.452
51.22000 193.755
51.23000 184.284
51.24000 176.433
51.25000 171.103
51.26000 170.267
51.27000 169.518
51.28000 169.793
51.29000 171.277
51.30000 172.758
51.31000 169.952
51.32000 163.929
51.33000 158.093
51.34000 159.206
51.35000 163.843
51.36000 168.277
51.37000 169.546
51.38000 169.729
51.39000 169.896
51.40000 172.066
51.41000 174.399
51.42000 176.457
51.43000 177.054
51.44000 177.436
51.45000 176.852
51.46000 172.890
51.47000 168.639
51.48000 165.618
51.49000 166.874
51.50000 167.966
51.51000 170.025
51.52000 173.620
51.53000 177.235
51.54000 174.931
51.55000 166.484
51.56000 158.083
51.57000 158.115
51.58000 163.751
51.59000 169.128
51.60000 167.316
51.61000 162.251
51.62000 157.743
51.63000 160.408
51.64000 165.268
51.65000 169.636
51.66000 167.085
51.67000 163.625
51.68000 160.600
51.69000 159.614
51.70000 158.887
51.71000 159.217
51.72000 162.837
51.73000 166.691
51.74000 169.329
51.75000 169.814
51.76000 170.126
51.77000 170.217
51.78000 169.998
51.79000 169.776
51.80000 170.173
51.81000 171.132
51.82000 172.082
51.83000 169.831
51.84000 165.750
51.85000 161.781
51.86000 160.205
51.87000 159.598
51.88000 159.297
51.89000 162.321
51.90000 166.249
51.91000 169.718
51.92000 165.083
51.93000 159.834
51.94000 155.166
51.95000 152.900
51.96000 150.896
51.97000 150.192
51.98000 153.093
51.99000 156.205
52.00000 158.251
52.01000 153.910
52.02000 150.606
52.03000 150.414
52.04000 154.106
52.05000 157.804
52.06000 159.850
52.07000 160.571
52.08000 161.281
52.09000 162.545
52.10000 164.057
52.11000 165.244
52.12000 160.852
52.13000 154.446
52.14000 149.243
52.15000 155.072
52.16000 163.568
52.17000 170.932
52.18000 166.476
52.19000 161.115
52.20000 156.825
52.21000 156.473
52.22000 156.486
52.23000 157.704
52.24000 161.907
52.25000 166.250
52.26000 168.984
52.27000 169.314
52.28000 169.525
52.29000 168.359
52.30000 165.675
52.31000 163.016
52.32000 163.942
52.33000 167.413
52.34000 170.811
52.35000 168.954
52.36000 164.768
52.37000 160.968
52.38000 162.578
52.39000 165.930
52.40000 169.013
52.41000 169.969
52.42000 170.471
52.43000 170.897
52.44000 166.409
52.45000 162.086
52.46000 159.371
52.47000 161.922
52.48000 164.882
52.49000 166.126
52.50000 163.572
52.51000 160.881
52.52000 159.266
52.53000 158.004
52.54000 157.110
52.55000 158.317
52.56000 161.553
52.57000 164.791
52.58000 168.290
52.59000 171.954
52.60000 175.513
52.61000 175.712
52.62000 174.545
52.63000 173.138
52.64000 168.933
52.65000 163.925
52.66000 159.462
52.67000 158.723
52.68000 158.688
52.69000 158.658
52.70000 161.178
52.71000 163.506
52.72000 165.442
52.73000 166.232
52.74000 166.948
52.75000 166.200
52.76000 162.559
52.77000 158.840
52.78000 156.721
52.79000 168.483
52.80000 176.721
52.81000 180.492
52.82000 180.473
52.83000 180.371
52.84000 176.084
52.85000 169.445
52.86000 163.052
52.87000 161.967
52.88000 162.840
52.89000 163.648
52.90000 163.815
52.91000 163.818
52.92000 163.263
52.93000 159.388
52.94000 154.962
52.95000 151.378
52.96000 150.740
52.97000 150.461
52.98000 151.038
52.99000 153.847
53.00000 156.771
53.01000 158.057
53.02000 156.460
53.03000 154.808
53.04000 153.919
53.05000 161.536
53.06000 166.735
53.07000 168.833
53.08000 168.606
53.09000 168.307
53.10000 165.370
53.11000 161.112
53.12000 157.052
53.13000 156.156
53.14000 156.318
53.15000 156.526
53.16000 157.108
53.17000 157.776
53.18000 159.014
53.19000 163.240
53.20000 167.896
53.21000 171.570
53.22000 169.426
53.23000 167.314
53.24000 165.238
53.25000 163.251
53.26000 161.267
53.27000 157.762
53.28000 151.873
53.29000 145.955
53.30000 142.962
53.31000 152.102
53.32000 158.191
53.33000 161.524
53.34000 163.025
53.35000 164.591
53.36000 167.911
53.37000 172.016
53.38000 175.886
53.39000 172.723
53.40000 167.881
53.41000 163.347
53.42000 161.063
53.43000 159.227
53.44000 157.750
53.45000 157.924
53.46000 158.304
53.47000 158.596
53.48000 163.063
53.49000 166.822
53.50000 169.742
53.51000 170.918
53.52000 172.040
53.53000 169.921
53.54000 163.292
53.55000 156.636
53.56000 154.406
53.57000 156.147
53.58000 157.900
53.59000 160.402
53.60000 163.348
53.61000 166.227
53.62000 167.708
53.63000 168.629
53.64000 169.488
53.65000 166.228
53.66000 162.282
53.67000 159.191
53.68000 161.511
53.69000 164.781
53.70000 167.392
53.71000 167.308
53.72000 166.934
53.73000 166.657
53.74000 167.247
53.75000 167.744
53.76000 167.663
53.77000 166.511
53.78000 165.336
53.79000 162.634
53.80000 158.051
53.81000 153.472
53.82000 150.976
53.83000 150.134
53.84000 149.315
53.85000 149.485
53.86000 150.177
53.87000 150.911
53.88000 152.369
53.89000 154.084
53.90000 155.658
53.91000 154.993
53.92000 153.924
53.93000 153.366
53.94000 155.642
53.95000 158.354
53.96000 160.350
53.97000 159.742
53.98000 158.897
53.99000 158.290
54.00000 152.238
54.01000 147.416
54.02000 145.037
54.03000 146.691
54.04000 148.405
54.05000 149.318
54.06000 149.363
54.07000 149.407
54.08000 151.488
54.09000 154.959
54.10000 158.385
54.11000 160.430
54.12000 161.825
54.13000 162.866
54.14000 159.045
54.15000 153.678
54.16000 148.828
54.17000 153.785
54.18000 159.968
54.19000 164.851
54.20000 163.391
54.21000 161.084
54.22000 159.665
54.23000 161.111
54.24000 162.776
54.25000 163.930
54.26000 167.336
54.27000 169.960
54.28000 170.472
54.29000 167.881
54.30000 165.262
54.31000 159.869
54.32000 151.835
54.33000 143.867
54.34000 144.962
54.35000 151.580
54.36000 158.084
54.37000 161.912
54.38000 164.616
54.39000 167.004
54.40000 165.760
54.41000 163.488
54.42000 161.469
54.43000 158.330
54.44000 155.426
54.45000 153.835
54.46000 157.907
54.47000 162.630
54.48000 165.206
54.49000 161.588
54.50000 157.581
54.51000 154.910
54.52000 155.216
54.53000 155.499
54.54000 156.575
54.55000 158.682
54.56000 160.787
54.57000 160.365
54.58000 157.826
54.59000 155.321
54.60000 155.055
54.61000 156.005
54.62000 156.990
54.63000 158.642
54.64000 160.543
54.65000 162.205
54.66000 161.552
54.67000 160.316
54.68000 159.238
54.69000 160.175
54.70000 161.258
54.71000 161.910
54.72000 160.917
54.73000 159.763
54.74000 159.099
54.75000 159.698
54.76000 160.361
54.77000 160.785
54.78000 158.585
54.79000 156.950
54.80000 156.595
54.81000 157.711
54.82000 158.835
54.83000 161.076
54.84000 164.143
54.85000 167.152
54.86000 165.424
54.87000 161.499
54.88000 158.015
54.89000 161.108
54.90000 166.403
54.91000 171.121
54.92000 171.053
54.93000 169.919
54.94000 168.949
54.95000 165.719
54.96000 162.727
54.97000 159.355
54.98000 154.694
54.99000 149.926
55.00000 147.312
55.01000 149.646
55.02000 152.177
55.03000 153.721
55.04000 151.764
55.05000 150.337
55.06000 150.553
55.07000 152.427
55.08000 154.303
55.09000 156.377
55.10000 158.580
55.11000 160.726
55.12000 160.537
55.13000 159.373
55.14000 158.482
55.15000 160.968
55.16000 164.462
55.17000 167.213
55.18000 164.639
55.19000 161.016
55.20000 157.985
55.21000 158.870
55.22000 160.007
55.23000 160.257
55.24000 157.821
55.25000 155.200
55.26000 156.245
55.27000 164.815
55.28000 173.610
55.29000 178.712
55.30000 173.439
55.31000 169.698
55.32000 170.630
55.33000 175.701
55.34000 180.656
55.35000 178.778
55.36000 172.912
55.37000 167.245
55.38000 168.648
55.39000 172.599
55.40000 176.358
55.41000 178.115
55.42000 179.341
55.43000 180.286
55.44000 179.479
55.45000 178.369
55.46000 177.461
55.47000 177.885
55.48000 178.346
55.49000 178.957
55.50000 179.970
55.51000 181.006
55.52000 185.125
55.53000 194.888
55.54000 204.771
55.55000 210.199
55.56000 206.283
55.57000 203.607
55.58000 210.118
55.59000 223.803
55.60000 237.268
55.61000 241.806
55.62000 241.699
55.63000 241.596
55.64000 246.520
55.65000 252.755
55.66000 259.785
55.67000 273.868
55.68000 289.612
55.69000 304.636
55.70000 315.723
55.71000 326.215
55.72000 334.568
55.73000 352.623
55.74000 367.879
55.75000 380.517
55.76000 386.824
55.77000 392.851
55.78000 401.977
55.79000 416.160
55.80000 430.414
55.81000 437.782
55.82000 487.742
55.83000 521.338
55.84000 543.564
55.85000 557.922
55.86000 572.217
55.87000 584.652
55.88000 596.223
55.89000 607.174
55.90000 620.991
55.91000 634.527
55.92000 646.518
55.93000 646.707
55.94000 644.438
55.95000 641.811
55.96000 637.468
55.97000 632.898
55.98000 629.361
55.99000 626.822
56.00000 624.866
56.01000 620.957
56.02000 612.830
56.03000 604.560
56.04000 594.700
56.05000 582.535
56.06000 570.353
56.07000 553.817
56.08000 533.204
56.09000 512.638
56.10000 495.391
56.11000 480.186
56.12000 465.110
56.13000 452.963
56.14000 442.031
56.15000 431.810
56.16000 410.825
56.17000 389.039
56.18000 368.167
56.19000 353.360
56.20000 339.666
56.21000 325.860
56.22000 311.577
56.23000 297.240
56.24000 286.467
56.25000 275.859
56.26000 267.575
56.27000 258.133
56.28000 246.463
56.29000 234.736
56.30000 225.859
56.31000 220.639
56.32000 215.440
56.33000 209.103
56.34000 201.849
56.35000 194.726
56.36000 193.743
56.37000 196.124
56.38000 198.384
56.39000 198.478
56.40000 197.769
56.41000 197.116
56.42000 189.074
56.43000 180.225
56.44000 172.992
56.45000 175.126
56.46000 178.767
56.47000 180.955
56.48000 177.650
56.49000 173.816
56.50000 171.028
56.51000 160.789
56.52000 152.628
56.53000 149.805
56.54000 156.153
56.55000 162.659
56.56000 166.716
56.57000 167.998
56.58000 169.272
56.59000 169.771
56.60000 169.703
56.61000 169.570
56.62000 167.213
56.63000 163.770
56.64000 160.286
56.65000 156.218
56.66000 151.956
56.67000 148.084
56.68000 148.119
56.69000 148.911
56.70000 149.980
56.71000 152.454
56.72000 155.125
56.73000 156.005
56.74000 150.863
56.75000 145.232
56.76000 141.279
56.77000 151.554
56.78000 159.749
56.79000 161.901
56.80000 154.817
56.81000 147.635
56.82000 145.192
56.83000 147.462
56.84000 149.716
56.85000 150.074
56.86000 149.216
56.87000 148.439
56.88000 149.735
56.89000 151.934
56.90000 153.826
56.91000 151.979
56.92000 149.031
56.93000 146.395
56.94000 146.627
56.95000 147.315
56.96000 148.188
56.97000 149.892
56.98000 151.697
56.99000 153.637
57.00000 155.985
57.01000 158.360
57.02000 159.965
57.03000 156.756
57.04000 154.262
57.05000 151.363
57.06000 147.916
57.07000 144.468
57.08000 143.856
57.09000 145.719
57.10000 147.561
57.11000 147.621
57.12000 146.674
57.13000 145.675
57.14000 143.623
57.15000 141.161
57.16000 139.289
57.17000 143.458
57.18000 149.210
57.19000 154.260
57.20000 151.572
57.21000 148.126
57.22000 145.400
57.23000 145.546
57.24000 145.990
57.25000 145.385
57.26000 141.980
57.27000 138.421
57.28000 136.113
57.29000 137.882
57.30000 139.238
57.31000 140.599
57.32000 141.968
57.33000 143.340
57.34000 145.496
57.35000 148.257
57.36000 150.971
57.37000 150.222
57.38000 147.775
57.39000 145.733
57.40000 150.167
57.41000 156.854
57.42000 162.347
57.43000 157.414
57.44000 150.057
57.45000 143.723
57.46000 141.491
57.47000 140.117
57.48000 139.286
57.49000 140.372
57.50000 141.628
57.51000 143.124
57.52000 145.198
57.53000 147.297
57.54000 148.598
57.55000 145.780
57.56000 143.713
57.57000 142.981
57.58000 143.656
57.59000 144.342
57.60000 146.273
57.61000 149.053
57.62000 151.767
57.63000 150.831
57.64000 148.332
57.65000 145.716
57.66000 141.560
57.67000 136.927
57.68000 133.317
57.69000 137.406
57.70000 143.077
57.71000 147.857
57.72000 146.807
57.73000 145.301
57.74000 144.578
57.75000 146.328
57.76000 148.258
57.77000 149.919
57.78000 151.006
57.79000 152.074
57.80000 152.705
57.81000 150.848
57.82000 149.523
57.83000 147.652
57.84000 145.278
57.85000 142.946
57.86000 143.494
57.87000 145.793
57.88000 148.019
57.89000 144.268
57.90000 138.398
57.91000 133.345
57.92000 137.296
57.93000 143.735
57.94000 149.342
57.95000 149.518
57.96000 148.712
57.97000 148.048
57.98000 146.549
57.99000 145.239
58.00000 144.811
58.01000 146.864
58.02000 149.066
58.03000 149.186
58.04000 145.342
58.05000 141.403
58.06000 139.198
58.07000 145.908
58.08000 150.565
58.09000 149.785
58.10000 144.577
58.11000 139.468
58.12000 138.832
58.13000 140.615
58.14000 142.327
58.15000 142.525
58.16000 142.192
58.17000 141.783
58.18000 140.652
58.19000 139.345
58.20000 138.229
58.21000 138.204
58.22000 138.353
58.23000 138.473
58.24000 138.877
58.25000 139.226
58.26000 138.926
58.27000 136.994
58.28000 134.985
58.29000 134.064
58.30000 134.991
58.31000 135.948
58.32000 136.453
58.33000 135.152
58.34000 134.280
58.35000 135.416
58.36000 137.998
58.37000 140.575
58.38000 142.960
58.39000 145.253
58.40000 147.431
58.41000 144.671
58.42000 140.632
58.43000 136.910
58.44000 135.739
58.45000 135.121
58.46000 135.269
58.47000 139.264
58.48000 143.788
58.49000 147.326
58.50000 144.842
58.51000 142.476
58.52000 140.022
58.53000 137.367
58.54000 134.705
58.55000 133.224
58.56000 133.527
58.57000 133.847
58.58000 133.150
58.59000 131.456
58.60000 129.778
58.61000 129.454
58.62000 129.997
58.63000 130.562
58.64000 131.648
58.65000 132.958
58.66000 134.188
58.67000 137.758
58.68000 141.634
58.69000 144.717
58.70000 142.284
58.71000 138.793
58.72000 135.969
58.73000 136.103
58.74000 136.590
58.75000 136.960
58.76000 141.002
58.77000 144.369
58.78000 146.536
58.79000 146.302
58.80000 146.001
58.81000 144.219
58.82000 140.454
58.83000 136.681
58.84000 135.750
58.85000 137.263
58.86000 138.696
58.87000 135.855
58.88000 130.579
58.89000 125.782
58.90000 130.277
58.91000 138.348
58.92000 145.828
58.93000 144.534
58.94000 141.325
58.95000 138.059
58.96000 134.435
58.97000 130.752
58.98000 128.339
58.99000 130.922
59.00000 134.014
59.01000 136.289
59.02000 136.860
59.03000 137.231
59.04000 138.314
59.05000 140.667
59.06000 143.044
59.07000 142.004
59.08000 136.923
59.09000 131.848
59.10000 131.548
59.11000 134.860
59.12000 138.114
59.13000 139.219
59.14000 139.232
59.15000 139.395
59.16000 141.905
59.17000 145.220
59.18000 148.249
59.19000 147.277
59.20000 145.600
59.21000 143.491
59.22000 139.091
59.23000 134.354
59.24000 131.396
59.25000 134.660
59.26000 138.460
59.27000 141.161
59.28000 140.582
59.29000 140.036
59.30000 138.040
59.31000 133.740
59.32000 129.410
59.33000 130.873
59.34000 138.360
59.35000 145.806
59.36000 146.062
59.37000 141.527
59.38000 137.043
59.39000 133.999
59.40000 131.607
59.41000 129.307
59.42000 128.203
59.43000 127.465
59.44000 126.802
59.45000 130.440
59.46000 134.390
59.47000 137.441
59.48000 136.279
59.49000 134.582
59.50000 133.273
59.51000 133.177
59.52000 133.169
59.53000 133.163
59.54000 137.541
59.55000 140.926
59.56000 142.558
59.57000 141.716
59.58000 140.856
59.59000 139.649
59.60000 138.127
59.61000 136.619
59.62000 135.115
59.63000 133.644
59.64000 132.092
59.65000 128.778
59.66000 124.751
59.67000 121.437
59.68000 125.839
59.69000 132.347
59.70000 138.096
59.71000 131.831
59.72000 124.570
59.73000 119.521
59.74000 123.652
59.75000 128.787
59.76000 132.093
59.77000 130.314
59.78000 128.237
59.79000 126.870
59.80000 130.200
59.81000 132.732
59.82000 134.894
59.83000 136.593
59.84000 138.284
59.85000 137.669
59.86000 135.202
59.87000 132.771
59.88000 131.913
59.89000 131.896
59.90000 131.943
59.91000 133.079
59.92000 134.609
59.93000 135.822
59.94000 134.124
59.95000 131.719
59.96000 129.635
59.97000 129.518
59.98000 129.679
59.99000 129.734
60.00000 129.394
60.01000 129.018
60.02000 128.254
60.03000 126.525
60.04000 124.751
60.05000 123.633
60.06000 130.346
60.07000 135.293
60.08000 136.432
60.09000 133.371
60.10000 130.340
60.11000 131.771
60.12000 136.377
60.13000 140.886
60.14000 138.875
60.15000 133.956
60.16000 129.432
60.17000 130.431
60.18000 133.212
60.19000 135.752
60.20000 136.392
60.21000 136.625
60.22000 136.823
60.23000 136.823
60.24000 136.801
60.25000 136.444
60.26000 134.993
60.27000 133.456
60.28000 131.497
60.29000 128.603
60.30000 125.675
60.31000 123.916
60.32000 131.275
60.33000 136.566
60.34000 136.940
60.35000 132.563
60.36000 128.235
60.37000 127.892
60.38000 130.066
60.39000 132.179
60.40000 131.927
60.41000 130.732
60.42000 129.769
60.43000 131.518
60.44000 134.045
60.45000 136.208
60.46000 135.871
60.47000 135.062
60.48000 134.390
60.49000 131.747
60.50000 129.370
60.51000 128.299
60.52000 131.044
60.53000 134.034
60.54000 136.414
60.55000 137.587
60.56000 138.727
60.57000 139.377
60.58000 138.853
60.59000 138.481
60.60000 136.361
60.61000 132.757
60.62000 129.268
60.63000 131.691
60.64000 137.440
60.65000 142.977
60.66000 142.480
60.67000 139.857
60.68000 137.167
60.69000 133.805
60.70000 130.271
60.71000 127.521
60.72000 129.448
60.73000 132.152
60.74000 134.342
60.75000 134.053
60.76000 133.615
60.77000 133.374
60.78000 133.644
60.79000 133.941
60.80000 132.868
60.81000 129.378
60.82000 125.842
60.83000 123.937
60.84000 132.305
60.85000 138.013
60.86000 138.881
60.87000 136.115
60.88000 133.448
60.89000 134.321
60.90000 136.969
60.91000 139.495
60.92000 139.718
60.93000 139.200
60.94000 138.610
60.95000 137.415
60.96000 136.082
60.97000 135.598
60.98000 139.563
60.99000 144.171
61.00000 147.807
61.01000 143.273
61.02000 139.081
61.03000 136.539
61.04000 137.841
61.05000 139.301
61.06000 139.415
61.07000 137.418
61.08000 135.395
61.09000 134.370
61.10000 133.309
61.11000 132.590
61.12000 130.912
61.13000 128.596
61.14000 126.452
61.15000 128.933
61.16000 133.486
61.17000 137.778
61.18000 138.654
61.19000 138.510
61.20000 138.429
61.21000 138.808
61.22000 139.279
61.23000 139.279
61.24000 137.096
61.25000 134.639
61.26000 132.755
61.27000 130.226
61.28000 128.193
61.29000 129.271
61.30000 136.827
61.31000 144.583
61.32000 146.913
61.33000 141.680
61.34000 136.398
61.35000 133.585
61.36000 132.994
61.37000 132.443
61.38000 134.345
61.39000 137.701
61.40000 141.101
61.41000 145.441
61.42000 150.157
61.43000 154.547
61.44000 149.325
61.45000 142.265
61.46000 136.599
61.47000 139.777
61.48000 144.511
61.49000 148.918
61.50000 151.987
61.51000 154.911
61.52000 157.087
61.53000 161.773
61.54000 165.530
61.55000 172.909
61.56000 187.014
61.57000 201.269
61.58000 214.865
61.59000 227.649
61.60000 240.407
61.61000 244.018
61.62000 240.393
61.63000 236.942
61.64000 240.790
61.65000 248.491
61.66000 255.821
61.67000 256.922
61.68000 255.798
61.69000 254.766
61.70000 257.771
61.71000 261.313
61.72000 263.440
61.73000 257.710
61.74000 250.771
61.75000 244.998
61.76000 243.471
61.77000 242.331
61.78000 241.511
61.79000 226.564
61.80000 214.627
61.81000 202.529
61.82000 190.164
61.83000 177.795
61.84000 171.009
61.85000 170.293
61.86000 169.582
61.87000 165.656
61.88000 159.537
61.89000 153.461
61.90000 148.682
61.91000 144.515
61.92000 140.775
61.93000 142.915
61.94000 146.929
61.95000 150.558
61.96000 145.077
61.97000 138.559
61.98000 133.264
61.99000 133.951
62.00000 135.437
62.01000 136.597
62.02000 136.703
62.03000 136.727
62.04000 136.744
62.05000 136.247
62.06000 135.859
62.07000 137.369
62.08000 141.668
62.09000 145.993
62.10000 147.929
62.11000 147.589
62.12000 147.252
62.13000 145.194
62.14000 142.116
62.15000 139.285
62.16000 142.196
62.17000 147.524
62.18000 152.226
62.19000 149.747
62.20000 145.230
62.21000 141.216
62.22000 142.764
62.23000 145.007
62.24000 146.543
62.25000 145.021
62.26000 143.147
62.27000 141.729
62.28000 141.631
62.29000 141.615
62.30000 141.605
62.31000 144.108
62.32000 146.011
62.33000 147.885
62.34000 149.722
62.35000 151.555
62.36000 151.235
62.37000 149.109
62.38000 147.011
62.39000 146.008
62.40000 145.624
62.41000 145.280
62.42000 145.665
62.43000 146.324
62.44000 146.591
62.45000 143.042
62.46000 138.530
62.47000 134.593
62.48000 139.577
62.49000 145.088
62.50000 148.784
62.51000 145.521
62.52000 141.573
62.53000 138.370
62.54000 137.086
62.55000 135.899
62.56000 135.140
62.57000 137.354
62.58000 139.005
62.59000 141.142
62.60000 143.838
62.61000 146.518
62.62000 146.236
62.63000 143.757
62.64000 141.325
62.65000 143.170
62.66000 146.993
62.67000 150.335
62.68000 146.482
62.69000 140.216
62.70000 134.700
62.71000 135.410
62.72000 137.512
62.73000 139.310
62.74000 140.150
62.75000 140.743
62.76000 140.244
62.77000 136.021
62.78000 131.489
62.79000 129.417
62.80000 133.007
62.81000 136.822
62.82000 139.151
62.83000 138.568
62.84000 138.127
62.85000 137.220
62.86000 135.843
62.87000 134.488
62.88000 135.298
62.89000 137.531
62.90000 139.708
62.91000 144.068
62.92000 149.147
62.93000 153.795
62.94000 153.081
62.95000 150.765
62.96000 148.813
62.97000 149.476
62.98000 150.655
62.99000 151.642
63.00000 152.409
63.01000 153.024
63.02000 152.866
63.03000 150.364
63.04000 147.700
63.05000 146.568
63.06000 148.585
63.07000 150.697
63.08000 151.923
63.09000 139.807
63.10000 131.253
63.11000 132.275
63.12000 141.793
63.13000 151.203
63.14000 154.287
63.15000 153.670
63.16000 153.074
63.17000 150.456
63.18000 147.236
63.19000 144.384
63.20000 145.394
63.21000 147.429
63.22000 149.501
63.23000 151.801
63.24000 154.139
63.25000 156.051
63.26000 148.219
63.27000 140.964
63.28000 135.644
63.29000 135.569
63.30000 135.787
63.31000 136.363
63.32000 137.593
63.33000 138.837
63.34000 139.520
63.35000 151.904
63.36000 160.413
63.37000 159.179
63.38000 150.320
63.39000 141.612
63.40000 139.014
63.41000 139.602
63.42000 140.165
63.43000 141.788
63.44000 143.648
63.45000 145.246
63.46000 144.508
63.47000 143.218
63.48000 141.915
63.49000 140.538
63.50000 139.149
63.51000 138.043
63.52000 144.159
63.53000 149.613
63.54000 153.232
63.55000 152.410
63.56000 151.390
63.57000 151.939
63.58000 155.049
63.59000 158.195
63.60000 159.823
63.61000 152.607
63.62000 147.774
63.63000 147.329
63.64000 149.927
63.65000 152.393
63.66000 150.963
63.67000 147.720
63.68000 144.650
63.69000 147.188
63.70000 151.146
63.71000 154.888
63.72000 156.984
63.73000 158.735
63.74000 159.766
63.75000 157.324
63.76000 154.424
63.77000 152.177
63.78000 150.924
63.79000 149.988
63.80000 149.662
63.81000 150.658
63.82000 151.698
63.83000 152.806
63.84000 154.012
63.85000 155.219
63.86000 152.793
63.87000 146.956
63.88000 141.224
63.89000 143.013
63.90000 149.436
63.91000 155.603
63.92000 155.950
63.93000 153.879
63.94000 151.943
63.95000 152.178
63.96000 152.945
63.97000 153.574
63.98000 153.285
63.99000 152.827
64.00000 152.444
64.01000 152.381
64.02000 152.355
64.03000 152.335
64.04000 154.655
64.05000 156.582
64.06000 156.868
64.07000 153.987
64.08000 151.027
64.09000 150.507
64.10000 153.127
64.11000 155.756
64.12000 158.380
64.13000 160.991
64.14000 163.564
64.15000 164.322
64.16000 164.085
64.17000 163.745
64.18000 161.559
64.19000 158.689
64.20000 156.040
64.21000 153.219
64.22000 150.652
64.23000 148.816
64.24000 151.223
64.25000 154.314
64.26000 157.146
64.27000 159.002
64.28000 160.763
64.29000 162.045
64.30000 163.123
64.31000 163.946
64.32000 163.730
64.33000 161.729
64.34000 159.698
64.35000 162.302
64.36000 170.169
64.37000 178.014
64.38000 177.934
64.39000 172.104
64.40000 166.397
64.41000 164.809
64.42000 165.238
64.43000 165.474
64.44000 162.878
64.45000 159.343
64.46000 156.130
64.47000 159.304
64.48000 163.355
64.49000 166.565
64.50000 165.483
64.51000 163.799
64.52000 161.820
64.53000 158.844
64.54000 155.788
64.55000 153.640
64.56000 159.140
64.57000 163.529
64.58000 165.900
64.59000 165.182
64.60000 164.431
64.61000 165.637
64.62000 168.794
64.63000 171.930
64.64000 170.413
64.65000 165.945
64.66000 161.778
64.67000 165.281
64.68000 172.137
64.69000 178.415
64.70000 177.659
64.71000 174.826
64.72000 172.294
64.73000 167.647
64.74000 163.237
64.75000 159.462
64.76000 158.552
64.77000 157.990
64.78000 158.584
64.79000 162.651
64.80000 166.952
64.81000 169.862
64.82000 172.369
64.83000 174.229
64.84000 176.891
64.85000 180.645
64.86000 184.403
64.87000 186.818
64.88000 188.057
64.89000 189.283
64.90000 189.428
64.91000 188.959
64.92000 188.252
64.93000 182.775
64.94000 175.435
64.95000 169.337
64.96000 175.964
64.97000 185.933
64.98000 194.688
64.99000 187.274
65.00000 178.525
65.01000 172.255
65.02000 175.884
65.03000 180.541
65.04000 183.757
65.05000 183.116
65.06000 182.263
65.07000 181.710
65.08000 193.867
65.09000 202.962
65.10000 206.165
65.11000 202.291
65.12000 198.424
65.13000 199.660
65.14000 204.838
65.15000 209.930
65.16000 211.377
65.17000 210.961
65.18000 210.744
65.19000 213.711
65.20000 217.788
65.21000 221.504
65.22000 222.062
65.23000 221.883
65.24000 221.730
65.25000 230.860
65.26000 239.771
65.27000 247.009
65.28000 248.315
65.29000 249.098
65.30000 251.974
65.31000 259.856
65.32000 267.954
65.33000 272.979
65.34000 274.429
65.35000 275.437
65.36000 284.025
65.37000 300.626
65.38000 317.141
65.39000 323.548
65.40000 323.037
65.41000 322.538
65.42000 324.717
65.43000 327.982
65.44000 331.537
65.45000 338.914
65.46000 347.478
65.47000 355.783
65.48000 362.137
65.49000 368.089
65.50000 373.107
65.51000 382.110
65.52000 390.059
65.53000 397.700
65.54000 404.365
65.55000 410.959
65.56000 416.748
65.57000 420.817
65.58000 424.829
65.59000 427.200
65.60000 424.092
65.61000 421.867
65.62000 423.169
65.63000 427.739
65.64000 432.377
65.65000 441.661
65.66000 453.772
65.67000 465.508
65.68000 479.560
65.69000 493.762
65.70000 509.189
65.71000 538.168
65.72000 570.896
65.73000 603.412
65.74000 634.538
65.75000 665.412
65.76000 690.850
65.77000 754.342
65.78000 810.076
65.79000 857.441
65.80000 881.225
65.81000 903.590
65.82000 925.029
65.83000 944.706
65.84000 964.341
65.85000 975.341
65.86000 975.194
65.87000 975.067
65.88000 975.014
65.89000 975.023
65.90000 974.792
65.91000 963.578
65.92000 946.414
65.93000 929.933
65.94000 907.714
65.95000 884.962
65.96000 858.560
65.97000 797.921
65.98000 728.866
65.99000 662.856
66.00000 614.271
66.01000 568.454
66.02000 531.635
66.03000 488.031
66.04000 452.164
66.05000 419.147
66.06000 393.299
66.07000 367.796
66.08000 348.201
66.09000 338.643
66.10000 329.252
66.11000 324.289
66.12000 307.763
66.13000 296.573
66.14000 291.658
66.15000 291.272
66.16000 290.832
66.17000 288.575
66.18000 285.441
66.19000 282.463
66.20000 275.435
66.21000 267.717
66.22000 261.695
66.23000 269.323
66.24000 279.923
66.25000 289.624
66.26000 294.805
66.27000 299.360
66.28000 302.924
66.29000 317.361
66.30000 329.581
66.31000 342.483
66.32000 356.921
66.33000 371.417
66.34000 380.002
66.35000 379.653
66.36000 379.213
66.37000 382.578
66.38000 389.681
66.39000 396.770
66.40000 402.771
66.41000 408.074
66.42000 413.114
66.43000 411.604
66.44000 407.266
66.45000 403.193
66.46000 402.290
66.47000 402.309
66.48000 402.596
66.49000 404.748
66.50000 407.258
66.51000 406.849
66.52000 393.463
66.53000 378.528
66.54000 367.182
66.55000 356.529
66.56000 348.191
66.57000 340.324
66.58000 333.402
66.59000 326.506
66.60000 319.949
66.61000 313.845
66.62000 307.747
66.63000 303.838
66.64000 301.821
66.65000 299.846
66.66000 300.108
66.67000 301.647
66.68000 303.288
66.69000 306.900
66.70000 311.272
66.71000 315.325
66.72000 313.684
66.73000 310.879
66.74000 307.913
66.75000 303.973
66.76000 299.868
66.77000 296.743
66.78000 297.477
66.79000 298.606
66.80000 299.437
66.81000 306.813
66.82000 312.792
66.83000 316.296
66.84000 315.371
66.85000 314.359
66.86000 314.575
66.87000 316.246
66.88000 317.915
66.89000 318.828
66.90000 319.161
66.91000 319.483
66.92000 319.363
66.93000 319.017
66.94000 318.894
66.95000 322.264
66.96000 326.836
66.97000 331.013
66.98000 329.882
66.99000 327.794
67.00000 325.411
67.01000 321.461
67.02000 317.279
67.03000 315.113
67.04000 320.003
67.05000 325.503
67.06000 329.414
67.07000 346.064
67.08000 359.153
67.09000 362.506
67.10000 350.350
67.11000 337.994
67.12000 335.318
67.13000 342.726
67.14000 350.096
67.15000 353.977
67.16000 355.482
67.17000 356.792
67.18000 352.634
67.19000 345.995
67.20000 339.857
67.21000 340.224
67.22000 342.587
67.23000 344.711
67.24000 348.564
67.25000 352.247
67.26000 356.788
67.27000 365.366
67.28000 374.459
67.29000 381.972
67.30000 384.560
67.31000 386.793
67.32000 388.323
67.33000 382.083
67.34000 377.221
67.35000 376.903
67.36000 383.016
67.37000 389.172
67.38000 388.605
67.39000 381.896
67.40000 375.250
67.41000 375.704
67.42000 380.326
67.43000 384.731
67.44000 384.440
67.45000 382.244
67.46000 380.364
67.47000 381.917
67.48000 384.407
67.49000 386.608
67.50000 393.739
67.51000 400.658
67.52000 407.191
67.53000 412.114
67.54000 416.860
67.55000 419.077
67.56000 414.252
67.57000 409.012
67.58000 405.563
67.59000 412.474
67.60000 417.744
67.61000 419.206
67.62000 415.899
67.63000 412.587
67.64000 412.713
67.65000 415.608
67.66000 418.460
67.67000 426.368
67.68000 436.669
67.69000 446.692
67.70000 451.920
67.71000 455.412
67.72000 458.261
67.73000 455.176
67.74000 450.651
67.75000 446.727
67.76000 451.990
67.77000 457.696
67.78000 462.290
67.79000 462.780
67.80000 462.888
67.81000 463.228
67.82000 464.147
67.83000 465.093
67.84000 465.689
67.85000 461.992
67.86000 459.267
67.87000 460.506
67.88000 466.123
67.89000 471.715
67.90000 473.359
67.91000 472.189
67.92000 471.044
67.93000 476.781
67.94000 485.453
67.95000 493.364
67.96000 490.574
67.97000 484.325
67.98000 479.708
67.99000 488.008
68.00000 499.083
68.01000 508.489
68.02000 512.110
68.03000 514.488
68.04000 516.229
68.05000 515.880
68.06000 515.367
68.07000 515.436
68.08000 516.793
68.09000 518.198
68.10000 519.042
68.11000 513.596
68.12000 509.682
68.13000 513.418
68.14000 524.561
68.15000 535.639
68.16000 541.497
68.17000 544.052
68.18000 546.535
68.19000 549.301
68.20000 552.045
68.21000 555.664
68.22000 569.531
68.23000 586.349
68.24000 600.743
68.25000 598.513
68.26000 593.134
68.27000 588.666
68.28000 596.345
68.29000 603.876
68.30000 609.090
68.31000 607.522
68.32000 605.517
68.33000 605.119
68.34000 607.908
68.35000 610.783
68.36000 612.424
68.37000 614.041
68.38000 615.181
68.39000 623.719
68.40000 638.556
68.41000 653.337
68.42000 665.240
68.43000 675.520
68.44000 685.424
68.45000 695.195
68.46000 704.326
68.47000 713.128
68.48000 718.676
68.49000 723.391
68.50000 727.119
68.51000 724.943
68.52000 721.784
68.53000 719.224
68.54000 734.529
68.55000 748.459
68.56000 764.548
68.57000 786.281
68.58000 808.309
68.59000 832.461
68.60000 860.368
68.61000 888.347
68.62000 903.436
68.63000 962.776
68.64000 1003.422
68.65000 1046.851
68.66000 1092.374
68.67000 1138.035
68.68000 1188.703
68.69000 1241.888
68.70000 1292.610
68.71000 1343.609
68.72000 1391.013
68.73000 1438.163
68.74000 1483.169
68.75000 1527.689
68.76000 1571.225
68.77000 1609.598
68.78000 1647.222
68.79000 1676.928
68.80000 1743.009
68.81000 1798.512
68.82000 1858.678
68.83000 1929.728
68.84000 2001.226
68.85000 2084.242
68.86000 2185.374
68.87000 2286.726
68.88000 2338.088
68.89000 2670.076
68.90000 2894.352
68.91000 3317.525
68.92000 3873.375
68.93000 4456.138
68.94000 5768.606
68.95000 7408.421
68.96000 8954.760
68.97000 12129.973
68.98000 15491.176
68.99000 18963.658
69.00000 23249.018
69.01000 27697.334
69.02000 32082.082
69.03000 36172.309
69.04000 40225.543
69.05000 43335.906
69.06000 46194.598
69.07000 48439.664
69.08000 50182.570
69.09000 50878.770
69.10000 51542.355
69.11000 51925.824
69.12000 51918.055
69.13000 51907.664
69.14000 52282.254
69.15000 53003.043
69.16000 53720.742
69.17000 54246.121
69.18000 54657.402
69.19000 55026.410
69.20000 54505.621
69.21000 53628.355
69.22000 52811.453
69.23000 50069.590
69.24000 47120.801
69.25000 44206.805
69.26000 41513.930
69.27000 38860.047
69.28000 36314.195
69.29000 34211.512
69.30000 32156.607
69.31000 30627.559
69.32000 29194.922
69.33000 28084.658
69.34000 27188.439
69.35000 26690.307
69.36000 26201.125
69.37000 25516.918
69.38000 24591.654
69.39000 23667.389
69.40000 22243.039
69.41000 20429.787
69.42000 18609.295
69.43000 16483.131
69.44000 14195.341
69.45000 11932.224
69.46000 10084.686
69.47000 8385.803
69.48000 6825.758
69.49000 5568.146
69.50000 4510.774
69.51000 3532.840
69.52000 2996.894
69.53000 2529.127
69.54000 2124.685
69.55000 1950.975
69.56000 1798.385
69.57000 1688.565
69.58000 1567.645
69.59000 1474.667
69.60000 1392.115
69.61000 1326.838
69.62000 1261.820
69.63000 1216.572
69.64000 1192.852
69.65000 1169.245
69.66000 1131.428
69.67000 1084.108
69.68000 1037.348
69.69000 1007.821
69.70000 986.425
69.71000 964.702
69.72000 938.463
69.73000 910.783
69.74000 885.753
69.75000 877.301
69.76000 872.955
69.77000 865.797
69.78000 844.862
69.79000 822.081
69.80000 799.623
69.81000 778.213
69.82000 756.884
69.83000 742.077
69.84000 751.370
69.85000 759.013
69.86000 758.326
69.87000 745.363
69.88000 732.291
69.89000 720.825
69.90000 710.892
69.91000 701.039
69.92000 694.956
69.93000 691.295
69.94000 687.681
69.95000 685.194
69.96000 683.182
69.97000 680.590
69.98000 671.328
69.99000 660.171
70.00000 650.250
