20.00000 568.164
20.01000 560.941
20.02000 552.686
20.03000 548.452
20.04000 559.890
20.05000 572.905
20.06000 582.457
20.07000 586.766
20.08000 589.883
20.09000 588.528
20.10000 579.251
20.11000 569.822
20.12000 562.188
20.13000 556.658
20.14000 551.146
20.15000 553.015
20.16000 560.396
20.17000 567.672
20.18000 571.092
20.19000 572.571
20.20000 573.740
20.21000 570.133
20.22000 564.898
20.23000 560.122
20.24000 563.152
20.25000 567.413
20.26000 571.704
20.27000 576.142
20.28000 580.603
20.29000 584.079
20.30000 584.144
20.31000 583.918
20.32000 583.758
20.33000 577.437
20.34000 572.436
20.35000 570.571
20.36000 573.650
20.37000 576.789
20.38000 573.588
20.39000 563.858
20.40000 554.184
20.41000 555.277
20.42000 563.458
20.43000 571.225
20.44000 567.694
20.45000 559.085
20.46000 551.319
20.47000 554.309
20.48000 560.566
20.49000 566.185
20.50000 569.269
20.51000 571.521
20.52000 572.733
20.53000 569.115
20.54000 564.888
20.55000 562.626
20.56000 566.431
20.57000 570.666
20.58000 573.558
20.59000 577.546
20.60000 580.555
20.61000 581.333
20.62000 578.987
20.63000 576.620
20.64000 574.283
20.65000 571.971
20.66000 569.683
20.67000 563.076
20.68000 554.095
20.69000 545.771
20.70000 551.328
20.71000 562.458
20.72000 572.146
20.73000 566.412
20.74000 556.509
20.75000 547.772
20.76000 552.389
20.77000 558.408
20.78000 562.689
20.79000 559.823
20.80000 556.183
20.81000 556.023
20.82000 565.452
20.83000 575.434
20.84000 581.982
20.85000 578.573
20.86000 575.900
20.87000 571.964
20.88000 566.463
20.89000 560.966
20.90000 558.457
20.91000 558.328
20.92000 558.201
20.93000 556.252
20.94000 553.426
20.95000 550.982
20.96000 554.997
20.97000 561.327
20.98000 566.775
20.99000 564.196
21.00000 559.690
21.01000 555.789
21.02000 550.535
21.03000 545.889
21.04000 543.405
21.05000 548.814
21.06000 554.949
21.07000 559.482
21.08000 560.074
21.09000 560.486
21.10000 560.744
21.11000 550.677
21.12000 543.288
21.13000 543.708
21.14000 552.655
21.15000 561.522
21.16000 559.063
21.17000 548.617
21.18000 538.396
21.19000 540.857
21.20000 548.976
21.21000 556.613
21.22000 557.592
21.23000 556.440
21.24000 554.530
21.25000 546.697
21.26000 537.604
21.27000 529.896
21.28000 539.547
21.29000 549.590
21.30000 554.992
21.31000 545.300
21.32000 534.448
21.33000 530.617
21.34000 542.215
21.35000 554.362
21.36000 561.631
21.37000 550.848
21.38000 543.079
21.39000 545.913
21.40000 558.897
21.41000 571.587
21.42000 561.609
21.43000 537.434
21.44000 513.958
21.45000 519.186
21.46000 535.655
21.47000 550.800
21.48000 550.665
21.49000 546.177
21.50000 543.401
21.51000 552.217
21.52000 563.204
21.53000 572.311
21.54000 574.329
21.55000 575.317
21.56000 574.158
21.57000 566.777
21.58000 559.001
21.59000 552.395
21.60000 548.086
21.61000 543.838
21.62000 541.425
21.63000 539.289
21.64000 537.811
21.65000 541.383
21.66000 549.205
21.67000 556.948
21.68000 560.681
21.69000 562.178
21.70000 563.619
21.71000 566.783
21.72000 570.362
21.73000 574.099
21.74000 579.387
21.75000 585.067
21.76000 589.674
21.77000 587.929
21.78000 585.142
21.79000 582.887
21.80000 577.871
21.81000 573.567
21.82000 575.229
21.83000 592.327
21.84000 610.215
21.85000 628.183
21.86000 646.290
21.87000 664.401
21.88000 674.116
21.89000 660.509
21.90000 651.262
21.91000 654.155
21.92000 666.081
21.93000 677.982
21.94000 689.015
21.95000 699.616
21.96000 709.717
21.97000 717.483
21.98000 723.952
21.99000 731.031
22.00000 743.208
22.01000 756.529
22.02000 766.680
22.03000 760.372
22.04000 751.707
22.05000 744.882
22.06000 753.346
22.07000 761.152
22.08000 765.925
22.09000 763.689
22.10000 761.172
22.11000 756.417
22.12000 748.178
22.13000 739.899
22.14000 735.728
22.15000 713.908
22.16000 699.377
22.17000 689.887
22.18000 683.727
22.19000 677.457
22.20000 668.293
22.21000 657.845
22.22000 648.002
22.23000 639.433
22.24000 631.942
22.25000 624.261
22.26000 615.208
22.27000 605.884
22.28000 596.107
22.29000 584.258
22.30000 572.152
22.31000 562.887
22.32000 565.088
22.33000 567.453
22.34000 569.433
22.35000 570.621
22.36000 571.784
22.37000 571.930
22.38000 570.667
22.39000 569.397
22.40000 565.559
22.41000 559.441
22.42000 553.397
22.43000 551.813
22.44000 552.848
22.45000 553.815
22.46000 553.367
22.47000 552.357
22.48000 551.417
22.49000 547.296
22.50000 542.807
22.51000 538.663
22.52000 536.683
22.53000 535.081
22.54000 533.287
22.55000 530.720
22.56000 528.069
22.57000 526.103
22.58000 521.100
22.59000 517.081
22.60000 517.300
22.61000 525.324
22.62000 533.518
22.63000 535.794
22.64000 530.836
22.65000 525.869
22.66000 519.506
22.67000 512.084
22.68000 504.918
22.69000 508.230
22.70000 517.028
22.71000 525.508
22.72000 528.760
22.73000 530.158
22.74000 531.441
22.75000 534.400
22.76000 537.391
22.77000 539.841
22.78000 539.322
22.79000 538.350
22.80000 535.758
22.81000 527.322
22.82000 518.358
22.83000 511.927
22.84000 510.731
22.85000 509.996
22.86000 513.446
22.87000 523.761
22.88000 534.175
22.89000 537.455
22.90000 533.054
22.91000 528.671
22.92000 527.809
22.93000 529.379
22.94000 530.933
22.95000 531.994
22.96000 532.826
22.97000 533.129
22.98000 526.259
22.99000 517.123
23.00000 508.874
23.01000 513.591
23.02000 520.126
23.03000 525.638
23.04000 526.194
23.05000 526.094
23.06000 525.516
23.07000 523.408
23.08000 521.184
23.09000 519.645
23.10000 521.998
23.11000 523.868
23.12000 522.835
23.13000 517.567
23.14000 512.263
23.15000 510.855
23.16000 513.122
23.17000 515.371
23.18000 513.724
23.19000 509.741
23.20000 505.969
23.21000 507.025
23.22000 510.095
23.23000 513.147
23.24000 515.994
23.25000 518.784
23.26000 521.261
23.27000 521.224
23.28000 520.791
23.29000 519.030
23.30000 511.590
23.31000 503.502
23.32000 498.286
23.33000 501.295
23.34000 504.815
23.35000 507.156
23.36000 519.735
23.37000 529.233
23.38000 530.240
23.39000 520.276
23.40000 510.288
23.41000 509.423
23.42000 516.134
23.43000 522.757
23.44000 522.408
23.45000 518.332
23.46000 514.317
23.47000 511.413
23.48000 508.922
23.49000 506.830
23.50000 508.572
23.51000 511.272
23.52000 513.625
23.53000 515.101
23.54000 516.240
23.55000 514.876
23.56000 503.997
23.57000 492.194
23.58000 486.044
23.59000 494.348
23.60000 503.373
23.61000 509.125
23.62000 496.159
23.63000 486.493
23.64000 483.396
23.65000 487.791
23.66000 492.217
23.67000 500.784
23.68000 512.392
23.69000 523.777
23.70000 523.611
23.71000 517.983
23.72000 512.388
23.73000 507.277
23.74000 502.326
23.75000 497.997
23.76000 498.782
23.77000 500.700
23.78000 502.338
23.79000 510.944
23.80000 519.020
23.81000 525.229
23.82000 525.127
23.83000 524.508
23.84000 523.314
23.85000 520.804
23.86000 518.243
23.87000 516.685
23.88000 527.730
23.89000 535.717
23.90000 534.245
23.91000 523.306
23.92000 512.475
23.93000 511.520
23.94000 517.001
23.95000 522.338
23.96000 519.418
23.97000 513.183
23.98000 508.175
23.99000 518.195
24.00000 532.669
24.01000 544.750
24.02000 539.836
24.03000 531.598
24.04000 524.717
24.05000 530.231
24.06000 536.062
24.07000 538.993
24.08000 533.185
24.09000 526.784
24.10000 521.887
24.11000 520.056
24.12000 518.316
24.13000 517.309
24.14000 518.239
24.15000 518.896
24.16000 517.129
24.17000 513.234
24.18000 509.401
24.19000 509.178
24.20000 511.047
24.21000 512.852
24.22000 518.429
24.23000 525.077
24.24000 531.034
24.25000 529.870
24.26000 526.829
24.27000 523.448
24.28000 517.955
24.29000 512.100
24.30000 507.323
24.31000 511.590
24.32000 515.852
24.33000 519.571
24.34000 521.831
24.35000 524.011
24.36000 526.003
24.37000 527.654
24.38000 529.298
24.39000 530.197
24.40000 512.217
24.41000 499.864
24.42000 496.368
24.43000 499.740
24.44000 503.103
24.45000 506.099
24.46000 508.904
24.47000 511.587
24.48000 506.680
24.49000 499.643
24.50000 493.407
24.51000 494.223
24.52000 496.688
24.53000 498.902
24.54000 499.756
24.55000 500.406
24.56000 500.923
24.57000 496.924
24.58000 493.381
24.59000 491.147
24.60000 492.053
24.61000 493.097
24.62000 490.954
24.63000 483.651
24.64000 476.277
24.65000 472.479
24.66000 487.519
24.67000 497.590
24.68000 500.701
24.69000 499.031
24.70000 497.163
24.71000 489.552
24.72000 479.290
24.73000 469.585
24.74000 467.818
24.75000 468.470
24.76000 470.207
24.77000 480.160
24.78000 491.814
24.79000 501.573
24.80000 502.281
24.81000 501.810
24.82000 501.445
24.83000 495.859
24.84000 491.121
24.85000 486.946
24.86000 483.975
24.87000 481.044
24.88000 477.748
24.89000 473.924
24.90000 470.097
24.91000 469.386
24.92000 471.572
24.93000 473.776
24.94000 477.222
24.95000 481.428
24.96000 485.416
24.97000 484.560
24.98000 481.708
24.99000 479.043
25.00000 477.986
25.01000 477.432
25.02000 476.745
25.03000 475.182
25.04000 473.460
25.05000 471.711
25.06000 469.850
25.07000 467.977
25.08000 466.573
25.09000 469.942
25.10000 472.800
25.11000 473.165
25.12000 468.760
25.13000 464.238
25.14000 461.518
25.15000 461.096
25.16000 460.683
25.17000 459.857
25.18000 458.697
25.19000 457.590
25.20000 458.962
25.21000 461.682
25.22000 464.288
25.23000 464.878
25.24000 464.725
25.25000 464.584
25.26000 469.582
25.27000 475.192
25.28000 478.972
25.29000 472.234
25.30000 463.817
25.31000 457.463
25.32000 458.845
25.33000 460.965
25.34000 462.505
25.35000 465.341
25.36000 467.570
25.37000 469.499
25.38000 470.917
25.39000 472.327
25.40000 473.906
25.41000 475.677
25.42000 477.441
25.43000 476.808
25.44000 474.456
25.45000 472.301
25.46000 476.616
25.47000 484.073
25.48000 490.709
25.49000 485.474
25.50000 476.341
25.51000 468.049
25.52000 468.898
25.53000 471.411
25.54000 473.468
25.55000 473.215
25.56000 472.641
25.57000 472.414
25.58000 473.346
25.59000 474.370
25.60000 475.088
25.61000 472.518
25.62000 470.481
25.63000 468.360
25.64000 466.115
25.65000 463.868
25.66000 467.726
25.67000 477.608
25.68000 487.420
25.69000 486.982
25.70000 480.057
25.71000 473.222
25.72000 468.648
25.73000 465.055
25.74000 461.728
25.75000 461.613
25.76000 462.437
25.77000 463.173
25.78000 467.907
25.79000 472.701
25.80000 476.638
25.81000 476.754
25.82000 476.410
25.83000 475.060
25.84000 470.713
25.85000 466.168
25.86000 463.103
25.87000 468.944
25.88000 473.477
25.89000 474.504
25.90000 470.811
25.91000 467.093
25.92000 463.352
25.93000 459.593
25.94000 455.876
25.95000 454.163
25.96000 453.611
25.97000 453.182
25.98000 455.176
25.99000 458.108
26.00000 460.530
26.01000 457.779
26.02000 453.682
26.03000 450.089
26.04000 452.194
26.05000 454.829
26.06000 456.721
26.07000 455.672
26.08000 454.320
26.09000 454.920
26.10000 460.704
26.11000 466.767
26.12000 470.689
26.13000 466.242
26.14000 462.866
26.15000 460.807
26.16000 460.315
26.17000 459.820
26.18000 458.119
26.19000 455.496
26.20000 452.917
26.21000 454.275
26.22000 457.531
26.23000 460.622
26.24000 461.094
26.25000 460.663
26.26000 459.725
26.27000 454.407
26.28000 448.079
26.29000 442.637
26.30000 447.656
26.31000 453.213
26.32000 457.042
26.33000 454.795
26.34000 452.019
26.35000 451.097
26.36000 454.571
26.37000 458.232
26.38000 460.496
26.39000 465.088
26.40000 468.411
26.41000 470.557
26.42000 471.472
26.43000 472.348
26.44000 468.907
26.45000 462.536
26.46000 456.317
26.47000 453.335
26.48000 451.895
26.49000 450.810
26.50000 454.365
26.51000 459.349
26.52000 463.156
26.53000 458.185
26.54000 451.423
26.55000 445.731
26.56000 450.916
26.57000 456.404
26.58000 460.464
26.59000 460.047
26.60000 459.305
26.61000 457.686
26.62000 454.209
26.63000 450.670
26.64000 448.587
26.65000 448.973
26.66000 449.258
26.67000 449.631
26.68000 450.084
26.69000 450.500
26.70000 448.506
26.71000 445.057
26.72000 441.717
26.73000 444.756
26.74000 450.086
26.75000 454.846
26.76000 453.377
26.77000 450.200
26.78000 448.326
26.79000 454.888
26.80000 462.965
26.81000 469.608
26.82000 462.678
26.83000 455.753
26.84000 450.237
26.85000 448.658
26.86000 447.312
26.87000 448.202
26.88000 453.316
26.89000 458.531
26.90000 461.440
26.91000 450.807
26.92000 443.427
26.93000 439.599
26.94000 438.641
26.95000 437.795
26.96000 441.862
26.97000 448.570
26.98000 455.007
26.99000 451.260
27.00000 444.298
27.01000 438.464
27.02000 443.084
27.03000 450.251
27.04000 455.696
27.05000 451.381
27.06000 445.532
27.07000 440.840
27.08000 437.332
27.09000 434.582
27.10000 435.135
27.11000 443.933
27.12000 453.121
27.13000 456.162
27.14000 448.846
27.15000 441.363
27.16000 437.427
27.17000 434.183
27.18000 432.028
27.19000 436.433
27.20000 445.532
27.21000 454.337
27.22000 453.732
27.23000 448.616
27.24000 443.759
27.25000 435.738
27.26000 427.388
27.27000 420.717
27.28000 427.401
27.29000 436.966
27.30000 446.085
27.31000 452.977
27.32000 459.565
27.33000 464.707
27.34000 466.342
27.35000 467.426
27.36000 463.776
27.37000 449.580
27.38000 434.995
27.39000 429.039
27.40000 436.012
27.41000 443.110
27.42000 448.343
27.43000 451.761
27.44000 455.123
27.45000 453.939
27.46000 449.865
27.47000 445.969
27.48000 446.381
27.49000 448.638
27.50000 450.756
27.51000 449.453
27.52000 447.364
27.53000 445.324
27.54000 443.619
27.55000 441.978
27.56000 440.902
27.57000 442.322
27.58000 444.036
27.59000 445.336
27.60000 445.921
27.61000 446.344
27.62000 444.765
27.63000 439.202
27.64000 433.531
27.65000 428.536
27.66000 424.439
27.67000 420.350
27.68000 424.269
27.69000 435.010
27.70000 445.649
27.71000 450.947
27.72000 453.223
27.73000 455.171
27.74000 450.824
27.75000 444.070
27.76000 437.816
27.77000 431.916
27.78000 426.692
27.79000 423.716
27.80000 434.256
27.81000 447.052
27.82000 456.542
27.83000 453.120
27.84000 448.394
27.85000 444.924
27.86000 440.946
27.87000 437.850
27.88000 434.866
27.89000 432.079
27.90000 429.297
27.91000 429.885
27.92000 434.432
27.93000 438.973
27.94000 438.510
27.95000 434.298
27.96000 430.140
27.97000 427.983
27.98000 426.836
27.99000 425.750
28.00000 425.605
28.01000 425.781
28.02000 425.941
28.03000 430.176
28.04000 434.757
28.05000 438.820
28.06000 440.151
28.07000 441.084
28.08000 440.246
28.09000 433.263
28.10000 425.755
28.11000 420.429
28.12000 415.838
28.13000 412.369
28.14000 411.668
28.15000 415.338
28.16000 419.062
28.17000 425.419
28.18000 434.493
28.19000 443.514
28.20000 442.001
28.21000 433.546
28.22000 425.481
28.23000 428.128
28.24000 435.598
28.25000 442.320
28.26000 439.492
28.27000 433.759
28.28000 428.610
28.29000 432.773
28.30000 438.056
28.31000 442.276
28.32000 441.551
28.33000 440.201
28.34000 437.434
28.35000 430.284
28.36000 422.822
28.37000 417.722
28.38000 418.542
28.39000 419.295
28.40000 422.342
28.41000 428.608
28.42000 434.891
28.43000 434.538
28.44000 428.178
28.45000 421.880
28.46000 422.313
28.47000 426.661
28.48000 430.774
28.49000 429.888
28.50000 426.992
28.51000 424.834
28.52000 430.575
28.53000 438.456
28.54000 445.412
28.55000 438.207
28.56000 429.827
28.57000 423.297
28.58000 424.391
28.59000 426.312
28.60000 429.135
28.61000 434.450
28.62000 439.909
28.63000 443.492
28.64000 439.728
28.65000 436.836
28.66000 430.976
28.67000 421.434
28.68000 411.907
28.69000 410.756
28.70000 416.289
28.71000 421.738
28.72000 427.274
28.73000 432.688
28.74000 437.663
28.75000 435.171
28.76000 429.999
28.77000 425.523
28.78000 427.398
28.79000 430.800
28.80000 433.745
28.81000 430.788
28.82000 427.495
28.83000 424.973
28.84000 425.271
28.85000 425.830
28.86000 426.300
28.87000 426.550
28.88000 426.790
28.89000 426.941
28.90000 432.300
28.91000 436.231
28.92000 430.238
28.93000 413.388
28.94000 396.640
28.95000 394.529
28.96000 402.759
28.97000 410.812
28.98000 417.359
28.99000 422.960
29.00000 427.940
29.01000 424.315
29.02000 417.933
29.03000 412.555
29.04000 415.042
29.05000 419.203
29.06000 422.731
29.07000 420.893
29.08000 418.746
29.09000 416.522
29.10000 414.048
29.11000 411.554
29.12000 410.605
29.13000 413.054
29.14000 415.625
29.15000 417.165
29.16000 422.856
29.17000 426.923
29.18000 426.651
29.19000 422.217
29.20000 417.820
29.21000 416.305
29.22000 416.597
29.23000 416.880
29.24000 415.514
29.25000 413.554
29.26000 411.655
29.27000 410.460
29.28000 409.466
29.29000 409.332
29.30000 415.035
29.31000 421.833
29.32000 427.470
29.33000 424.687
29.34000 421.581
29.35000 419.164
29.36000 418.746
29.37000 418.456
29.38000 416.157
29.39000 409.911
29.40000 403.561
29.41000 399.951
29.42000 413.947
29.43000 423.741
29.44000 427.388
29.45000 425.851
29.46000 424.352
29.47000 424.779
29.48000 426.282
29.49000 427.730
29.50000 423.799
29.51000 418.204
29.52000 413.232
29.53000 414.354
29.54000 417.021
29.55000 419.101
29.56000 417.701
29.57000 415.729
29.58000 414.133
29.59000 410.857
29.60000 408.056
29.61000 406.608
29.62000 408.668
29.63000 410.909
29.64000 415.752
29.65000 425.156
29.66000 434.643
29.67000 439.737
29.68000 424.941
29.69000 414.842
29.70000 409.326
29.71000 407.227
29.72000 405.201
29.73000 405.793
29.74000 407.690
29.75000 409.497
29.76000 412.239
29.77000 415.074
29.78000 418.012
29.79000 421.815
29.80000 425.811
29.81000 429.559
29.82000 432.008
29.83000 434.271
29.84000 436.053
29.85000 426.161
29.86000 417.449
29.87000 414.293
29.88000 423.998
29.89000 434.221
29.90000 441.266
29.91000 443.353
29.92000 445.383
29.93000 446.406
29.94000 447.880
29.95000 448.853
29.96000 448.537
29.97000 447.369
29.98000 446.579
29.99000 455.828
30.00000 469.543
30.01000 482.465
30.02000 475.668
30.03000 464.023
30.04000 453.473
30.05000 450.835
30.06000 449.768
30.07000 449.302
30.08000 451.594
30.09000 454.229
30.10000 456.247
30.11000 461.442
30.12000 465.717
30.13000 467.208
30.14000 462.945
30.15000 458.507
30.16000 455.853
30.17000 455.668
30.18000 455.499
30.19000 449.848
30.20000 439.317
30.21000 428.963
30.22000 429.292
30.23000 435.904
30.24000 442.167
30.25000 441.195
30.26000 437.350
30.27000 433.772
30.28000 434.484
30.29000 436.163
30.30000 437.724
30.31000 438.539
30.32000 439.223
30.33000 440.698
30.34000 445.387
30.35000 450.417
30.36000 454.152
30.37000 441.408
30.38000 430.779
30.39000 426.130
30.40000 432.506
30.41000 439.125
30.42000 441.135
30.43000 437.501
30.44000 433.860
30.45000 428.328
30.46000 421.341
30.47000 414.569
30.48000 416.623
30.49000 423.306
30.50000 429.813
30.51000 433.410
30.52000 435.973
30.53000 438.325
30.54000 440.383
30.55000 442.154
30.56000 442.916
30.57000 438.110
30.58000 432.455
30.59000 427.138
30.60000 423.043
30.61000 419.060
30.62000 416.200
30.63000 423.784
30.64000 429.943
30.65000 435.772
30.66000 441.056
30.67000 446.332
30.68000 444.485
30.69000 434.956
30.70000 425.467
30.71000 427.336
30.72000 437.019
30.73000 446.605
30.74000 453.275
30.75000 458.582
30.76000 463.886
30.77000 469.168
30.78000 474.443
30.79000 479.208
30.80000 479.873
30.81000 479.702
30.82000 479.383
30.83000 478.348
30.84000 477.218
30.85000 475.924
30.86000 474.103
30.87000 472.242
30.88000 470.953
30.89000 483.426
30.90000 493.170
30.91000 500.979
30.92000 505.961
30.93000 510.919
30.94000 512.714
30.95000 511.519
30.96000 510.333
30.97000 522.458
30.98000 542.457
30.99000 562.434
31.00000 581.923
31.01000 601.207
31.02000 620.138
31.03000 635.061
31.04000 648.855
31.05000 661.104
31.06000 708.801
31.07000 755.839
31.08000 799.966
31.09000 831.609
31.10000 861.826
31.11000 904.012
31.12000 980.531
31.13000 1059.185
31.14000 1111.536
31.15000 1234.671
31.16000 1327.119
31.17000 1428.792
31.18000 1542.405
31.19000 1656.081
31.20000 1777.251
31.21000 1904.658
31.22000 2030.387
31.23000 2187.594
31.24000 2357.467
31.25000 2525.953
31.26000 2669.162
31.27000 2802.937
31.28000 2939.073
31.29000 3097.908
31.30000 3262.428
31.31000 3405.829
31.32000 3467.500
31.33000 3508.875
31.34000 3550.725
31.35000 3594.383
31.36000 3638.216
31.37000 3674.073
31.38000 3689.506
31.39000 3703.915
31.40000 3713.105
31.41000 3594.995
31.42000 3507.461
31.43000 3416.673
31.44000 3322.168
31.45000 3227.511
31.46000 3106.859
31.47000 2967.079
31.48000 2829.973
31.49000 2667.051
31.50000 2497.844
31.51000 2330.226
31.52000 2186.174
31.53000 2049.969
31.54000 1914.166
31.55000 1781.675
31.56000 1649.919
31.57000 1537.374
31.58000 1411.026
31.59000 1302.942
31.60000 1198.029
31.61000 1103.856
31.62000 1010.564
31.63000 929.335
31.64000 875.694
31.65000 823.134
31.66000 791.131
31.67000 727.828
31.68000 682.357
31.69000 648.337
31.70000 625.804
31.71000 603.272
31.72000 580.960
31.73000 558.791
31.74000 537.203
31.75000 527.133
31.76000 522.361
31.77000 517.117
31.78000 506.081
31.79000 493.326
31.80000 481.200
31.81000 473.552
31.82000 466.781
31.83000 461.123
31.84000 462.912
31.85000 465.153
31.86000 465.261
31.87000 458.927
31.88000 452.154
31.89000 447.419
31.90000 446.842
31.91000 446.387
31.92000 446.124
31.93000 431.052
31.94000 420.431
31.95000 418.156
31.96000 423.229
31.97000 428.144
31.98000 423.946
31.99000 414.454
32.00000 405.289
32.01000 412.664
32.02000 425.729
32.03000 436.759
32.04000 426.748
32.05000 411.181
32.06000 399.124
32.07000 408.830
32.08000 422.284
32.09000 433.262
32.10000 421.136
32.11000 409.238
32.12000 400.805
32.13000 401.704
32.14000 403.119
32.15000 403.290
32.16000 401.197
32.17000 399.057
32.18000 397.884
32.19000 410.372
32.20000 418.960
32.21000 422.384
32.22000 421.795
32.23000 421.013
32.24000 412.525
32.25000 400.047
32.26000 388.114
32.27000 392.756
32.28000 402.482
32.29000 410.304
32.30000 401.344
32.31000 388.452
32.32000 377.637
32.33000 378.107
32.34000 380.274
32.35000 381.997
32.36000 386.734
32.37000 390.765
32.38000 394.742
32.39000 398.585
32.40000 402.422
32.41000 403.144
32.42000 398.811
32.43000 394.408
32.44000 392.138
32.45000 394.139
32.46000 395.488
32.47000 396.918
32.48000 398.403
32.49000 399.670
32.50000 394.563
32.51000 386.510
32.52000 378.892
32.53000 377.202
32.54000 377.352
32.55000 377.514
32.56000 377.769
32.57000 378.043
32.58000 379.484
32.59000 386.513
32.60000 394.272
32.61000 400.273
32.62000 396.013
32.63000 392.030
32.64000 388.030
32.65000 383.996
32.66000 379.960
32.67000 376.802
32.68000 374.909
32.69000 373.028
32.70000 370.979
32.71000 368.777
32.72000 366.589
32.73000 365.405
32.74000 364.835
32.75000 364.150
32.76000 360.881
32.77000 356.545
32.78000 352.494
32.79000 357.200
32.80000 363.681
32.81000 368.996
32.82000 366.631
32.83000 362.864
32.84000 361.745
32.85000 371.844
32.86000 383.203
32.87000 391.727
32.88000 396.883
32.89000 400.750
32.90000 405.698
32.91000 412.714
32.92000 419.782
32.93000 425.676
32.94000 430.072
32.95000 434.457
32.96000 435.196
32.97000 432.949
32.98000 430.743
32.99000 430.401
33.00000 431.076
33.01000 431.560
33.02000 428.653
33.03000 424.496
33.04000 420.664
33.05000 417.834
33.06000 415.522
33.07000 412.648
33.08000 406.531
33.09000 399.896
33.10000 394.981
33.11000 396.531
33.12000 398.699
33.13000 400.274
33.14000 384.638
33.15000 371.969
33.16000 363.579
33.17000 362.501
33.18000 361.547
33.19000 359.767
33.20000 357.056
33.21000 354.353
33.22000 350.391
33.23000 345.556
33.24000 340.944
33.25000 343.768
33.26000 350.208
33.27000 356.498
33.28000 360.615
33.29000 364.016
33.30000 367.105
33.31000 355.335
33.32000 342.065
33.33000 331.985
33.34000 338.054
33.35000 346.371
33.36000 352.767
33.37000 352.739
33.38000 352.194
33.39000 351.812
33.40000 356.424
33.41000 360.058
33.42000 360.582
33.43000 356.379
33.44000 352.127
33.45000 348.517
33.46000 345.541
33.47000 342.586
33.48000 342.661
33.49000 344.657
33.50000 346.496
33.51000 344.383
33.52000 340.554
33.53000 337.201
33.54000 339.592
33.55000 343.666
33.56000 347.305
33.57000 346.361
33.58000 344.767
33.59000 343.920
33.60000 346.413
33.61000 349.307
33.62000 351.692
33.63000 352.556
33.64000 353.318
33.65000 353.833
33.66000 354.171
33.67000 354.419
33.68000 351.561
33.69000 344.514
33.70000 337.451
33.71000 335.428
33.72000 337.781
33.73000 340.107
33.74000 342.800
33.75000 345.635
33.76000 348.203
33.77000 345.538
33.78000 340.843
33.79000 337.390
33.80000 346.549
33.81000 358.996
33.82000 369.915
33.83000 359.589
33.84000 347.624
33.85000 337.894
33.86000 337.021
33.87000 337.060
33.88000 337.508
33.89000 339.044
33.90000 340.639
33.91000 341.672
33.92000 347.539
33.93000 351.903
33.94000 351.606
33.95000 345.755
33.96000 339.920
33.97000 340.513
33.98000 346.035
33.99000 351.462
34.00000 351.669
34.01000 349.287
34.02000 347.172
34.03000 349.285
34.04000 352.861
34.05000 355.302
34.06000 347.905
34.07000 338.233
34.08000 329.912
34.09000 332.513
34.10000 336.085
34.11000 338.110
34.12000 334.685
34.13000 330.785
34.14000 329.734
34.15000 335.455
34.16000 341.465
34.17000 345.184
34.18000 340.659
34.19000 337.329
34.20000 337.041
34.21000 339.944
34.22000 342.820
34.23000 342.702
34.24000 340.548
34.25000 338.444
34.26000 338.828
34.27000 340.282
34.28000 341.905
34.29000 345.729
34.30000 350.232
34.31000 353.584
34.32000 348.333
34.33000 341.322
34.34000 335.418
34.35000 338.215
34.36000 341.481
34.37000 344.104
34.38000 344.707
34.39000 345.164
34.40000 345.300
34.41000 344.755
34.42000 344.189
34.43000 343.855
34.44000 334.701
34.45000 328.197
34.46000 326.613
34.47000 329.554
34.48000 332.446
34.49000 332.136
34.50000 329.892
34.51000 327.718
34.52000 332.077
34.53000 338.722
34.54000 344.689
34.55000 343.251
34.56000 339.778
34.57000 335.967
34.58000 329.963
34.59000 323.565
34.60000 318.300
34.61000 326.656
34.62000 334.762
34.63000 339.329
34.64000 333.989
34.65000 328.060
34.66000 324.015
34.67000 323.535
34.68000 323.140
34.69000 322.920
34.70000 329.557
34.71000 334.156
34.72000 334.304
34.73000 330.846
34.74000 327.465
34.75000 327.496
34.76000 329.363
34.77000 331.154
34.78000 329.225
34.79000 326.155
34.80000 323.695
34.81000 326.894
34.82000 331.475
34.83000 335.137
34.84000 333.579
34.85000 331.199
34.86000 329.289
34.87000 326.482
34.88000 324.140
34.89000 322.900
34.90000 324.414
34.91000 326.059
34.92000 325.504
34.93000 321.237
34.94000 316.910
34.95000 314.632
34.96000 318.005
34.97000 320.273
34.98000 319.241
34.99000 315.842
35.00000 312.663
35.01000 316.543
35.02000 323.814
35.03000 330.718
35.04000 330.138
35.05000 327.357
35.06000 324.262
35.07000 318.662
35.08000 312.521
35.09000 307.426
35.10000 307.554
35.11000 308.398
35.12000 309.057
35.13000 318.362
35.14000 326.328
35.15000 331.753
35.16000 331.504
35.17000 331.046
35.18000 325.875
35.19000 313.629
35.20000 301.313
35.21000 299.224
35.22000 307.101
35.23000 314.866
35.24000 313.417
35.25000 306.104
35.26000 299.372
35.27000 306.823
35.28000 320.358
35.29000 333.059
35.30000 330.226
35.31000 323.545
35.32000 317.309
35.33000 314.150
35.34000 311.576
35.35000 309.627
35.36000 310.437
35.37000 311.573
35.38000 312.435
35.39000 308.556
35.40000 305.267
35.41000 304.688
35.42000 309.508
35.43000 314.477
35.44000 315.873
35.45000 312.513
35.46000 309.132
35.47000 309.920
35.48000 314.269
35.49000 318.496
35.50000 316.280
35.51000 310.414
35.52000 304.789
35.53000 303.809
35.54000 304.609
35.55000 305.349
35.56000 308.785
35.57000 312.498
35.58000 315.598
35.59000 314.998
35.60000 313.780
35.61000 313.395
35.62000 316.273
35.63000 319.481
35.64000 321.837
35.65000 321.054
35.66000 320.319
35.67000 318.020
35.68000 312.939
35.69000 307.805
35.70000 304.409
35.71000 303.060
35.72000 301.717
35.73000 301.838
35.74000 303.058
35.75000 304.263
35.76000 304.956
35.77000 305.390
35.78000 305.757
35.79000 305.100
35.80000 304.093
35.81000 303.173
35.82000 305.585
35.83000 308.400
35.84000 310.756
35.85000 310.683
35.86000 310.255
35.87000 308.932
35.88000 304.490
35.89000 299.781
35.90000 296.439
35.91000 303.809
35.92000 309.755
35.93000 311.311
35.94000 305.924
35.95000 300.449
35.96000 298.393
35.97000 299.871
35.98000 301.342
35.99000 299.133
36.00000 294.517
36.01000 290.354
36.02000 298.639
36.03000 312.540
36.04000 325.156
36.05000 321.300
36.06000 312.425
36.07000 304.451
36.08000 303.677
36.09000 304.270
36.10000 304.867
36.11000 305.476
36.12000 306.087
36.13000 306.593
36.14000 306.771
36.15000 306.926
36.16000 307.032
36.17000 306.217
36.18000 305.586
36.19000 305.142
36.20000 304.960
36.21000 304.778
36.22000 301.016
36.23000 294.008
36.24000 287.068
36.25000 290.107
36.26000 298.910
36.27000 307.243
36.28000 305.544
36.29000 299.805
36.30000 295.241
36.31000 303.319
36.32000 314.827
36.33000 324.986
36.34000 317.886
36.35000 309.115
36.36000 302.618
36.37000 305.504
36.38000 309.410
36.39000 309.802
36.40000 300.483
36.41000 290.598
36.42000 284.107
36.43000 297.256
36.44000 307.263
36.45000 308.811
36.46000 299.841
36.47000 290.864
36.48000 289.830
36.49000 295.144
36.50000 300.379
36.51000 299.119
36.52000 294.546
36.53000 290.200
36.54000 289.708
36.55000 290.602
36.56000 291.660
36.57000 294.210
36.58000 297.120
36.59000 299.640
36.60000 300.542
36.61000 301.096
36.62000 299.654
36.63000 290.899
36.64000 281.470
36.65000 278.342
36.66000 290.767
36.67000 303.913
36.68000 312.177
36.69000 300.666
36.70000 292.122
36.71000 289.382
36.72000 293.002
36.73000 296.595
36.74000 295.908
36.75000 292.193
36.76000 288.558
36.77000 291.945
36.78000 298.397
36.79000 304.238
36.80000 301.564
36.81000 296.158
36.82000 291.692
36.83000 294.615
36.84000 299.114
36.85000 302.930
36.86000 295.631
36.87000 288.254
36.88000 283.291
36.89000 286.204
36.90000 289.727
36.91000 292.049
36.92000 291.727
36.93000 291.309
36.94000 291.059
36.95000 302.628
36.96000 310.921
36.97000 311.812
36.98000 305.590
36.99000 299.438
37.00000 298.845
37.01000 301.745
37.02000 304.561
37.03000 303.580
37.04000 301.119
37.05000 299.080
37.06000 301.922
37.07000 306.160
37.08000 309.896
37.09000 310.221
37.10000 309.904
37.11000 309.641
37.12000 302.552
37.13000 296.038
37.14000 291.555
37.15000 292.977
37.16000 294.776
37.17000 295.205
37.18000 292.937
37.19000 290.597
37.20000 289.266
37.21000 294.097
37.22000 297.484
37.23000 301.682
37.24000 306.567
37.25000 311.297
37.26000 308.185
37.27000 300.684
37.28000 293.462
37.29000 290.819
37.30000 289.964
37.31000 289.341
37.32000 290.990
37.33000 293.217
37.34000 295.296
37.35000 296.499
37.36000 297.558
37.37000 298.415
37.38000 300.289
37.39000 301.897
37.40000 303.405
37.41000 304.652
37.42000 305.886
37.43000 303.885
37.44000 296.208
37.45000 288.425
37.46000 284.242
37.47000 286.371
37.48000 287.815
37.49000 286.234
37.50000 282.395
37.51000 278.753
37.52000 282.167
37.53000 289.103
37.54000 295.713
37.55000 294.634
37.56000 291.225
37.57000 287.737
37.58000 283.578
37.59000 279.269
37.60000 276.527
37.61000 281.959
37.62000 288.567
37.63000 293.775
37.64000 298.877
37.65000 302.961
37.66000 302.765
37.67000 292.648
37.68000 282.129
37.69000 277.536
37.70000 282.197
37.71000 286.969
37.72000 289.377
37.73000 292.428
37.74000 294.429
37.75000 292.530
37.76000 288.047
37.77000 283.796
37.78000 285.724
37.79000 290.405
37.80000 294.817
37.81000 291.926
37.82000 287.268
37.83000 283.667
37.84000 287.727
37.85000 293.312
37.86000 297.931
37.87000 298.109
37.88000 297.734
37.89000 297.446
37.90000 298.445
37.91000 299.304
37.92000 298.967
37.93000 296.153
37.94000 293.264
37.95000 293.842
37.96000 299.231
37.97000 304.649
37.98000 305.426
37.99000 302.057
38.00000 298.739
38.01000 298.557
38.02000 300.223
38.03000 301.931
38.04000 304.493
38.05000 307.394
38.06000 310.094
38.07000 309.731
38.08000 308.662
38.09000 307.878
38.10000 308.894
38.11000 310.225
38.12000 310.142
38.13000 304.303
38.14000 297.849
38.15000 293.055
38.16000 299.233
38.17000 304.520
38.18000 308.686
38.19000 310.782
38.20000 312.832
38.21000 314.011
38.22000 314.120
38.23000 314.227
38.24000 314.159
38.25000 313.955
38.26000 313.744
38.27000 313.250
38.28000 312.609
38.29000 312.221
38.30000 316.060
38.31000 321.401
38.32000 326.301
38.33000 325.447
38.34000 323.466
38.35000 322.384
38.36000 326.269
38.37000 330.915
38.38000 336.091
38.39000 343.189
38.40000 350.460
38.41000 355.683
38.42000 370.774
38.43000 382.660
38.44000 390.510
38.45000 391.717
38.46000 392.827
38.47000 400.642
38.48000 415.702
38.49000 430.696
38.50000 446.924
38.51000 463.829
38.52000 480.981
38.53000 505.596
38.54000 533.709
38.55000 561.826
38.56000 590.001
38.57000 618.194
38.58000 643.663
38.59000 671.438
38.60000 696.287
38.61000 719.726
38.62000 736.312
38.63000 751.988
38.64000 770.615
38.65000 798.755
38.66000 827.616
38.67000 847.606
38.68000 866.868
38.69000 881.344
38.70000 895.893
38.71000 910.546
38.72000 925.196
38.73000 918.907
38.74000 892.778
38.75000 866.865
38.76000 862.104
38.77000 870.320
38.78000 877.549
38.79000 861.968
38.80000 836.838
38.81000 810.934
38.82000 776.209
38.83000 738.994
38.84000 705.940
38.85000 679.786
38.86000 658.218
38.87000 635.057
38.88000 605.054
38.89000 574.268
38.90000 545.730
38.91000 523.651
38.92000 501.974
38.93000 487.538
38.94000 463.469
38.95000 445.471
38.96000 429.292
38.97000 415.469
38.98000 401.659
38.99000 389.077
39.00000 377.520
39.01000 366.113
39.02000 361.394
39.03000 360.399
39.04000 358.940
39.05000 348.987
39.06000 335.860
39.07000 323.137
39.08000 314.320
39.09000 306.483
39.10000 299.650
39.11000 297.357
39.12000 296.027
39.13000 295.943
39.14000 300.611
39.15000 305.743
39.16000 307.078
39.17000 298.672
39.18000 289.776
39.19000 284.098
39.20000 284.427
39.21000 284.744
39.22000 286.382
39.23000 289.531
39.24000 292.644
39.25000 289.080
39.26000 280.594
39.27000 272.269
39.28000 267.061
39.29000 263.522
39.30000 260.628
39.31000 267.315
39.32000 277.199
39.33000 285.445
39.34000 280.176
39.35000 271.901
39.36000 264.832
39.37000 268.914
39.38000 273.686
39.39000 277.186
39.40000 276.372
39.41000 275.203
39.42000 274.776
39.43000 276.050
39.44000 277.391
39.45000 278.208
39.46000 279.788
39.47000 280.923
39.48000 281.967
39.49000 282.920
39.50000 283.858
39.51000 283.445
39.52000 282.148
39.53000 280.885
39.54000 282.670
39.55000 285.651
39.56000 288.364
39.57000 287.783
39.58000 286.222
39.59000 283.965
39.60000 276.741
39.61000 268.541
39.62000 261.687
39.63000 259.956
39.64000 259.039
39.65000 258.831
39.66000 260.766
39.67000 262.846
39.68000 263.857
39.69000 262.678
39.70000 261.435
39.71000 260.714
39.72000 259.605
39.73000 258.824
39.74000 257.702
39.75000 256.278
39.76000 254.930
39.77000 257.936
39.78000 263.476
39.79000 268.826
39.80000 269.967
39.81000 269.482
39.82000 269.245
39.83000 271.576
39.84000 274.585
39.85000 276.457
39.86000 271.262
39.87000 264.848
39.88000 259.612
39.89000 254.538
39.90000 250.401
39.91000 249.455
39.92000 257.118
39.93000 265.260
39.94000 271.336
39.95000 273.641
39.96000 275.868
39.97000 277.088
39.98000 271.591
39.99000 267.806
40.00000 265.654
40.01000 264.771
40.02000 263.839
40.03000 260.894
40.04000 256.904
40.05000 253.089
40.06000 251.963
40.07000 251.795
40.08000 251.936
40.09000 254.804
40.10000 258.313
40.11000 261.656
40.12000 264.092
40.13000 266.393
40.14000 268.223
40.15000 264.870
40.16000 261.796
40.17000 262.181
40.18000 270.895
40.19000 279.977
40.20000 283.405
40.21000 277.644
40.22000 271.756
40.23000 268.717
40.24000 262.782
40.25000 258.799
40.26000 256.709
40.27000 255.924
40.28000 255.131
40.29000 254.086
40.30000 252.926
40.31000 251.828
40.32000 251.798
40.33000 252.078
40.34000 252.518
40.35000 254.167
40.36000 256.067
40.37000 256.566
40.38000 250.347
40.39000 243.248
40.40000 237.756
40.41000 250.906
40.42000 262.443
40.43000 268.506
40.44000 262.794
40.45000 256.683
40.46000 254.152
40.47000 256.790
40.48000 259.469
40.49000 258.580
40.50000 254.359
40.51000 250.187
40.52000 249.410
40.53000 250.715
40.54000 251.943
40.55000 251.439
40.56000 250.219
40.57000 249.079
40.58000 253.007
40.59000 257.853
40.60000 262.047
40.61000 261.925
40.62000 261.015
40.63000 259.614
40.64000 256.136
40.65000 252.423
40.66000 249.637
40.67000 253.117
40.68000 256.136
40.69000 257.555
40.70000 255.904
40.71000 254.177
40.72000 253.662
40.73000 254.698
40.74000 255.738
40.75000 253.754
40.76000 249.298
40.77000 245.003
40.78000 248.256
40.79000 255.629
40.80000 262.797
40.81000 266.294
40.82000 268.436
40.83000 270.411
40.84000 263.746
40.85000 255.860
40.86000 248.771
40.87000 246.276
40.88000 244.518
40.89000 243.511
40.90000 245.330
40.91000 247.421
40.92000 248.940
40.93000 250.293
40.94000 251.327
40.95000 251.316
40.96000 249.519
40.97000 247.690
40.98000 245.378
40.99000 242.520
41.00000 239.672
41.01000 240.075
41.02000 242.821
41.03000 245.568
41.04000 248.379
41.05000 251.221
41.06000 253.713
41.07000 251.103
41.08000 246.812
41.09000 242.915
41.10000 245.573
41.11000 249.191
41.12000 252.145
41.13000 251.727
41.14000 250.838
41.15000 249.155
41.16000 244.812
41.17000 240.255
41.18000 237.058
41.19000 235.451
41.20000 234.281
41.21000 234.140
41.22000 235.566
41.23000 237.009
41.24000 238.800
41.25000 240.938
41.26000 243.061
41.27000 241.635
41.28000 237.974
41.29000 234.532
41.30000 236.607
41.31000 241.082
41.32000 245.330
41.33000 246.833
41.34000 247.531
41.35000 248.154
41.36000 247.748
41.37000 247.221
41.38000 247.281
41.39000 249.968
41.40000 252.972
41.41000 255.130
41.42000 254.759
41.43000 254.219
41.44000 253.854
41.45000 253.572
41.46000 253.364
41.47000 254.114
41.48000 256.160
41.49000 258.209
41.50000 256.832
41.51000 252.474
41.52000 248.166
41.53000 247.106
41.54000 247.893
41.55000 248.642
41.56000 248.653
41.57000 248.376
41.58000 248.324
41.59000 250.551
41.60000 253.373
41.61000 255.850
41.62000 245.754
41.63000 235.244
41.64000 227.396
41.65000 230.120
41.66000 233.935
41.67000 236.941
41.68000 237.795
41.69000 238.531
41.70000 239.008
41.71000 242.981
41.72000 245.941
41.73000 246.878
41.74000 245.400
41.75000 243.923
41.76000 243.671
41.77000 244.359
41.78000 245.036
41.79000 237.184
41.80000 225.367
41.81000 214.737
41.82000 222.997
41.83000 237.806
41.84000 251.303
41.85000 253.401
41.86000 252.857
41.87000 252.389
41.88000 251.381
41.89000 250.460
41.90000 248.567
41.91000 243.245
41.92000 237.624
41.93000 235.590
41.94000 242.096
41.95000 248.967
41.96000 253.222
41.97000 237.460
41.98000 225.936
41.99000 223.237
42.00000 229.809
42.01000 236.326
42.02000 236.451
42.03000 232.224
42.04000 228.096
42.05000 233.018
42.06000 241.688
42.07000 249.657
42.08000 248.443
42.09000 244.389
42.10000 240.678
42.11000 239.535
42.12000 238.918
42.13000 238.399
42.14000 237.888
42.15000 237.463
42.16000 235.940
42.17000 230.970
42.18000 225.749
42.19000 223.390
42.20000 227.115
42.21000 231.038
42.22000 233.352
42.23000 242.044
42.24000 248.212
42.25000 250.549
42.26000 249.354
42.27000 248.129
42.28000 244.848
42.29000 240.323
42.30000 235.940
42.31000 239.381
42.32000 245.660
42.33000 250.820
42.34000 243.701
42.35000 233.203
42.36000 224.563
42.37000 228.009
42.38000 233.635
42.39000 238.265
42.40000 236.172
42.41000 233.840
42.42000 232.137
42.43000 232.200
42.44000 232.369
42.45000 233.857
42.46000 237.849
42.47000 241.901
42.48000 244.166
42.49000 243.430
42.50000 242.916
42.51000 242.971
42.52000 243.489
42.53000 243.968
42.54000 242.727
42.55000 240.558
42.56000 238.476
42.57000 242.080
42.58000 247.387
42.59000 251.770
42.60000 247.538
42.61000 241.200
42.62000 235.740
42.63000 235.273
42.64000 235.594
42.65000 235.852
42.66000 236.778
42.67000 237.580
42.68000 237.041
42.69000 233.147
42.70000 229.093
42.71000 229.351
42.72000 236.901
42.73000 244.569
42.74000 248.610
42.75000 244.210
42.76000 241.233
42.77000 240.217
42.78000 240.609
42.79000 240.983
42.80000 240.803
42.81000 240.357
42.82000 239.933
42.83000 237.814
42.84000 235.347
42.85000 232.937
42.86000 230.985
42.87000 229.132
42.88000 227.142
42.89000 224.469
42.90000 221.701
42.91000 219.539
42.92000 220.429
42.93000 221.331
42.94000 224.317
42.95000 231.964
42.96000 239.783
42.97000 241.376
42.98000 233.606
42.99000 225.743
43.00000 224.700
43.01000 230.317
43.02000 235.857
43.03000 234.983
43.04000 230.018
43.05000 225.143
43.06000 222.449
43.07000 220.692
43.08000 219.043
43.09000 220.371
43.10000 222.368
43.11000 224.009
43.12000 223.183
43.13000 221.886
43.14000 220.876
43.15000 221.134
43.16000 221.542
43.17000 221.851
43.18000 229.725
43.19000 236.299
43.20000 240.297
43.21000 239.155
43.22000 237.871
43.23000 236.522
43.24000 235.088
43.25000 233.655
43.26000 234.994
43.27000 238.706
43.28000 242.280
43.29000 238.576
43.30000 230.741
43.31000 223.355
43.32000 224.607
43.33000 229.174
43.34000 233.404
43.35000 235.750
43.36000 237.424
43.37000 238.057
43.38000 232.411
43.39000 225.712
43.40000 220.623
43.41000 221.842
43.42000 223.702
43.43000 225.068
43.44000 230.938
43.45000 235.661
43.46000 237.483
43.47000 234.141
43.48000 230.699
43.49000 228.944
43.50000 229.178
43.51000 229.415
43.52000 227.211
43.53000 223.183
43.54000 219.287
43.55000 220.311
43.56000 223.824
43.57000 227.191
43.58000 228.294
43.59000 228.620
43.60000 228.919
43.61000 231.384
43.62000 234.012
43.63000 235.510
43.64000 231.027
43.65000 225.668
43.66000 222.090
43.67000 224.714
43.68000 227.869
43.69000 230.110
43.70000 228.297
43.71000 226.788
43.72000 225.371
43.73000 224.098
43.74000 222.827
43.75000 224.609
43.76000 229.553
43.77000 234.470
43.78000 235.544
43.79000 234.055
43.80000 232.633
43.81000 233.049
43.82000 234.296
43.83000 235.170
43.84000 231.271
43.85000 225.913
43.86000 221.099
43.87000 225.352
43.88000 230.679
43.89000 234.857
43.90000 233.669
43.91000 231.800
43.92000 229.410
43.93000 225.405
43.94000 221.284
43.95000 218.464
43.96000 221.313
43.97000 223.580
43.98000 226.379
43.99000 229.925
44.00000 233.474
44.01000 230.514
44.02000 221.643
44.03000 212.858
44.04000 216.568
44.05000 227.513
44.06000 237.947
44.07000 237.459
44.08000 232.564
44.09000 228.064
44.10000 227.819
44.11000 228.730
44.12000 229.535
44.13000 225.952
44.14000 222.185
44.15000 219.410
44.16000 220.736
44.17000 222.509
44.18000 223.240
44.19000 221.088
44.20000 218.767
44.21000 217.242
44.22000 220.985
44.23000 223.829
44.24000 226.337
44.25000 228.426
44.26000 230.505
44.27000 229.515
44.28000 226.067
44.29000 222.671
44.30000 226.337
44.31000 233.543
44.32000 240.307
44.33000 239.529
44.34000 236.034
44.35000 232.822
44.36000 232.206
44.37000 232.216
44.38000 232.225
44.39000 232.945
44.40000 233.652
44.41000 233.031
44.42000 227.538
44.43000 221.595
44.44000 217.660
44.45000 218.692
44.46000 219.955
44.47000 220.750
44.48000 216.737
44.49000 213.781
44.50000 214.718
44.51000 219.929
44.52000 225.127
44.53000 228.158
44.54000 229.651
44.55000 231.114
44.56000 233.476
44.57000 236.154
44.58000 239.120
44.59000 246.094
44.60000 254.355
44.61000 261.402
44.62000 258.901
44.63000 254.360
44.64000 250.507
44.65000 244.774
44.66000 239.753
44.67000 235.616
44.68000 234.373
44.69000 233.353
44.70000 234.754
44.71000 241.500
44.72000 248.439
44.73000 252.600
44.74000 259.398
44.75000 264.245
44.76000 266.227
44.77000 265.452
44.78000 264.716
44.79000 267.012
44.80000 271.216
44.81000 275.300
44.82000 279.048
44.83000 282.473
44.84000 285.502
44.85000 283.930
44.86000 281.041
44.87000 280.756
44.88000 298.225
44.89000 319.038
44.90000 336.307
44.91000 339.139
44.92000 340.087
44.93000 340.986
44.94000 341.741
44.95000 342.487
44.96000 347.513
44.97000 360.976
44.98000 374.666
44.99000 382.460
45.00000 382.729
45.01000 382.902
45.02000 388.830
45.03000 399.630
45.04000 410.340
45.05000 416.444
45.06000 419.965
45.07000 423.356
45.08000 417.865
45.09000 409.551
45.10000 401.710
45.11000 398.529
45.12000 396.534
45.13000 395.831
45.14000 402.820
45.15000 411.079
45.16000 417.767
45.17000 395.609
45.18000 375.228
45.19000 358.944
45.20000 353.318
45.21000 348.242
45.22000 345.611
45.23000 347.276
45.24000 349.021
45.25000 349.960
45.26000 336.391
45.27000 327.122
45.28000 321.173
45.29000 317.707
45.30000 314.097
45.31000 305.340
45.32000 294.009
45.33000 283.208
45.34000 275.749
45.35000 269.881
45.36000 264.559
45.37000 263.831
45.38000 264.139
45.39000 263.664
45.40000 259.097
45.41000 253.939
45.42000 249.872
45.43000 247.577
45.44000 245.857
45.45000 244.384
45.46000 243.488
45.47000 242.615
45.48000 240.504
45.49000 236.455
45.50000 232.383
45.51000 230.325
45.52000 241.892
45.53000 249.545
45.54000 248.665
45.55000 242.125
45.56000 235.769
45.57000 234.357
45.58000 235.152
45.59000 235.901
45.60000 231.125
45.61000 225.226
45.62000 219.993
45.63000 219.589
45.64000 220.149
45.65000 221.074
45.66000 223.683
45.67000 226.502
45.68000 228.663
45.69000 219.522
45.70000 211.680
45.71000 205.006
45.72000 200.755
45.73000 196.578
45.74000 195.924
45.75000 200.164
45.76000 204.435
45.77000 208.986
45.78000 213.784
45.79000 218.500
45.80000 218.180
45.81000 214.888
45.82000 211.707
45.83000 210.828
45.84000 210.867
45.85000 210.903
45.86000 210.655
45.87000 210.362
45.88000 210.100
45.89000 210.037
45.90000 210.008
45.91000 209.545
45.92000 207.310
45.93000 204.886
45.94000 203.084
45.95000 200.051
45.96000 197.638
45.97000 197.049
45.98000 199.833
45.99000 202.693
46.00000 206.352
46.01000 210.996
46.02000 215.632
46.03000 214.549
46.04000 208.971
46.05000 203.509
46.06000 202.795
46.07000 204.580
46.08000 206.469
46.09000 210.099
46.10000 214.350
46.11000 218.250
46.12000 215.676
46.13000 212.006
46.14000 209.017
46.15000 209.798
46.16000 211.157
46.17000 211.820
46.18000 209.959
46.19000 207.868
46.20000 206.366
46.21000 203.527
46.22000 201.308
46.23000 200.890
46.24000 203.439
46.25000 206.032
46.26000 208.046
46.27000 209.435
46.28000 210.817
46.29000 209.646
46.30000 206.719
46.31000 203.876
46.32000 203.568
46.33000 204.449
46.34000 205.206
46.35000 204.262
46.36000 202.777
46.37000 201.435
46.38000 204.923
46.39000 208.886
46.40000 212.436
46.41000 213.971
46.42000 215.237
46.43000 216.610
46.44000 218.324
46.45000 220.064
46.46000 221.269
46.47000 215.632
46.48000 211.208
46.49000 208.853
46.50000 209.530
46.51000 210.233
46.52000 211.058
46.53000 211.998
46.54000 212.930
46.55000 211.324
46.56000 208.197
46.57000 205.267
46.58000 206.897
46.59000 210.438
46.60000 213.551
46.61000 211.780
46.62000 208.628
46.63000 205.828
46.64000 202.489
46.65000 199.507
46.66000 197.359
46.67000 198.805
46.68000 200.663
46.69000 202.502
46.70000 204.287
46.71000 206.068
46.72000 207.255
46.73000 202.863
46.74000 199.504
46.75000 196.827
46.76000 195.034
46.77000 193.249
46.78000 193.089
46.79000 194.288
46.80000 195.471
46.81000 198.918
46.82000 203.493
46.83000 207.764
46.84000 206.442
46.85000 203.025
46.86000 199.582
46.87000 195.881
46.88000 192.115
46.89000 188.831
46.90000 196.503
46.91000 204.589
46.92000 210.433
46.93000 207.713
46.94000 204.155
46.95000 201.869
46.96000 202.853
46.97000 204.001
46.98000 204.734
46.99000 197.247
47.00000 191.692
47.01000 190.259
47.02000 193.553
47.03000 196.853
47.04000 200.246
47.05000 203.707
47.06000 207.103
47.07000 205.117
47.08000 200.642
47.09000 196.167
47.10000 191.698
47.11000 187.230
47.12000 183.331
47.13000 184.128
47.14000 185.972
47.15000 187.548
47.16000 191.828
47.17000 195.758
47.18000 199.142
47.19000 200.666
47.20000 202.037
47.21000 202.868
47.22000 202.461
47.23000 202.005
47.24000 201.727
47.25000 202.066
47.26000 202.313
47.27000 201.411
47.28000 199.354
47.29000 197.276
47.30000 193.202
47.31000 187.821
47.32000 182.579
47.33000 186.380
47.34000 193.805
47.35000 200.565
47.36000 199.119
47.37000 195.228
47.38000 192.041
47.39000 193.878
47.40000 196.703
47.41000 199.066
47.42000 195.842
47.43000 192.595
47.44000 190.482
47.45000 191.803
47.46000 193.359
47.47000 192.361
47.48000 186.132
47.49000 179.747
47.50000 176.045
47.51000 185.720
47.52000 192.561
47.53000 195.585
47.54000 195.236
47.55000 194.856
47.56000 192.658
47.57000 189.399
47.58000 186.252
47.59000 186.966
47.60000 189.071
47.61000 191.066
47.62000 191.921
47.63000 192.474
47.64000 192.572
47.65000 189.832
47.66000 186.601
47.67000 183.964
47.68000 182.373
47.69000 181.162
47.70000 179.906
47.71000 178.529
47.72000 177.145
47.73000 177.779
47.74000 182.103
47.75000 186.506
47.76000 188.921
47.77000 190.451
47.78000 191.495
47.79000 190.923
47.80000 189.089
47.81000 187.223
47.82000 184.067
47.83000 180.240
47.84000 176.580
47.85000 180.488
47.86000 186.605
47.87000 191.854
47.88000 189.411
47.89000 185.159
47.90000 181.163
47.91000 178.559
47.92000 176.166
47.93000 174.261
47.94000 179.578
47.95000 184.383
47.96000 187.491
47.97000 186.505
47.98000 185.338
47.99000 186.440
48.00000 191.237
48.01000 196.086
48.02000 198.591
48.03000 190.927
48.04000 185.819
48.05000 187.837
48.06000 194.779
48.07000 201.439
48.08000 199.825
48.09000 194.373
48.10000 189.214
48.11000 186.061
48.12000 183.740
48.13000 181.764
48.14000 182.424
48.15000 183.631
48.16000 184.838
48.17000 186.043
48.18000 187.247
48.19000 188.180
48.20000 191.653
48.21000 194.561
48.22000 195.399
48.23000 191.777
48.24000 188.003
48.25000 184.631
48.26000 181.838
48.27000 179.051
48.28000 177.528
48.29000 177.189
48.30000 176.870
48.31000 178.054
48.32000 180.161
48.33000 182.240
48.34000 183.720
48.35000 184.950
48.36000 186.100
48.37000 190.664
48.38000 195.671
48.39000 199.424
48.40000 194.877
48.41000 188.808
48.42000 185.100
48.43000 191.421
48.44000 198.875
48.45000 204.473
48.46000 196.714
48.47000 190.011
48.48000 186.521
48.49000 189.211
48.50000 192.054
48.51000 191.728
48.52000 187.337
48.53000 182.937
48.54000 182.588
48.55000 185.567
48.56000 188.497
48.57000 189.088
48.58000 188.402
48.59000 187.755
48.60000 187.826
48.61000 188.161
48.62000 188.470
48.63000 189.781
48.64000 191.177
48.65000 191.959
48.66000 189.188
48.67000 185.845
48.68000 183.220
48.69000 183.299
48.70000 183.637
48.71000 183.883
48.72000 186.049
48.73000 187.788
48.74000 186.522
48.75000 180.103
48.76000 173.596
48.77000 171.481
48.78000 174.333
48.79000 177.180
48.80000 178.711
48.81000 179.279
48.82000 179.803
48.83000 178.871
48.84000 177.229
48.85000 175.797
48.86000 177.419
48.87000 180.049
48.88000 182.438
48.89000 185.352
48.90000 188.029
48.91000 189.904
48.92000 187.706
48.93000 184.937
48.94000 182.402
48.95000 180.648
48.96000 178.957
48.97000 177.770
48.98000 178.025
48.99000 178.260
49.00000 179.809
49.01000 183.361
49.02000 186.934
49.03000 186.813
49.04000 183.023
49.05000 179.260
49.06000 177.576
49.07000 177.244
49.08000 176.942
49.09000 177.417
49.10000 178.230
49.11000 179.026
49.12000 179.617
49.13000 180.147
49.14000 180.621
49.15000 175.444
49.16000 169.978
49.17000 165.882
49.18000 167.940
49.19000 170.742
49.20000 173.692
49.21000 177.089
49.22000 180.516
49.23000 182.831
49.24000 189.959
49.25000 195.368
49.26000 196.704
49.27000 192.527
49.28000 188.323
49.29000 186.861
49.30000 187.789
49.31000 188.706
49.32000 190.025
49.33000 191.539
49.34000 192.741
49.35000 187.772
49.36000 180.402
49.37000 173.869
49.38000 175.878
49.39000 180.122
49.40000 183.847
49.41000 181.527
49.42000 178.648
49.43000 176.274
49.44000 175.911
49.45000 175.756
49.46000 175.748
49.47000 176.133
49.48000 176.539
49.49000 176.802
49.50000 181.567
49.51000 185.121
49.52000 186.306
49.53000 184.656
49.54000 182.999
49.55000 181.025
49.56000 178.806
49.57000 176.625
49.58000 177.804
49.59000 180.613
49.60000 183.089
49.61000 180.253
49.62000 175.571
49.63000 171.443
49.64000 172.135
49.65000 173.946
49.66000 175.504
49.67000 176.947
49.68000 178.155
49.69000 178.672
49.70000 176.751
49.71000 174.617
49.72000 173.206
49.73000 173.519
49.74000 173.907
49.75000 174.148
49.76000 172.009
49.77000 170.448
49.78000 172.526
49.79000 178.435
49.80000 184.330
49.81000 188.532
49.82000 191.581
49.83000 194.559
49.84000 190.137
49.85000 182.660
49.86000 175.507
49.87000 172.602
49.88000 171.014
49.89000 170.071
49.90000 173.969
49.91000 178.862
49.92000 182.984
49.93000 178.588
49.94000 174.002
49.95000 170.879
49.96000 172.366
49.97000 174.189
49.98000 174.659
49.99000 172.249
50.00000 169.745
50.01000 168.267
50.02000 169.767
50.03000 170.841
50.04000 171.410
50.05000 171.510
50.06000 171.627
50.07000 172.835
50.08000 174.705
50.09000 176.517
50.10000 179.479
50.11000 182.727
50.12000 185.750
50.13000 186.282
50.14000 186.128
50.15000 185.696
50.16000 183.458
50.17000 180.894
50.18000 178.783
50.19000 179.632
50.20000 180.600
50.21000 181.171
50.22000 180.624
50.23000 180.010
50.24000 181.202
50.25000 185.826
50.26000 190.533
50.27000 193.166
50.28000 187.257
50.29000 183.154
50.30000 182.288
50.31000 184.056
50.32000 185.824
50.33000 187.603
50.34000 189.388
50.35000 191.101
50.36000 191.608
50.37000 191.669
50.38000 191.828
50.39000 192.897
50.40000 194.190
50.41000 195.901
50.42000 199.999
50.43000 204.473
50.44000 208.067
50.45000 212.032
50.46000 215.274
50.47000 218.012
50.48000 219.490
50.49000 220.906
50.50000 221.830
50.51000 221.919
50.52000 221.995
50.53000 222.035
50.54000 229.621
50.55000 234.738
50.56000 234.263
50.57000 229.766
50.58000 225.687
50.59000 235.189
50.60000 251.236
50.61000 266.478
50.62000 266.226
50.63000 261.329
50.64000 257.594
50.65000 263.175
50.66000 270.776
50.67000 277.286
50.68000 278.324
50.69000 278.608
50.70000 278.831
50.71000 279.616
50.72000 280.277
50.73000 279.336
50.74000 274.803
50.75000 270.137
50.76000 267.920
50.77000 269.390
50.78000 270.898
50.79000 270.109
50.80000 267.074
50.81000 264.026
50.82000 259.799
50.83000 254.820
50.84000 249.934
50.85000 247.358
50.86000 245.775
50.87000 244.288
50.88000 236.788
50.89000 228.357
50.90000 220.161
50.91000 213.593
50.92000 207.336
50.93000 201.814
50.94000 199.541
50.95000 197.655
50.96000 196.224
50.97000 197.168
50.98000 198.032
50.99000 198.416
51.00000 197.841
51.01000 197.239
51.02000 196.599
51.03000 195.908
51.04000 195.217
51.05000 191.903
51.06000 186.346
51.07000 180.852
51.08000 178.764
51.09000 178.613
51.10000 178.584
51.11000 180.899
51.12000 184.115
51.13000 187.095
51.14000 183.875
51.15000 179.536
51.16000 176.034
51.17000 177.591
51.18000 179.998
51.19000 181.301
51.20000 178.268
51.21000 174.794
51.22000 172.240
51.23000 182.920
51.24000 191.724
51.25000 194.351
51.26000 185.965
51.27000 177.363
51.28000 171.247
51.29000 168.067
51.30000 164.900
51.31000 166.318
51.32000 171.186
51.33000 175.909
51.34000 175.235
51.35000 171.824
51.36000 168.517
51.37000 166.841
51.38000 165.723
51.39000 164.702
51.40000 167.268
51.41000 170.275
51.42000 172.298
51.43000 169.102
51.44000 165.140
51.45000 162.652
51.46000 165.307
51.47000 168.405
51.48000 170.606
51.49000 171.553
51.50000 172.234
51.51000 170.498
51.52000 164.924
51.53000 159.301
51.54000 155.468
51.55000 153.492
51.56000 151.527
51.57000 159.092
51.58000 172.894
51.59000 186.034
51.60000 180.827
51.61000 167.317
51.62000 154.777
51.63000 154.738
51.64000 158.523
51.65000 161.924
51.66000 161.978
51.67000 161.432
51.68000 161.529
51.69000 164.636
51.70000 168.126
51.71000 170.637
51.72000 170.106
51.73000 169.358
51.74000 168.845
51.75000 169.424
51.76000 169.883
51.77000 170.355
51.78000 170.846
51.79000 171.336
51.80000 168.987
51.81000 164.054
51.82000 159.168
51.83000 158.833
51.84000 161.173
51.85000 163.569
51.86000 167.180
51.87000 171.281
51.88000 174.891
51.89000 173.197
51.90000 170.060
51.91000 167.289
51.92000 163.364
51.93000 159.797
51.94000 157.330
51.95000 159.413
51.96000 161.992
51.97000 162.901
51.98000 159.177
51.99000 155.181
52.00000 152.553
52.01000 153.294
52.02000 153.897
52.03000 156.129
52.04000 160.395
52.05000 164.658
52.06000 166.118
52.07000 165.329
52.08000 164.552
52.09000 166.145
52.10000 168.916
52.11000 171.579
52.12000 172.395
52.13000 172.544
52.14000 172.615
52.15000 171.960
52.16000 171.129
52.17000 170.409
52.18000 164.904
52.19000 159.584
52.20000 155.092
52.21000 153.646
52.22000 152.482
52.23000 152.612
52.24000 155.942
52.25000 159.421
52.26000 161.611
52.27000 162.943
52.28000 163.896
52.29000 162.816
52.30000 159.499
52.31000 156.209
52.32000 156.953
52.33000 160.563
52.34000 164.096
52.35000 164.658
52.36000 163.840
52.37000 162.940
52.38000 160.890
52.39000 158.469
52.40000 156.920
52.41000 162.238
52.42000 169.026
52.43000 174.787
52.44000 172.690
52.45000 170.037
52.46000 168.151
52.47000 168.775
52.48000 169.595
52.49000 168.845
52.50000 164.623
52.51000 160.274
52.52000 157.665
52.53000 154.429
52.54000 152.126
52.55000 154.242
52.56000 160.619
52.57000 166.934
52.58000 168.245
52.59000 166.400
52.60000 164.608
52.61000 162.941
52.62000 161.407
52.63000 159.888
52.64000 158.536
52.65000 157.231
52.66000 156.473
52.67000 159.443
52.68000 163.117
52.69000 166.166
52.70000 160.588
52.71000 155.144
52.72000 150.908
52.73000 150.199
52.74000 149.715
52.75000 152.062
52.76000 159.999
52.77000 168.086
52.78000 172.694
52.79000 168.365
52.80000 165.321
52.81000 163.722
52.82000 163.349
52.83000 162.971
52.84000 162.300
52.85000 161.465
52.86000 160.660
52.87000 162.047
52.88000 164.130
52.89000 165.879
52.90000 164.337
52.91000 161.956
52.92000 160.261
52.93000 162.654
52.94000 165.725
52.95000 168.212
52.96000 161.920
52.97000 156.081
52.98000 151.585
52.99000 150.589
53.00000 149.773
53.01000 150.854
53.02000 155.274
53.03000 159.757
53.04000 162.170
53.05000 160.630
53.06000 159.581
53.07000 159.826
53.08000 161.043
53.09000 162.237
53.10000 162.670
53.11000 162.720
53.12000 162.768
53.13000 159.660
53.14000 155.786
53.15000 152.761
53.16000 156.891
53.17000 162.639
53.18000 166.983
53.19000 163.985
53.20000 159.928
53.21000 156.726
53.22000 156.633
53.23000 156.769
53.24000 156.874
53.25000 156.908
53.26000 156.938
53.27000 158.134
53.28000 161.158
53.29000 164.204
53.30000 165.744
53.31000 164.505
53.32000 163.685
53.33000 163.860
53.34000 164.696
53.35000 165.483
53.36000 164.918
53.37000 163.751
53.38000 162.650
53.39000 163.802
53.40000 165.481
53.41000 167.180
53.42000 169.023
53.43000 170.894
53.44000 172.132
53.45000 170.444
53.46000 168.391
53.47000 166.817
53.48000 165.468
53.49000 164.415
53.50000 160.531
53.51000 150.764
53.52000 140.816
53.53000 138.246
53.54000 145.942
53.55000 153.702
53.56000 157.126
53.57000 156.657
53.58000 156.206
53.59000 156.863
53.60000 158.175
53.61000 159.482
53.62000 160.670
53.63000 161.810
53.64000 162.871
53.65000 162.048
53.66000 160.846
53.67000 159.518
53.68000 157.386
53.69000 155.113
53.70000 153.079
53.71000 152.021
53.72000 151.067
53.73000 150.358
53.74000 148.546
53.75000 147.088
53.76000 147.913
53.77000 152.968
53.78000 158.117
53.79000 159.032
53.80000 154.732
53.81000 150.427
53.82000 150.549
53.83000 154.161
53.84000 157.698
53.85000 158.118
53.86000 156.897
53.87000 155.655
53.88000 154.072
53.89000 152.367
53.90000 150.802
53.91000 152.469
53.92000 154.642
53.93000 156.654
53.94000 157.770
53.95000 158.748
53.96000 159.605
53.97000 160.022
53.98000 160.399
53.99000 160.669
54.00000 161.238
54.01000 161.684
54.02000 161.296
54.03000 159.532
54.04000 157.747
54.05000 158.467
54.06000 161.904
54.07000 165.327
54.08000 161.299
54.09000 152.145
54.10000 143.320
54.11000 144.519
54.12000 150.432
54.13000 155.943
54.14000 155.945
54.15000 154.194
54.16000 152.612
54.17000 153.526
54.18000 154.794
54.19000 155.379
54.20000 152.630
54.21000 149.435
54.22000 147.875
54.23000 151.594
54.24000 155.717
54.25000 158.576
54.26000 148.941
54.27000 141.356
54.28000 140.413
54.29000 149.222
54.30000 158.115
54.31000 161.756
54.32000 160.400
54.33000 159.055
54.34000 153.743
54.35000 146.099
54.36000 138.896
54.37000 141.963
54.38000 149.343
54.39000 156.217
54.40000 157.319
54.41000 156.786
54.42000 156.312
54.43000 156.173
54.44000 156.107
54.45000 156.514
54.46000 158.962
54.47000 161.645
54.48000 161.804
54.49000 154.682
54.50000 147.104
54.51000 142.051
54.52000 143.034
54.53000 143.877
54.54000 147.718
54.55000 155.459
54.56000 163.206
54.57000 165.522
54.58000 163.293
54.59000 161.094
54.60000 159.313
54.61000 157.805
54.62000 156.369
54.63000 156.242
54.64000 156.606
54.65000 156.611
54.66000 153.136
54.67000 148.784
54.68000 144.987
54.69000 149.755
54.70000 155.029
54.71000 158.069
54.72000 152.565
54.73000 146.221
54.74000 142.086
54.75000 143.633
54.76000 145.467
54.77000 146.640
54.78000 152.434
54.79000 156.713
54.80000 160.724
54.81000 164.427
54.82000 168.089
54.83000 164.128
54.84000 154.528
54.85000 145.109
54.86000 146.004
54.87000 151.785
54.88000 157.308
54.89000 158.977
54.90000 159.355
54.91000 159.553
54.92000 158.259
54.93000 156.632
54.94000 155.241
54.95000 160.712
54.96000 166.146
54.97000 169.220
54.98000 164.257
54.99000 158.629
55.00000 156.662
55.01000 163.110
55.02000 169.891
55.03000 174.028
55.04000 166.715
55.05000 161.393
55.06000 156.080
55.07000 150.775
55.08000 145.559
55.09000 148.840
55.10000 157.698
55.11000 166.326
55.12000 168.950
55.13000 168.923
55.14000 168.691
55.15000 165.917
55.16000 162.384
55.17000 159.357
55.18000 159.952
55.19000 161.262
55.20000 162.358
55.21000 162.718
55.22000 162.942
55.23000 163.378
55.24000 164.458
55.25000 165.583
55.26000 166.985
55.27000 168.955
55.28000 170.943
55.29000 172.096
55.30000 167.507
55.31000 164.264
55.32000 162.752
55.33000 162.773
55.34000 162.821
55.35000 164.448
55.36000 166.998
55.37000 169.461
55.38000 169.545
55.39000 168.741
55.40000 168.253
55.41000 171.067
55.42000 174.757
55.43000 178.016
55.44000 178.589
55.45000 178.696
55.46000 178.784
55.47000 184.438
55.48000 189.547
55.49000 194.038
55.50000 196.856
55.51000 199.580
55.52000 202.232
55.53000 204.754
55.54000 207.272
55.55000 208.655
55.56000 217.701
55.57000 223.926
55.58000 227.020
55.59000 227.667
55.60000 228.579
55.61000 240.134
55.62000 257.230
55.63000 273.587
55.64000 280.745
55.65000 284.394
55.66000 288.372
55.67000 295.274
55.68000 302.864
55.69000 311.276
55.70000 324.178
55.71000 337.759
55.72000 348.572
55.73000 364.694
55.74000 378.076
55.75000 394.543
55.76000 418.466
55.77000 442.720
55.78000 466.332
55.79000 488.895
55.80000 511.444
55.81000 523.101
55.82000 551.186
55.83000 570.042
55.84000 578.901
55.85000 580.841
55.86000 583.341
55.87000 602.335
55.88000 628.993
55.89000 654.223
55.90000 662.301
55.91000 664.776
55.92000 666.403
55.93000 661.555
55.94000 655.359
55.95000 650.022
55.96000 648.824
55.97000 648.171
55.98000 647.665
55.99000 646.108
56.00000 644.809
56.01000 639.076
56.02000 623.773
56.03000 608.144
56.04000 593.277
56.05000 579.516
56.06000 565.766
56.07000 551.283
56.08000 536.118
56.09000 520.924
56.10000 503.558
56.11000 484.857
56.12000 466.191
56.13000 448.332
56.14000 430.806
56.15000 414.420
56.16000 392.199
56.17000 370.543
56.18000 350.189
56.19000 338.473
56.20000 328.341
56.21000 319.403
56.22000 315.543
56.23000 312.257
56.24000 309.788
56.25000 279.991
56.26000 255.384
56.27000 236.039
56.28000 226.830
56.29000 217.875
56.30000 212.044
56.31000 210.228
56.32000 208.428
56.33000 206.038
56.34000 203.170
56.35000 200.287
56.36000 196.747
56.37000 192.847
56.38000 188.960
56.39000 185.322
56.40000 181.777
56.41000 178.507
56.42000 179.397
56.43000 181.120
56.44000 182.506
56.45000 181.937
56.46000 181.053
56.47000 179.311
56.48000 174.326
56.49000 169.027
56.50000 165.173
56.51000 169.936
56.52000 173.928
56.53000 175.150
56.54000 171.612
56.55000 167.993
56.56000 164.810
56.57000 162.121
56.58000 159.442
56.59000 156.838
56.60000 154.310
56.61000 151.938
56.62000 154.811
56.63000 160.246
56.64000 165.264
56.65000 164.157
56.66000 161.027
56.67000 158.182
56.68000 158.014
56.69000 158.386
56.70000 158.662
56.71000 158.450
56.72000 158.169
56.73000 158.194
56.74000 159.246
56.75000 160.382
56.76000 161.179
56.77000 156.419
56.78000 152.652
56.79000 151.341
56.80000 153.781
56.81000 156.261
56.82000 154.083
56.83000 147.273
56.84000 140.509
56.85000 140.069
56.86000 143.672
56.87000 147.282
56.88000 151.089
56.89000 154.980
56.90000 158.192
56.91000 153.152
56.92000 145.681
56.93000 139.002
56.94000 142.864
56.95000 148.016
56.96000 151.805
56.97000 149.468
56.98000 146.390
56.99000 143.898
57.00000 143.161
57.01000 142.542
57.02000 142.124
57.03000 145.460
57.04000 148.026
57.05000 149.772
57.06000 150.405
57.07000 151.033
57.08000 151.532
57.09000 151.920
57.10000 152.303
57.11000 147.208
57.12000 139.147
57.13000 131.545
57.14000 133.062
57.15000 138.132
57.16000 142.773
57.17000 143.007
57.18000 142.087
57.19000 141.279
57.20000 144.347
57.21000 147.552
57.22000 150.531
57.23000 152.610
57.24000 154.595
57.25000 154.562
57.26000 149.133
57.27000 143.410
57.28000 139.698
57.29000 139.257
57.30000 138.984
57.31000 138.751
57.32000 138.568
57.33000 138.391
57.34000 139.791
57.35000 142.406
57.36000 144.978
57.37000 144.869
57.38000 143.431
57.39000 142.183
57.40000 143.991
57.41000 146.862
57.42000 149.072
57.43000 145.514
57.44000 140.615
57.45000 136.397
57.46000 139.538
57.47000 143.128
57.48000 145.964
57.49000 146.135
57.50000 146.071
57.51000 145.208
57.52000 142.439
57.53000 139.588
57.54000 137.820
57.55000 140.033
57.56000 141.663
57.57000 142.282
57.58000 141.833
57.59000 141.390
57.60000 141.747
57.61000 142.648
57.62000 143.529
57.63000 145.624
57.64000 148.163
57.65000 150.370
57.66000 148.197
57.67000 144.665
57.68000 142.008
57.69000 145.926
57.70000 151.196
57.71000 155.639
57.72000 156.650
57.73000 157.125
57.74000 157.134
57.75000 155.677
57.76000 154.112
57.77000 151.188
57.78000 145.365
57.79000 139.446
57.80000 135.951
57.81000 146.452
57.82000 153.942
57.83000 153.970
57.84000 147.099
57.85000 140.325
57.86000 140.228
57.87000 144.185
57.88000 148.019
57.89000 145.708
57.90000 141.138
57.91000 137.209
57.92000 140.351
57.93000 145.448
57.94000 149.820
57.95000 149.464
57.96000 148.253
57.97000 147.255
57.98000 142.810
57.99000 138.839
58.00000 135.154
58.01000 132.277
58.02000 129.449
58.03000 129.371
58.04000 134.529
58.05000 139.813
58.06000 142.770
58.07000 146.749
58.08000 149.501
58.09000 149.229
58.10000 146.494
58.11000 143.731
58.12000 139.691
58.13000 134.960
58.14000 130.417
58.15000 131.246
58.16000 133.858
58.17000 136.372
58.18000 137.960
58.19000 139.321
58.20000 140.474
58.21000 140.443
58.22000 140.225
58.23000 140.049
58.24000 139.413
58.25000 138.861
58.26000 137.252
58.27000 132.984
58.28000 128.589
58.29000 127.369
58.30000 131.535
58.31000 135.790
58.32000 138.036
58.33000 133.354
58.34000 130.197
58.35000 130.925
58.36000 134.455
58.37000 137.964
58.38000 140.778
58.39000 143.257
58.40000 145.612
58.41000 143.232
58.42000 139.605
58.43000 136.422
58.44000 136.794
58.45000 137.940
58.46000 138.300
58.47000 134.715
58.48000 130.587
58.49000 127.358
58.50000 130.516
58.51000 133.442
58.52000 134.717
58.53000 132.291
58.54000 129.726
58.55000 129.289
58.56000 132.064
58.57000 134.872
58.58000 135.614
58.59000 134.332
58.60000 133.065
58.61000 133.137
58.62000 134.065
58.63000 135.043
58.64000 137.247
58.65000 139.979
58.66000 142.544
58.67000 144.053
58.68000 145.149
58.69000 145.346
58.70000 139.300
58.71000 132.057
58.72000 127.168
58.73000 132.723
58.74000 139.523
58.75000 144.685
58.76000 139.816
58.77000 135.470
58.78000 133.665
58.79000 136.948
58.80000 140.373
58.81000 142.196
58.82000 141.877
58.83000 141.546
58.84000 142.057
58.85000 143.289
58.86000 144.438
58.87000 141.078
58.88000 135.151
58.89000 129.597
58.90000 131.259
58.91000 135.700
58.92000 139.816
58.93000 138.595
58.94000 136.255
58.95000 134.304
58.96000 134.718
58.97000 135.529
58.98000 137.128
58.99000 141.821
59.00000 146.830
59.01000 150.514
59.02000 142.384
59.03000 135.607
59.04000 130.878
59.05000 129.807
59.06000 128.809
59.07000 129.062
59.08000 130.794
59.09000 132.525
59.10000 130.588
59.11000 125.891
59.12000 121.283
59.13000 120.015
59.14000 120.444
59.15000 121.051
59.16000 124.456
59.17000 128.823
59.18000 132.811
59.19000 134.674
59.20000 135.895
59.21000 136.970
59.22000 137.264
59.23000 137.443
59.24000 137.832
59.25000 138.954
59.26000 140.140
59.27000 140.982
59.28000 140.531
59.29000 140.146
59.30000 139.663
59.31000 139.023
59.32000 138.382
59.33000 136.331
59.34000 132.816
59.35000 129.319
59.36000 134.454
59.37000 145.270
59.38000 155.718
59.39000 155.952
59.40000 151.554
59.41000 147.361
59.42000 145.818
59.43000 145.087
59.44000 144.429
59.45000 143.826
59.46000 143.307
59.47000 142.292
59.48000 138.954
59.49000 135.321
59.50000 132.279
59.51000 131.084
59.52000 130.020
59.53000 129.292
59.54000 126.044
59.55000 123.550
59.56000 123.299
59.57000 126.215
59.58000 129.153
59.59000 131.880
59.60000 134.412
59.61000 136.921
59.62000 137.230
59.63000 136.240
59.64000 135.230
59.65000 133.787
59.66000 132.170
59.67000 130.852
59.68000 132.770
59.69000 135.570
59.70000 138.045
59.71000 140.924
59.72000 143.473
59.73000 144.421
59.74000 138.732
59.75000 132.316
59.76000 128.002
59.77000 129.525
59.78000 131.392
59.79000 132.619
59.80000 136.200
59.81000 138.878
59.82000 139.223
59.83000 136.652
59.84000 134.079
59.85000 134.003
59.86000 135.934
59.87000 137.836
59.88000 137.908
59.89000 137.027
59.90000 136.267
59.91000 137.569
59.92000 139.617
59.93000 141.656
59.94000 143.618
59.95000 145.562
59.96000 147.247
59.97000 146.709
59.98000 145.955
59.99000 144.864
60.00000 142.531
60.01000 140.083
60.02000 136.731
60.03000 131.137
60.04000 125.438
60.05000 121.849
60.06000 127.494
60.07000 131.685
60.08000 132.192
60.09000 128.639
60.10000 125.104
60.11000 124.463
60.12000 125.880
60.13000 127.267
60.14000 131.061
60.15000 135.809
60.16000 140.177
60.17000 139.204
60.18000 136.510
60.19000 133.974
60.20000 132.696
60.21000 131.688
60.22000 130.832
60.23000 127.056
60.24000 123.555
60.25000 121.258
60.26000 122.908
60.27000 124.866
60.28000 127.760
60.29000 132.731
60.30000 137.778
60.31000 140.809
60.32000 143.285
60.33000 145.042
60.34000 143.180
60.35000 137.822
60.36000 132.484
60.37000 128.697
60.38000 125.890
60.39000 123.163
60.40000 125.949
60.41000 130.827
60.42000 135.152
60.43000 133.019
60.44000 129.031
60.45000 125.687
60.46000 126.751
60.47000 128.649
60.48000 130.225
60.49000 134.916
60.50000 139.095
60.51000 141.876
60.52000 140.568
60.53000 138.997
60.54000 137.053
60.55000 134.374
60.56000 131.674
60.57000 130.135
60.58000 129.757
60.59000 129.497
60.60000 129.390
60.61000 129.411
60.62000 129.428
60.63000 129.255
60.64000 128.974
60.65000 128.703
60.66000 130.553
60.67000 133.047
60.68000 135.424
60.69000 136.647
60.70000 137.575
60.71000 138.077
60.72000 136.034
60.73000 133.570
60.74000 131.572
60.75000 135.534
60.76000 139.247
60.77000 140.947
60.78000 137.392
60.79000 133.564
60.80000 131.889
60.81000 134.010
60.82000 136.203
60.83000 137.384
60.84000 134.822
60.85000 133.078
60.86000 133.680
60.87000 136.044
60.88000 138.276
60.89000 135.771
60.90000 130.889
60.91000 126.233
60.92000 128.311
60.93000 132.358
60.94000 135.926
60.95000 135.452
60.96000 134.062
60.97000 133.287
60.98000 135.736
60.99000 138.651
61.00000 140.952
61.01000 136.599
61.02000 132.655
61.03000 130.680
61.04000 133.292
61.05000 136.091
61.06000 137.372
61.07000 136.266
61.08000 135.132
61.09000 134.557
61.10000 134.019
61.11000 133.683
61.12000 135.883
61.13000 139.772
61.14000 143.494
61.15000 142.744
61.16000 139.991
61.17000 137.395
61.18000 137.284
61.19000 137.870
61.20000 138.358
61.21000 138.134
61.22000 137.768
61.23000 138.630
61.24000 145.175
61.25000 152.432
61.26000 157.999
61.27000 146.791
61.28000 137.005
61.29000 132.848
61.30000 140.405
61.31000 148.326
61.32000 151.274
61.33000 147.289
61.34000 143.260
61.35000 139.456
61.36000 135.858
61.37000 132.285
61.38000 130.241
61.39000 129.102
61.40000 128.007
61.41000 127.837
61.42000 128.037
61.43000 128.224
61.44000 133.069
61.45000 138.584
61.46000 143.109
61.47000 141.359
61.48000 138.504
61.49000 137.911
61.50000 146.581
61.51000 156.246
61.52000 163.435
61.53000 181.789
61.54000 196.562
61.55000 211.299
61.56000 225.966
61.57000 240.632
61.58000 251.073
61.59000 256.302
61.60000 261.508
61.61000 266.413
61.62000 271.059
61.63000 275.712
61.64000 280.689
61.65000 285.837
61.66000 290.680
61.67000 290.407
61.68000 288.307
61.69000 286.379
61.70000 297.383
61.71000 309.957
61.72000 320.595
61.73000 320.484
61.74000 318.719
61.75000 314.414
61.76000 300.869
61.77000 286.480
61.78000 276.129
61.79000 251.147
61.80000 231.510
61.81000 214.046
61.82000 200.174
61.83000 186.356
61.84000 177.167
61.85000 173.010
61.86000 168.873
61.87000 164.787
61.88000 160.778
61.89000 156.847
61.90000 155.308
61.91000 154.895
61.92000 154.249
61.93000 150.381
61.94000 145.487
61.95000 141.063
61.96000 142.648
61.97000 145.162
61.98000 147.154
61.99000 146.602
62.00000 145.710
62.01000 144.116
62.02000 140.252
62.03000 136.215
62.04000 133.413
62.05000 135.299
62.06000 136.844
62.07000 139.285
62.08000 143.045
62.09000 146.816
62.10000 147.533
62.11000 145.341
62.12000 143.167
62.13000 142.731
62.14000 143.367
62.15000 143.902
62.16000 142.048
62.17000 139.189
62.18000 136.664
62.19000 137.956
62.20000 140.331
62.21000 142.443
62.22000 138.864
62.23000 134.839
62.24000 132.718
62.25000 138.828
62.26000 145.888
62.27000 148.951
62.28000 140.472
62.29000 131.267
62.30000 125.125
62.31000 131.886
62.32000 137.143
62.33000 138.657
62.34000 135.293
62.35000 131.916
62.36000 132.936
62.37000 137.643
62.38000 142.289
62.39000 145.150
62.40000 146.971
62.41000 148.642
62.42000 147.553
62.43000 145.426
62.44000 143.538
62.45000 143.976
62.46000 145.000
62.47000 145.893
62.48000 147.569
62.49000 149.111
62.50000 150.523
62.51000 151.433
62.52000 152.294
62.53000 152.352
62.54000 150.338
62.55000 148.219
62.56000 146.864
62.57000 140.965
62.58000 136.611
62.59000 138.563
62.60000 147.771
62.61000 156.947
62.62000 158.619
62.63000 154.728
62.64000 150.911
62.65000 151.527
62.66000 154.240
62.67000 156.761
62.68000 156.425
62.69000 155.130
62.70000 153.665
62.71000 150.785
62.72000 147.589
62.73000 144.855
62.74000 146.297
62.75000 148.014
62.76000 148.836
62.77000 146.606
62.78000 144.123
62.79000 143.334
62.80000 146.442
62.81000 149.705
62.82000 151.698
62.83000 146.347
62.84000 142.460
62.85000 141.087
62.86000 142.256
62.87000 143.433
62.88000 145.316
62.89000 147.665
62.90000 149.953
62.91000 149.028
62.92000 146.791
62.93000 144.872
62.94000 146.922
62.95000 150.157
62.96000 152.657
62.97000 149.879
62.98000 146.060
62.99000 142.864
63.00000 144.962
63.01000 147.248
63.02000 148.986
63.03000 149.059
63.04000 149.019
63.05000 147.967
63.06000 144.839
63.07000 141.649
63.08000 139.796
63.09000 142.452
63.10000 144.336
63.11000 147.636
63.12000 152.192
63.13000 156.650
63.14000 155.338
63.15000 150.650
63.16000 146.120
63.17000 144.914
63.18000 145.015
63.19000 145.052
63.20000 144.421
63.21000 143.612
63.22000 143.422
63.23000 147.097
63.24000 151.443
63.25000 154.995
63.26000 150.626
63.27000 146.365
63.28000 143.901
63.29000 146.314
63.30000 148.999
63.31000 148.843
63.32000 143.474
63.33000 137.992
63.34000 134.980
63.35000 143.652
63.36000 149.619
63.37000 149.672
63.38000 145.095
63.39000 140.557
63.40000 137.553
63.41000 135.348
63.42000 133.238
63.43000 137.398
63.44000 143.332
63.45000 148.316
63.46000 144.841
63.47000 139.370
63.48000 135.590
63.49000 141.072
63.50000 147.959
63.51000 153.444
63.52000 157.929
63.53000 161.473
63.54000 163.196
63.55000 160.509
63.56000 157.626
63.57000 153.893
63.58000 148.772
63.59000 143.631
63.60000 140.972
63.61000 139.046
63.62000 137.790
63.63000 141.850
63.64000 149.596
63.65000 157.117
63.66000 157.939
63.67000 155.643
63.68000 153.470
63.69000 154.332
63.70000 156.002
63.71000 157.340
63.72000 156.130
63.73000 154.388
63.74000 152.291
63.75000 148.482
63.76000 144.446
63.77000 141.320
63.78000 145.944
63.79000 150.077
63.80000 153.139
63.81000 153.884
63.82000 154.551
63.83000 155.138
63.84000 155.610
63.85000 156.081
63.86000 157.151
63.87000 158.782
63.88000 160.388
63.89000 160.262
63.90000 159.067
63.91000 157.968
63.92000 159.042
63.93000 161.020
63.94000 162.870
63.95000 168.690
63.96000 174.986
63.97000 179.726
63.98000 174.137
63.99000 166.648
64.00000 159.923
64.01000 156.454
64.02000 153.354
64.03000 151.024
64.04000 149.465
64.05000 148.284
64.06000 148.465
64.07000 151.277
64.08000 154.155
64.09000 156.390
64.10000 157.797
64.11000 159.199
64.12000 159.697
64.13000 159.447
64.14000 159.159
64.15000 157.063
64.16000 153.975
64.17000 151.098
64.18000 152.022
64.19000 154.358
64.20000 156.512
64.21000 157.602
64.22000 158.342
64.23000 158.814
64.24000 157.740
64.25000 156.416
64.26000 155.770
64.27000 157.686
64.28000 159.850
64.29000 161.425
64.30000 159.907
64.31000 158.621
64.32000 157.830
64.33000 157.892
64.34000 157.969
64.35000 161.081
64.36000 167.637
64.37000 174.174
64.38000 172.935
64.39000 166.064
64.40000 159.389
64.41000 159.329
64.42000 162.507
64.43000 165.363
64.44000 163.495
64.45000 160.063
64.46000 156.943
64.47000 160.230
64.48000 164.385
64.49000 167.789
64.50000 167.362
64.51000 166.398
64.52000 166.617
64.53000 170.827
64.54000 175.360
64.55000 178.546
64.56000 175.184
64.57000 172.445
64.58000 169.546
64.59000 166.398
64.60000 163.247
64.61000 165.318
64.62000 172.591
64.63000 179.815
64.64000 181.876
64.65000 180.605
64.66000 179.482
64.67000 182.130
64.68000 186.424
64.69000 190.301
64.70000 189.076
64.71000 186.347
64.72000 183.906
64.73000 179.632
64.74000 175.596
64.75000 173.006
64.76000 176.931
64.77000 181.646
64.78000 184.794
64.79000 183.239
64.80000 181.366
64.81000 180.099
64.82000 182.185
64.83000 183.812
64.84000 183.548
64.85000 180.716
64.86000 177.873
64.87000 178.433
64.88000 181.969
64.89000 185.465
64.90000 186.642
64.91000 186.482
64.92000 186.336
64.93000 186.473
64.94000 186.719
64.95000 187.187
64.96000 189.923
64.97000 193.253
64.98000 196.178
64.99000 194.516
65.00000 192.412
65.01000 191.330
65.02000 194.325
65.03000 197.743
65.04000 202.268
65.05000 209.758
65.06000 217.409
65.07000 222.375
65.08000 212.868
65.09000 205.686
65.10000 204.507
65.11000 210.537
65.12000 216.561
65.13000 217.699
65.14000 215.064
65.15000 212.472
65.16000 216.509
65.17000 223.717
65.18000 230.819
65.19000 236.232
65.20000 241.056
65.21000 245.734
65.22000 249.126
65.23000 252.218
65.24000 254.881
65.25000 258.534
65.26000 261.755
65.27000 264.538
65.28000 265.771
65.29000 266.867
65.30000 271.690
65.31000 285.431
65.32000 299.559
65.33000 308.325
65.34000 312.338
65.35000 315.179
65.36000 319.320
65.37000 324.837
65.38000 330.379
65.39000 338.834
65.40000 349.282
65.41000 359.487
65.42000 365.707
65.43000 369.907
65.44000 374.467
65.45000 383.792
65.46000 394.597
65.47000 404.881
65.48000 411.233
65.49000 416.776
65.50000 421.450
65.51000 426.286
65.52000 430.342
65.53000 431.883
65.54000 425.474
65.55000 418.482
65.56000 416.182
65.57000 423.906
65.58000 431.962
65.59000 436.723
65.60000 452.074
65.61000 462.976
65.62000 469.495
65.63000 471.953
65.64000 474.598
65.65000 489.985
65.66000 513.124
65.67000 535.545
65.68000 565.709
65.69000 597.270
65.70000 630.312
65.71000 679.723
65.72000 733.664
65.73000 788.105
65.74000 845.821
65.75000 904.131
65.76000 952.175
65.77000 1001.700
65.78000 1042.586
65.79000 1081.002
65.80000 1112.459
65.81000 1143.497
65.82000 1168.949
65.83000 1183.753
65.84000 1198.299
65.85000 1206.448
65.86000 1200.436
65.87000 1196.248
65.88000 1196.814
65.89000 1201.259
65.90000 1205.237
65.91000 1187.902
65.92000 1159.015
65.93000 1131.279
65.94000 1064.692
65.95000 989.085
65.96000 914.119
65.97000 845.172
65.98000 777.704
65.99000 711.182
66.00000 650.078
66.01000 589.835
66.02000 541.422
66.03000 491.615
66.04000 451.134
66.05000 417.687
66.06000 401.936
66.07000 387.040
66.08000 371.689
66.09000 355.569
66.10000 339.435
66.11000 330.910
66.12000 315.471
66.13000 305.035
66.14000 303.138
66.15000 307.404
66.16000 311.678
66.17000 316.212
66.18000 320.872
66.19000 325.299
66.20000 323.496
66.21000 319.947
66.22000 317.051
66.23000 319.406
66.24000 322.905
66.25000 327.297
66.26000 336.190
66.27000 345.704
66.28000 353.147
66.29000 372.840
66.30000 389.343
66.31000 404.079
66.32000 414.845
66.33000 425.463
66.34000 432.271
66.35000 433.322
66.36000 434.314
66.37000 439.951
66.38000 450.149
66.39000 460.274
66.40000 464.230
66.41000 464.230
66.42000 464.130
66.43000 461.519
66.44000 457.826
66.45000 454.357
66.46000 458.343
66.47000 463.961
66.48000 467.422
66.49000 455.870
66.50000 441.433
66.51000 427.633
66.52000 416.661
66.53000 406.027
66.54000 397.949
66.55000 380.578
66.56000 366.440
66.57000 353.996
66.58000 344.949
66.59000 335.997
66.60000 330.974
66.61000 331.218
66.62000 331.489
66.63000 330.858
66.64000 329.451
66.65000 328.025
66.66000 325.577
66.67000 322.544
66.68000 319.559
66.69000 317.499
66.70000 315.795
66.71000 314.216
66.72000 319.336
66.73000 325.509
66.74000 330.174
66.75000 325.691
66.76000 319.666
66.77000 315.568
66.78000 319.064
66.79000 323.336
66.80000 326.480
66.81000 332.124
66.82000 336.595
66.83000 343.211
66.84000 353.663
66.85000 364.191
66.86000 366.422
66.87000 358.820
66.88000 351.221
66.89000 347.920
66.90000 347.895
66.91000 347.719
66.92000 341.879
66.93000 333.158
66.94000 325.411
66.95000 332.981
66.96000 345.822
66.97000 357.554
66.98000 358.352
66.99000 356.827
67.00000 356.369
67.01000 361.593
67.02000 367.653
67.03000 371.858
67.04000 369.564
67.05000 366.708
67.06000 364.677
67.07000 365.192
67.08000 365.665
67.09000 368.532
67.10000 375.212
67.11000 381.941
67.12000 383.650
67.13000 380.128
67.14000 376.624
67.15000 374.626
67.16000 373.657
67.17000 372.853
67.18000 376.620
67.19000 382.463
67.20000 387.945
67.21000 388.749
67.22000 388.117
67.23000 387.548
67.24000 390.514
67.25000 393.741
67.26000 396.232
67.27000 395.262
67.28000 393.852
67.29000 393.170
67.30000 394.763
67.31000 396.519
67.32000 397.723
67.33000 398.291
67.34000 398.702
67.35000 400.805
67.36000 405.305
67.37000 409.821
67.38000 413.926
67.39000 417.655
67.40000 421.348
67.41000 417.004
67.42000 408.018
67.43000 399.676
67.44000 405.230
67.45000 416.419
67.46000 427.450
67.47000 436.759
67.48000 445.598
67.49000 453.409
67.50000 442.904
67.51000 431.002
67.52000 423.455
67.53000 434.008
67.54000 446.546
67.55000 455.028
67.56000 452.218
67.57000 448.744
67.58000 446.456
67.59000 450.334
67.60000 453.296
67.61000 456.803
67.62000 460.992
67.63000 465.182
67.64000 469.094
67.65000 472.782
67.66000 476.415
67.67000 479.377
67.68000 481.902
67.69000 484.499
67.70000 488.322
67.71000 492.589
67.72000 496.250
67.73000 494.330
67.74000 491.055
67.75000 488.216
67.76000 486.469
67.77000 485.127
67.78000 485.941
67.79000 494.714
67.80000 504.228
67.81000 510.960
67.82000 510.781
67.83000 510.276
67.84000 509.958
67.85000 515.038
67.86000 518.777
67.87000 522.079
67.88000 524.899
67.89000 527.692
67.90000 526.742
67.91000 523.124
67.92000 519.581
67.93000 521.889
67.94000 526.792
67.95000 531.691
67.96000 536.538
67.97000 541.367
67.98000 547.074
67.99000 559.734
68.00000 573.888
68.01000 585.909
68.02000 584.103
68.03000 581.008
68.04000 577.332
68.05000 571.750
68.06000 566.019
68.07000 563.785
68.08000 569.312
68.09000 575.122
68.10000 578.615
68.11000 590.604
68.12000 599.186
68.13000 599.430
68.14000 591.601
68.15000 583.883
68.16000 585.095
68.17000 591.959
68.18000 598.629
68.19000 607.739
68.20000 617.384
68.21000 627.106
68.22000 637.734
68.23000 648.623
68.24000 658.307
68.25000 659.730
68.26000 659.589
68.27000 659.471
68.28000 668.930
68.29000 677.683
68.30000 683.839
68.31000 682.393
68.32000 680.456
68.33000 680.991
68.34000 686.421
68.35000 691.984
68.36000 695.159
68.37000 700.878
68.38000 704.889
68.39000 717.253
68.40000 736.729
68.41000 755.981
68.42000 763.616
68.43000 764.707
68.44000 765.757
68.45000 764.616
68.46000 762.761
68.47000 762.334
68.48000 776.061
68.49000 793.410
68.50000 809.837
68.51000 820.749
68.52000 830.744
68.53000 838.846
68.54000 864.277
68.55000 886.414
68.56000 911.416
68.57000 943.911
68.58000 976.797
68.59000 1016.293
68.60000 1067.469
68.61000 1118.867
68.62000 1146.586
68.63000 1205.926
68.64000 1246.606
68.65000 1299.766
68.66000 1362.314
68.67000 1424.771
68.68000 1483.909
68.69000 1541.379
68.70000 1596.188
68.71000 1661.660
68.72000 1725.771
68.73000 1787.838
68.74000 1832.615
68.75000 1873.468
68.76000 1919.423
68.77000 1992.180
68.78000 2068.823
68.79000 2129.337
68.80000 2211.444
68.81000 2278.802
68.82000 2356.768
68.83000 2459.493
68.84000 2563.235
68.85000 2682.357
68.86000 2825.672
68.87000 2969.282
68.88000 3042.059
68.89000 3677.510
68.90000 4107.762
68.91000 5017.744
68.92000 6247.741
68.93000 7524.485
68.94000 10068.726
68.95000 13181.569
68.96000 16116.968
68.97000 21199.010
68.98000 26450.877
68.99000 31755.225
69.00000 37442.941
69.01000 43207.512
69.02000 48727.219
69.03000 53112.453
69.04000 57355.207
69.05000 60611.000
69.06000 63082.492
69.07000 64991.895
69.08000 66396.039
69.09000 66747.000
69.10000 67065.148
69.11000 67385.703
69.12000 67709.617
69.13000 68033.438
69.14000 68619.578
69.15000 69441.281
69.16000 70256.781
69.17000 70686.609
69.18000 70887.633
69.19000 71007.117
69.20000 69410.516
69.21000 67126.391
69.22000 64999.426
69.23000 60888.945
69.24000 56688.340
69.25000 52612.176
69.26000 49326.801
69.27000 46180.867
69.28000 43232.414
69.29000 41094.094
69.30000 39043.109
69.31000 37516.980
69.32000 36191.445
69.33000 35169.176
69.34000 34227.480
69.35000 33435.641
69.36000 32647.168
69.37000 31501.645
69.38000 29914.793
69.39000 28329.576
69.40000 26073.207
69.41000 23296.492
69.42000 20518.428
69.43000 17683.420
69.44000 14818.304
69.45000 11997.155
69.46000 9916.563
69.47000 8100.873
69.48000 6433.566
69.49000 5255.120
69.50000 4308.213
69.51000 3434.510
69.52000 2968.104
69.53000 2564.526
69.54000 2217.372
69.55000 2075.806
69.56000 1953.059
69.57000 1864.717
69.58000 1737.034
69.59000 1637.886
69.60000 1555.301
69.61000 1500.163
69.62000 1445.438
69.63000 1384.728
69.64000 1317.501
69.65000 1250.562
69.66000 1216.256
69.67000 1205.024
69.68000 1193.071
69.69000 1158.965
69.70000 1114.407
69.71000 1071.638
69.72000 1053.551
69.73000 1043.341
69.74000 1034.109
69.75000 1010.658
69.76000 987.369
69.77000 964.722
69.78000 945.217
69.79000 926.133
69.80000 908.536
69.81000 895.765
69.82000 883.364
69.83000 874.756
69.84000 858.800
69.85000 846.583
69.86000 835.066
69.87000 824.577
69.88000 814.097
69.89000 797.719
69.90000 775.711
69.91000 753.878
69.92000 750.286
69.93000 757.957
69.94000 764.877
69.95000 754.196
69.96000 736.097
69.97000 719.535
69.98000 720.642
69.99000 726.770
70.00000 732.219
