20.00000 575.284
20.01000 578.473
20.02000 582.118
20.03000 585.031
20.04000 585.086
20.05000 584.854
20.06000 584.683
20.07000 583.489
20.08000 582.525
20.09000 580.394
20.10000 576.195
20.11000 571.957
20.12000 570.732
20.13000 573.037
20.14000 575.341
20.15000 575.125
20.16000 573.024
20.17000 570.922
20.18000 568.821
20.19000 566.721
20.20000 564.844
20.21000 566.405
20.22000 569.138
20.23000 571.632
20.24000 572.551
20.25000 573.049
20.26000 572.411
20.27000 565.798
20.28000 558.316
20.29000 553.945
20.30000 560.359
20.31000 567.690
20.32000 572.887
20.33000 578.422
20.34000 582.642
20.35000 584.190
20.36000 581.526
20.37000 578.810
20.38000 576.744
20.39000 575.348
20.40000 573.959
20.41000 572.460
20.42000 570.908
20.43000 569.343
20.44000 567.434
20.45000 565.370
20.46000 563.351
20.47000 561.909
20.48000 560.644
20.49000 559.507
20.50000 562.263
20.51000 565.357
20.52000 567.572
20.53000 565.699
20.54000 563.311
20.55000 560.663
20.56000 557.208
20.57000 553.696
20.58000 551.298
20.59000 554.120
20.60000 556.354
20.61000 558.357
20.62000 560.036
20.63000 561.713
20.64000 563.784
20.65000 566.210
20.66000 568.612
20.67000 569.111
20.68000 568.492
20.69000 567.653
20.70000 562.155
20.71000 554.786
20.72000 548.019
20.73000 547.679
20.74000 549.076
20.75000 550.309
20.76000 550.582
20.77000 550.671
20.78000 553.165
20.79000 565.548
20.80000 579.000
20.81000 586.794
20.82000 579.001
20.83000 570.308
20.84000 564.605
20.85000 556.045
20.86000 549.702
20.87000 544.797
20.88000 541.673
20.89000 538.572
20.90000 541.079
20.91000 548.052
20.92000 554.920
20.93000 552.775
20.94000 546.063
20.95000 539.847
20.96000 542.010
20.97000 547.176
20.98000 551.597
20.99000 549.243
21.00000 545.263
21.01000 541.817
21.02000 547.946
21.03000 554.417
21.04000 558.156
21.05000 551.916
21.06000 544.760
21.07000 542.173
21.08000 550.826
21.09000 559.997
21.10000 565.753
21.11000 558.139
21.12000 552.489
21.13000 547.405
21.14000 542.940
21.15000 538.496
21.16000 536.946
21.17000 537.435
21.18000 537.915
21.19000 543.359
21.20000 550.838
21.21000 557.527
21.22000 553.287
21.23000 545.552
21.24000 538.651
21.25000 538.273
21.26000 539.280
21.27000 540.135
21.28000 536.668
21.29000 533.276
21.30000 532.660
21.31000 541.068
21.32000 550.171
21.33000 554.068
21.34000 546.527
21.35000 538.579
21.36000 533.823
21.37000 539.861
21.38000 544.215
21.39000 544.992
21.40000 542.345
21.41000 539.729
21.42000 539.598
21.43000 541.023
21.44000 542.407
21.45000 539.217
21.46000 534.355
21.47000 530.454
21.48000 537.644
21.49000 547.995
21.50000 556.177
21.51000 549.673
21.52000 540.417
21.53000 532.746
21.54000 539.729
21.55000 546.898
21.56000 549.760
21.57000 540.138
21.58000 529.725
21.59000 526.793
21.60000 538.538
21.61000 550.670
21.62000 557.561
21.63000 578.306
21.64000 592.763
21.65000 588.324
21.66000 567.977
21.67000 547.868
21.68000 539.670
21.69000 538.114
21.70000 536.616
21.71000 542.329
21.72000 550.240
21.73000 557.378
21.74000 556.976
21.75000 554.665
21.76000 553.365
21.77000 558.049
21.78000 563.716
21.79000 568.299
21.80000 574.764
21.81000 580.176
21.82000 586.925
21.83000 597.133
21.84000 607.519
21.85000 607.759
21.86000 590.256
21.87000 572.427
21.88000 562.862
21.89000 581.178
21.90000 593.701
21.91000 605.039
21.92000 615.496
21.93000 625.737
21.94000 628.328
21.95000 627.113
21.96000 625.955
21.97000 628.501
21.98000 632.015
21.99000 635.675
22.00000 640.542
22.01000 645.679
22.02000 650.158
22.03000 651.214
22.04000 651.780
22.05000 652.226
22.06000 658.976
22.07000 664.807
22.08000 669.500
22.09000 671.563
22.10000 673.521
22.11000 667.248
22.12000 648.163
22.13000 628.929
22.14000 619.238
22.15000 633.911
22.16000 643.594
22.17000 641.096
22.18000 630.557
22.19000 620.173
22.20000 613.877
22.21000 609.397
22.22000 605.176
22.23000 602.640
22.24000 600.782
22.25000 598.816
22.26000 596.071
22.27000 593.171
22.28000 590.505
22.29000 588.909
22.30000 587.445
22.31000 586.325
22.32000 576.328
22.33000 567.953
22.34000 561.761
22.35000 560.073
22.36000 558.521
22.37000 557.167
22.38000 556.086
22.39000 555.007
22.40000 552.763
22.41000 549.486
22.42000 546.279
22.43000 547.275
22.44000 550.738
22.45000 553.870
22.46000 550.177
22.47000 543.778
22.48000 537.826
22.49000 540.512
22.50000 545.020
22.51000 547.959
22.52000 541.044
22.53000 532.411
22.54000 525.652
22.55000 526.501
22.56000 528.158
22.57000 529.388
22.58000 535.468
22.59000 540.405
22.60000 541.722
22.61000 536.378
22.62000 530.888
22.63000 528.880
22.64000 531.131
22.65000 533.388
22.66000 532.616
22.67000 529.481
22.68000 526.413
22.69000 526.110
22.70000 527.254
22.71000 528.043
22.72000 522.953
22.73000 515.781
22.74000 509.203
22.75000 510.355
22.76000 513.013
22.77000 515.729
22.78000 518.760
22.79000 521.839
22.80000 524.851
22.81000 527.616
22.82000 530.359
22.83000 532.327
22.84000 521.559
22.85000 512.888
22.86000 506.127
22.87000 502.499
22.88000 498.915
22.89000 495.074
22.90000 490.957
22.91000 486.858
22.92000 496.638
22.93000 515.866
22.94000 534.498
22.95000 535.276
22.96000 527.714
22.97000 520.451
22.98000 517.241
22.99000 515.313
23.00000 513.572
23.01000 516.458
23.02000 519.847
23.03000 520.983
23.04000 511.211
23.05000 499.994
23.06000 492.917
23.07000 499.130
23.08000 506.346
23.09000 511.338
23.10000 516.648
23.11000 520.651
23.12000 521.692
23.13000 518.415
23.14000 515.100
23.15000 509.065
23.16000 500.461
23.17000 491.929
23.18000 493.831
23.19000 502.032
23.20000 510.410
23.21000 522.855
23.22000 536.996
23.23000 549.427
23.24000 542.481
23.25000 530.084
23.26000 519.079
23.27000 511.089
23.28000 504.647
23.29000 500.656
23.30000 507.166
23.31000 514.872
23.32000 520.142
23.33000 518.431
23.34000 516.287
23.35000 514.860
23.36000 515.000
23.37000 515.132
23.38000 512.544
23.39000 506.441
23.40000 500.337
23.41000 500.531
23.42000 505.957
23.43000 511.312
23.44000 513.755
23.45000 514.573
23.46000 515.274
23.47000 513.841
23.48000 511.613
23.49000 509.256
23.50000 505.648
23.51000 501.728
23.52000 498.313
23.53000 503.180
23.54000 508.486
23.55000 513.423
23.56000 516.961
23.57000 520.363
23.58000 522.798
23.59000 522.761
23.60000 522.600
23.61000 522.497
23.62000 519.039
23.63000 516.481
23.64000 512.562
23.65000 507.089
23.66000 501.632
23.67000 499.284
23.68000 499.220
23.69000 499.158
23.70000 502.917
23.71000 508.347
23.72000 513.173
23.73000 509.054
23.74000 501.962
23.75000 497.335
23.76000 512.962
23.77000 533.076
23.78000 550.252
23.79000 534.404
23.80000 517.132
23.81000 505.092
23.82000 510.740
23.83000 517.836
23.84000 523.796
23.85000 527.162
23.86000 530.427
23.87000 532.414
23.88000 533.486
23.89000 534.245
23.90000 531.535
23.91000 525.353
23.92000 519.254
23.93000 520.779
23.94000 527.273
23.95000 533.596
23.96000 536.135
23.97000 536.974
23.98000 538.238
23.99000 544.713
24.00000 552.732
24.01000 559.018
24.02000 552.994
24.03000 544.563
24.04000 537.520
24.05000 535.904
24.06000 535.111
24.07000 533.535
24.08000 529.600
24.09000 525.504
24.10000 526.349
24.11000 537.262
24.12000 548.471
24.13000 554.955
24.14000 530.216
24.15000 512.762
24.16000 509.375
24.17000 518.352
24.18000 527.174
24.19000 527.161
24.20000 522.026
24.21000 517.067
24.22000 521.888
24.23000 530.040
24.24000 537.262
24.25000 534.899
24.26000 530.009
24.27000 524.665
24.28000 516.512
24.29000 507.876
24.30000 500.832
24.31000 510.877
24.32000 520.552
24.33000 524.828
24.34000 514.587
24.35000 503.545
24.36000 499.122
24.37000 506.734
24.38000 514.597
24.39000 518.901
24.40000 500.840
24.41000 488.435
24.42000 487.377
24.43000 495.118
24.44000 502.682
24.45000 503.264
24.46000 500.236
24.47000 497.341
24.48000 503.112
24.49000 511.304
24.50000 517.922
24.51000 510.691
24.52000 500.222
24.53000 492.122
24.54000 496.876
24.55000 503.561
24.56000 508.874
24.57000 493.917
24.58000 480.424
24.59000 471.661
24.60000 474.257
24.61000 477.350
24.62000 482.909
24.63000 492.462
24.64000 502.070
24.65000 507.018
24.66000 506.040
24.67000 505.368
24.68000 503.201
24.69000 500.007
24.70000 496.892
24.71000 496.047
24.72000 496.251
24.73000 496.444
24.74000 494.339
24.75000 491.746
24.76000 488.642
24.77000 481.662
24.78000 473.881
24.79000 467.944
24.80000 470.822
24.81000 474.847
24.82000 477.959
24.83000 481.826
24.84000 484.938
24.85000 483.446
24.86000 472.083
24.87000 460.389
24.88000 456.592
24.89000 464.161
24.90000 471.819
24.91000 477.647
24.92000 481.769
24.93000 485.783
24.94000 482.264
24.95000 474.146
24.96000 466.334
24.97000 465.373
24.98000 467.236
24.99000 468.976
25.00000 476.298
25.01000 484.347
25.02000 491.609
25.03000 493.696
25.04000 494.841
25.05000 494.678
25.06000 488.983
25.07000 482.669
25.08000 477.933
25.09000 484.301
25.10000 489.800
25.11000 491.630
25.12000 486.438
25.13000 481.074
25.14000 479.386
25.15000 482.384
25.16000 485.394
25.17000 479.905
25.18000 467.496
25.19000 455.257
25.20000 450.920
25.21000 450.883
25.22000 450.869
25.23000 451.267
25.24000 451.817
25.25000 452.324
25.26000 454.714
25.27000 457.268
25.28000 460.498
25.29000 467.604
25.30000 475.329
25.31000 479.577
25.32000 470.778
25.33000 460.734
25.34000 453.442
25.35000 457.863
25.36000 461.701
25.37000 465.082
25.38000 467.684
25.39000 470.274
25.40000 471.878
25.41000 472.373
25.42000 472.866
25.43000 476.208
25.44000 481.570
25.45000 486.723
25.46000 484.986
25.47000 479.906
25.48000 475.028
25.49000 473.070
25.50000 472.072
25.51000 471.165
25.52000 473.666
25.53000 476.532
25.54000 478.610
25.55000 476.708
25.56000 474.253
25.57000 471.585
25.58000 468.206
25.59000 464.771
25.60000 462.364
25.61000 455.795
25.62000 450.706
25.63000 453.158
25.64000 467.051
25.65000 481.063
25.66000 484.465
25.67000 477.399
25.68000 470.382
25.69000 469.871
25.70000 473.489
25.71000 476.760
25.72000 471.366
25.73000 462.215
25.74000 453.936
25.75000 456.116
25.76000 461.358
25.77000 466.038
25.78000 465.342
25.79000 463.833
25.80000 462.266
25.81000 460.441
25.82000 458.585
25.83000 459.817
25.84000 470.237
25.85000 481.267
25.86000 488.706
25.87000 478.550
25.88000 470.622
25.89000 465.165
25.90000 463.032
25.91000 460.917
25.92000 458.469
25.93000 455.731
25.94000 453.025
25.95000 457.637
25.96000 466.229
25.97000 474.087
25.98000 467.552
25.99000 455.445
26.00000 444.519
26.01000 445.562
26.02000 449.719
26.03000 453.364
26.04000 459.466
26.05000 465.062
26.06000 466.936
26.07000 454.083
26.08000 439.718
26.09000 430.964
26.10000 437.114
26.11000 444.068
26.12000 448.567
26.13000 470.842
26.14000 487.394
26.15000 488.674
26.16000 471.781
26.17000 454.924
26.18000 454.324
26.19000 466.166
26.20000 477.806
26.21000 478.685
26.22000 474.221
26.23000 469.629
26.24000 462.990
26.25000 455.644
26.26000 449.349
26.27000 452.143
26.28000 457.035
26.29000 461.241
26.30000 463.556
26.31000 465.279
26.32000 466.189
26.33000 464.245
26.34000 462.052
26.35000 460.717
26.36000 461.416
26.37000 462.201
26.38000 462.686
26.39000 451.818
26.40000 443.902
26.41000 442.162
26.42000 446.886
26.43000 451.617
26.44000 456.962
26.45000 462.722
26.46000 468.345
26.47000 465.375
26.48000 458.787
26.49000 452.723
26.50000 453.490
26.51000 456.362
26.52000 458.613
26.53000 456.235
26.54000 452.913
26.55000 450.117
26.56000 449.715
26.57000 449.635
26.58000 451.084
26.59000 457.323
26.60000 463.908
26.61000 467.148
26.62000 463.303
26.63000 459.228
26.64000 456.829
26.65000 465.354
26.66000 471.421
26.67000 467.196
26.68000 453.525
26.69000 439.990
26.70000 435.408
26.71000 436.226
26.72000 437.019
26.73000 436.093
26.74000 434.557
26.75000 433.540
26.76000 438.194
26.77000 444.404
26.78000 449.456
26.79000 447.008
26.80000 443.213
26.81000 440.092
26.82000 443.167
26.83000 446.255
26.84000 449.140
26.85000 451.452
26.86000 453.731
26.87000 455.515
26.88000 456.365
26.89000 457.192
26.90000 457.654
26.91000 451.822
26.92000 447.785
26.93000 448.378
26.94000 452.717
26.95000 457.028
26.96000 460.108
26.97000 462.528
26.98000 464.849
26.99000 461.135
27.00000 455.613
27.01000 449.931
27.02000 442.767
27.03000 435.242
27.04000 429.772
27.05000 435.947
27.06000 443.954
27.07000 450.377
27.08000 448.980
27.09000 447.256
27.10000 446.005
27.11000 445.934
27.12000 445.920
27.13000 446.205
27.14000 446.996
27.15000 447.796
27.16000 448.216
27.17000 447.244
27.18000 446.552
27.19000 441.182
27.20000 432.465
27.21000 423.995
27.22000 423.459
27.23000 426.727
27.24000 429.830
27.25000 439.797
27.26000 451.051
27.27000 461.054
27.28000 461.102
27.29000 459.003
27.30000 455.634
27.31000 445.937
27.32000 435.374
27.33000 427.130
27.34000 425.906
27.35000 425.371
27.36000 427.969
27.37000 437.549
27.38000 447.387
27.39000 451.280
27.40000 446.267
27.41000 441.167
27.42000 435.432
27.43000 429.078
27.44000 422.872
27.45000 428.715
27.46000 442.215
27.47000 455.073
27.48000 452.311
27.49000 442.861
27.50000 433.994
27.51000 431.759
27.52000 431.470
27.53000 431.303
27.54000 431.982
27.55000 432.821
27.56000 434.836
27.57000 442.032
27.58000 449.839
27.59000 455.756
27.60000 451.786
27.61000 448.164
27.62000 444.700
27.63000 441.551
27.64000 438.410
27.65000 436.175
27.66000 435.143
27.67000 434.118
27.68000 436.758
27.69000 442.518
27.70000 448.191
27.71000 449.223
27.72000 447.632
27.73000 445.706
27.74000 437.363
27.75000 426.567
27.76000 416.570
27.77000 418.800
27.78000 423.630
27.79000 428.488
27.80000 433.516
27.81000 438.572
27.82000 441.385
27.83000 435.440
27.84000 428.610
27.85000 423.596
27.86000 418.541
27.87000 414.631
27.88000 415.854
27.89000 426.180
27.90000 436.681
27.91000 440.820
27.92000 437.492
27.93000 434.162
27.94000 435.860
27.95000 441.321
27.96000 446.577
27.97000 444.341
27.98000 438.325
27.99000 432.461
28.00000 428.957
28.01000 426.257
28.02000 423.793
28.03000 424.121
28.04000 424.976
28.05000 425.025
28.06000 420.819
28.07000 415.993
28.08000 412.426
28.09000 413.233
28.10000 414.412
28.11000 415.249
28.12000 421.108
28.13000 425.723
28.14000 427.777
28.15000 425.787
28.16000 423.747
28.17000 425.110
28.18000 429.985
28.19000 434.833
28.20000 438.303
28.21000 440.818
28.22000 443.252
28.23000 443.469
28.24000 442.688
28.25000 441.615
28.26000 436.814
28.27000 430.879
28.28000 425.548
28.29000 428.283
28.30000 432.096
28.31000 434.249
28.32000 428.678
28.33000 422.131
28.34000 416.594
28.35000 414.179
28.36000 411.986
28.37000 410.487
28.38000 424.487
28.39000 435.327
28.40000 438.695
28.41000 431.586
28.42000 424.409
28.43000 424.340
28.44000 430.703
28.45000 437.004
28.46000 433.249
28.47000 423.709
28.48000 414.722
28.49000 417.476
28.50000 424.951
28.51000 431.536
28.52000 428.574
28.53000 423.027
28.54000 418.132
28.55000 419.788
28.56000 422.217
28.57000 425.437
28.58000 431.910
28.59000 438.735
28.60000 441.286
28.61000 432.037
28.62000 422.104
28.63000 415.585
28.64000 411.970
28.65000 409.360
28.66000 411.296
28.67000 418.874
28.68000 426.443
28.69000 425.716
28.70000 418.371
28.71000 411.136
28.72000 412.993
28.73000 419.477
28.74000 425.237
28.75000 418.742
28.76000 407.845
28.77000 398.401
28.78000 402.197
28.79000 409.176
28.80000 415.219
28.81000 414.869
28.82000 413.730
28.83000 412.698
28.84000 412.062
28.85000 411.462
28.86000 413.836
28.87000 423.539
28.88000 433.582
28.89000 439.890
28.90000 438.695
28.91000 437.748
28.92000 433.219
28.93000 424.773
28.94000 416.356
28.95000 412.094
28.96000 410.769
28.97000 409.471
28.98000 410.521
28.99000 412.597
29.00000 414.836
29.01000 419.346
29.02000 424.583
29.03000 429.011
29.04000 427.106
29.05000 423.852
29.06000 421.092
29.07000 426.016
29.08000 431.012
29.09000 431.477
29.10000 417.186
29.11000 401.756
29.12000 393.817
29.13000 402.365
29.14000 411.502
29.15000 416.974
29.16000 416.146
29.17000 415.518
29.18000 418.850
29.19000 425.981
29.20000 432.989
29.21000 430.425
29.22000 421.855
29.23000 413.532
29.24000 417.032
29.25000 425.103
29.26000 432.377
29.27000 430.435
29.28000 425.862
29.29000 421.637
29.30000 419.776
29.31000 418.360
29.32000 417.185
29.33000 417.715
29.34000 418.316
29.35000 416.862
29.36000 409.441
29.37000 401.640
29.38000 397.135
29.39000 399.106
29.40000 401.248
29.41000 402.466
29.42000 395.401
29.43000 390.465
29.44000 392.108
29.45000 399.302
29.46000 406.484
29.47000 413.061
29.48000 419.300
29.49000 425.306
29.50000 426.310
29.51000 425.479
29.52000 424.417
29.53000 421.098
29.54000 417.207
29.55000 413.977
29.56000 414.669
29.57000 416.006
29.58000 417.089
29.59000 413.256
29.60000 409.740
29.61000 405.449
29.62000 399.150
29.63000 392.748
29.64000 392.440
29.65000 402.808
29.66000 413.373
29.67000 419.046
29.68000 422.594
29.69000 424.981
29.70000 420.731
29.71000 411.533
29.72000 402.541
29.73000 400.874
29.74000 402.858
29.75000 404.748
29.76000 405.476
29.77000 405.788
29.78000 406.293
29.79000 408.412
29.80000 410.894
29.81000 412.564
29.82000 410.010
29.83000 406.851
29.84000 404.361
29.85000 408.942
29.86000 413.088
29.87000 411.776
29.88000 397.829
29.89000 383.372
29.90000 379.458
29.91000 391.981
29.92000 404.697
29.93000 411.110
29.94000 423.702
29.95000 432.047
29.96000 433.163
29.97000 429.500
29.98000 425.978
29.99000 426.198
30.00000 428.084
30.01000 429.860
30.02000 430.149
30.03000 430.003
30.04000 429.499
30.05000 426.402
30.06000 422.790
30.07000 420.287
30.08000 422.877
30.09000 426.099
30.10000 428.566
30.11000 426.843
30.12000 425.252
30.13000 423.181
30.14000 420.115
30.15000 417.018
30.16000 417.000
30.17000 421.242
30.18000 425.510
30.19000 426.783
30.20000 425.386
30.21000 423.933
30.22000 419.059
30.23000 412.174
30.24000 405.503
30.25000 403.266
30.26000 402.791
30.27000 402.348
30.28000 404.989
30.29000 408.119
30.30000 411.584
30.31000 417.155
30.32000 423.094
30.33000 427.186
30.34000 423.768
30.35000 419.550
30.36000 416.418
30.37000 417.797
30.38000 419.067
30.39000 417.679
30.40000 411.389
30.41000 404.991
30.42000 404.836
30.43000 412.327
30.44000 419.821
30.45000 425.423
30.46000 429.514
30.47000 433.409
30.48000 429.222
30.49000 420.798
30.50000 412.711
30.51000 410.236
30.52000 409.752
30.53000 409.307
30.54000 414.266
30.55000 419.828
30.56000 425.060
30.57000 428.469
30.58000 431.600
30.59000 433.063
30.60000 428.505
30.61000 423.402
30.62000 419.739
30.63000 424.876
30.64000 429.108
30.65000 427.411
30.66000 415.973
30.67000 404.393
30.68000 401.742
30.69000 408.721
30.70000 415.672
30.71000 423.343
30.72000 431.428
30.73000 439.169
30.74000 436.539
30.75000 429.057
30.76000 422.027
30.77000 421.149
30.78000 422.216
30.79000 423.181
30.80000 425.899
30.81000 428.612
30.82000 430.331
30.83000 427.224
30.84000 423.476
30.85000 421.750
30.86000 426.525
30.87000 431.792
30.88000 435.438
30.89000 441.117
30.90000 445.442
30.91000 449.191
30.92000 452.098
30.93000 454.997
30.94000 457.851
30.95000 460.661
30.96000 463.448
30.97000 471.602
30.98000 482.870
30.99000 493.813
31.00000 497.238
31.01000 497.522
31.02000 498.781
31.03000 511.106
31.04000 526.549
31.05000 540.262
31.06000 556.482
31.07000 570.945
31.08000 585.790
31.09000 602.273
31.10000 618.943
31.11000 640.068
31.12000 673.974
31.13000 708.675
31.14000 731.772
31.15000 763.517
31.16000 787.169
31.17000 827.120
31.18000 888.164
31.19000 949.291
31.20000 1008.724
31.21000 1066.749
31.22000 1124.010
31.23000 1188.029
31.24000 1253.953
31.25000 1319.830
31.26000 1384.849
31.27000 1449.548
31.28000 1514.869
31.29000 1586.165
31.30000 1658.958
31.31000 1722.407
31.32000 1777.810
31.33000 1824.047
31.34000 1869.713
31.35000 1913.207
31.36000 1956.489
31.37000 1990.221
31.38000 1999.497
31.39000 2007.549
31.40000 2012.684
31.41000 2021.284
31.42000 2027.582
31.43000 2018.419
31.44000 1991.594
31.45000 1964.611
31.46000 1913.341
31.47000 1844.201
31.48000 1776.384
31.49000 1709.512
31.50000 1645.534
31.51000 1581.213
31.52000 1511.809
31.53000 1440.712
31.54000 1370.469
31.55000 1307.249
31.56000 1245.587
31.57000 1192.916
31.58000 1120.290
31.59000 1056.730
31.60000 995.210
31.61000 940.596
31.62000 886.548
31.63000 834.942
31.64000 788.921
31.65000 743.118
31.66000 715.230
31.67000 682.439
31.68000 658.975
31.69000 637.953
31.70000 619.378
31.71000 600.750
31.72000 577.138
31.73000 550.272
31.74000 524.109
31.75000 510.661
31.76000 503.170
31.77000 495.801
31.78000 489.942
31.79000 484.530
31.80000 478.780
31.81000 470.632
31.82000 462.013
31.83000 454.810
31.84000 446.365
31.85000 439.228
31.86000 432.841
31.87000 428.722
31.88000 424.757
31.89000 425.273
31.90000 434.938
31.91000 444.874
31.92000 450.625
31.93000 440.516
31.94000 433.363
31.95000 426.268
31.96000 419.227
31.97000 412.231
31.98000 407.880
31.99000 405.066
32.00000 402.348
32.01000 400.982
32.02000 400.194
32.03000 399.661
32.04000 401.765
32.05000 404.566
32.06000 406.642
32.07000 404.218
32.08000 401.019
32.09000 398.409
32.10000 394.399
32.11000 390.998
32.12000 388.604
32.13000 388.920
32.14000 389.385
32.15000 389.234
32.16000 387.959
32.17000 386.662
32.18000 385.951
32.19000 399.491
32.20000 408.773
32.21000 405.115
32.22000 391.405
32.23000 378.053
32.24000 378.918
32.25000 387.146
32.26000 395.015
32.27000 398.822
32.28000 401.040
32.29000 402.460
32.30000 396.840
32.31000 389.570
32.32000 384.510
32.33000 391.458
32.34000 400.212
32.35000 407.174
32.36000 407.371
32.37000 407.046
32.38000 407.037
32.39000 407.788
32.40000 408.573
32.41000 409.133
32.42000 409.330
32.43000 409.521
32.44000 409.620
32.45000 405.572
32.46000 402.815
32.47000 396.638
32.48000 388.104
32.49000 379.877
32.50000 380.587
32.51000 385.428
32.52000 390.008
32.53000 386.658
32.54000 381.300
32.55000 375.400
32.56000 365.385
32.57000 354.517
32.58000 347.197
32.59000 356.858
32.60000 368.736
32.61000 377.922
32.62000 374.386
32.63000 370.831
32.64000 365.797
32.65000 357.585
32.66000 349.267
32.67000 348.778
32.68000 359.579
32.69000 370.469
32.70000 373.971
32.71000 370.586
32.72000 367.220
32.73000 365.197
32.74000 363.996
32.75000 362.918
32.76000 364.594
32.77000 367.407
32.78000 370.036
32.79000 366.386
32.80000 361.490
32.81000 357.709
32.82000 361.280
32.83000 366.193
32.84000 370.173
32.85000 370.199
32.86000 369.782
32.87000 369.469
32.88000 372.177
32.89000 374.437
32.90000 376.071
32.91000 376.504
32.92000 376.908
32.93000 374.872
32.94000 369.720
32.95000 364.564
32.96000 367.474
32.97000 376.973
32.98000 386.287
32.99000 387.008
33.00000 383.046
33.01000 379.208
33.02000 377.586
33.03000 376.779
33.04000 376.036
33.05000 374.521
33.06000 372.993
33.07000 371.479
33.08000 370.043
33.09000 368.619
33.10000 368.228
33.11000 371.723
33.12000 375.589
33.13000 378.398
33.14000 374.312
33.15000 370.911
33.16000 365.649
33.17000 357.205
33.18000 348.708
33.19000 348.175
33.20000 356.615
33.21000 365.032
33.22000 363.190
33.23000 353.977
33.24000 344.887
33.25000 339.904
33.26000 336.917
33.27000 334.308
33.28000 337.194
33.29000 341.887
33.30000 346.149
33.31000 344.192
33.32000 341.260
33.33000 338.742
33.34000 338.315
33.35000 338.179
33.36000 337.657
33.37000 335.846
33.38000 333.930
33.39000 332.588
33.40000 343.270
33.41000 351.698
33.42000 354.951
33.43000 350.336
33.44000 345.640
33.45000 342.010
33.46000 339.435
33.47000 336.878
33.48000 335.210
33.49000 334.131
33.50000 333.196
33.51000 335.851
33.52000 340.067
33.53000 344.006
33.54000 344.629
33.55000 344.280
33.56000 343.968
33.57000 338.647
33.58000 333.168
33.59000 329.310
33.60000 332.696
33.61000 336.953
33.62000 340.501
33.63000 341.933
33.64000 343.223
33.65000 344.094
33.66000 346.687
33.67000 348.652
33.68000 348.535
33.69000 345.609
33.70000 342.673
33.71000 343.246
33.72000 346.868
33.73000 350.448
33.74000 349.306
33.75000 345.546
33.76000 341.919
33.77000 340.911
33.78000 340.918
33.79000 341.264
33.80000 345.050
33.81000 349.733
33.82000 353.842
33.83000 351.548
33.84000 348.646
33.85000 346.247
33.86000 345.847
33.87000 345.652
33.88000 343.628
33.89000 336.741
33.90000 329.591
33.91000 324.963
33.92000 336.228
33.93000 344.703
33.94000 352.974
33.95000 361.001
33.96000 368.992
33.97000 368.727
33.98000 362.133
33.99000 355.650
34.00000 351.296
34.01000 348.140
34.02000 345.437
34.03000 349.912
34.04000 356.871
34.05000 362.762
34.06000 359.393
34.07000 353.882
34.08000 349.142
34.09000 347.608
34.10000 346.713
34.11000 347.909
34.12000 356.475
34.13000 365.682
34.14000 370.441
34.15000 364.629
34.16000 358.366
34.17000 354.491
34.18000 353.351
34.19000 352.558
34.20000 353.067
34.21000 354.941
34.22000 356.816
34.23000 358.703
34.24000 360.598
34.25000 362.449
34.26000 359.534
34.27000 354.664
34.28000 350.357
34.29000 353.414
34.30000 358.743
34.31000 363.799
34.32000 366.815
34.33000 369.414
34.34000 371.602
34.35000 366.437
34.36000 361.338
34.37000 357.574
34.38000 357.996
34.39000 358.722
34.40000 359.589
34.41000 360.752
34.42000 361.926
34.43000 362.617
34.44000 371.712
34.45000 378.171
34.46000 375.334
34.47000 363.949
34.48000 352.645
34.49000 346.754
34.50000 344.135
34.51000 341.599
34.52000 345.997
34.53000 352.832
34.54000 358.583
34.55000 352.467
34.56000 343.091
34.57000 335.876
34.58000 342.692
34.59000 352.034
34.60000 359.720
34.61000 348.990
34.62000 338.497
34.63000 333.045
34.64000 341.706
34.65000 351.207
34.66000 355.906
34.67000 351.514
34.68000 346.906
34.69000 344.333
34.70000 330.135
34.71000 320.307
34.72000 320.312
34.73000 328.283
34.74000 336.088
34.75000 336.509
34.76000 332.956
34.77000 329.545
34.78000 334.370
34.79000 341.682
34.80000 347.967
34.81000 344.711
34.82000 339.126
34.83000 334.345
34.84000 334.125
34.85000 334.624
34.86000 335.024
34.87000 338.849
34.88000 342.208
34.89000 345.982
34.90000 350.793
34.91000 355.653
34.92000 352.817
34.93000 336.991
34.94000 320.956
34.95000 312.514
34.96000 316.249
34.97000 318.763
34.98000 317.512
34.99000 313.562
35.00000 309.972
35.01000 317.994
35.02000 331.594
35.03000 344.507
35.04000 338.725
35.05000 327.778
35.06000 317.852
35.07000 316.061
35.08000 316.027
35.09000 317.312
35.10000 325.178
35.11000 333.946
35.12000 340.793
35.13000 332.149
35.14000 324.280
35.15000 317.317
35.16000 312.379
35.17000 307.515
35.18000 308.470
35.19000 318.159
35.20000 327.933
35.21000 327.751
35.22000 317.865
35.23000 308.081
35.24000 306.704
35.25000 310.678
35.26000 314.576
35.27000 316.602
35.28000 317.826
35.29000 318.975
35.30000 318.835
35.31000 318.368
35.32000 318.285
35.33000 320.866
35.34000 323.953
35.35000 326.064
35.36000 323.862
35.37000 321.150
35.38000 319.093
35.39000 314.142
35.40000 310.106
35.41000 309.363
35.42000 315.185
35.43000 321.187
35.44000 323.736
35.45000 321.689
35.46000 319.621
35.47000 317.422
35.48000 315.115
35.49000 312.869
35.50000 313.883
35.51000 316.744
35.52000 319.286
35.53000 315.703
35.54000 309.773
35.55000 304.280
35.56000 301.227
35.57000 299.046
35.58000 298.269
35.59000 305.950
35.60000 315.047
35.61000 321.591
35.62000 318.146
35.63000 313.690
35.64000 310.417
35.65000 304.015
35.66000 298.938
35.67000 297.887
35.68000 303.990
35.69000 310.232
35.70000 314.393
35.71000 316.107
35.72000 317.813
35.73000 315.789
35.74000 310.977
35.75000 306.358
35.76000 308.909
35.77000 315.081
35.78000 320.759
35.79000 318.752
35.80000 314.117
35.81000 309.887
35.82000 302.770
35.83000 295.870
35.84000 290.530
35.85000 293.434
35.86000 297.542
35.87000 301.629
35.88000 305.644
35.89000 309.653
35.90000 312.499
35.91000 309.132
35.92000 306.375
35.93000 305.528
35.94000 307.703
35.95000 309.915
35.96000 311.093
35.97000 311.201
35.98000 311.309
35.99000 309.841
36.00000 307.349
36.01000 304.845
36.02000 302.001
36.03000 299.003
36.04000 296.342
36.05000 297.991
36.06000 300.953
36.07000 303.614
36.08000 307.458
36.09000 311.032
36.10000 313.482
36.11000 310.699
36.12000 307.253
36.13000 305.981
36.14000 311.444
36.15000 317.387
36.16000 321.450
36.17000 308.985
36.18000 299.265
36.19000 294.958
36.20000 298.256
36.21000 301.605
36.22000 304.109
36.23000 305.846
36.24000 307.566
36.25000 311.969
36.26000 317.848
36.27000 323.307
36.28000 319.826
36.29000 312.742
36.30000 305.917
36.31000 301.863
36.32000 298.560
36.33000 295.645
36.34000 296.799
36.35000 298.418
36.36000 299.218
36.37000 296.635
36.38000 293.685
36.39000 293.603
36.40000 301.451
36.41000 309.761
36.42000 315.218
36.43000 298.558
36.44000 285.927
36.45000 281.604
36.46000 287.614
36.47000 293.645
36.48000 296.824
36.49000 297.724
36.50000 298.610
36.51000 293.229
36.52000 284.776
36.53000 276.993
36.54000 280.589
36.55000 288.279
36.56000 295.578
36.57000 299.314
36.58000 302.191
36.59000 304.683
36.60000 304.393
36.61000 303.779
36.62000 302.914
36.63000 301.127
36.64000 299.254
36.65000 298.977
36.66000 302.637
36.67000 306.480
36.68000 308.895
36.69000 302.418
36.70000 297.635
36.71000 295.829
36.72000 297.284
36.73000 298.743
36.74000 300.522
36.75000 302.526
36.76000 304.487
36.77000 299.144
36.78000 290.686
36.79000 283.027
36.80000 286.499
36.81000 293.544
36.82000 299.744
36.83000 299.318
36.84000 297.479
36.85000 295.919
36.86000 296.217
36.87000 296.678
36.88000 297.783
36.89000 300.993
36.90000 304.366
36.91000 305.771
36.92000 302.840
36.93000 299.752
36.94000 297.902
36.95000 301.335
36.96000 303.808
36.97000 305.667
36.98000 306.935
36.99000 308.194
37.00000 308.703
37.01000 308.743
37.02000 308.781
37.03000 307.901
37.04000 306.697
37.05000 305.345
37.06000 302.289
37.07000 298.746
37.08000 296.087
37.09000 299.452
37.10000 303.950
37.11000 307.680
37.12000 307.785
37.13000 307.523
37.14000 307.865
37.15000 309.964
37.16000 312.174
37.17000 314.230
37.18000 315.982
37.19000 317.726
37.20000 318.718
37.21000 313.236
37.22000 309.392
37.23000 303.537
37.24000 295.982
37.25000 288.611
37.26000 290.534
37.27000 297.659
37.28000 304.518
37.29000 304.447
37.30000 301.919
37.31000 300.153
37.32000 305.863
37.33000 313.473
37.34000 318.635
37.35000 309.262
37.36000 297.492
37.37000 287.965
37.38000 293.440
37.39000 299.111
37.40000 302.605
37.41000 300.447
37.42000 297.999
37.43000 295.864
37.44000 294.278
37.45000 292.702
37.46000 291.855
37.47000 295.584
37.48000 298.124
37.49000 298.496
37.50000 297.249
37.51000 295.994
37.52000 294.451
37.53000 292.765
37.54000 291.159
37.55000 290.662
37.56000 290.549
37.57000 290.618
37.58000 292.212
37.59000 294.149
37.60000 296.286
37.61000 299.463
37.62000 302.790
37.63000 305.412
37.64000 303.868
37.65000 302.350
37.66000 302.302
37.67000 305.662
37.68000 309.159
37.69000 308.107
37.70000 299.948
37.71000 291.706
37.72000 287.544
37.73000 295.955
37.74000 301.475
37.75000 296.555
37.76000 284.718
37.77000 273.454
37.78000 277.472
37.79000 288.299
37.80000 298.501
37.81000 296.298
37.82000 290.862
37.83000 286.311
37.84000 288.171
37.85000 291.307
37.86000 294.601
37.87000 298.620
37.88000 302.730
37.89000 305.878
37.90000 298.582
37.91000 292.248
37.92000 288.531
37.93000 290.234
37.94000 292.103
37.95000 293.213
37.96000 293.271
37.97000 293.322
37.98000 293.179
37.99000 292.863
38.00000 292.515
38.01000 290.310
38.02000 287.010
38.03000 283.757
38.04000 281.476
38.05000 279.583
38.06000 277.822
38.07000 284.817
38.08000 293.256
38.09000 301.126
38.10000 305.410
38.11000 309.067
38.12000 311.609
38.13000 309.608
38.14000 307.123
38.15000 305.277
38.16000 300.956
38.17000 297.487
38.18000 295.817
38.19000 297.471
38.20000 299.198
38.21000 302.154
38.22000 306.619
38.23000 311.078
38.24000 309.078
38.25000 302.018
38.26000 295.076
38.27000 293.044
38.28000 293.590
38.29000 294.243
38.30000 296.678
38.31000 299.745
38.32000 302.560
38.33000 306.512
38.34000 310.277
38.35000 315.476
38.36000 328.595
38.37000 342.926
38.38000 353.470
38.39000 350.311
38.40000 345.911
38.41000 342.751
38.42000 359.243
38.43000 372.538
38.44000 384.011
38.45000 392.483
38.46000 400.911
38.47000 409.957
38.48000 419.670
38.49000 429.340
38.50000 446.444
38.51000 468.501
38.52000 490.592
38.53000 513.707
38.54000 537.302
38.55000 561.767
38.56000 598.092
38.57000 638.176
38.58000 674.388
38.59000 704.437
38.60000 729.719
38.61000 757.681
38.62000 798.671
38.63000 841.391
38.64000 881.837
38.65000 914.952
38.66000 947.511
38.67000 970.063
38.68000 1013.254
38.69000 1046.300
38.70000 1075.714
38.71000 1099.815
38.72000 1123.868
38.73000 1139.261
38.74000 1146.447
38.75000 1153.575
38.76000 1146.642
38.77000 1131.267
38.78000 1116.119
38.79000 1106.223
38.80000 1098.526
38.81000 1089.569
38.82000 1066.268
38.83000 1038.918
38.84000 1014.626
38.85000 975.871
38.86000 939.941
38.87000 905.310
38.88000 876.261
38.89000 847.853
38.90000 815.804
38.91000 773.296
38.92000 730.136
38.93000 701.392
38.94000 652.078
38.95000 615.190
38.96000 582.655
38.97000 555.764
38.98000 528.899
38.99000 503.367
39.00000 478.948
39.01000 454.848
39.02000 436.437
39.03000 421.579
39.04000 406.683
39.05000 391.099
39.06000 375.258
39.07000 360.383
39.08000 354.818
39.09000 351.588
39.10000 348.772
39.11000 335.881
39.12000 323.461
39.13000 312.661
39.14000 308.040
39.15000 304.022
39.16000 301.302
39.17000 301.910
39.18000 302.686
39.19000 303.181
39.20000 303.657
39.21000 304.002
39.22000 302.716
39.23000 299.562
39.24000 296.424
39.25000 296.484
39.26000 298.899
39.27000 301.269
39.28000 298.000
39.29000 292.169
39.30000 286.656
39.31000 285.857
39.32000 286.630
39.33000 286.858
39.34000 282.593
39.35000 277.330
39.36000 272.832
39.37000 272.540
39.38000 272.795
39.39000 273.017
39.40000 273.126
39.41000 273.226
39.42000 272.219
39.43000 268.675
39.44000 265.031
39.45000 262.811
39.46000 266.953
39.47000 269.963
39.48000 272.123
39.49000 273.429
39.50000 274.736
39.51000 276.205
39.52000 277.778
39.53000 279.310
39.54000 277.828
39.55000 275.151
39.56000 272.983
39.57000 277.082
39.58000 283.046
39.59000 287.562
39.60000 281.753
39.61000 273.918
39.62000 267.368
39.63000 268.752
39.64000 270.709
39.65000 272.271
39.66000 272.639
39.67000 272.926
39.68000 272.496
39.69000 270.598
39.70000 268.657
39.71000 267.533
39.72000 270.559
39.73000 272.699
39.74000 274.201
39.75000 275.141
39.76000 276.049
39.77000 275.096
39.78000 273.060
39.79000 271.093
39.80000 273.574
39.81000 277.559
39.82000 280.918
39.83000 277.784
39.84000 272.934
39.85000 269.456
39.86000 274.508
39.87000 281.031
39.88000 286.355
39.89000 286.299
39.90000 285.791
39.91000 284.310
39.92000 280.205
39.93000 275.954
39.94000 273.309
39.95000 273.594
39.96000 273.941
39.97000 274.131
39.98000 267.412
39.99000 262.783
40.00000 258.901
40.01000 255.601
40.02000 252.482
40.03000 256.587
40.04000 264.438
40.05000 271.948
40.06000 271.534
40.07000 268.559
40.08000 265.571
40.09000 262.477
40.10000 259.358
40.11000 257.213
40.12000 260.370
40.13000 264.327
40.14000 267.474
40.15000 265.693
40.16000 263.904
40.17000 263.651
40.18000 267.097
40.19000 270.707
40.20000 271.397
40.21000 267.342
40.22000 263.221
40.23000 261.094
40.24000 266.506
40.25000 270.104
40.26000 267.653
40.27000 261.030
40.28000 254.572
40.29000 252.916
40.30000 253.483
40.31000 254.019
40.32000 255.224
40.33000 256.525
40.34000 257.189
40.35000 253.006
40.36000 247.817
40.37000 243.918
40.38000 246.203
40.39000 249.298
40.40000 251.692
40.41000 255.086
40.42000 257.838
40.43000 260.526
40.44000 263.073
40.45000 265.617
40.46000 264.426
40.47000 257.842
40.48000 251.215
40.49000 247.781
40.50000 247.331
40.51000 246.872
40.52000 245.838
40.53000 244.451
40.54000 243.346
40.55000 248.592
40.56000 256.463
40.57000 263.819
40.58000 259.866
40.59000 253.418
40.60000 247.869
40.61000 248.254
40.62000 249.723
40.63000 251.221
40.64000 252.837
40.65000 254.466
40.66000 255.689
40.67000 252.456
40.68000 249.717
40.69000 249.199
40.70000 252.946
40.71000 256.798
40.72000 259.440
40.73000 260.533
40.74000 261.618
40.75000 259.194
40.76000 253.902
40.77000 248.672
40.78000 246.342
40.79000 245.596
40.80000 245.160
40.81000 250.256
40.82000 257.395
40.83000 263.977
40.84000 259.841
40.85000 253.761
40.86000 248.463
40.87000 247.689
40.88000 247.639
40.89000 246.861
40.90000 243.338
40.91000 239.553
40.92000 236.802
40.93000 244.395
40.94000 250.625
40.95000 254.475
40.96000 254.250
40.97000 253.957
40.98000 252.258
40.99000 248.973
41.00000 245.699
41.01000 247.215
41.02000 252.174
41.03000 256.975
41.04000 256.495
41.05000 253.443
41.06000 250.575
41.07000 250.382
41.08000 251.071
41.09000 251.697
41.10000 248.974
41.11000 245.920
41.12000 243.455
41.13000 243.984
41.14000 244.931
41.15000 245.258
41.16000 243.508
41.17000 241.591
41.18000 240.246
41.19000 234.883
41.20000 230.708
41.21000 230.774
41.22000 237.297
41.23000 243.889
41.24000 246.191
41.25000 244.242
41.26000 242.306
41.27000 239.790
41.28000 236.945
41.29000 234.340
41.30000 237.796
41.31000 243.889
41.32000 249.551
41.33000 250.001
41.34000 248.921
41.35000 247.956
41.36000 249.137
41.37000 250.528
41.38000 251.576
41.39000 251.088
41.40000 250.415
41.41000 250.608
41.42000 253.390
41.43000 256.344
41.44000 258.339
41.45000 250.318
41.46000 244.135
41.47000 239.658
41.48000 237.486
41.49000 235.333
41.50000 238.115
41.51000 245.190
41.52000 252.185
41.53000 247.536
41.54000 236.465
41.55000 225.948
41.56000 226.377
41.57000 231.056
41.58000 235.594
41.59000 238.690
41.60000 241.410
41.61000 243.797
41.62000 240.235
41.63000 236.306
41.64000 232.780
41.65000 230.849
41.66000 229.084
41.67000 229.527
41.68000 235.855
41.69000 242.503
41.70000 246.809
41.71000 242.674
41.72000 239.524
41.73000 238.686
41.74000 240.611
41.75000 242.536
41.76000 243.286
41.77000 243.132
41.78000 242.981
41.79000 243.419
41.80000 244.132
41.81000 244.724
41.82000 243.375
41.83000 241.352
41.84000 239.558
41.85000 239.746
41.86000 240.394
41.87000 240.952
41.88000 246.371
41.89000 251.570
41.90000 254.153
41.91000 247.498
41.92000 240.038
41.93000 235.703
41.94000 238.810
41.95000 242.235
41.96000 244.356
41.97000 243.400
41.98000 242.683
41.99000 243.783
42.00000 246.790
42.01000 249.761
42.02000 248.548
42.03000 244.486
42.04000 240.521
42.05000 240.170
42.06000 241.415
42.07000 242.585
42.08000 242.763
42.09000 242.634
42.10000 242.582
42.11000 243.104
42.12000 243.744
42.13000 244.283
42.14000 242.095
42.15000 239.975
42.16000 239.212
42.17000 242.711
42.18000 246.521
42.19000 250.350
42.20000 254.220
42.21000 258.091
42.22000 260.373
42.23000 255.581
42.24000 252.162
42.25000 250.676
42.26000 250.971
42.27000 251.264
42.28000 251.469
42.29000 251.620
42.30000 251.767
42.31000 246.748
42.32000 240.004
42.33000 233.969
42.34000 235.702
42.35000 239.574
42.36000 243.053
42.37000 243.976
42.38000 244.438
42.39000 244.818
42.40000 239.712
42.41000 235.015
42.42000 232.839
42.43000 237.729
42.44000 243.041
42.45000 244.973
42.46000 240.497
42.47000 235.868
42.48000 233.281
42.49000 231.690
42.50000 230.599
42.51000 232.458
42.52000 236.712
42.53000 240.857
42.54000 240.127
42.55000 236.769
42.56000 233.546
42.57000 237.672
42.58000 244.037
42.59000 249.464
42.60000 246.163
42.61000 240.729
42.62000 235.674
42.63000 232.777
42.64000 230.220
42.65000 228.168
42.66000 231.274
42.67000 234.184
42.68000 238.155
42.69000 244.782
42.70000 251.537
42.71000 253.211
42.72000 246.296
42.73000 239.242
42.74000 235.525
42.75000 228.536
42.76000 223.831
42.77000 224.981
42.78000 230.334
42.79000 235.676
42.80000 240.643
42.81000 245.430
42.82000 249.975
42.83000 246.253
42.84000 240.331
42.85000 235.057
42.86000 234.964
42.87000 235.994
42.88000 236.688
42.89000 235.700
42.90000 234.481
42.91000 233.529
42.92000 232.143
42.93000 231.011
42.94000 229.747
42.95000 228.187
42.96000 226.617
42.97000 227.939
42.98000 233.609
42.99000 239.323
43.00000 241.986
43.01000 241.669
43.02000 241.316
43.03000 237.874
43.04000 232.463
43.05000 227.225
43.06000 226.230
43.07000 227.058
43.08000 227.836
43.09000 229.134
43.10000 230.455
43.11000 232.052
43.12000 235.563
43.13000 239.439
43.14000 241.408
43.15000 234.952
43.16000 227.496
43.17000 221.839
43.18000 225.482
43.19000 228.820
43.20000 231.164
43.21000 231.520
43.22000 231.821
43.23000 228.861
43.24000 221.552
43.25000 214.226
43.26000 213.201
43.27000 217.574
43.28000 221.944
43.29000 226.163
43.30000 230.296
43.31000 234.308
43.32000 235.965
43.33000 236.718
43.34000 237.417
43.35000 234.053
43.36000 230.085
43.37000 226.490
43.38000 225.151
43.39000 224.189
43.40000 224.143
43.41000 227.681
43.42000 231.583
43.43000 234.450
43.44000 227.885
43.45000 222.421
43.46000 218.812
43.47000 218.502
43.48000 218.256
43.49000 219.436
43.50000 222.298
43.51000 225.154
43.52000 226.194
43.53000 225.858
43.54000 225.571
43.55000 227.055
43.56000 229.436
43.57000 231.521
43.58000 228.996
43.59000 224.892
43.60000 221.146
43.61000 225.157
43.62000 230.291
43.63000 234.022
43.64000 230.325
43.65000 225.541
43.66000 221.750
43.67000 221.415
43.68000 221.377
43.69000 221.350
43.70000 223.556
43.71000 225.306
43.72000 225.562
43.73000 223.450
43.74000 221.309
43.75000 222.642
43.76000 227.574
43.77000 232.479
43.78000 231.761
43.79000 227.323
43.80000 223.179
43.81000 227.171
43.82000 234.838
43.83000 241.674
43.84000 237.837
43.85000 230.742
43.86000 224.366
43.87000 224.317
43.88000 225.393
43.89000 226.322
43.90000 226.563
43.91000 226.716
43.92000 226.533
43.93000 225.309
43.94000 224.010
43.95000 223.122
43.96000 226.861
43.97000 229.771
43.98000 231.156
43.99000 230.396
44.00000 229.622
44.01000 229.088
44.02000 228.771
44.03000 228.458
44.04000 226.441
44.05000 223.469
44.06000 220.499
44.07000 217.566
44.08000 214.648
44.09000 212.101
44.10000 213.545
44.11000 216.075
44.12000 218.308
44.13000 221.020
44.14000 223.434
44.15000 225.118
44.16000 223.785
44.17000 222.123
44.18000 221.502
44.19000 223.764
44.20000 226.195
44.21000 227.792
44.22000 227.926
44.23000 227.999
44.24000 228.694
44.25000 230.162
44.26000 231.622
44.27000 229.428
44.28000 224.309
44.29000 219.265
44.30000 218.838
44.31000 220.809
44.32000 222.709
44.33000 223.401
44.34000 223.657
44.35000 223.669
44.36000 221.440
44.37000 218.670
44.38000 216.270
44.39000 219.675
44.40000 223.340
44.41000 226.551
44.42000 228.094
44.43000 229.482
44.44000 230.360
44.45000 229.975
44.46000 229.532
44.47000 229.253
44.48000 232.770
44.49000 235.356
44.50000 235.287
44.51000 232.300
44.52000 229.311
44.53000 226.046
44.54000 222.585
44.55000 219.198
44.56000 222.594
44.57000 228.950
44.58000 235.065
44.59000 237.815
44.60000 239.483
44.61000 240.587
44.62000 237.254
44.63000 232.973
44.64000 229.341
44.65000 230.823
44.66000 232.646
44.67000 233.798
44.68000 232.755
44.69000 231.541
44.70000 232.071
44.71000 236.451
44.72000 240.969
44.73000 243.679
44.74000 247.321
44.75000 249.914
44.76000 251.083
44.77000 250.880
44.78000 250.737
44.79000 255.260
44.80000 262.722
44.81000 269.970
44.82000 268.136
44.83000 262.734
44.84000 258.176
44.85000 263.452
44.86000 271.543
44.87000 278.738
44.88000 279.824
44.89000 279.758
44.90000 279.704
44.91000 277.724
44.92000 275.901
44.93000 274.912
44.94000 276.349
44.95000 277.941
44.96000 281.908
44.97000 290.557
44.98000 299.332
44.99000 304.328
45.00000 304.350
45.01000 304.349
45.02000 303.894
45.03000 303.054
45.04000 302.310
45.05000 306.463
45.06000 313.360
45.07000 320.001
45.08000 318.717
45.09000 314.691
45.10000 311.193
45.11000 312.889
45.12000 315.908
45.13000 318.279
45.14000 316.793
45.15000 314.669
45.16000 312.950
45.17000 314.140
45.18000 315.345
45.19000 314.606
45.20000 308.811
45.21000 302.754
45.22000 296.520
45.23000 289.973
45.24000 283.421
45.25000 279.896
45.26000 288.965
45.27000 295.123
45.28000 291.432
45.29000 280.371
45.30000 269.578
45.31000 268.393
45.32000 272.011
45.33000 275.460
45.34000 270.256
45.35000 262.716
45.36000 255.959
45.37000 255.789
45.38000 257.105
45.39000 258.445
45.40000 259.913
45.41000 261.399
45.42000 262.571
45.43000 251.073
45.44000 240.997
45.45000 233.641
45.46000 232.603
45.47000 231.822
45.48000 229.338
45.49000 224.189
45.50000 219.009
45.51000 216.392
45.52000 223.442
45.53000 228.133
45.54000 230.331
45.55000 230.874
45.56000 231.339
45.57000 229.708
45.58000 227.140
45.59000 224.721
45.60000 223.626
45.61000 222.990
45.62000 222.274
45.63000 220.979
45.64000 219.569
45.65000 217.993
45.66000 215.656
45.67000 213.224
45.68000 211.360
45.69000 216.403
45.70000 220.768
45.71000 222.566
45.72000 219.042
45.73000 215.355
45.74000 214.097
45.75000 216.214
45.76000 218.352
45.77000 218.333
45.78000 216.382
45.79000 214.427
45.80000 212.179
45.81000 209.758
45.82000 207.340
45.83000 204.988
45.84000 202.664
45.85000 200.500
45.86000 202.360
45.87000 205.017
45.88000 207.520
45.89000 209.056
45.90000 210.423
45.91000 211.308
45.92000 210.230
45.93000 208.941
45.94000 207.984
45.95000 210.592
45.96000 212.778
45.97000 214.019
45.98000 213.512
45.99000 212.966
46.00000 212.090
46.01000 210.808
46.02000 209.527
46.03000 208.172
46.04000 206.766
46.05000 205.396
46.06000 205.568
46.07000 206.551
46.08000 207.716
46.09000 211.917
46.10000 217.198
46.11000 222.045
46.12000 217.951
46.13000 212.401
46.14000 207.408
46.15000 205.497
46.16000 204.059
46.17000 202.645
46.18000 201.320
46.19000 200.004
46.20000 199.058
46.21000 197.334
46.22000 195.987
46.23000 195.011
46.24000 194.644
46.25000 194.287
46.26000 197.867
46.27000 205.710
46.28000 213.519
46.29000 212.905
46.30000 206.467
46.31000 200.328
46.32000 203.256
46.33000 210.442
46.34000 216.885
46.35000 213.180
46.36000 206.252
46.37000 199.993
46.38000 204.056
46.39000 209.542
46.40000 214.016
46.41000 213.551
46.42000 212.430
46.43000 212.468
46.44000 216.250
46.45000 220.316
46.46000 223.134
46.47000 213.567
46.48000 206.040
46.49000 202.235
46.50000 203.886
46.51000 205.585
46.52000 207.795
46.53000 210.490
46.54000 213.163
46.55000 211.865
46.56000 208.166
46.57000 204.580
46.58000 203.622
46.59000 203.766
46.60000 204.089
46.61000 206.465
46.62000 209.423
46.63000 212.050
46.64000 213.658
46.65000 214.889
46.66000 215.703
46.67000 214.721
46.68000 213.534
46.69000 213.081
46.70000 214.740
46.71000 216.531
46.72000 217.725
46.73000 213.257
46.74000 209.840
46.75000 206.935
46.76000 204.694
46.77000 202.457
46.78000 200.486
46.79000 198.737
46.80000 197.011
46.81000 194.950
46.82000 192.764
46.83000 190.806
46.84000 193.060
46.85000 196.890
46.86000 200.291
46.87000 199.553
46.88000 197.774
46.89000 196.222
46.90000 198.328
46.91000 200.637
46.92000 203.209
46.93000 206.784
46.94000 210.456
46.95000 211.920
46.96000 207.709
46.97000 203.213
46.98000 200.341
46.99000 203.412
47.00000 205.724
47.01000 206.534
47.02000 205.621
47.03000 204.728
47.04000 207.712
47.05000 213.559
47.06000 219.296
47.07000 215.027
47.08000 206.152
47.09000 198.140
47.10000 203.006
47.11000 212.176
47.12000 219.618
47.13000 212.772
47.14000 202.744
47.15000 194.172
47.16000 192.912
47.17000 192.725
47.18000 191.571
47.19000 187.133
47.20000 182.424
47.21000 179.997
47.22000 182.805
47.23000 185.820
47.24000 187.658
47.25000 191.752
47.26000 194.697
47.27000 195.901
47.28000 195.352
47.29000 194.810
47.30000 195.001
47.31000 195.671
47.32000 196.324
47.33000 196.137
47.34000 195.605
47.35000 194.930
47.36000 192.491
47.37000 189.526
47.38000 186.748
47.39000 185.313
47.40000 184.141
47.41000 183.161
47.42000 186.596
47.43000 189.899
47.44000 192.847
47.45000 194.717
47.46000 196.513
47.47000 196.922
47.48000 194.490
47.49000 191.973
47.50000 190.514
47.51000 193.719
47.52000 195.985
47.53000 195.533
47.54000 192.679
47.55000 189.867
47.56000 189.465
47.57000 190.468
47.58000 191.437
47.59000 193.711
47.60000 196.338
47.61000 198.683
47.62000 198.109
47.63000 196.760
47.64000 195.007
47.65000 190.736
47.66000 186.030
47.67000 182.188
47.68000 182.418
47.69000 182.957
47.70000 183.952
47.71000 186.178
47.72000 188.474
47.73000 189.375
47.74000 187.727
47.75000 186.026
47.76000 185.093
47.77000 193.911
47.78000 199.964
47.79000 198.174
47.80000 190.268
47.81000 182.529
47.82000 181.460
47.83000 183.856
47.84000 186.148
47.85000 185.502
47.86000 183.938
47.87000 182.735
47.88000 184.736
47.89000 187.489
47.90000 189.884
47.91000 190.325
47.92000 190.471
47.93000 190.587
47.94000 189.298
47.95000 188.159
47.96000 185.805
47.97000 180.519
47.98000 175.103
47.99000 173.821
48.00000 179.270
48.01000 184.812
48.02000 187.675
48.03000 194.021
48.04000 198.245
48.05000 195.893
48.06000 188.997
48.07000 182.297
48.08000 181.359
48.09000 183.094
48.10000 184.735
48.11000 185.611
48.12000 186.197
48.13000 186.645
48.14000 186.042
48.15000 185.221
48.16000 184.650
48.17000 185.280
48.18000 186.068
48.19000 186.678
48.20000 183.240
48.21000 180.271
48.22000 179.040
48.23000 181.556
48.24000 184.198
48.25000 185.196
48.26000 183.814
48.27000 182.412
48.28000 184.117
48.29000 188.726
48.30000 193.240
48.31000 190.941
48.32000 184.459
48.33000 178.346
48.34000 180.557
48.35000 186.215
48.36000 191.504
48.37000 189.670
48.38000 186.200
48.39000 182.620
48.40000 178.314
48.41000 173.875
48.42000 171.225
48.43000 176.182
48.44000 181.998
48.45000 186.366
48.46000 186.844
48.47000 187.032
48.48000 187.326
48.49000 187.827
48.50000 188.334
48.51000 188.399
48.52000 187.899
48.53000 187.397
48.54000 184.496
48.55000 179.633
48.56000 174.848
48.57000 173.729
48.58000 174.614
48.59000 175.641
48.60000 179.201
48.61000 183.698
48.62000 187.845
48.63000 186.340
48.64000 183.735
48.65000 181.754
48.66000 183.378
48.67000 185.581
48.68000 187.053
48.69000 185.768
48.70000 184.218
48.71000 183.092
48.72000 180.258
48.73000 178.013
48.74000 177.437
48.75000 179.722
48.76000 182.057
48.77000 182.105
48.78000 179.568
48.79000 177.038
48.80000 178.065
48.81000 181.655
48.82000 185.133
48.83000 184.878
48.84000 182.801
48.85000 180.675
48.86000 177.821
48.87000 174.728
48.88000 171.918
48.89000 173.216
48.90000 175.160
48.91000 177.095
48.92000 178.980
48.93000 180.858
48.94000 181.941
48.95000 180.357
48.96000 178.557
48.97000 177.294
48.98000 176.073
48.99000 175.150
49.00000 175.490
49.01000 177.757
49.02000 180.045
49.03000 181.165
49.04000 181.126
49.05000 181.087
49.06000 180.486
49.07000 179.536
49.08000 178.537
49.09000 176.324
49.10000 173.581
49.11000 171.122
49.12000 172.092
49.13000 174.071
49.14000 175.839
49.15000 172.786
49.16000 169.310
49.17000 167.477
49.18000 173.018
49.19000 179.450
49.20000 183.866
49.21000 182.252
49.22000 180.233
49.23000 178.870
49.24000 183.128
49.25000 186.418
49.26000 187.105
49.27000 184.268
49.28000 181.415
49.29000 181.775
49.30000 184.935
49.31000 188.059
49.32000 188.250
49.33000 186.787
49.34000 185.218
49.35000 181.538
49.36000 177.037
49.37000 173.069
49.38000 174.538
49.39000 177.430
49.40000 179.968
49.41000 175.625
49.42000 170.886
49.43000 168.161
49.44000 173.445
49.45000 179.557
49.46000 184.204
49.47000 184.941
49.48000 185.466
49.49000 185.806
49.50000 179.310
49.51000 174.452
49.52000 174.162
49.53000 179.336
49.54000 184.498
49.55000 184.275
49.56000 179.908
49.57000 175.614
49.58000 174.414
49.59000 174.789
49.60000 175.102
49.61000 174.415
49.62000 173.382
49.63000 172.493
49.64000 172.857
49.65000 173.512
49.66000 174.076
49.67000 172.495
49.68000 170.885
49.69000 170.947
49.70000 176.915
49.71000 183.400
49.72000 187.898
49.73000 187.659
49.74000 187.215
49.75000 186.940
49.76000 177.305
49.77000 170.286
49.78000 169.634
49.79000 175.685
49.80000 181.695
49.81000 182.898
49.82000 180.822
49.83000 178.795
49.84000 178.036
49.85000 177.866
49.86000 177.900
49.87000 180.611
49.88000 184.152
49.89000 186.836
49.90000 183.090
49.91000 178.024
49.92000 173.755
49.93000 174.427
49.94000 175.521
49.95000 176.159
49.96000 175.366
49.97000 174.469
49.98000 174.582
49.99000 176.844
50.00000 179.178
50.01000 180.554
50.02000 177.213
50.03000 174.828
50.04000 173.341
50.05000 172.682
50.06000 172.017
50.07000 171.004
50.08000 169.779
50.09000 168.593
50.10000 175.380
50.11000 184.889
50.12000 193.334
50.13000 190.071
50.14000 183.579
50.15000 177.124
50.16000 170.905
50.17000 164.729
50.18000 159.643
50.19000 170.430
50.20000 180.750
50.21000 187.440
50.22000 183.934
50.23000 179.817
50.24000 177.788
50.25000 179.723
50.26000 181.753
50.27000 182.888
50.28000 186.092
50.29000 188.303
50.30000 185.397
50.31000 178.331
50.32000 171.384
50.33000 169.797
50.34000 171.106
50.35000 172.362
50.36000 172.236
50.37000 171.646
50.38000 171.604
50.39000 176.680
50.40000 183.009
50.41000 188.488
50.42000 189.117
50.43000 188.979
50.44000 188.868
50.45000 183.893
50.46000 179.489
50.47000 179.207
50.48000 189.262
50.49000 199.812
50.50000 205.236
50.51000 201.979
50.52000 198.581
50.53000 196.789
50.54000 197.717
50.55000 198.357
50.56000 200.365
50.57000 203.356
50.58000 206.338
50.59000 209.010
50.60000 211.533
50.61000 213.930
50.62000 214.345
50.63000 214.132
50.64000 213.839
50.65000 212.907
50.66000 211.838
50.67000 211.335
50.68000 213.676
50.69000 216.408
50.70000 218.543
50.71000 215.157
50.72000 212.105
50.73000 212.117
50.74000 218.989
50.75000 226.118
50.76000 228.990
50.77000 225.453
50.78000 221.851
50.79000 218.021
50.80000 213.966
50.81000 209.949
50.82000 209.006
50.83000 210.026
50.84000 210.907
50.85000 208.358
50.86000 204.332
50.87000 200.553
50.88000 201.910
50.89000 204.508
50.90000 206.312
50.91000 202.612
50.92000 197.859
50.93000 192.816
50.94000 186.494
50.95000 180.019
50.96000 175.105
50.97000 173.165
50.98000 171.793
50.99000 174.415
51.00000 185.019
51.01000 195.845
51.02000 200.334
51.03000 196.357
51.04000 192.339
51.05000 190.796
51.06000 191.379
51.07000 191.841
51.08000 185.861
51.09000 176.217
51.10000 166.962
51.11000 165.207
51.12000 166.333
51.13000 167.378
51.14000 170.363
51.15000 173.501
51.16000 176.499
51.17000 178.658
51.18000 180.676
51.19000 181.656
51.20000 178.560
51.21000 175.050
51.22000 172.469
51.23000 177.721
51.24000 182.106
51.25000 183.432
51.26000 179.306
51.27000 175.073
51.28000 171.656
51.29000 169.202
51.30000 166.756
51.31000 167.103
51.32000 169.553
51.33000 171.870
51.34000 169.196
51.35000 163.992
51.36000 159.085
51.37000 158.805
51.38000 160.112
51.39000 161.306
51.40000 165.512
51.41000 169.858
51.42000 172.888
51.43000 168.930
51.44000 163.949
51.45000 161.757
51.46000 169.302
51.47000 177.684
51.48000 183.639
51.49000 174.386
51.50000 166.858
51.51000 162.774
51.52000 164.157
51.53000 165.609
51.54000 167.672
51.55000 170.369
51.56000 173.051
51.57000 175.479
51.58000 177.706
51.59000 179.765
51.60000 177.195
51.61000 172.530
51.62000 168.357
51.63000 170.539
51.64000 174.665
51.65000 178.373
51.66000 172.753
51.67000 166.180
51.68000 161.124
51.69000 163.161
51.70000 166.100
51.71000 167.801
51.72000 165.653
51.73000 163.228
51.74000 161.569
51.75000 165.768
51.76000 169.052
51.77000 170.181
51.78000 168.271
51.79000 166.341
51.80000 165.754
51.81000 166.390
51.82000 167.020
51.83000 164.781
51.84000 160.907
51.85000 157.251
51.86000 158.308
51.87000 161.268
51.88000 164.332
51.89000 168.508
51.90000 172.987
51.91000 176.944
51.92000 174.496
51.93000 171.398
51.94000 168.316
51.95000 165.297
51.96000 162.285
51.97000 159.918
51.98000 159.339
51.99000 158.864
52.00000 158.552
52.01000 159.219
52.02000 159.727
52.03000 161.511
52.04000 164.890
52.05000 168.268
52.06000 169.799
52.07000 169.850
52.08000 169.900
52.09000 169.275
52.10000 168.321
52.11000 167.408
52.12000 167.214
52.13000 167.280
52.14000 166.949
52.15000 162.982
52.16000 158.136
52.17000 153.936
52.18000 151.263
52.19000 149.190
52.20000 147.267
52.21000 145.895
52.22000 144.574
52.23000 145.640
52.24000 152.618
52.25000 159.873
52.26000 164.440
52.27000 165.913
52.28000 166.944
52.29000 167.041
52.30000 166.110
52.31000 165.177
52.32000 164.041
52.33000 162.759
52.34000 161.504
52.35000 164.090
52.36000 168.329
52.37000 171.855
52.38000 165.395
52.39000 155.720
52.40000 147.397
52.41000 149.733
52.42000 154.351
52.43000 158.270
52.44000 158.369
52.45000 158.018
52.46000 157.789
52.47000 157.960
52.48000 158.162
52.49000 157.356
52.50000 154.318
52.51000 151.200
52.52000 149.328
52.53000 152.077
52.54000 154.061
52.55000 156.084
52.56000 158.146
52.57000 160.190
52.58000 160.830
52.59000 160.584
52.60000 160.344
52.61000 155.396
52.62000 148.793
52.63000 143.055
52.64000 147.389
52.65000 154.612
52.66000 161.163
52.67000 163.123
52.68000 164.216
52.69000 165.123
52.70000 159.092
52.71000 153.437
52.72000 148.612
52.73000 146.214
52.74000 143.970
52.75000 145.127
52.76000 152.998
52.77000 161.049
52.78000 165.636
52.79000 160.493
52.80000 156.876
52.81000 153.081
52.82000 149.136
52.83000 145.318
52.84000 147.984
52.85000 154.290
52.86000 160.364
52.87000 161.305
52.88000 160.359
52.89000 159.251
52.90000 156.538
52.91000 153.417
52.92000 151.046
52.93000 153.147
52.94000 155.990
52.95000 158.292
52.96000 163.585
52.97000 168.138
52.98000 171.593
52.99000 172.189
53.00000 172.636
53.01000 171.156
53.02000 166.283
53.03000 161.346
53.04000 158.689
53.05000 160.858
53.06000 162.333
53.07000 161.416
53.08000 158.707
53.09000 155.984
53.10000 152.804
53.11000 149.393
53.12000 146.142
53.13000 155.171
53.14000 167.405
53.15000 177.573
53.16000 170.336
53.17000 159.164
53.18000 150.305
53.19000 153.550
53.20000 158.543
53.21000 162.482
53.22000 168.418
53.23000 173.313
53.24000 174.474
53.25000 166.945
53.26000 159.061
53.27000 156.410
53.28000 161.959
53.29000 167.607
53.30000 170.464
53.31000 169.763
53.32000 169.270
53.33000 166.321
53.34000 161.740
53.35000 157.362
53.36000 158.468
53.37000 162.025
53.38000 165.378
53.39000 162.681
53.40000 158.538
53.41000 155.500
53.42000 160.500
53.43000 167.105
53.44000 172.353
53.45000 171.339
53.46000 169.542
53.47000 168.164
53.48000 165.452
53.49000 163.235
53.50000 162.496
53.51000 164.825
53.52000 167.249
53.53000 167.352
53.54000 164.223
53.55000 161.074
53.56000 160.292
53.57000 161.633
53.58000 162.940
53.59000 162.101
53.60000 159.994
53.61000 157.940
53.62000 156.978
53.63000 156.452
53.64000 155.963
53.65000 157.903
53.66000 160.246
53.67000 162.295
53.68000 162.477
53.69000 162.331
53.70000 161.738
53.71000 159.319
53.72000 156.703
53.73000 154.759
53.74000 155.906
53.75000 156.936
53.76000 159.436
53.77000 164.662
53.78000 169.949
53.79000 171.656
53.80000 168.955
53.81000 166.247
53.82000 166.539
53.83000 169.192
53.84000 171.701
53.85000 168.168
53.86000 161.450
53.87000 154.976
53.88000 152.591
53.89000 151.664
53.90000 150.812
53.91000 158.376
53.92000 166.912
53.93000 173.328
53.94000 167.994
53.95000 160.854
53.96000 154.602
53.97000 151.575
53.98000 148.841
53.99000 146.876
54.00000 150.596
54.01000 153.641
54.02000 155.880
54.03000 156.786
54.04000 157.673
54.05000 158.653
54.06000 159.737
54.07000 160.815
54.08000 157.825
54.09000 152.044
54.10000 146.502
54.11000 148.270
54.12000 153.474
54.13000 158.286
54.14000 157.713
54.15000 155.426
54.16000 153.359
54.17000 152.125
54.18000 151.194
54.19000 150.788
54.20000 152.949
54.21000 155.453
54.22000 156.514
54.23000 152.910
54.24000 148.950
54.25000 146.204
54.26000 152.605
54.27000 157.667
54.28000 158.856
54.29000 154.360
54.30000 149.815
54.31000 148.033
54.32000 148.879
54.33000 149.719
54.34000 150.864
54.35000 152.175
54.36000 153.581
54.37000 157.212
54.38000 161.777
54.39000 165.811
54.40000 163.763
54.41000 159.992
54.42000 156.641
54.43000 153.359
54.44000 150.525
54.45000 148.213
54.46000 148.156
54.47000 148.360
54.48000 149.245
54.49000 152.098
54.50000 155.074
54.51000 157.058
54.52000 149.777
54.53000 144.208
54.54000 143.889
54.55000 150.401
54.56000 156.936
54.57000 160.716
54.58000 162.189
54.59000 163.643
54.60000 158.468
54.61000 149.852
54.62000 141.706
54.63000 142.220
54.64000 145.981
54.65000 149.627
54.66000 152.165
54.67000 154.423
54.68000 156.393
54.69000 157.977
54.70000 159.278
54.71000 160.054
54.72000 158.824
54.73000 157.397
54.74000 157.386
54.75000 161.018
54.76000 164.835
54.77000 167.274
54.78000 159.085
54.79000 152.986
54.80000 151.621
54.81000 155.694
54.82000 159.772
54.83000 163.316
54.84000 166.466
54.85000 169.557
54.86000 165.030
54.87000 157.035
54.88000 149.590
54.89000 150.373
54.90000 153.910
54.91000 157.278
54.92000 159.248
54.93000 160.907
54.94000 162.324
54.95000 158.093
54.96000 153.849
54.97000 151.375
54.98000 154.931
54.99000 158.985
55.00000 161.988
55.01000 162.575
55.02000 163.067
55.03000 163.367
55.04000 162.276
55.05000 161.485
55.06000 160.658
55.07000 159.795
55.08000 158.934
55.09000 158.362
55.10000 157.980
55.11000 157.608
55.12000 160.646
55.13000 164.979
55.14000 168.893
55.15000 167.614
55.16000 164.785
55.17000 162.208
55.18000 161.442
55.19000 161.032
55.20000 160.690
55.21000 167.026
55.22000 172.973
55.23000 176.689
55.24000 173.639
55.25000 170.126
55.26000 167.184
55.27000 165.418
55.28000 163.687
55.29000 162.683
55.30000 162.891
55.31000 163.042
55.32000 163.259
55.33000 163.533
55.34000 163.815
55.35000 164.478
55.36000 165.364
55.37000 166.220
55.38000 167.371
55.39000 168.566
55.40000 169.520
55.41000 167.966
55.42000 165.745
55.43000 165.346
55.44000 176.303
55.45000 189.228
55.46000 199.786
55.47000 191.970
55.48000 183.986
55.49000 179.081
55.50000 182.511
55.51000 186.405
55.52000 188.422
55.53000 187.000
55.54000 185.504
55.55000 184.682
55.56000 198.895
55.57000 208.687
55.58000 214.899
55.59000 218.314
55.60000 221.685
55.61000 223.225
55.62000 223.814
55.63000 224.377
55.64000 231.887
55.65000 241.161
55.66000 250.627
55.67000 261.800
55.68000 273.375
55.69000 285.096
55.70000 297.621
55.71000 310.267
55.72000 320.335
55.73000 327.408
55.74000 332.894
55.75000 340.617
55.76000 353.745
55.77000 367.113
55.78000 381.740
55.79000 398.419
55.80000 415.127
55.81000 423.764
55.82000 449.004
55.83000 465.987
55.84000 478.575
55.85000 488.120
55.86000 497.764
55.87000 510.287
55.88000 524.148
55.89000 537.267
55.90000 549.936
55.91000 561.459
55.92000 572.353
55.93000 578.442
55.94000 583.529
55.95000 588.200
55.96000 590.864
55.97000 593.265
55.98000 595.124
55.99000 589.177
56.00000 583.991
56.01000 578.399
56.02000 571.929
56.03000 565.430
56.04000 557.105
56.05000 546.135
56.06000 535.144
56.07000 531.796
56.08000 535.614
56.09000 539.226
56.10000 528.092
56.11000 507.890
56.12000 487.824
56.13000 470.859
56.14000 455.180
56.15000 440.520
56.16000 423.207
56.17000 406.814
56.18000 390.633
56.19000 375.863
56.20000 361.351
56.21000 347.003
56.22000 333.351
56.23000 319.779
56.24000 309.580
56.25000 300.092
56.26000 292.708
56.27000 286.947
56.28000 284.311
56.29000 281.753
56.30000 271.494
56.31000 251.346
56.32000 231.185
56.33000 219.176
56.34000 213.915
56.35000 208.740
56.36000 207.646
56.37000 208.787
56.38000 209.637
56.39000 205.264
56.40000 198.956
56.41000 193.137
56.42000 189.885
56.43000 187.542
56.44000 185.721
56.45000 186.923
56.46000 188.610
56.47000 188.775
56.48000 183.184
56.49000 177.039
56.50000 172.569
56.51000 171.473
56.52000 170.757
56.53000 170.938
56.54000 172.660
56.55000 174.407
56.56000 172.978
56.57000 167.948
56.58000 162.933
56.59000 158.771
56.60000 155.261
56.61000 151.858
56.62000 152.045
56.63000 153.986
56.64000 155.837
56.65000 156.376
56.66000 156.483
56.67000 156.580
56.68000 157.961
56.69000 159.431
56.70000 161.300
56.71000 165.195
56.72000 169.374
56.73000 171.010
56.74000 164.097
56.75000 156.491
56.76000 151.151
56.77000 150.671
56.78000 150.449
56.79000 151.328
56.80000 153.890
56.81000 156.470
56.82000 155.153
56.83000 149.960
56.84000 144.802
56.85000 145.996
56.86000 151.225
56.87000 156.156
56.88000 153.541
56.89000 147.633
56.90000 142.238
56.91000 143.082
56.92000 145.764
56.93000 148.162
56.94000 147.468
56.95000 146.339
56.96000 144.855
56.97000 141.773
56.98000 138.498
56.99000 136.786
57.00000 139.760
57.01000 143.048
57.02000 145.270
57.03000 145.002
57.04000 144.749
57.05000 145.148
57.06000 146.433
57.07000 147.722
57.08000 148.109
57.09000 147.707
57.10000 147.309
57.11000 147.736
57.12000 148.617
57.13000 149.342
57.14000 146.947
57.15000 143.336
57.16000 140.308
57.17000 143.247
57.18000 147.750
57.19000 151.704
57.20000 150.088
57.21000 147.882
57.22000 145.475
57.23000 142.264
57.24000 138.971
57.25000 138.528
57.26000 145.708
57.27000 153.304
57.28000 158.230
57.29000 149.800
57.30000 143.428
57.31000 139.988
57.32000 140.063
57.33000 140.158
57.34000 143.579
57.35000 149.565
57.36000 155.450
57.37000 152.886
57.38000 146.203
57.39000 139.714
57.40000 136.312
57.41000 133.984
57.42000 132.431
57.43000 137.639
57.44000 144.419
57.45000 150.256
57.46000 152.269
57.47000 153.491
57.48000 154.296
57.49000 153.622
57.50000 152.818
57.51000 151.478
57.52000 148.855
57.53000 146.176
57.54000 144.515
57.55000 145.954
57.56000 147.020
57.57000 147.138
57.58000 146.259
57.59000 145.369
57.60000 143.384
57.61000 140.651
57.62000 137.981
57.63000 137.256
57.64000 137.415
57.65000 137.668
57.66000 139.159
57.67000 141.035
57.68000 142.795
57.69000 143.689
57.70000 144.405
57.71000 145.009
57.72000 144.128
57.73000 143.233
57.74000 143.232
57.75000 146.051
57.76000 149.076
57.77000 148.577
57.78000 140.562
57.79000 132.299
57.80000 127.420
57.81000 133.095
57.82000 137.161
57.83000 142.286
57.84000 148.391
57.85000 154.383
57.86000 152.726
57.87000 146.425
57.88000 140.320
57.89000 137.775
57.90000 136.749
57.91000 135.760
57.92000 135.193
57.93000 134.741
57.94000 134.959
57.95000 139.554
57.96000 144.941
57.97000 149.378
57.98000 149.480
57.99000 149.166
58.00000 148.360
58.01000 146.170
58.02000 143.897
58.03000 142.004
58.04000 140.833
58.05000 139.681
58.06000 139.035
58.07000 145.447
58.08000 149.900
58.09000 152.074
58.10000 152.391
58.11000 152.644
58.12000 150.017
58.13000 145.832
58.14000 141.815
58.15000 136.809
58.16000 131.789
58.17000 127.145
58.18000 126.018
58.19000 125.754
58.20000 126.156
58.21000 130.357
58.22000 135.161
58.23000 139.020
58.24000 139.780
58.25000 140.158
58.26000 140.144
58.27000 139.146
58.28000 138.102
58.29000 138.458
58.30000 141.193
58.31000 143.967
58.32000 145.432
58.33000 139.772
58.34000 135.941
58.35000 134.571
58.36000 134.974
58.37000 135.445
58.38000 138.140
58.39000 141.907
58.40000 145.487
58.41000 144.175
58.42000 141.489
58.43000 139.009
58.44000 138.187
58.45000 137.726
58.46000 136.877
58.47000 134.082
58.48000 131.019
58.49000 128.624
58.50000 134.003
58.51000 138.789
58.52000 140.397
58.53000 134.876
58.54000 129.087
58.55000 127.263
58.56000 131.421
58.57000 135.640
58.58000 136.690
58.59000 134.635
58.60000 132.597
58.61000 132.105
58.62000 132.601
58.63000 133.174
58.64000 135.665
58.65000 138.983
58.66000 142.098
58.67000 140.557
58.68000 137.916
58.69000 135.869
58.70000 137.956
58.71000 140.836
58.72000 142.061
58.73000 135.949
58.74000 128.962
58.75000 123.657
58.76000 126.456
58.77000 129.075
58.78000 132.801
58.79000 138.742
58.80000 144.746
58.81000 146.169
58.82000 141.462
58.83000 136.727
58.84000 135.701
58.85000 137.866
58.86000 140.004
58.87000 140.665
58.88000 140.486
58.89000 140.239
58.90000 138.672
58.91000 136.597
58.92000 134.674
58.93000 134.454
58.94000 134.651
58.95000 135.071
58.96000 136.834
58.97000 138.823
58.98000 140.476
58.99000 140.809
59.00000 141.008
59.01000 141.155
59.02000 143.207
59.03000 144.874
59.04000 147.445
59.05000 151.628
59.06000 155.843
59.07000 154.927
59.08000 147.941
59.09000 140.963
59.10000 135.553
59.11000 131.363
59.12000 127.324
59.13000 128.921
59.14000 133.381
59.15000 137.788
59.16000 141.359
59.17000 144.643
59.18000 147.643
59.19000 142.287
59.20000 135.829
59.21000 130.789
59.22000 133.291
59.23000 136.902
59.24000 139.342
59.25000 137.693
59.26000 135.691
59.27000 134.268
59.28000 127.663
59.29000 122.468
59.30000 120.753
59.31000 124.574
59.32000 128.465
59.33000 130.852
59.34000 131.677
59.35000 132.497
59.36000 135.536
59.37000 140.015
59.38000 144.325
59.39000 143.962
59.40000 141.479
59.41000 139.122
59.42000 138.385
59.43000 138.145
59.44000 137.928
59.45000 137.141
59.46000 136.350
59.47000 135.430
59.48000 133.907
59.49000 132.307
59.50000 131.232
59.51000 131.793
59.52000 132.471
59.53000 132.935
59.54000 132.140
59.55000 131.515
59.56000 132.806
59.57000 136.806
59.58000 140.823
59.59000 140.198
59.60000 135.341
59.61000 130.530
59.62000 129.834
59.63000 131.570
59.64000 133.215
59.65000 132.907
59.66000 131.808
59.67000 130.711
59.68000 129.642
59.69000 128.580
59.70000 127.641
59.71000 131.861
59.72000 136.299
59.73000 139.018
59.74000 134.601
59.75000 129.404
59.76000 125.627
59.77000 125.799
59.78000 126.202
59.79000 126.467
59.80000 132.710
59.81000 137.410
59.82000 139.481
59.83000 138.265
59.84000 137.038
59.85000 135.319
59.86000 133.204
59.87000 131.120
59.88000 129.314
59.89000 127.706
59.90000 126.336
59.91000 129.079
59.92000 133.308
59.93000 136.901
59.94000 134.643
59.95000 130.967
59.96000 127.781
59.97000 129.818
59.98000 132.247
59.99000 134.781
60.00000 137.700
60.01000 140.655
60.02000 142.884
60.03000 143.310
60.04000 143.651
60.05000 143.866
60.06000 142.160
60.07000 140.904
60.08000 138.001
60.09000 133.283
60.10000 128.592
60.11000 127.971
60.12000 130.245
60.13000 132.471
60.14000 132.451
60.15000 131.403
60.16000 130.556
60.17000 132.527
60.18000 135.406
60.19000 137.629
60.20000 134.663
60.21000 130.585
60.22000 127.122
60.23000 131.192
60.24000 135.466
60.25000 138.728
60.26000 138.675
60.27000 138.363
60.28000 137.514
60.29000 135.474
60.30000 133.391
60.31000 132.140
60.32000 136.569
60.33000 139.754
60.34000 137.976
60.35000 131.399
60.36000 124.898
60.37000 124.460
60.38000 127.852
60.39000 131.148
60.40000 133.635
60.41000 135.671
60.42000 137.459
60.43000 136.342
60.44000 134.389
60.45000 132.299
60.46000 129.258
60.47000 126.038
60.48000 123.364
60.49000 132.716
60.50000 141.613
60.51000 147.122
60.52000 142.728
60.53000 137.695
60.54000 132.187
60.55000 125.739
60.56000 119.265
60.57000 115.573
60.58000 120.135
60.59000 123.343
60.60000 125.389
60.61000 126.449
60.62000 127.487
60.63000 127.424
60.64000 126.741
60.65000 126.084
60.66000 130.394
60.67000 136.216
60.68000 141.360
60.69000 139.802
60.70000 136.534
60.71000 133.788
60.72000 134.165
60.73000 135.060
60.74000 135.785
60.75000 138.126
60.76000 140.164
60.77000 140.157
60.78000 134.811
60.79000 129.187
60.80000 128.352
60.81000 135.965
60.82000 143.737
60.83000 147.925
60.84000 149.768
60.85000 150.999
60.86000 146.625
60.87000 138.043
60.88000 129.651
60.89000 128.155
60.90000 130.119
60.91000 131.991
60.92000 132.789
60.93000 133.190
60.94000 133.403
60.95000 132.033
60.96000 130.305
60.97000 130.127
60.98000 138.078
60.99000 147.205
61.00000 154.409
61.01000 151.128
61.02000 147.784
61.03000 143.535
61.04000 137.173
61.05000 130.725
61.06000 128.302
61.07000 132.200
61.08000 136.174
61.09000 138.186
61.10000 141.520
61.11000 143.706
61.12000 141.189
61.13000 135.541
61.14000 130.178
61.15000 132.508
61.16000 138.283
61.17000 143.727
61.18000 143.174
61.19000 141.006
61.20000 139.073
61.21000 138.855
61.22000 138.981
61.23000 139.355
61.24000 140.882
61.25000 142.554
61.26000 143.836
61.27000 140.714
61.28000 138.002
61.29000 134.971
61.30000 131.274
61.31000 127.556
61.32000 127.478
61.33000 132.477
61.34000 137.507
61.35000 141.333
61.36000 144.074
61.37000 146.786
61.38000 147.793
61.39000 147.788
61.40000 147.575
61.41000 142.992
61.42000 136.660
61.43000 130.766
61.44000 135.101
61.45000 141.509
61.46000 147.139
61.47000 147.825
61.48000 147.640
61.49000 146.787
61.50000 143.196
61.51000 139.310
61.52000 136.420
61.53000 145.407
61.54000 152.927
61.55000 163.250
61.56000 178.779
61.57000 194.424
61.58000 205.451
61.59000 210.783
61.60000 216.090
61.61000 220.129
61.62000 223.150
61.63000 226.218
61.64000 231.287
61.65000 237.411
61.66000 243.223
61.67000 243.776
61.68000 242.452
61.69000 241.236
61.70000 243.816
61.71000 246.926
61.72000 249.695
61.73000 250.570
61.74000 251.154
61.75000 250.006
61.76000 242.561
61.77000 234.541
61.78000 228.771
61.79000 218.758
61.80000 210.944
61.81000 202.952
61.82000 194.668
61.83000 186.380
61.84000 180.822
61.85000 178.232
61.86000 175.654
61.87000 170.367
61.88000 163.251
61.89000 156.204
61.90000 151.235
61.91000 147.245
61.92000 143.508
61.93000 143.258
61.94000 144.118
61.95000 144.895
61.96000 142.006
61.97000 138.782
61.98000 136.208
61.99000 136.816
62.00000 137.850
62.01000 139.713
62.02000 144.260
62.03000 149.013
62.04000 152.310
62.05000 148.105
62.06000 144.739
62.07000 142.344
62.08000 141.377
62.09000 140.423
62.10000 139.517
62.11000 138.657
62.12000 137.803
62.13000 138.040
62.14000 138.942
62.15000 139.786
62.16000 139.276
62.17000 138.196
62.18000 137.231
62.19000 137.599
62.20000 138.344
62.21000 139.007
62.22000 137.568
62.23000 135.979
62.24000 135.192
62.25000 137.869
62.26000 140.945
62.27000 142.860
62.28000 141.421
62.29000 139.772
62.30000 138.671
62.31000 143.887
62.32000 147.873
62.33000 148.671
62.34000 145.313
62.35000 141.941
62.36000 139.937
62.37000 139.079
62.38000 138.232
62.39000 139.582
62.40000 142.084
62.41000 144.389
62.42000 143.051
62.43000 140.343
62.44000 137.703
62.45000 135.726
62.46000 133.915
62.47000 132.335
62.48000 134.209
62.49000 136.295
62.50000 138.591
62.51000 141.692
62.52000 144.873
62.53000 147.395
62.54000 148.221
62.55000 148.961
62.56000 149.434
62.57000 147.698
62.58000 146.404
62.59000 145.139
62.60000 143.905
62.61000 142.671
62.62000 141.414
62.63000 140.141
62.64000 138.891
62.65000 140.466
62.66000 143.334
62.67000 146.004
62.68000 145.718
62.69000 144.441
62.70000 143.619
62.71000 146.583
62.72000 150.393
62.73000 153.651
62.74000 154.608
62.75000 155.138
62.76000 154.779
62.77000 151.384
62.78000 147.738
62.79000 144.121
62.80000 140.572
62.81000 137.026
62.82000 134.861
62.83000 140.959
62.84000 145.387
62.85000 145.543
62.86000 141.378
62.87000 137.264
62.88000 137.901
62.89000 141.662
62.90000 145.326
62.91000 145.208
62.92000 143.501
62.93000 141.932
62.94000 142.086
62.95000 142.756
62.96000 143.440
62.97000 144.222
62.98000 145.025
62.99000 145.696
63.00000 142.586
63.01000 139.614
63.02000 137.784
63.03000 139.423
63.04000 141.301
63.05000 143.285
63.06000 145.488
63.07000 147.697
63.08000 148.980
63.09000 147.279
63.10000 146.073
63.11000 145.621
63.12000 145.838
63.13000 146.005
63.14000 143.179
63.15000 138.601
63.16000 134.179
63.17000 135.226
63.18000 138.250
63.19000 141.113
63.20000 142.297
63.21000 143.035
63.22000 143.817
63.23000 144.880
63.24000 145.993
63.25000 146.902
63.26000 149.024
63.27000 150.866
63.28000 151.549
63.29000 149.089
63.30000 146.451
63.31000 143.954
63.32000 141.712
63.33000 139.476
63.34000 138.247
63.35000 143.186
63.36000 146.590
63.37000 147.902
63.38000 147.577
63.39000 147.285
63.40000 148.293
63.41000 149.979
63.42000 151.591
63.43000 149.331
63.44000 145.953
63.45000 142.882
63.46000 142.547
63.47000 142.857
63.48000 143.527
63.49000 146.169
63.50000 149.110
63.51000 151.453
63.52000 147.134
63.53000 143.169
63.54000 142.061
63.55000 147.869
63.56000 153.985
63.57000 155.479
63.58000 149.421
63.59000 143.257
63.60000 140.067
63.61000 140.472
63.62000 140.765
63.63000 143.283
63.64000 147.344
63.65000 151.335
63.66000 153.254
63.67000 154.208
63.68000 155.112
63.69000 154.334
63.70000 153.131
63.71000 152.149
63.72000 152.858
63.73000 153.921
63.74000 154.167
63.75000 150.478
63.76000 146.271
63.77000 143.012
63.78000 147.116
63.79000 150.814
63.80000 152.506
63.81000 149.858
63.82000 147.062
63.83000 146.088
63.84000 147.759
63.85000 149.452
63.86000 152.619
63.87000 157.170
63.88000 161.670
63.89000 162.515
63.90000 161.108
63.91000 159.577
63.92000 155.219
63.93000 149.687
63.94000 144.513
63.95000 147.275
63.96000 151.802
63.97000 155.191
63.98000 151.023
63.99000 145.465
64.00000 141.232
64.01000 142.650
64.02000 144.709
64.03000 146.257
64.04000 148.697
64.05000 150.648
64.06000 152.478
64.07000 154.073
64.08000 155.663
64.09000 156.791
64.10000 157.326
64.11000 157.858
64.12000 156.838
64.13000 154.544
64.14000 152.334
64.15000 154.148
64.16000 158.169
64.17000 162.102
64.18000 164.444
64.19000 166.196
64.20000 167.812
64.21000 167.011
64.22000 165.753
64.23000 164.381
64.24000 162.343
64.25000 160.197
64.26000 159.324
64.27000 163.269
64.28000 167.679
64.29000 170.888
64.30000 164.619
64.31000 159.432
64.32000 157.512
64.33000 161.209
64.34000 165.004
64.35000 164.224
64.36000 158.251
64.37000 152.294
64.38000 153.072
64.39000 158.729
64.40000 164.245
64.41000 164.992
64.42000 163.405
64.43000 161.915
64.44000 161.857
64.45000 162.274
64.46000 162.652
64.47000 162.718
64.48000 162.715
64.49000 163.115
64.50000 165.575
64.51000 168.324
64.52000 169.977
64.53000 167.939
64.54000 165.600
64.55000 163.957
64.56000 167.883
64.57000 171.018
64.58000 172.613
64.59000 171.848
64.60000 171.058
64.61000 169.857
64.62000 168.248
64.63000 166.649
64.64000 166.764
64.65000 167.975
64.66000 169.099
64.67000 168.030
64.68000 166.004
64.69000 164.318
64.70000 166.783
64.71000 170.471
64.72000 173.770
64.73000 169.951
64.74000 165.413
64.75000 162.366
64.76000 166.031
64.77000 170.511
64.78000 173.725
64.79000 173.138
64.80000 172.294
64.81000 171.724
64.82000 174.239
64.83000 176.180
64.84000 178.055
64.85000 179.840
64.86000 181.622
64.87000 181.339
64.88000 179.248
64.89000 177.181
64.90000 176.501
64.91000 176.621
64.92000 176.706
64.93000 176.100
64.94000 175.225
64.95000 174.736
64.96000 178.207
64.97000 182.718
64.98000 186.681
64.99000 182.700
65.00000 178.110
65.01000 175.265
65.02000 179.385
65.03000 184.228
65.04000 188.539
65.05000 191.424
65.06000 194.232
65.07000 196.054
65.08000 196.126
65.09000 196.153
65.10000 194.878
65.11000 192.040
65.12000 189.206
65.13000 188.104
65.14000 188.340
65.15000 188.573
65.16000 194.927
65.17000 204.124
65.18000 212.887
65.19000 214.683
65.20000 214.051
65.21000 213.317
65.22000 211.682
65.23000 209.837
65.24000 208.248
65.25000 211.646
65.26000 215.157
65.27000 218.596
65.28000 221.782
65.29000 224.945
65.30000 227.020
65.31000 226.489
65.32000 225.845
65.33000 225.445
65.34000 239.608
65.35000 249.940
65.36000 256.902
65.37000 260.301
65.38000 263.717
65.39000 269.159
65.40000 275.989
65.41000 282.660
65.42000 279.519
65.43000 272.194
65.44000 265.411
65.45000 265.780
65.46000 268.371
65.47000 270.827
65.48000 272.254
65.49000 273.470
65.50000 274.496
65.51000 292.033
65.52000 308.464
65.53000 320.642
65.54000 319.382
65.55000 317.135
65.56000 317.422
65.57000 323.119
65.58000 328.996
65.59000 332.469
65.60000 331.432
65.61000 330.677
65.62000 334.897
65.63000 343.726
65.64000 352.604
65.65000 364.764
65.66000 378.921
65.67000 392.639
65.68000 408.006
65.69000 423.194
65.70000 438.521
65.71000 455.389
65.72000 472.682
65.73000 492.723
65.74000 530.744
65.75000 572.025
65.76000 606.039
65.77000 666.496
65.78000 718.668
65.79000 767.038
65.80000 804.699
65.81000 841.714
65.82000 872.639
65.83000 891.953
65.84000 910.986
65.85000 921.648
65.86000 909.217
65.87000 900.571
65.88000 902.281
65.89000 912.441
65.90000 922.302
65.91000 918.487
65.92000 907.262
65.93000 896.483
65.94000 866.268
65.95000 831.340
65.96000 795.031
65.97000 745.767
65.98000 693.320
65.99000 641.566
66.00000 593.782
66.01000 546.629
66.02000 508.737
66.03000 463.856
66.04000 426.939
66.05000 391.723
66.06000 360.789
66.07000 330.061
66.08000 310.627
66.09000 310.384
66.10000 310.458
66.11000 310.497
66.12000 297.225
66.13000 288.232
66.14000 283.710
66.15000 282.415
66.16000 281.182
66.17000 281.959
66.18000 283.708
66.19000 285.370
66.20000 286.835
66.21000 288.127
66.22000 289.277
66.23000 289.276
66.24000 289.024
66.25000 289.250
66.26000 291.874
66.27000 294.831
66.28000 297.143
66.29000 305.288
66.30000 312.162
66.31000 321.206
66.32000 335.125
66.33000 349.226
66.34000 360.266
66.35000 366.678
66.36000 373.044
66.37000 376.497
66.38000 377.089
66.39000 377.712
66.40000 380.918
66.41000 385.779
66.42000 390.697
66.43000 397.003
66.44000 403.910
66.45000 410.396
66.46000 402.071
66.47000 390.539
66.48000 380.557
66.49000 381.362
66.50000 384.239
66.51000 385.311
66.52000 378.360
66.53000 370.452
66.54000 364.445
66.55000 353.582
66.56000 344.791
66.57000 337.811
66.58000 334.462
66.59000 331.216
66.60000 324.269
66.61000 312.363
66.62000 300.439
66.63000 295.663
66.64000 297.053
66.65000 298.390
66.66000 296.883
66.67000 293.754
66.68000 290.777
66.69000 290.768
66.70000 291.903
66.71000 292.956
66.72000 296.914
66.73000 301.155
66.74000 303.347
66.75000 293.106
66.76000 280.768
66.77000 272.726
66.78000 281.609
66.79000 292.222
66.80000 300.033
66.81000 307.865
66.82000 313.927
66.83000 315.213
66.84000 307.954
66.85000 300.525
66.86000 300.664
66.87000 309.771
66.88000 318.870
66.89000 322.113
66.90000 320.900
66.91000 319.708
66.92000 319.301
66.93000 319.292
66.94000 319.276
66.95000 319.137
66.96000 318.955
66.97000 318.789
66.98000 324.293
66.99000 330.338
67.00000 336.198
67.01000 341.068
67.02000 345.792
67.03000 348.147
67.04000 342.209
67.05000 335.555
67.06000 330.822
67.07000 333.440
67.08000 335.669
67.09000 335.398
67.10000 331.145
67.11000 326.841
67.12000 325.609
67.13000 327.579
67.14000 329.538
67.15000 332.519
67.16000 336.143
67.17000 339.726
67.18000 342.146
67.19000 344.038
67.20000 345.818
67.21000 346.146
67.22000 346.029
67.23000 345.924
67.24000 344.425
67.25000 342.864
67.26000 342.903
67.27000 350.458
67.28000 358.972
67.29000 365.030
67.30000 363.423
67.31000 361.264
67.32000 359.785
67.33000 368.331
67.34000 374.974
67.35000 376.046
67.36000 369.237
67.37000 362.376
67.38000 367.142
67.39000 382.533
67.40000 397.777
67.41000 399.687
67.42000 393.711
67.43000 387.765
67.44000 382.460
67.45000 377.414
67.46000 372.797
67.47000 372.847
67.48000 374.172
67.49000 375.343
67.50000 376.266
67.51000 377.026
67.52000 378.923
67.53000 385.549
67.54000 392.693
67.55000 398.367
67.56000 399.948
67.57000 401.287
67.58000 402.169
67.59000 403.059
67.60000 403.714
67.61000 402.485
67.62000 398.895
67.63000 395.313
67.64000 397.160
67.65000 403.376
67.66000 409.502
67.67000 415.881
67.68000 422.204
67.69000 428.409
67.70000 432.562
67.71000 435.972
67.72000 439.028
67.73000 438.810
67.74000 437.798
67.75000 436.921
67.76000 440.541
67.77000 444.223
67.78000 447.200
67.79000 447.579
67.80000 447.716
67.81000 449.372
67.82000 454.801
67.83000 460.408
67.84000 463.941
67.85000 463.114
67.86000 462.465
67.87000 464.554
67.88000 469.665
67.89000 474.776
67.90000 479.592
67.91000 484.198
67.92000 488.708
67.93000 488.258
67.94000 485.550
67.95000 482.878
67.96000 480.710
67.97000 478.705
67.98000 478.245
67.99000 490.019
68.00000 504.421
68.01000 516.654
68.02000 508.053
68.03000 498.454
68.04000 491.093
68.05000 491.082
68.06000 491.645
68.07000 492.979
68.08000 496.025
68.09000 499.133
68.10000 501.002
68.11000 506.581
68.12000 510.574
68.13000 517.855
68.14000 528.322
68.15000 538.750
68.16000 546.040
68.17000 551.344
68.18000 556.497
68.19000 555.790
68.20000 552.743
68.21000 550.293
68.22000 554.847
68.23000 561.416
68.24000 566.963
68.25000 565.496
68.26000 562.702
68.27000 560.380
68.28000 569.630
68.29000 578.402
68.30000 584.813
68.31000 584.309
68.32000 583.359
68.33000 585.971
68.34000 595.642
68.35000 605.504
68.36000 611.133
68.37000 616.019
68.38000 619.429
68.39000 625.035
68.40000 632.513
68.41000 639.969
68.42000 646.330
68.43000 652.073
68.44000 657.606
68.45000 660.842
68.46000 663.061
68.47000 665.629
68.48000 671.655
68.49000 678.566
68.50000 686.753
68.51000 702.576
68.52000 719.667
68.53000 733.521
68.54000 753.351
68.55000 769.996
68.56000 787.526
68.57000 807.371
68.58000 827.337
68.59000 846.849
68.60000 865.557
68.61000 884.250
68.62000 894.331
68.63000 926.136
68.64000 947.993
68.65000 986.563
68.66000 1037.704
68.67000 1088.581
68.68000 1129.879
68.69000 1166.363
68.70000 1201.157
68.71000 1238.555
68.72000 1274.076
68.73000 1312.018
68.74000 1370.461
68.75000 1433.555
68.76000 1493.453
68.77000 1536.556
68.78000 1577.223
68.79000 1609.332
68.80000 1646.437
68.81000 1676.554
68.82000 1720.085
68.83000 1794.930
68.84000 1871.062
68.85000 1959.727
68.86000 2068.105
68.87000 2176.725
68.88000 2231.769
68.89000 2463.041
68.90000 2619.792
68.91000 2967.705
68.92000 3443.136
68.93000 3941.111
68.94000 5050.340
68.95000 6433.779
68.96000 7738.356
68.97000 10480.246
68.98000 13391.278
68.99000 16428.035
69.00000 20383.193
69.01000 24522.463
69.02000 28611.025
69.03000 32464.660
69.04000 36288.789
69.05000 39223.340
69.06000 42071.965
69.07000 44318.309
69.08000 46023.832
69.09000 46602.082
69.10000 47145.207
69.11000 47519.223
69.12000 47657.051
69.13000 47793.246
69.14000 48109.402
69.15000 48587.254
69.16000 49065.145
69.17000 49545.355
69.18000 50026.945
69.19000 50466.578
69.20000 50023.195
69.21000 49226.043
69.22000 48483.742
69.23000 46175.922
69.24000 43707.277
69.25000 41237.875
69.26000 38763.680
69.27000 36288.637
69.28000 33906.770
69.29000 31907.154
69.30000 29948.746
69.31000 28491.502
69.32000 27077.467
69.33000 25979.295
69.34000 25089.113
69.35000 24585.760
69.36000 24091.102
69.37000 23518.916
69.38000 22850.898
69.39000 22183.818
69.40000 20969.564
69.41000 19328.197
69.42000 17679.801
69.43000 15734.500
69.44000 13632.212
69.45000 11549.160
69.46000 9790.119
69.47000 8146.979
69.48000 6638.120
69.49000 5438.027
69.50000 4433.326
69.51000 3500.167
69.52000 2965.067
69.53000 2491.370
69.54000 2078.914
69.55000 1889.593
69.56000 1720.696
69.57000 1599.141
69.58000 1506.825
69.59000 1437.167
69.60000 1371.158
69.61000 1311.196
69.62000 1251.325
69.63000 1200.054
69.64000 1158.149
69.65000 1116.430
69.66000 1079.359
69.67000 1045.908
69.68000 1012.575
69.69000 982.884
69.70000 954.910
69.71000 927.467
69.72000 907.337
69.73000 889.541
69.74000 873.449
69.75000 867.702
69.76000 864.574
69.77000 858.340
69.78000 836.893
69.79000 813.406
69.80000 791.853
69.81000 776.575
69.82000 761.779
69.83000 751.507
69.84000 741.796
69.85000 734.496
69.86000 726.409
69.87000 717.162
69.88000 707.904
69.89000 697.310
69.90000 685.439
69.91000 673.664
69.92000 674.111
69.93000 682.055
69.94000 689.472
69.95000 684.525
69.96000 674.369
69.97000 664.221
69.98000 654.158
69.99000 644.120
70.00000 635.195
