20.00000 591.737
20.01000 581.527
20.02000 569.859
20.03000 560.035
20.04000 557.399
20.05000 555.486
20.06000 554.083
20.07000 570.515
20.08000 583.935
20.09000 586.797
20.10000 570.962
20.11000 554.769
20.12000 547.272
20.13000 549.964
20.14000 552.665
20.15000 558.582
20.16000 566.866
20.17000 574.983
20.18000 576.971
20.19000 575.871
20.20000 574.597
20.21000 570.617
20.22000 565.715
20.23000 561.242
20.24000 563.362
20.25000 566.573
20.26000 570.810
20.27000 580.458
20.28000 590.892
20.29000 594.197
20.30000 572.792
20.31000 549.286
20.32000 532.621
20.33000 535.184
20.34000 537.737
20.35000 545.175
20.36000 560.316
20.37000 575.552
20.38000 580.477
20.39000 574.784
20.40000 569.123
20.41000 571.394
20.42000 578.867
20.43000 586.223
20.44000 590.378
20.45000 593.096
20.46000 594.931
20.47000 585.532
20.48000 572.720
20.49000 561.215
20.50000 560.238
20.51000 561.234
20.52000 562.007
20.53000 561.750
20.54000 561.363
20.55000 561.843
20.56000 565.000
20.57000 568.348
20.58000 570.634
20.59000 573.024
20.60000 574.814
20.61000 575.520
20.62000 574.710
20.63000 573.888
20.64000 570.919
20.65000 566.009
20.66000 561.148
20.67000 565.386
20.68000 574.830
20.69000 583.518
20.70000 576.222
20.71000 562.508
20.72000 550.108
20.73000 551.753
20.74000 557.195
20.75000 561.997
20.76000 566.206
20.77000 569.747
20.78000 571.974
20.79000 568.801
20.80000 565.044
20.81000 564.224
20.82000 571.496
20.83000 579.237
20.84000 584.314
20.85000 580.673
20.86000 577.850
20.87000 572.676
20.88000 564.589
20.89000 556.515
20.90000 554.875
20.91000 558.359
20.92000 561.791
20.93000 563.095
20.94000 563.266
20.95000 563.256
20.96000 560.179
20.97000 556.001
20.98000 552.645
20.99000 556.753
21.00000 562.652
21.01000 567.759
21.02000 563.363
21.03000 558.376
21.04000 554.069
21.05000 552.251
21.06000 550.660
21.07000 553.703
21.08000 568.146
21.09000 583.114
21.10000 592.509
21.11000 573.091
21.12000 558.741
21.13000 550.624
21.14000 549.313
21.15000 548.043
21.16000 551.918
21.17000 559.421
21.18000 566.763
21.19000 564.340
21.20000 557.582
21.21000 551.307
21.22000 551.713
21.23000 554.254
21.24000 556.581
21.25000 557.228
21.26000 557.517
21.27000 557.763
21.28000 562.962
21.29000 567.878
21.30000 571.750
21.31000 572.232
21.32000 572.453
21.33000 573.336
21.34000 575.675
21.35000 578.066
21.36000 579.497
21.37000 565.787
21.38000 555.959
21.39000 550.147
21.40000 548.179
21.41000 546.260
21.42000 548.155
21.43000 552.438
21.44000 556.597
21.45000 561.414
21.46000 566.250
21.47000 570.729
21.48000 571.090
21.49000 570.278
21.50000 569.415
21.51000 568.206
21.52000 566.932
21.53000 565.877
21.54000 557.908
21.55000 550.665
21.56000 546.090
21.57000 549.250
21.58000 552.901
21.59000 559.225
21.60000 570.789
21.61000 582.492
21.62000 589.139
21.63000 576.103
21.64000 566.981
21.65000 567.179
21.66000 575.225
21.67000 583.203
21.68000 587.775
21.69000 590.446
21.70000 593.017
21.71000 607.000
21.72000 624.158
21.73000 640.618
21.74000 650.277
21.75000 658.213
21.76000 665.529
21.77000 669.176
21.78000 672.220
21.79000 674.682
21.80000 683.990
21.81000 692.115
21.82000 704.401
21.83000 727.454
21.84000 751.058
21.85000 767.624
21.86000 771.881
21.87000 775.912
21.88000 778.075
21.89000 815.287
21.90000 840.657
21.91000 853.362
21.92000 856.641
21.93000 859.784
21.94000 858.079
21.95000 853.962
21.96000 850.039
21.97000 861.915
21.98000 877.850
21.99000 892.182
22.00000 893.134
22.01000 891.083
22.02000 887.975
22.03000 879.379
22.04000 869.997
22.05000 862.607
22.06000 854.023
22.07000 847.064
22.08000 839.547
22.09000 830.742
22.10000 821.885
22.11000 811.842
22.12000 799.951
22.13000 788.040
22.14000 782.038
22.15000 744.635
22.16000 719.711
22.17000 702.070
22.18000 689.237
22.19000 676.371
22.20000 662.614
22.21000 648.461
22.22000 635.128
22.23000 633.677
22.24000 635.610
22.25000 635.252
22.26000 618.357
22.27000 598.184
22.28000 582.919
22.29000 590.150
22.30000 600.169
22.31000 607.838
22.32000 591.899
22.33000 578.030
22.34000 567.276
22.35000 562.951
22.36000 558.820
22.37000 556.785
22.38000 557.646
22.39000 558.524
22.40000 558.689
22.41000 558.219
22.42000 557.676
22.43000 552.829
22.44000 545.455
22.45000 538.384
22.46000 537.574
22.47000 539.246
22.48000 540.801
22.49000 546.099
22.50000 551.786
22.51000 555.273
22.52000 544.946
22.53000 532.212
22.54000 522.737
22.55000 526.492
22.56000 531.654
22.57000 535.484
22.58000 536.139
22.59000 536.509
22.60000 537.189
22.61000 538.439
22.62000 539.701
22.63000 541.655
22.64000 544.455
22.65000 547.251
22.66000 546.635
22.67000 543.355
22.68000 540.101
22.69000 537.950
22.70000 536.375
22.71000 534.688
22.72000 531.147
22.73000 526.948
22.74000 523.098
22.75000 525.449
22.76000 528.854
22.77000 531.660
22.78000 531.178
22.79000 530.194
22.80000 531.018
22.81000 538.359
22.82000 546.288
22.83000 551.977
22.84000 535.043
22.85000 521.320
22.86000 513.596
22.87000 515.714
22.88000 517.974
22.89000 525.327
22.90000 538.164
22.91000 550.944
22.92000 552.583
22.93000 546.535
22.94000 540.375
22.95000 530.859
22.96000 519.775
22.97000 510.056
22.98000 518.863
22.99000 533.522
23.00000 546.758
23.01000 541.537
23.02000 533.548
23.03000 526.758
23.04000 525.777
23.05000 525.566
23.06000 526.354
23.07000 530.353
23.08000 534.594
23.09000 537.529
23.10000 531.908
23.11000 527.458
23.12000 522.413
23.13000 516.498
23.14000 510.578
23.15000 508.334
23.16000 509.560
23.17000 510.776
23.18000 514.225
23.19000 518.968
23.20000 523.525
23.21000 523.827
23.22000 522.356
23.23000 520.361
23.24000 512.437
23.25000 502.845
23.26000 494.330
23.27000 496.195
23.28000 499.473
23.29000 503.030
23.30000 507.778
23.31000 512.663
23.32000 515.022
23.33000 510.150
23.34000 504.829
23.35000 501.289
23.36000 516.870
23.37000 528.755
23.38000 532.989
23.39000 527.341
23.40000 521.663
23.41000 520.624
23.42000 523.440
23.43000 526.219
23.44000 523.429
23.45000 517.729
23.46000 512.315
23.47000 512.089
23.48000 513.796
23.49000 514.779
23.50000 508.810
23.51000 501.103
23.52000 494.387
23.53000 493.380
23.54000 493.309
23.55000 491.755
23.56000 484.565
23.57000 476.826
23.58000 477.157
23.59000 498.118
23.60000 520.109
23.61000 534.125
23.62000 523.256
23.63000 515.035
23.64000 513.038
23.65000 518.137
23.66000 523.228
23.67000 525.761
23.68000 526.413
23.69000 527.053
23.70000 525.468
23.71000 522.887
23.72000 520.501
23.73000 520.989
23.74000 522.431
23.75000 522.296
23.76000 509.198
23.77000 493.229
23.78000 479.593
23.79000 496.584
23.80000 514.534
23.81000 527.180
23.82000 521.897
23.83000 515.146
23.84000 510.374
23.85000 510.118
23.86000 510.038
23.87000 509.990
23.88000 507.648
23.89000 505.958
23.90000 508.555
23.91000 515.444
23.92000 522.251
23.93000 521.498
23.94000 515.817
23.95000 510.286
23.96000 505.800
23.97000 501.962
23.98000 498.693
23.99000 502.402
24.00000 508.177
24.01000 513.106
24.02000 512.019
24.03000 509.757
24.04000 507.866
24.05000 505.284
24.06000 503.070
24.07000 501.872
24.08000 503.734
24.09000 505.804
24.10000 506.285
24.11000 503.529
24.12000 500.678
24.13000 499.028
24.14000 503.839
24.15000 507.231
24.16000 504.554
24.17000 496.543
24.18000 488.628
24.19000 486.210
24.20000 486.979
24.21000 487.721
24.22000 487.481
24.23000 486.892
24.24000 486.306
24.25000 485.753
24.26000 485.208
24.27000 485.473
24.28000 490.756
24.29000 496.900
24.30000 501.912
24.31000 495.456
24.32000 489.197
24.33000 486.349
24.34000 492.673
24.35000 499.503
24.36000 502.469
24.37000 498.410
24.38000 494.204
24.39000 491.902
24.40000 485.993
24.41000 481.958
24.42000 486.182
24.43000 496.812
24.44000 507.222
24.45000 508.955
24.46000 506.204
24.47000 503.573
24.48000 509.669
24.49000 518.183
24.50000 525.006
24.51000 516.959
24.52000 505.433
24.53000 495.157
24.54000 491.663
24.55000 489.186
24.56000 487.217
24.57000 490.175
24.58000 492.909
24.59000 495.333
24.60000 497.009
24.61000 498.653
24.62000 495.220
24.63000 483.563
24.64000 471.794
24.65000 465.733
24.66000 474.489
24.67000 480.383
24.68000 485.827
24.69000 490.962
24.70000 496.021
24.71000 498.856
24.72000 500.665
24.73000 502.376
24.74000 500.670
24.75000 498.123
24.76000 495.272
24.77000 490.112
24.78000 484.475
24.79000 480.621
24.80000 485.284
24.81000 491.057
24.82000 495.519
24.83000 491.418
24.84000 487.663
24.85000 486.745
24.86000 491.914
24.87000 497.286
24.88000 501.208
24.89000 503.042
24.90000 504.859
24.91000 498.143
24.92000 483.493
24.93000 468.986
24.94000 464.428
24.95000 465.946
24.96000 467.651
24.97000 473.513
24.98000 481.088
24.99000 488.165
25.00000 487.587
25.01000 485.132
25.02000 482.836
25.03000 481.582
25.04000 480.517
25.05000 480.277
25.06000 483.518
25.07000 487.149
25.08000 489.872
25.09000 493.421
25.10000 496.232
25.11000 498.573
25.12000 500.015
25.13000 501.435
25.14000 499.258
25.15000 492.496
25.16000 485.725
25.17000 480.097
25.18000 475.421
25.19000 470.868
25.20000 471.955
25.21000 476.113
25.22000 479.719
25.23000 473.540
25.24000 463.760
25.25000 454.747
25.26000 460.166
25.27000 468.206
25.28000 475.910
25.29000 481.683
25.30000 487.148
25.31000 491.705
25.32000 492.858
25.33000 493.686
25.34000 494.287
25.35000 489.748
25.36000 486.067
25.37000 486.010
25.38000 492.135
25.39000 498.365
25.40000 498.775
25.41000 492.641
25.42000 486.523
25.43000 485.085
25.44000 487.023
25.45000 488.832
25.46000 486.359
25.47000 481.807
25.48000 477.633
25.49000 478.935
25.50000 482.034
25.51000 484.848
25.52000 489.873
25.53000 494.738
25.54000 497.873
25.55000 492.261
25.56000 485.434
25.57000 478.660
25.58000 472.066
25.59000 465.486
25.60000 460.875
25.61000 463.763
25.62000 466.162
25.63000 468.218
25.64000 469.751
25.65000 471.279
25.66000 478.145
25.67000 490.279
25.68000 502.329
25.69000 499.691
25.70000 487.791
25.71000 476.215
25.72000 472.743
25.73000 472.782
25.74000 473.134
25.75000 477.248
25.76000 482.463
25.77000 487.120
25.78000 483.447
25.79000 478.850
25.80000 473.086
25.81000 462.115
25.82000 450.521
25.83000 444.683
25.84000 455.982
25.85000 468.420
25.86000 476.807
25.87000 479.317
25.88000 481.060
25.89000 482.522
25.90000 483.606
25.91000 484.679
25.92000 478.181
25.93000 465.123
25.94000 452.214
25.95000 455.437
25.96000 467.600
25.97000 479.373
25.98000 483.499
25.99000 484.664
26.00000 485.308
26.01000 480.681
26.02000 474.682
26.03000 469.420
26.04000 474.055
26.05000 479.473
26.06000 483.065
26.07000 479.429
26.08000 475.051
26.09000 470.740
26.10000 466.608
26.11000 462.485
26.12000 459.817
26.13000 470.994
26.14000 479.373
26.15000 482.551
26.16000 479.541
26.17000 476.509
26.18000 470.872
26.19000 463.243
26.20000 455.745
26.21000 459.446
26.22000 468.552
26.23000 477.269
26.24000 479.813
26.25000 480.224
26.26000 480.308
26.27000 477.568
26.28000 474.174
26.29000 471.257
26.30000 464.748
26.31000 458.789
26.32000 454.558
26.33000 456.404
26.34000 458.778
26.35000 462.491
26.36000 469.379
26.37000 476.402
26.38000 480.744
26.39000 470.563
26.40000 463.110
26.41000 460.153
26.42000 461.902
26.43000 463.638
26.44000 463.821
26.45000 462.950
26.46000 462.100
26.47000 458.644
26.48000 454.202
26.49000 450.310
26.50000 453.579
26.51000 459.055
26.52000 464.173
26.53000 466.616
26.54000 468.515
26.55000 470.113
26.56000 470.891
26.57000 471.452
26.58000 471.322
26.59000 469.027
26.60000 466.575
26.61000 464.538
26.62000 463.381
26.63000 462.251
26.64000 461.586
26.65000 466.709
26.66000 470.352
26.67000 471.891
26.68000 471.498
26.69000 471.087
26.70000 469.385
26.71000 466.906
26.72000 464.506
26.73000 458.128
26.74000 450.566
26.75000 443.667
26.76000 444.021
26.77000 446.365
26.78000 449.312
26.79000 456.165
26.80000 463.720
26.81000 469.934
26.82000 466.073
26.83000 461.987
26.84000 460.048
26.85000 464.108
26.86000 468.523
26.87000 471.352
26.88000 471.180
26.89000 470.937
26.90000 470.802
26.91000 464.457
26.92000 460.054
26.93000 455.981
26.94000 452.177
26.95000 448.581
26.96000 454.246
26.97000 464.889
26.98000 475.100
26.99000 471.884
27.00000 464.316
27.01000 456.397
27.02000 445.230
27.03000 433.271
27.04000 424.368
27.05000 432.790
27.06000 443.936
27.07000 452.876
27.08000 446.398
27.09000 439.983
27.10000 437.257
27.11000 443.732
27.12000 450.645
27.13000 452.174
27.14000 444.633
27.15000 436.946
27.16000 432.903
27.17000 436.022
27.18000 438.165
27.19000 443.813
27.20000 451.970
27.21000 459.907
27.22000 460.772
27.23000 458.246
27.24000 455.848
27.25000 452.841
27.26000 449.884
27.27000 448.253
27.28000 457.176
27.29000 468.376
27.30000 477.134
27.31000 473.714
27.32000 468.629
27.33000 464.660
27.34000 451.246
27.35000 439.957
27.36000 435.114
27.37000 444.633
27.38000 454.680
27.39000 460.456
27.40000 459.833
27.41000 459.148
27.42000 459.408
27.43000 460.587
27.44000 461.694
27.45000 456.850
27.46000 448.225
27.47000 439.924
27.48000 439.489
27.49000 442.422
27.50000 445.174
27.51000 446.208
27.52000 446.698
27.53000 447.281
27.54000 448.507
27.55000 449.855
27.56000 450.187
27.57000 446.042
27.58000 441.369
27.59000 437.827
27.60000 442.839
27.61000 447.210
27.62000 451.245
27.63000 454.610
27.64000 457.956
27.65000 457.708
27.66000 452.684
27.67000 447.640
27.68000 447.351
27.69000 451.118
27.70000 454.837
27.71000 456.006
27.72000 455.733
27.73000 455.307
27.74000 451.952
27.75000 447.477
27.76000 443.333
27.77000 440.248
27.78000 437.718
27.79000 435.860
27.80000 438.046
27.81000 440.906
27.82000 443.758
27.83000 446.572
27.84000 449.382
27.85000 451.446
27.86000 440.488
27.87000 431.490
27.88000 427.952
27.89000 434.100
27.90000 440.434
27.91000 441.077
27.92000 435.037
27.93000 429.004
27.94000 430.420
27.95000 437.415
27.96000 444.173
27.97000 442.219
27.98000 435.870
27.99000 429.968
28.00000 430.974
28.01000 434.338
28.02000 437.408
28.03000 434.957
28.04000 431.667
28.05000 429.704
28.06000 434.742
28.07000 440.801
28.08000 443.956
28.09000 437.029
28.10000 429.241
28.11000 423.717
28.12000 431.571
28.13000 437.965
28.14000 440.649
28.15000 437.471
28.16000 434.221
28.17000 436.779
28.18000 445.332
28.19000 453.837
28.20000 449.928
28.21000 437.866
28.22000 426.068
28.23000 421.512
28.24000 420.217
28.25000 419.857
28.26000 431.445
28.27000 446.668
28.28000 460.340
28.29000 449.270
28.30000 435.224
28.31000 425.165
28.32000 433.658
28.33000 444.492
28.34000 450.921
28.35000 443.722
28.36000 435.557
28.37000 429.977
28.38000 440.229
28.39000 448.272
28.40000 451.159
28.41000 446.817
28.42000 442.427
28.43000 439.856
28.44000 438.932
28.45000 438.018
28.46000 443.141
28.47000 451.678
28.48000 459.609
28.49000 454.703
28.50000 444.634
28.51000 435.505
28.52000 436.438
28.53000 440.098
28.54000 443.328
28.55000 444.342
28.56000 444.877
28.57000 444.393
28.58000 439.709
28.59000 434.569
28.60000 431.589
28.61000 434.566
28.62000 437.889
28.63000 440.069
28.64000 432.722
28.65000 427.158
28.66000 426.693
28.67000 432.558
28.68000 438.427
28.69000 439.882
28.70000 437.815
28.71000 435.779
28.72000 435.989
28.73000 437.351
28.74000 438.614
28.75000 438.207
28.76000 437.202
28.77000 435.606
28.78000 428.623
28.79000 420.345
28.80000 413.177
28.81000 408.189
28.82000 404.235
28.83000 401.565
28.84000 403.595
28.85000 406.057
28.86000 408.222
28.87000 409.656
28.88000 411.056
28.89000 411.935
28.90000 412.022
28.91000 412.076
28.92000 413.491
28.93000 416.395
28.94000 419.291
28.95000 420.926
28.96000 421.673
28.97000 422.403
28.98000 424.905
28.99000 428.112
29.00000 431.314
29.01000 434.441
29.02000 437.544
29.03000 439.472
29.04000 432.195
29.05000 422.960
29.06000 415.128
29.07000 419.776
29.08000 425.082
29.09000 430.321
29.10000 435.339
29.11000 440.341
29.12000 442.941
29.13000 440.256
29.14000 437.382
29.15000 435.661
29.16000 420.708
29.17000 410.007
29.18000 408.474
29.19000 415.736
29.20000 422.979
29.21000 428.730
29.22000 433.547
29.23000 438.224
29.24000 435.337
29.25000 429.557
29.26000 424.093
29.27000 422.270
29.28000 421.487
29.29000 421.253
29.30000 424.752
29.31000 428.950
29.32000 432.432
29.33000 430.127
29.34000 427.669
29.35000 425.624
29.36000 424.780
29.37000 424.012
29.38000 422.691
29.39000 420.285
29.40000 417.850
29.41000 416.466
29.42000 419.161
29.43000 421.053
29.44000 424.152
29.45000 428.269
29.46000 432.258
29.47000 429.763
29.48000 423.647
29.49000 417.760
29.50000 416.087
29.51000 416.011
29.52000 416.527
29.53000 422.825
29.54000 430.590
29.55000 437.293
29.56000 437.696
29.57000 437.064
29.58000 436.551
29.59000 427.590
29.60000 419.615
29.61000 416.245
29.62000 424.808
29.63000 433.985
29.64000 438.910
29.65000 436.389
29.66000 433.730
29.67000 432.303
29.68000 430.530
29.69000 429.329
29.70000 430.268
29.71000 432.801
29.72000 435.202
29.73000 432.892
29.74000 428.234
29.75000 423.796
29.76000 423.117
29.77000 423.661
29.78000 424.982
29.79000 432.808
29.80000 442.097
29.81000 450.440
29.82000 453.857
29.83000 456.567
29.84000 458.702
29.85000 457.928
29.86000 457.113
29.87000 457.569
29.88000 460.966
29.89000 464.482
29.90000 466.866
29.91000 467.485
29.92000 468.082
29.93000 468.384
29.94000 464.259
29.95000 461.559
29.96000 464.509
29.97000 471.195
29.98000 477.795
29.99000 482.089
30.00000 485.356
30.01000 488.435
30.02000 480.544
30.03000 470.305
30.04000 461.975
30.05000 467.441
30.06000 475.649
30.07000 480.270
30.08000 468.429
30.09000 454.543
30.10000 443.910
30.11000 453.193
30.12000 461.613
30.13000 465.585
30.14000 460.363
30.15000 454.860
30.16000 454.018
30.17000 459.629
30.18000 465.277
30.19000 462.399
30.20000 451.922
30.21000 441.549
30.22000 437.407
30.23000 436.930
30.24000 436.560
30.25000 438.382
30.26000 441.076
30.27000 443.582
30.28000 441.222
30.29000 437.916
30.30000 435.095
30.31000 435.328
30.32000 436.096
30.33000 437.189
30.34000 439.607
30.35000 442.167
30.36000 444.068
30.37000 440.851
30.38000 438.127
30.39000 436.466
30.40000 436.769
30.41000 437.114
30.42000 439.034
30.43000 442.883
30.44000 446.729
30.45000 445.341
30.46000 439.860
30.47000 434.503
30.48000 434.207
30.49000 436.565
30.50000 439.183
30.51000 446.096
30.52000 454.532
30.53000 462.270
30.54000 457.586
30.55000 450.783
30.56000 444.987
30.57000 444.735
30.58000 445.330
30.59000 445.652
30.60000 444.986
30.61000 444.231
30.62000 443.689
30.63000 446.222
30.64000 448.265
30.65000 450.679
30.66000 453.702
30.67000 456.734
30.68000 460.103
30.69000 463.834
30.70000 467.548
30.71000 466.709
30.72000 462.738
30.73000 459.069
30.74000 464.454
30.75000 474.077
30.76000 483.630
30.77000 492.223
30.78000 500.513
30.79000 508.001
30.80000 510.557
30.81000 511.894
30.82000 513.741
30.83000 518.068
30.84000 522.723
30.85000 526.318
30.86000 526.504
30.87000 526.433
30.88000 526.384
30.89000 528.026
30.90000 529.307
30.91000 534.253
30.92000 544.554
30.93000 554.903
30.94000 571.566
30.95000 594.200
30.96000 616.647
30.97000 639.740
30.98000 662.804
30.99000 686.235
31.00000 718.097
31.01000 753.483
31.02000 789.905
31.03000 838.103
31.04000 889.619
31.05000 935.363
31.06000 1019.226
31.07000 1098.043
31.08000 1180.185
31.09000 1276.588
31.10000 1374.621
31.11000 1486.309
31.12000 1637.165
31.13000 1790.459
31.14000 1892.490
31.15000 2085.399
31.16000 2229.855
31.17000 2396.308
31.18000 2591.231
31.19000 2786.243
31.20000 2968.580
31.21000 3140.371
31.22000 3309.901
31.23000 3482.459
31.24000 3651.995
31.25000 3819.199
31.26000 3943.879
31.27000 4052.690
31.28000 4156.772
31.29000 4215.374
31.30000 4262.586
31.31000 4303.738
31.32000 4355.763
31.33000 4401.735
31.34000 4425.897
31.35000 4367.026
31.36000 4300.067
31.37000 4219.445
31.38000 4103.842
31.39000 3986.486
31.40000 3911.638
31.41000 3689.742
31.42000 3526.474
31.43000 3365.224
31.44000 3206.278
31.45000 3047.175
31.46000 2860.116
31.47000 2652.486
31.48000 2448.827
31.49000 2269.365
31.50000 2107.939
31.51000 1947.651
31.52000 1804.218
31.53000 1666.398
31.54000 1529.787
31.55000 1403.128
31.56000 1278.676
31.57000 1172.370
31.58000 1084.100
31.59000 1011.885
31.60000 940.216
31.61000 870.396
31.62000 800.728
31.63000 739.908
31.64000 699.321
31.65000 659.527
31.66000 635.298
31.67000 608.663
31.68000 589.616
31.69000 573.485
31.70000 560.279
31.71000 547.129
31.72000 539.084
31.73000 534.373
31.74000 529.786
31.75000 520.407
31.76000 509.460
31.77000 498.982
31.78000 494.254
31.79000 491.234
31.80000 487.530
31.81000 478.969
31.82000 469.455
31.83000 461.506
31.84000 463.538
31.85000 466.239
31.86000 466.748
31.87000 460.640
31.88000 454.083
31.89000 449.351
31.90000 448.348
31.91000 447.454
31.92000 446.937
31.93000 436.159
31.94000 428.564
31.95000 425.573
31.96000 426.636
31.97000 427.717
31.98000 429.862
31.99000 432.626
32.00000 435.294
32.01000 442.199
32.02000 450.272
32.03000 456.543
32.04000 444.193
32.05000 426.925
32.06000 412.772
32.07000 417.930
32.08000 426.414
32.09000 433.336
32.10000 428.121
32.11000 422.814
32.12000 418.965
32.13000 419.038
32.14000 419.328
32.15000 418.810
32.16000 416.818
32.17000 414.795
32.18000 413.688
32.19000 413.298
32.20000 413.025
32.21000 411.056
32.22000 407.770
32.23000 404.620
32.24000 406.879
32.25000 411.939
32.26000 416.778
32.27000 416.137
32.28000 413.753
32.29000 411.191
32.30000 407.069
32.31000 402.580
32.32000 398.544
32.33000 396.967
32.34000 395.759
32.35000 394.799
32.36000 402.234
32.37000 408.825
32.38000 413.094
32.39000 411.778
32.40000 410.218
32.41000 408.052
32.42000 404.904
32.43000 401.743
32.44000 400.113
32.45000 390.503
32.46000 384.080
32.47000 383.735
32.48000 387.575
32.49000 391.215
32.50000 389.038
32.51000 384.173
32.52000 379.571
32.53000 385.715
32.54000 394.449
32.55000 401.757
32.56000 398.248
32.57000 392.497
32.58000 387.025
32.59000 382.886
32.60000 378.921
32.61000 375.855
32.62000 381.303
32.63000 386.128
32.64000 389.815
32.65000 391.057
32.66000 392.218
32.67000 391.591
32.68000 388.387
32.69000 385.163
32.70000 380.716
32.71000 375.130
32.72000 369.632
32.73000 370.247
32.74000 374.601
32.75000 378.907
32.76000 382.116
32.77000 384.872
32.78000 387.448
32.79000 389.196
32.80000 390.574
32.81000 392.458
32.82000 397.676
32.83000 403.502
32.84000 408.275
32.85000 408.581
32.86000 408.386
32.87000 408.240
32.88000 429.507
32.89000 447.140
32.90000 462.668
32.91000 474.163
32.92000 485.558
32.93000 494.479
32.94000 500.241
32.95000 505.984
32.96000 504.218
32.97000 496.314
32.98000 488.541
32.99000 486.872
33.00000 488.531
33.01000 490.272
33.02000 493.488
33.03000 497.247
33.04000 500.711
33.05000 488.158
33.06000 473.373
33.07000 461.187
33.08000 463.970
33.09000 469.146
33.10000 471.795
33.11000 464.948
33.12000 457.191
33.13000 451.557
33.14000 429.249
33.15000 411.468
33.16000 397.626
33.17000 390.514
33.18000 383.515
33.19000 379.272
33.20000 378.136
33.21000 377.007
33.22000 378.147
33.23000 380.911
33.24000 383.527
33.25000 381.224
33.26000 376.528
33.27000 371.817
33.28000 366.887
33.29000 361.885
33.30000 357.343
33.31000 352.210
33.32000 347.562
33.33000 344.941
33.34000 352.579
33.35000 361.646
33.36000 366.943
33.37000 359.634
33.38000 351.309
33.39000 345.473
33.40000 347.082
33.41000 348.514
33.42000 352.631
33.43000 360.831
33.44000 369.073
33.45000 372.074
33.46000 369.892
33.47000 367.725
33.48000 362.826
33.49000 356.269
33.50000 349.942
33.51000 349.400
33.52000 351.369
33.53000 352.869
33.54000 348.715
33.55000 342.902
33.56000 337.711
33.57000 336.440
33.58000 335.992
33.59000 336.391
33.60000 340.573
33.61000 345.209
33.62000 349.028
33.63000 350.409
33.64000 351.626
33.65000 352.448
33.66000 352.606
33.67000 352.710
33.68000 350.149
33.69000 343.996
33.70000 337.832
33.71000 338.417
33.72000 344.863
33.73000 351.235
33.74000 352.231
33.75000 350.192
33.76000 348.066
33.77000 344.222
33.78000 339.713
33.79000 335.914
33.80000 339.336
33.81000 344.639
33.82000 349.292
33.83000 343.515
33.84000 337.033
33.85000 332.580
33.86000 336.167
33.87000 340.582
33.88000 343.434
33.89000 342.130
33.90000 340.600
33.91000 339.610
33.92000 348.843
33.93000 355.749
33.94000 359.203
33.95000 358.543
33.96000 357.879
33.97000 358.132
33.98000 359.087
33.99000 360.026
34.00000 360.343
34.01000 360.342
34.02000 360.084
34.03000 355.759
34.04000 350.027
34.05000 344.601
34.06000 341.823
34.07000 339.659
34.08000 337.797
34.09000 340.931
34.10000 344.212
34.11000 345.148
34.12000 337.826
34.13000 329.783
34.14000 325.099
34.15000 328.393
34.16000 332.028
34.17000 334.277
34.18000 345.156
34.19000 353.057
34.20000 349.275
34.21000 333.242
34.22000 317.350
34.23000 317.499
34.24000 328.550
34.25000 339.340
34.26000 340.265
34.27000 336.840
34.28000 333.450
34.29000 330.513
34.30000 327.716
34.31000 325.098
34.32000 323.823
34.33000 322.823
34.34000 321.981
34.35000 319.824
34.36000 317.884
34.37000 318.351
34.38000 326.368
34.39000 334.934
34.40000 340.482
34.41000 339.626
34.42000 338.561
34.43000 337.933
34.44000 335.057
34.45000 333.016
34.46000 332.189
34.47000 332.479
34.48000 332.740
34.49000 331.110
34.50000 328.337
34.51000 325.651
34.52000 327.949
34.53000 332.045
34.54000 335.254
34.55000 328.745
34.56000 319.566
34.57000 311.864
34.58000 313.747
34.59000 317.355
34.60000 320.323
34.61000 324.284
34.62000 327.630
34.63000 332.520
34.64000 341.729
34.65000 351.195
34.66000 354.244
34.67000 345.143
34.68000 335.753
34.69000 330.510
34.70000 331.996
34.71000 333.033
34.72000 331.470
34.73000 327.802
34.74000 324.254
34.75000 326.087
34.76000 330.816
34.77000 335.355
34.78000 334.954
34.79000 332.898
34.80000 331.070
34.81000 331.369
34.82000 332.187
34.83000 332.266
34.84000 328.154
34.85000 323.382
34.86000 319.553
34.87000 319.816
34.88000 320.340
34.89000 321.840
34.90000 325.779
34.91000 329.833
34.92000 329.553
34.93000 321.959
34.94000 314.247
34.95000 310.187
34.96000 320.257
34.97000 327.087
34.98000 332.668
34.99000 337.353
35.00000 341.700
35.01000 335.171
35.02000 323.418
35.03000 312.257
35.04000 311.089
35.05000 313.009
35.06000 315.324
35.07000 320.799
35.08000 326.956
35.09000 331.123
35.10000 325.349
35.11000 318.211
35.12000 312.638
35.13000 314.951
35.14000 317.293
35.15000 317.582
35.16000 313.290
35.17000 308.829
35.18000 306.354
35.19000 306.862
35.20000 307.400
35.21000 308.275
35.22000 309.479
35.23000 310.719
35.24000 314.955
35.25000 321.098
35.26000 327.078
35.27000 329.086
35.28000 329.390
35.29000 329.675
35.30000 326.812
35.31000 323.373
35.32000 320.466
35.33000 321.237
35.34000 322.710
35.35000 324.700
35.36000 328.973
35.37000 333.515
35.38000 336.960
35.39000 326.324
35.40000 317.250
35.41000 312.940
35.42000 318.123
35.43000 323.567
35.44000 325.204
35.45000 321.773
35.46000 318.320
35.47000 318.568
35.48000 321.979
35.49000 325.362
35.50000 327.256
35.51000 328.305
35.52000 329.414
35.53000 331.670
35.54000 334.365
35.55000 336.861
35.56000 330.699
35.57000 323.153
35.58000 316.650
35.59000 316.432
35.60000 317.266
35.61000 317.287
35.62000 314.129
35.63000 310.649
35.64000 308.093
35.65000 308.614
35.66000 309.142
35.67000 310.837
35.68000 314.606
35.69000 318.415
35.70000 318.986
35.71000 315.751
35.72000 312.519
35.73000 311.083
35.74000 311.007
35.75000 310.876
35.76000 308.744
35.77000 305.600
35.78000 302.712
35.79000 303.805
35.80000 306.258
35.81000 308.497
35.82000 306.710
35.83000 304.308
35.84000 302.195
35.85000 301.609
35.86000 301.246
35.87000 300.988
35.88000 301.097
35.89000 301.238
35.90000 301.338
35.91000 310.648
35.92000 318.022
35.93000 320.273
35.94000 314.420
35.95000 308.466
35.96000 304.934
35.97000 303.906
35.98000 302.884
35.99000 305.070
36.00000 309.351
36.01000 313.512
36.02000 314.395
36.03000 313.798
36.04000 313.356
36.05000 314.896
36.06000 317.039
36.07000 318.965
36.08000 316.007
36.09000 312.555
36.10000 309.620
36.11000 309.092
36.12000 308.868
36.13000 309.487
36.14000 312.718
36.15000 316.136
36.16000 318.472
36.17000 319.340
36.18000 319.955
36.19000 318.143
36.20000 312.920
36.21000 307.675
36.22000 305.223
36.23000 305.304
36.24000 305.384
36.25000 303.969
36.26000 301.710
36.27000 299.400
36.28000 296.011
36.29000 292.188
36.30000 289.147
36.31000 294.514
36.32000 302.161
36.33000 308.913
36.34000 306.893
36.35000 303.806
36.36000 301.286
36.37000 301.104
36.38000 301.177
36.39000 301.346
36.40000 301.782
36.41000 302.233
36.42000 302.530
36.43000 295.806
36.44000 290.741
36.45000 293.206
36.46000 305.035
36.47000 316.875
36.48000 323.426
36.49000 325.750
36.50000 328.039
36.51000 322.318
36.52000 312.637
36.53000 303.327
36.54000 300.333
36.55000 299.610
36.56000 298.605
36.57000 295.016
36.58000 290.805
36.59000 287.158
36.60000 293.971
36.61000 301.149
36.62000 306.337
36.63000 304.238
36.64000 301.465
36.65000 300.406
36.66000 303.576
36.67000 306.943
36.68000 309.059
36.69000 307.530
36.70000 306.383
36.71000 308.377
36.72000 313.811
36.73000 319.195
36.74000 317.302
36.75000 310.260
36.76000 303.368
36.77000 303.624
36.78000 307.127
36.79000 310.345
36.80000 309.601
36.81000 307.586
36.82000 305.308
36.83000 300.959
36.84000 296.170
36.85000 292.106
36.86000 301.008
36.87000 309.939
36.88000 316.324
36.89000 314.401
36.90000 311.835
36.91000 310.706
36.92000 312.743
36.93000 314.894
36.94000 316.183
36.95000 310.721
36.96000 306.798
36.97000 302.821
36.98000 298.792
36.99000 294.866
37.00000 298.904
37.01000 307.947
37.02000 316.732
37.03000 318.843
37.04000 318.164
37.05000 317.437
37.06000 316.154
37.07000 314.712
37.08000 313.445
37.09000 313.371
37.10000 313.521
37.11000 313.646
37.12000 305.583
37.13000 298.135
37.14000 293.579
37.15000 297.439
37.16000 301.836
37.17000 304.303
37.18000 302.971
37.19000 301.538
37.20000 300.722
37.21000 306.158
37.22000 309.959
37.23000 309.822
37.24000 306.357
37.25000 302.967
37.26000 303.358
37.27000 305.863
37.28000 308.276
37.29000 306.919
37.30000 304.307
37.31000 302.112
37.32000 304.016
37.33000 306.961
37.34000 309.657
37.35000 310.875
37.36000 311.850
37.37000 312.638
37.38000 304.081
37.39000 296.360
37.40000 291.587
37.41000 294.469
37.42000 297.746
37.43000 298.653
37.44000 295.399
37.45000 292.069
37.46000 290.279
37.47000 289.916
37.48000 289.675
37.49000 290.580
37.50000 292.340
37.51000 294.054
37.52000 294.115
37.53000 293.351
37.54000 292.623
37.55000 290.592
37.56000 288.302
37.57000 286.704
37.58000 290.926
37.59000 296.459
37.60000 301.059
37.61000 300.798
37.62000 299.837
37.63000 299.080
37.64000 295.393
37.65000 292.239
37.66000 291.900
37.67000 298.089
37.68000 304.542
37.69000 306.929
37.70000 302.965
37.71000 298.926
37.72000 296.888
37.73000 297.774
37.74000 298.361
37.75000 298.350
37.76000 297.943
37.77000 297.567
37.78000 298.032
37.79000 298.872
37.80000 299.663
37.81000 297.580
37.82000 294.882
37.83000 292.161
37.84000 289.273
37.85000 286.352
37.86000 285.170
37.87000 291.984
37.88000 299.793
37.89000 305.776
37.90000 299.071
37.91000 293.078
37.92000 290.717
37.93000 295.874
37.94000 301.260
37.95000 303.400
37.96000 301.038
37.97000 298.648
37.98000 296.872
37.99000 295.647
38.00000 294.428
38.01000 293.628
38.02000 293.073
38.03000 292.829
38.04000 299.039
38.05000 307.817
38.06000 315.985
38.07000 310.480
38.08000 302.197
38.09000 294.477
38.10000 290.312
38.11000 286.768
38.12000 284.489
38.13000 287.365
38.14000 290.792
38.15000 293.336
38.16000 296.599
38.17000 299.166
38.18000 302.884
38.19000 308.726
38.20000 314.614
38.21000 316.348
38.22000 312.983
38.23000 309.612
38.24000 306.204
38.25000 302.786
38.26000 299.619
38.27000 306.873
38.28000 319.598
38.29000 331.911
38.30000 337.351
38.31000 340.350
38.32000 343.102
38.33000 344.733
38.34000 345.949
38.35000 347.333
38.36000 349.638
38.37000 352.085
38.38000 356.096
38.39000 365.769
38.40000 375.955
38.41000 383.271
38.42000 386.421
38.43000 388.686
38.44000 392.740
38.45000 399.739
38.46000 406.780
38.47000 416.582
38.48000 429.368
38.49000 442.097
38.50000 454.095
38.51000 465.459
38.52000 477.100
38.53000 497.099
38.54000 521.016
38.55000 544.277
38.56000 558.578
38.57000 570.040
38.58000 580.395
38.59000 586.932
38.60000 591.973
38.61000 597.882
38.62000 608.010
38.63000 618.699
38.64000 625.740
38.65000 621.027
38.66000 615.424
38.67000 611.543
38.68000 611.316
38.69000 611.242
38.70000 608.540
38.71000 601.995
38.72000 595.417
38.73000 589.060
38.74000 582.912
38.75000 576.815
38.76000 569.454
38.77000 561.456
38.78000 553.185
38.79000 538.601
38.80000 521.374
38.81000 504.305
38.82000 489.045
38.83000 474.296
38.84000 461.196
38.85000 450.633
38.86000 441.882
38.87000 431.734
38.88000 415.581
38.89000 398.740
38.90000 383.746
38.91000 374.058
38.92000 364.702
38.93000 358.470
38.94000 350.425
38.95000 344.436
38.96000 337.265
38.97000 328.562
38.98000 319.858
38.99000 313.411
39.00000 308.846
39.01000 304.340
39.02000 305.976
39.03000 310.871
39.04000 315.226
39.05000 309.715
39.06000 300.517
39.07000 292.187
39.08000 292.234
39.09000 294.383
39.10000 296.257
39.11000 294.025
39.12000 291.547
39.13000 289.382
39.14000 288.413
39.15000 287.560
39.16000 285.051
39.17000 278.292
39.18000 271.319
39.19000 266.869
39.20000 275.752
39.21000 282.386
39.22000 285.902
39.23000 285.848
39.24000 285.809
39.25000 289.105
39.26000 294.858
39.27000 300.502
39.28000 296.955
39.29000 289.169
39.30000 281.959
39.31000 283.299
39.32000 287.491
39.33000 290.888
39.34000 287.727
39.35000 283.107
39.36000 279.160
39.37000 277.416
39.38000 276.208
39.39000 274.951
39.40000 273.521
39.41000 272.077
39.42000 271.480
39.43000 272.822
39.44000 274.240
39.45000 275.104
39.46000 281.438
39.47000 286.008
39.48000 287.590
39.49000 286.171
39.50000 284.752
39.51000 283.467
39.52000 282.270
39.53000 281.103
39.54000 277.486
39.55000 273.010
39.56000 269.179
39.57000 273.297
39.58000 279.780
39.59000 284.965
39.60000 280.898
39.61000 275.014
39.62000 270.096
39.63000 273.241
39.64000 276.673
39.65000 278.568
39.66000 275.817
39.67000 272.749
39.68000 272.536
39.69000 278.163
39.70000 283.962
39.71000 287.322
39.72000 279.893
39.73000 274.638
39.74000 269.548
39.75000 264.603
39.76000 259.738
39.77000 259.452
39.78000 261.831
39.79000 264.128
39.80000 265.491
39.81000 266.429
39.82000 267.537
39.83000 270.404
39.84000 273.737
39.85000 276.009
39.86000 271.700
39.87000 266.256
39.88000 261.811
39.89000 265.609
39.90000 269.424
39.91000 272.815
39.92000 275.066
39.93000 277.254
39.94000 278.916
39.95000 279.620
39.96000 280.304
39.97000 280.679
39.98000 275.614
39.99000 272.129
40.00000 270.611
40.01000 270.625
40.02000 270.563
40.03000 267.498
40.04000 262.875
40.05000 258.453
40.06000 260.223
40.07000 263.895
40.08000 267.023
40.09000 265.349
40.10000 262.548
40.11000 260.031
40.12000 259.060
40.13000 258.321
40.14000 257.734
40.15000 257.994
40.16000 258.264
40.17000 259.745
40.18000 264.142
40.19000 268.667
40.20000 271.292
40.21000 270.826
40.22000 270.317
40.23000 270.055
40.24000 256.297
40.25000 247.092
40.26000 245.871
40.27000 250.154
40.28000 254.325
40.29000 255.197
40.30000 254.542
40.31000 253.922
40.32000 257.773
40.33000 262.601
40.34000 266.871
40.35000 266.900
40.36000 266.048
40.37000 265.091
40.38000 263.626
40.39000 262.095
40.40000 260.911
40.41000 264.706
40.42000 268.011
40.43000 267.625
40.44000 259.298
40.45000 250.703
40.46000 245.696
40.47000 245.870
40.48000 246.086
40.49000 249.456
40.50000 255.771
40.51000 262.038
40.52000 264.927
40.53000 265.747
40.54000 266.339
40.55000 261.809
40.56000 255.162
40.57000 248.950
40.58000 252.934
40.59000 259.129
40.60000 264.388
40.61000 263.467
40.62000 261.416
40.63000 259.318
40.64000 257.017
40.65000 254.693
40.66000 252.949
40.67000 247.327
40.68000 242.750
40.69000 241.387
40.70000 246.197
40.71000 251.160
40.72000 254.620
40.73000 256.156
40.74000 257.683
40.75000 258.519
40.76000 258.786
40.77000 258.913
40.78000 252.476
40.79000 242.455
40.80000 233.119
40.81000 236.024
40.82000 243.449
40.83000 250.295
40.84000 254.953
40.85000 258.640
40.86000 261.879
40.87000 262.540
40.88000 262.787
40.89000 262.273
40.90000 258.895
40.91000 255.242
40.92000 252.588
40.93000 250.910
40.94000 249.657
40.95000 247.602
40.96000 244.174
40.97000 240.723
40.98000 241.587
40.99000 247.321
41.00000 253.040
41.01000 253.731
41.02000 250.790
41.03000 247.866
41.04000 245.504
41.05000 243.414
41.06000 241.658
41.07000 244.755
41.08000 249.452
41.09000 253.718
41.10000 254.583
41.11000 254.688
41.12000 255.168
41.13000 257.546
41.14000 260.189
41.15000 261.569
41.16000 258.721
41.17000 255.531
41.18000 253.294
41.19000 253.900
41.20000 254.441
41.21000 252.784
41.22000 247.781
41.23000 242.742
41.24000 238.961
41.25000 236.426
41.26000 233.909
41.27000 236.431
41.28000 242.118
41.29000 247.472
41.30000 244.427
41.31000 237.730
41.32000 231.944
41.33000 237.181
41.34000 245.655
41.35000 253.226
41.36000 255.254
41.37000 256.087
41.38000 255.770
41.39000 250.302
41.40000 244.214
41.41000 240.545
41.42000 244.102
41.43000 248.141
41.44000 250.868
41.45000 249.790
41.46000 248.906
41.47000 249.182
41.48000 251.026
41.49000 252.875
41.50000 251.253
41.51000 246.611
41.52000 242.023
41.53000 238.654
41.54000 236.049
41.55000 233.769
41.56000 237.908
41.57000 244.539
41.58000 250.262
41.59000 246.732
41.60000 240.786
41.61000 235.569
41.62000 237.562
41.63000 240.328
41.64000 242.869
41.65000 244.519
41.66000 246.076
41.67000 248.288
41.68000 252.244
41.69000 256.295
41.70000 258.918
41.71000 247.911
41.72000 239.653
41.73000 237.746
41.74000 243.424
41.75000 249.102
41.76000 251.110
41.77000 250.301
41.78000 249.506
41.79000 247.784
41.80000 245.660
41.81000 243.690
41.82000 244.166
41.83000 245.490
41.84000 246.614
41.85000 245.990
41.86000 244.962
41.87000 244.078
41.88000 244.760
41.89000 245.534
41.90000 245.573
41.91000 243.020
41.92000 240.240
41.93000 240.785
41.94000 249.243
41.95000 258.042
41.96000 263.490
41.97000 250.264
41.98000 240.577
41.99000 235.015
42.00000 233.787
42.01000 232.598
42.02000 235.718
42.03000 241.773
42.04000 247.685
42.05000 249.556
42.06000 249.578
42.07000 249.512
42.08000 248.309
42.09000 246.753
42.10000 245.316
42.11000 244.769
42.12000 244.404
42.13000 244.096
42.14000 237.760
42.15000 231.825
42.16000 228.711
42.17000 234.461
42.18000 240.857
42.19000 244.578
42.20000 242.614
42.21000 240.463
42.22000 239.195
42.23000 242.128
42.24000 244.220
42.25000 245.334
42.26000 245.547
42.27000 245.758
42.28000 245.775
42.29000 245.675
42.30000 245.579
42.31000 246.062
42.32000 246.744
42.33000 247.371
42.34000 247.401
42.35000 247.267
42.36000 246.678
42.37000 243.133
42.38000 239.055
42.39000 235.698
42.40000 236.124
42.41000 236.819
42.42000 237.993
42.43000 240.513
42.44000 243.114
42.45000 242.337
42.46000 235.154
42.47000 227.819
42.48000 223.720
42.49000 227.552
42.50000 230.223
42.51000 232.557
42.52000 234.617
42.53000 236.628
42.54000 236.425
42.55000 235.028
42.56000 233.687
42.57000 236.741
42.58000 241.095
42.59000 244.758
42.60000 241.980
42.61000 237.628
42.62000 234.404
42.63000 237.600
42.64000 241.810
42.65000 245.189
42.66000 241.909
42.67000 238.743
42.68000 237.061
42.69000 239.093
42.70000 241.303
42.71000 243.093
42.72000 244.176
42.73000 245.247
42.74000 245.811
42.75000 250.382
42.76000 253.440
42.77000 249.709
42.78000 241.102
42.79000 232.702
42.80000 230.993
42.81000 232.503
42.82000 233.938
42.83000 235.527
42.84000 237.041
42.85000 238.745
42.86000 241.967
42.87000 245.517
42.88000 248.209
42.89000 246.608
42.90000 244.418
42.91000 242.706
42.92000 236.199
42.93000 230.705
42.94000 227.922
42.95000 231.198
42.96000 234.698
42.97000 238.622
42.98000 243.181
42.99000 247.746
43.00000 248.088
43.01000 244.307
43.02000 240.570
43.03000 240.499
43.04000 242.766
43.05000 244.745
43.06000 239.662
43.07000 231.545
43.08000 223.927
43.09000 229.651
43.10000 238.396
43.11000 245.447
43.12000 240.779
43.13000 233.872
43.14000 228.767
43.15000 231.624
43.16000 235.425
43.17000 238.308
43.18000 237.644
43.19000 236.941
43.20000 236.384
43.21000 236.120
43.22000 235.864
43.23000 232.874
43.24000 226.239
43.25000 219.590
43.26000 217.068
43.27000 218.084
43.28000 219.144
43.29000 222.545
43.30000 227.274
43.31000 231.947
43.32000 235.547
43.33000 238.734
43.34000 241.687
43.35000 239.884
43.36000 237.159
43.37000 234.732
43.38000 234.103
43.39000 233.776
43.40000 232.953
43.41000 230.188
43.42000 227.225
43.43000 225.048
43.44000 225.033
43.45000 225.110
43.46000 225.795
43.47000 227.561
43.48000 229.349
43.49000 230.609
43.50000 231.249
43.51000 231.887
43.52000 236.011
43.53000 242.733
43.54000 249.086
43.55000 241.701
43.56000 227.364
43.57000 214.116
43.58000 217.839
43.59000 227.373
43.60000 236.079
43.61000 232.012
43.62000 225.811
43.63000 221.117
43.64000 224.411
43.65000 228.872
43.66000 232.466
43.67000 233.039
43.68000 233.352
43.69000 233.574
43.70000 231.588
43.71000 230.007
43.72000 227.470
43.73000 223.420
43.74000 219.352
43.75000 216.179
43.76000 213.934
43.77000 211.701
43.78000 213.811
43.79000 218.773
43.80000 223.602
43.81000 224.753
43.82000 224.241
43.83000 223.602
43.84000 221.331
43.85000 218.561
43.86000 216.071
43.87000 223.365
43.88000 231.481
43.89000 238.055
43.90000 237.431
43.91000 235.895
43.92000 233.983
43.93000 230.902
43.94000 227.738
43.95000 225.573
43.96000 225.757
43.97000 225.950
43.98000 227.103
43.99000 229.606
44.00000 232.115
44.01000 229.114
44.02000 221.107
44.03000 213.177
44.04000 214.048
44.05000 220.051
44.06000 226.041
44.07000 231.754
44.08000 237.354
44.09000 242.536
44.10000 243.206
44.11000 242.649
44.12000 242.157
44.13000 235.560
44.14000 228.928
44.15000 224.291
44.16000 227.900
44.17000 232.406
44.18000 236.503
44.19000 239.466
44.20000 242.363
44.21000 244.267
44.22000 232.487
44.23000 223.585
44.24000 221.275
44.25000 227.178
44.26000 233.079
44.27000 230.268
44.28000 220.481
44.29000 210.839
44.30000 214.179
44.31000 224.126
44.32000 234.012
44.33000 242.852
44.34000 251.314
44.35000 258.666
44.36000 255.843
44.37000 250.565
44.38000 245.993
44.39000 243.854
44.40000 242.356
44.41000 241.853
44.42000 245.004
44.43000 248.493
44.44000 249.452
44.45000 244.158
44.46000 238.572
44.47000 235.059
44.48000 237.293
44.49000 238.974
44.50000 240.295
44.51000 241.221
44.52000 242.153
44.53000 243.894
44.54000 246.210
44.55000 248.477
44.56000 249.072
44.57000 248.881
44.58000 249.005
44.59000 253.525
44.60000 259.458
44.61000 264.947
44.62000 266.943
44.63000 268.192
44.64000 269.253
44.65000 278.864
44.66000 287.895
44.67000 295.525
44.68000 298.578
44.69000 301.277
44.70000 304.583
44.71000 309.232
44.72000 313.930
44.73000 316.747
44.74000 326.221
44.75000 332.995
44.76000 342.064
44.77000 353.344
44.78000 364.706
44.79000 382.628
44.80000 404.680
44.81000 426.101
44.82000 432.058
44.83000 431.484
44.84000 431.695
44.85000 441.052
44.86000 453.027
44.87000 465.466
44.88000 481.067
44.89000 497.264
44.90000 510.703
44.91000 519.664
44.92000 526.638
44.93000 532.889
44.94000 537.036
44.95000 541.049
44.96000 542.842
44.97000 540.259
44.98000 537.559
44.99000 536.022
45.00000 528.170
45.01000 522.678
45.02000 518.353
45.03000 515.017
45.04000 511.652
45.05000 506.820
45.06000 501.167
45.07000 495.723
45.08000 485.431
45.09000 474.044
45.10000 462.387
45.11000 448.075
45.12000 433.086
45.13000 419.820
45.14000 416.809
45.15000 415.491
45.16000 414.425
45.17000 404.109
45.18000 394.960
45.19000 385.383
45.20000 374.690
45.21000 363.940
45.22000 352.462
45.23000 339.703
45.24000 326.921
45.25000 320.046
45.26000 318.525
45.27000 317.473
45.28000 313.044
45.29000 306.087
45.30000 299.100
45.31000 291.011
45.32000 282.371
45.33000 274.135
45.34000 277.545
45.35000 284.362
45.36000 289.772
45.37000 283.367
45.38000 274.295
45.39000 265.497
45.40000 258.133
45.41000 250.975
45.42000 245.331
45.43000 248.290
45.44000 251.243
45.45000 252.427
45.46000 249.502
45.47000 246.410
45.48000 244.145
45.49000 243.175
45.50000 242.220
45.51000 241.737
45.52000 243.864
45.53000 245.249
45.54000 242.754
45.55000 237.687
45.56000 232.745
45.57000 231.174
45.58000 231.108
45.59000 231.046
45.60000 230.994
45.61000 230.949
45.62000 230.884
45.63000 230.675
45.64000 230.437
45.65000 230.521
45.66000 232.092
45.67000 233.849
45.68000 235.196
45.69000 230.484
45.70000 226.429
45.71000 224.192
45.72000 225.729
45.73000 227.382
45.74000 225.518
45.75000 218.768
45.76000 211.989
45.77000 210.459
45.78000 213.628
45.79000 216.818
45.80000 221.278
45.81000 226.488
45.82000 231.166
45.83000 224.738
45.84000 213.884
45.85000 203.782
45.86000 210.153
45.87000 219.906
45.88000 228.753
45.89000 231.882
45.90000 234.008
45.91000 233.932
45.92000 224.870
45.93000 214.846
45.94000 207.398
45.95000 209.948
45.96000 212.374
45.97000 214.474
45.98000 215.967
45.99000 217.448
46.00000 218.234
46.01000 218.166
46.02000 218.097
46.03000 218.106
46.04000 218.177
46.05000 218.205
46.06000 216.456
46.07000 213.772
46.08000 211.314
46.09000 212.630
46.10000 215.289
46.11000 217.729
46.12000 214.482
46.13000 210.380
46.14000 207.034
46.15000 207.879
46.16000 209.366
46.17000 211.143
46.18000 213.968
46.19000 216.888
46.20000 218.986
46.21000 215.460
46.22000 212.566
46.23000 210.212
46.24000 208.747
46.25000 207.296
46.26000 206.486
46.27000 206.371
46.28000 206.257
46.29000 205.385
46.30000 203.998
46.31000 202.664
46.32000 202.943
46.33000 203.978
46.34000 204.706
46.35000 201.216
46.36000 196.387
46.37000 192.024
46.38000 200.913
46.39000 211.188
46.40000 219.209
46.41000 216.249
46.42000 211.827
46.43000 208.552
46.44000 208.980
46.45000 209.690
46.46000 210.182
46.47000 205.146
46.48000 201.210
46.49000 201.488
46.50000 207.942
46.51000 214.449
46.52000 215.555
46.53000 211.531
46.54000 207.541
46.55000 206.373
46.56000 206.950
46.57000 207.403
46.58000 205.000
46.59000 201.399
46.60000 198.323
46.61000 201.233
46.62000 205.835
46.63000 209.924
46.64000 210.533
46.65000 210.501
46.66000 209.594
46.67000 204.924
46.68000 199.821
46.69000 196.065
46.70000 196.182
46.71000 196.542
46.72000 196.781
46.73000 200.796
46.74000 203.840
46.75000 205.124
46.76000 204.122
46.77000 203.112
46.78000 202.833
46.79000 203.165
46.80000 203.492
46.81000 200.184
46.82000 195.006
46.83000 190.206
46.84000 192.361
46.85000 197.120
46.86000 201.034
46.87000 196.795
46.88000 190.506
46.89000 185.021
46.90000 186.882
46.91000 189.497
46.92000 192.274
46.93000 195.669
46.94000 199.126
46.95000 200.783
46.96000 197.821
46.97000 194.625
46.98000 192.585
46.99000 193.683
47.00000 194.524
47.01000 193.997
47.02000 191.902
47.03000 189.810
47.04000 188.682
47.05000 188.265
47.06000 187.855
47.07000 191.094
47.08000 195.952
47.09000 200.598
47.10000 202.081
47.11000 202.507
47.12000 202.935
47.13000 203.380
47.14000 203.828
47.15000 204.212
47.16000 202.800
47.17000 201.396
47.18000 201.266
47.19000 205.468
47.20000 210.027
47.21000 212.123
47.22000 208.570
47.23000 204.793
47.24000 202.490
47.25000 196.906
47.26000 192.888
47.27000 190.954
47.28000 191.118
47.29000 191.278
47.30000 191.023
47.31000 190.496
47.32000 189.983
47.33000 191.815
47.34000 194.547
47.35000 197.127
47.36000 197.829
47.37000 197.973
47.38000 197.839
47.39000 195.725
47.40000 193.221
47.41000 191.128
47.42000 191.450
47.43000 191.963
47.44000 192.345
47.45000 192.329
47.46000 192.286
47.47000 190.563
47.48000 185.398
47.49000 180.131
47.50000 177.078
47.51000 187.502
47.52000 194.867
47.53000 195.863
47.54000 191.232
47.55000 186.645
47.56000 184.589
47.57000 184.008
47.58000 183.448
47.59000 186.617
47.60000 190.988
47.61000 195.289
47.62000 198.865
47.63000 202.248
47.64000 204.449
47.65000 199.289
47.66000 192.856
47.67000 187.604
47.68000 190.249
47.69000 193.094
47.70000 194.726
47.71000 193.082
47.72000 191.255
47.73000 190.256
47.74000 190.769
47.75000 191.314
47.76000 191.613
47.77000 187.649
47.78000 184.924
47.79000 184.552
47.80000 186.016
47.81000 187.503
47.82000 189.953
47.83000 192.903
47.84000 195.724
47.85000 196.884
47.86000 197.420
47.87000 197.704
47.88000 195.752
47.89000 193.273
47.90000 191.596
47.91000 194.284
47.92000 197.632
47.93000 200.296
47.94000 195.330
47.95000 190.778
47.96000 187.097
47.97000 185.518
47.98000 184.032
47.99000 183.500
48.00000 184.520
48.01000 185.562
48.02000 186.101
48.03000 189.075
48.04000 191.064
48.05000 191.085
48.06000 189.746
48.07000 188.487
48.08000 189.551
48.09000 191.694
48.10000 193.721
48.11000 191.625
48.12000 188.508
48.13000 186.187
48.14000 189.928
48.15000 194.931
48.16000 198.732
48.17000 196.767
48.18000 194.045
48.19000 191.939
48.20000 190.617
48.21000 189.614
48.22000 189.488
48.23000 191.252
48.24000 193.080
48.25000 190.516
48.26000 181.599
48.27000 172.631
48.28000 170.953
48.29000 176.096
48.30000 181.173
48.31000 181.524
48.32000 178.973
48.33000 176.629
48.34000 178.963
48.35000 183.233
48.36000 187.226
48.37000 187.187
48.38000 186.129
48.39000 185.545
48.40000 188.085
48.41000 191.198
48.42000 192.949
48.43000 188.907
48.44000 184.212
48.45000 180.685
48.46000 185.074
48.47000 188.882
48.48000 189.766
48.49000 185.022
48.50000 180.138
48.51000 180.060
48.52000 186.141
48.53000 192.238
48.54000 189.870
48.55000 180.557
48.56000 171.406
48.57000 169.823
48.58000 172.379
48.59000 174.749
48.60000 173.777
48.61000 171.570
48.62000 169.534
48.63000 168.836
48.64000 168.508
48.65000 169.329
48.66000 176.789
48.67000 185.314
48.68000 191.821
48.69000 190.717
48.70000 188.881
48.71000 187.546
48.72000 189.215
48.73000 190.613
48.74000 190.780
48.75000 188.836
48.76000 186.855
48.77000 186.917
48.78000 189.289
48.79000 191.655
48.80000 193.146
48.81000 193.991
48.82000 194.791
48.83000 194.054
48.84000 192.568
48.85000 191.073
48.86000 189.435
48.87000 187.751
48.88000 186.221
48.89000 186.170
48.90000 186.413
48.91000 186.695
48.92000 187.181
48.93000 187.695
48.94000 187.009
48.95000 182.296
48.96000 177.257
48.97000 173.720
48.98000 179.939
48.99000 184.929
49.00000 188.090
49.01000 188.461
49.02000 188.803
49.03000 189.792
49.04000 191.426
49.05000 193.048
49.06000 193.835
49.07000 194.077
49.08000 194.365
49.09000 195.805
49.10000 197.748
49.11000 199.443
49.12000 198.147
49.13000 195.972
49.14000 194.028
49.15000 184.304
49.16000 174.515
49.17000 167.374
49.18000 172.112
49.19000 178.285
49.20000 182.751
49.21000 182.111
49.22000 181.129
49.23000 180.466
49.24000 181.499
49.25000 182.305
49.26000 181.909
49.27000 179.887
49.28000 177.857
49.29000 176.928
49.30000 176.960
49.31000 176.991
49.32000 177.969
49.33000 179.457
49.34000 180.988
49.35000 183.388
49.36000 186.126
49.37000 188.234
49.38000 183.920
49.39000 177.924
49.40000 172.662
49.41000 175.783
49.42000 179.691
49.43000 182.828
49.44000 182.900
49.45000 182.653
49.46000 182.484
49.47000 182.520
49.48000 182.567
49.49000 182.598
49.50000 179.020
49.51000 176.347
49.52000 174.668
49.53000 174.178
49.54000 173.713
49.55000 178.888
49.56000 188.401
49.57000 197.755
49.58000 194.680
49.59000 185.537
49.60000 177.100
49.61000 179.942
49.62000 186.702
49.63000 192.278
49.64000 187.549
49.65000 180.428
49.66000 174.298
49.67000 174.601
49.68000 175.667
49.69000 177.275
49.70000 180.797
49.71000 184.485
49.72000 186.451
49.73000 184.307
49.74000 181.987
49.75000 180.549
49.76000 174.306
49.77000 169.771
49.78000 171.098
49.79000 178.598
49.80000 186.034
49.81000 186.157
49.82000 181.291
49.83000 176.540
49.84000 179.723
49.85000 186.247
49.86000 192.242
49.87000 191.282
49.88000 188.168
49.89000 185.283
49.90000 184.119
49.91000 183.307
49.92000 182.623
49.93000 189.623
49.94000 196.294
49.95000 199.448
49.96000 191.531
49.97000 182.806
49.98000 178.055
49.99000 181.763
50.00000 185.749
50.01000 188.100
50.02000 177.237
50.03000 169.497
50.04000 169.122
50.05000 175.543
50.06000 181.931
50.07000 186.022
50.08000 188.722
50.09000 191.337
50.10000 190.763
50.11000 188.985
50.12000 187.429
50.13000 188.326
50.14000 189.898
50.15000 191.414
50.16000 192.561
50.17000 193.641
50.18000 194.531
50.19000 192.452
50.20000 190.472
50.21000 189.218
50.22000 190.001
50.23000 190.906
50.24000 191.071
50.25000 189.830
50.26000 188.556
50.27000 187.843
50.28000 196.908
50.29000 203.199
50.30000 205.349
50.31000 204.132
50.32000 202.895
50.33000 200.812
50.34000 198.271
50.35000 195.832
50.36000 203.694
50.37000 214.566
50.38000 224.656
50.39000 227.447
50.40000 228.450
50.41000 229.340
50.42000 229.587
50.43000 229.732
50.44000 229.848
50.45000 243.685
50.46000 255.945
50.47000 264.683
50.48000 264.590
50.49000 264.072
50.50000 262.929
50.51000 260.727
50.52000 258.507
50.53000 257.337
50.54000 268.884
50.55000 276.712
50.56000 281.964
50.57000 285.363
50.58000 288.934
50.59000 298.060
50.60000 309.863
50.61000 321.075
50.62000 315.694
50.63000 305.729
50.64000 296.899
50.65000 297.154
50.66000 299.380
50.67000 300.332
50.68000 294.900
50.69000 288.589
50.70000 283.657
50.71000 288.962
50.72000 293.843
50.73000 292.793
50.74000 278.463
50.75000 263.638
50.76000 257.302
50.77000 263.751
50.78000 270.328
50.79000 272.133
50.80000 269.269
50.81000 266.362
50.82000 259.856
50.83000 251.053
50.84000 242.373
50.85000 236.736
50.86000 232.410
50.87000 228.348
50.88000 223.572
50.89000 219.027
50.90000 214.983
50.91000 214.407
50.92000 214.494
50.93000 214.164
50.94000 211.987
50.95000 209.590
50.96000 207.771
50.97000 202.121
50.98000 197.485
50.99000 194.625
51.00000 195.316
51.01000 196.106
51.02000 192.279
51.03000 182.285
51.04000 172.266
51.05000 171.651
51.06000 179.105
51.07000 186.436
51.08000 187.168
51.09000 184.148
51.10000 181.092
51.11000 177.317
51.12000 173.267
51.13000 169.514
51.14000 172.321
51.15000 176.372
51.16000 179.284
51.17000 175.306
51.18000 170.171
51.19000 166.236
51.20000 167.012
51.21000 168.267
51.22000 169.189
51.23000 175.291
51.24000 180.224
51.25000 181.637
51.26000 176.775
51.27000 171.790
51.28000 169.661
51.29000 170.903
51.30000 172.148
51.31000 174.495
51.32000 177.657
51.33000 180.727
51.34000 180.391
51.35000 178.328
51.36000 176.160
51.37000 172.352
51.38000 167.981
51.39000 163.990
51.40000 165.936
51.41000 168.872
51.42000 172.406
51.43000 179.116
51.44000 186.291
51.45000 190.318
51.46000 183.356
51.47000 175.450
51.48000 169.833
51.49000 168.309
51.50000 167.279
51.51000 165.397
51.52000 162.160
51.53000 158.905
51.54000 159.393
51.55000 163.765
51.56000 168.113
51.57000 173.474
51.58000 179.440
51.59000 185.109
51.60000 182.553
51.61000 176.275
51.62000 170.292
51.63000 168.105
51.64000 167.079
51.65000 166.156
51.66000 167.603
51.67000 169.290
51.68000 170.377
51.69000 168.662
51.70000 166.592
51.71000 166.154
51.72000 170.794
51.73000 175.798
51.74000 179.223
51.75000 174.897
51.76000 171.472
51.77000 170.382
51.78000 172.582
51.79000 174.805
51.80000 174.749
51.81000 172.619
51.82000 170.509
51.83000 166.938
51.84000 162.585
51.85000 158.524
51.86000 160.722
51.87000 165.451
51.88000 170.037
51.89000 173.093
51.90000 175.733
51.91000 178.064
51.92000 170.603
51.93000 162.656
51.94000 157.113
51.95000 161.530
51.96000 167.033
51.97000 171.160
51.98000 171.465
51.99000 171.547
52.00000 171.600
52.01000 168.131
52.02000 165.517
52.03000 164.683
52.04000 166.070
52.05000 167.458
52.06000 166.680
52.07000 164.164
52.08000 161.685
52.09000 164.087
52.10000 168.944
52.11000 173.388
52.12000 170.744
52.13000 165.542
52.14000 161.176
52.15000 164.486
52.16000 169.651
52.17000 174.127
52.18000 172.060
52.19000 169.432
52.20000 167.292
52.21000 166.948
52.22000 166.770
52.23000 165.015
52.24000 159.350
52.25000 153.502
52.26000 149.821
52.27000 152.481
52.28000 154.477
52.29000 156.669
52.30000 159.077
52.31000 161.479
52.32000 163.187
52.33000 164.401
52.34000 165.590
52.35000 165.211
52.36000 164.129
52.37000 163.166
52.38000 163.858
52.39000 165.082
52.40000 165.821
52.41000 162.732
52.42000 158.822
52.43000 155.504
52.44000 154.725
52.45000 154.361
52.46000 155.342
52.47000 160.726
52.48000 166.452
52.49000 168.005
52.50000 160.326
52.51000 152.312
52.52000 147.503
52.53000 153.553
52.54000 157.925
52.55000 164.059
52.56000 171.895
52.57000 179.584
52.58000 175.616
52.59000 164.294
52.60000 153.295
52.61000 153.926
52.62000 159.222
52.63000 163.931
52.64000 161.792
52.65000 157.689
52.66000 154.161
52.67000 154.567
52.68000 155.715
52.69000 156.668
52.70000 154.517
52.71000 152.440
52.72000 152.498
52.73000 158.790
52.74000 165.482
52.75000 170.027
52.76000 170.332
52.77000 170.523
52.78000 170.632
52.79000 166.748
52.80000 164.027
52.81000 161.559
52.82000 159.305
52.83000 157.098
52.84000 157.263
52.85000 158.761
52.86000 160.204
52.87000 161.215
52.88000 162.011
52.89000 162.574
52.90000 160.846
52.91000 158.533
52.92000 156.850
52.93000 158.926
52.94000 161.624
52.95000 163.809
52.96000 165.319
52.97000 166.493
52.98000 166.540
52.99000 163.649
53.00000 160.606
53.01000 159.026
53.02000 160.021
53.03000 161.065
53.04000 161.627
53.05000 160.946
53.06000 160.500
53.07000 164.062
53.08000 170.628
53.09000 176.963
53.10000 174.963
53.11000 168.790
53.12000 162.904
53.13000 161.377
53.14000 161.330
53.15000 161.310
53.16000 161.512
53.17000 161.765
53.18000 162.423
53.19000 165.202
53.20000 168.287
53.21000 170.721
53.22000 166.553
53.23000 162.764
53.24000 159.926
53.25000 159.304
53.26000 158.771
53.27000 160.402
53.28000 165.421
53.29000 170.481
53.30000 173.040
53.31000 168.542
53.32000 165.519
53.33000 161.310
53.34000 156.313
53.35000 151.671
53.36000 156.569
53.37000 165.732
53.38000 174.369
53.39000 170.433
53.40000 163.349
53.41000 157.420
53.42000 159.892
53.43000 164.042
53.44000 166.728
53.45000 162.660
53.46000 157.748
53.47000 153.981
53.48000 158.701
53.49000 162.898
53.50000 166.331
53.51000 168.177
53.52000 169.973
53.53000 169.560
53.54000 166.072
53.55000 162.564
53.56000 162.479
53.57000 165.462
53.58000 168.358
53.59000 165.975
53.60000 160.471
53.61000 155.164
53.62000 154.004
53.63000 154.499
53.64000 154.960
53.65000 153.456
53.66000 151.620
53.67000 150.258
53.68000 151.897
53.69000 154.064
53.70000 156.863
53.71000 162.249
53.72000 167.913
53.73000 172.123
53.74000 164.216
53.75000 157.528
53.76000 155.111
53.77000 160.608
53.78000 166.282
53.79000 167.364
53.80000 162.793
53.81000 158.215
53.82000 157.158
53.83000 158.878
53.84000 160.613
53.85000 162.938
53.86000 165.573
53.87000 167.901
53.88000 165.094
53.89000 160.456
53.90000 156.198
53.91000 150.886
53.92000 145.925
53.93000 142.989
53.94000 151.280
53.95000 161.296
53.96000 168.584
53.97000 165.964
53.98000 162.441
53.99000 159.908
54.00000 157.981
54.01000 156.527
54.02000 153.433
54.03000 147.632
54.04000 141.791
54.05000 143.407
54.06000 153.112
54.07000 162.777
54.08000 163.819
54.09000 158.869
54.10000 154.089
54.11000 154.510
54.12000 157.376
54.13000 160.060
54.14000 160.248
54.15000 159.643
54.16000 159.095
54.17000 161.090
54.18000 163.317
54.19000 165.181
54.20000 165.276
54.21000 165.136
54.22000 164.180
54.23000 160.591
54.24000 156.801
54.25000 154.173
54.26000 155.565
54.27000 156.720
54.28000 155.518
54.29000 150.854
54.30000 146.160
54.31000 145.469
54.32000 148.583
54.33000 151.673
54.34000 155.516
54.35000 159.752
54.36000 163.751
54.37000 162.256
54.38000 158.452
54.39000 154.905
54.40000 154.283
54.41000 154.490
54.42000 154.673
54.43000 155.488
54.44000 156.296
54.45000 157.156
54.46000 158.236
54.47000 159.342
54.48000 159.386
54.49000 156.369
54.50000 153.160
54.51000 151.020
54.52000 156.925
54.53000 161.451
54.54000 163.371
54.55000 161.899
54.56000 160.420
54.57000 161.926
54.58000 165.931
54.59000 169.884
54.60000 166.346
54.61000 158.857
54.62000 151.820
54.63000 153.094
54.64000 157.484
54.65000 161.603
54.66000 163.088
54.67000 163.911
54.68000 164.628
54.69000 167.300
54.70000 169.858
54.71000 171.506
54.72000 169.676
54.73000 167.505
54.74000 164.374
54.75000 158.774
54.76000 153.050
54.77000 149.392
54.78000 156.333
54.79000 161.524
54.80000 163.706
54.81000 162.432
54.82000 161.162
54.83000 161.422
54.84000 162.813
54.85000 164.177
54.86000 164.619
54.87000 164.604
54.88000 164.458
54.89000 162.351
54.90000 159.588
54.91000 156.900
54.92000 154.840
54.93000 152.919
54.94000 151.277
54.95000 156.238
54.96000 161.211
54.97000 163.733
54.98000 157.907
54.99000 151.392
55.00000 148.973
55.01000 155.973
55.02000 163.346
55.03000 167.845
55.04000 163.585
55.05000 160.468
55.06000 159.378
55.07000 160.334
55.08000 161.295
55.09000 162.828
55.10000 164.735
55.11000 166.594
55.12000 167.216
55.13000 167.288
55.14000 167.598
55.15000 170.860
55.16000 175.003
55.17000 178.359
55.18000 176.080
55.19000 172.690
55.20000 169.855
55.21000 170.049
55.22000 170.520
55.23000 170.974
55.24000 171.375
55.25000 171.772
55.26000 172.490
55.27000 173.869
55.28000 175.267
55.29000 176.079
55.30000 177.217
55.31000 178.019
55.32000 180.589
55.33000 184.726
55.34000 188.779
55.35000 187.991
55.36000 184.375
55.37000 180.882
55.38000 180.414
55.39000 181.098
55.40000 182.479
55.41000 191.125
55.42000 201.699
55.43000 211.576
55.44000 217.105
55.45000 221.881
55.46000 225.782
55.47000 226.538
55.48000 226.886
55.49000 226.393
55.50000 223.625
55.51000 220.731
55.52000 224.914
55.53000 242.056
55.54000 259.475
55.55000 269.040
55.56000 281.685
55.57000 290.408
55.58000 303.139
55.59000 319.001
55.60000 334.813
55.61000 348.577
55.62000 361.277
55.63000 373.427
55.64000 389.222
55.65000 405.129
55.66000 421.499
55.67000 441.992
55.68000 463.456
55.69000 484.428
55.70000 502.713
55.71000 520.590
55.72000 534.823
55.73000 548.808
55.74000 560.065
55.75000 574.225
55.76000 595.399
55.77000 616.885
55.78000 632.812
55.79000 639.673
55.80000 646.406
55.81000 649.886
55.82000 654.864
55.83000 658.271
55.84000 668.041
55.85000 682.214
55.86000 695.802
55.87000 692.081
55.88000 680.319
55.89000 669.188
55.90000 662.702
55.91000 658.078
55.92000 652.997
55.93000 644.424
55.94000 635.124
55.95000 624.752
55.96000 609.220
55.97000 593.011
55.98000 580.459
55.99000 562.745
56.00000 548.373
56.01000 530.221
56.02000 503.912
56.03000 477.325
56.04000 457.139
56.05000 446.233
56.06000 435.405
56.07000 419.790
56.08000 399.694
56.09000 379.721
56.10000 368.558
56.11000 362.812
56.12000 356.859
56.13000 346.209
56.14000 333.611
56.15000 321.833
56.16000 305.310
56.17000 289.105
56.18000 273.697
56.19000 263.578
56.20000 254.429
56.21000 245.135
56.22000 235.218
56.23000 225.232
56.24000 217.728
56.25000 220.538
56.26000 223.231
56.27000 222.538
56.28000 215.324
56.29000 207.946
56.30000 203.136
56.31000 201.623
56.32000 200.125
56.33000 193.078
56.34000 181.490
56.35000 170.059
56.36000 166.046
56.37000 166.098
56.38000 166.204
56.39000 167.296
56.40000 168.753
56.41000 170.097
56.42000 172.215
56.43000 174.283
56.44000 175.958
56.45000 175.352
56.46000 174.379
56.47000 172.572
56.48000 167.615
56.49000 162.355
56.50000 158.529
56.51000 164.269
56.52000 169.049
56.53000 170.710
56.54000 167.014
56.55000 163.225
56.56000 160.662
56.57000 159.487
56.58000 158.318
56.59000 159.781
56.60000 163.137
56.61000 166.329
56.62000 163.973
56.63000 158.906
56.64000 154.109
56.65000 153.283
56.66000 153.770
56.67000 154.212
56.68000 154.799
56.69000 155.346
56.70000 155.701
56.71000 155.077
56.72000 154.316
56.73000 153.303
56.74000 151.439
56.75000 149.507
56.76000 148.150
56.77000 150.714
56.78000 152.770
56.79000 154.426
56.80000 155.471
56.81000 156.509
56.82000 153.388
56.83000 146.129
56.84000 138.920
56.85000 141.322
56.86000 149.821
56.87000 157.977
56.88000 157.421
56.89000 153.064
56.90000 149.035
56.91000 148.984
56.92000 150.107
56.93000 151.110
56.94000 151.221
56.95000 151.166
56.96000 150.663
56.97000 148.139
56.98000 145.370
56.99000 144.380
57.00000 148.718
57.01000 153.415
57.02000 156.589
57.03000 155.608
57.04000 154.787
57.05000 153.459
57.06000 151.442
57.07000 149.420
57.08000 145.492
57.09000 139.901
57.10000 134.373
57.11000 136.451
57.12000 142.765
57.13000 148.779
57.14000 148.837
57.15000 146.575
57.16000 144.604
57.17000 145.622
57.18000 147.424
57.19000 149.005
57.20000 150.178
57.21000 151.125
57.22000 152.083
57.23000 153.082
57.24000 154.084
57.25000 154.347
57.26000 152.631
57.27000 150.806
57.28000 149.623
57.29000 154.909
57.30000 158.877
57.31000 158.062
57.32000 151.514
57.33000 144.974
57.34000 143.375
57.35000 145.583
57.36000 147.754
57.37000 151.651
57.38000 156.279
57.39000 160.484
57.40000 157.929
57.41000 153.022
57.42000 148.323
57.43000 145.435
57.44000 142.967
57.45000 140.843
57.46000 143.713
57.47000 146.775
57.48000 148.946
57.49000 147.958
57.50000 146.694
57.51000 145.495
57.52000 144.453
57.53000 143.417
57.54000 142.775
57.55000 144.586
57.56000 145.912
57.57000 147.117
57.58000 148.195
57.59000 149.269
57.60000 149.904
57.61000 150.239
57.62000 150.567
57.63000 153.119
57.64000 156.539
57.65000 159.366
57.66000 154.377
57.67000 146.962
57.68000 141.026
57.69000 146.209
57.70000 153.679
57.71000 159.974
57.72000 154.821
57.73000 149.282
57.74000 144.683
57.75000 143.049
57.76000 141.632
57.77000 141.861
57.78000 145.600
57.79000 149.454
57.80000 151.730
57.81000 147.332
57.82000 144.190
57.83000 141.193
57.84000 138.331
57.85000 135.501
57.86000 134.829
57.87000 135.468
57.88000 136.086
57.89000 142.012
57.90000 149.679
57.91000 156.488
57.92000 153.843
57.93000 148.585
57.94000 144.066
57.95000 144.366
57.96000 145.539
57.97000 146.505
57.98000 142.340
57.99000 138.444
58.00000 138.467
58.01000 149.510
58.02000 161.215
58.03000 166.520
58.04000 159.645
58.05000 152.475
58.06000 148.462
58.07000 142.554
58.08000 138.464
58.09000 137.163
58.10000 138.135
58.11000 139.104
58.12000 139.908
58.13000 140.624
58.14000 141.311
58.15000 140.631
58.16000 139.528
58.17000 138.641
58.18000 139.770
58.19000 141.394
58.20000 142.920
58.21000 143.886
58.22000 144.764
58.23000 145.469
58.24000 141.051
58.25000 137.079
58.26000 135.580
58.27000 140.298
58.28000 145.314
58.29000 146.773
58.30000 142.201
58.31000 137.528
58.32000 135.062
58.33000 137.086
58.34000 138.484
58.35000 143.004
58.36000 149.776
58.37000 156.293
58.38000 154.514
58.39000 148.730
58.40000 143.235
58.41000 142.526
58.42000 143.315
58.43000 143.781
58.44000 141.661
58.45000 138.979
58.46000 136.990
58.47000 138.478
58.48000 140.445
58.49000 141.984
58.50000 141.222
58.51000 140.468
58.52000 138.259
58.53000 132.787
58.54000 127.193
58.55000 125.482
58.56000 129.629
58.57000 133.835
58.58000 134.872
58.59000 132.803
58.60000 130.770
58.61000 131.806
58.62000 134.807
58.63000 137.766
58.64000 139.694
58.65000 141.177
58.66000 142.570
58.67000 141.346
58.68000 139.534
58.69000 138.085
58.70000 139.153
58.71000 140.705
58.72000 141.998
58.73000 142.143
58.74000 142.152
58.75000 142.159
58.76000 137.212
58.77000 133.068
58.78000 129.190
58.79000 125.847
58.80000 122.518
58.81000 123.837
58.82000 131.376
58.83000 138.941
58.84000 143.163
58.85000 144.503
58.86000 145.807
58.87000 145.180
58.88000 143.453
58.89000 141.740
58.90000 140.293
58.91000 138.949
58.92000 137.703
58.93000 138.383
58.94000 139.444
58.95000 140.031
58.96000 137.740
58.97000 134.964
58.98000 132.939
58.99000 133.861
59.00000 135.084
59.01000 135.983
59.02000 135.951
59.03000 135.887
59.04000 135.814
59.05000 135.723
59.06000 135.631
59.07000 135.818
59.08000 136.332
59.09000 136.846
59.10000 137.412
59.11000 138.012
59.12000 138.633
59.13000 140.049
59.14000 141.869
59.15000 143.656
59.16000 144.912
59.17000 145.985
59.18000 146.966
59.19000 145.894
59.20000 144.523
59.21000 143.081
59.22000 141.263
59.23000 139.391
59.24000 137.572
59.25000 135.942
59.26000 134.329
59.27000 133.182
59.28000 133.836
59.29000 134.391
59.30000 135.311
59.31000 136.810
59.32000 138.316
59.33000 138.996
59.34000 138.815
59.35000 138.636
59.36000 137.959
59.37000 136.960
59.38000 135.966
59.39000 135.104
59.40000 134.302
59.41000 133.658
59.42000 135.049
59.43000 137.063
59.44000 138.873
59.45000 140.377
59.46000 141.639
59.47000 142.000
59.48000 138.137
59.49000 133.735
59.50000 130.334
59.51000 130.053
59.52000 129.996
59.53000 129.957
59.54000 133.487
59.55000 136.216
59.56000 139.996
59.57000 145.258
59.58000 150.530
59.59000 153.086
59.60000 153.166
59.61000 153.245
59.62000 149.040
59.63000 142.404
59.64000 136.125
59.65000 137.502
59.66000 141.979
59.67000 145.888
59.68000 143.649
59.69000 139.733
59.70000 136.274
59.71000 136.232
59.72000 136.723
59.73000 136.733
59.74000 134.745
59.75000 132.539
59.76000 131.161
59.77000 132.084
59.78000 133.142
59.79000 133.838
59.80000 138.260
59.81000 141.580
59.82000 141.307
59.83000 136.540
59.84000 131.781
59.85000 134.095
59.86000 142.093
59.87000 149.974
59.88000 149.395
59.89000 144.445
59.90000 139.606
59.91000 136.670
59.92000 134.420
59.93000 132.226
59.94000 130.534
59.95000 128.964
59.96000 127.603
59.97000 129.728
59.98000 132.001
59.99000 133.726
60.00000 133.435
60.01000 132.957
60.02000 132.505
60.03000 132.122
60.04000 131.742
60.05000 131.502
60.06000 135.231
60.07000 137.974
60.08000 138.115
60.09000 135.388
60.10000 132.668
60.11000 131.236
60.12000 130.719
60.13000 130.213
60.14000 127.351
60.15000 123.522
60.16000 120.217
60.17000 124.255
60.18000 130.662
60.19000 136.756
60.20000 140.378
60.21000 143.470
60.22000 146.095
60.23000 144.564
60.24000 142.805
60.25000 141.385
60.26000 141.074
60.27000 140.849
60.28000 139.393
60.29000 135.208
60.30000 130.924
60.31000 128.351
60.32000 132.755
60.33000 135.931
60.34000 137.644
60.35000 137.941
60.36000 138.224
60.37000 137.390
60.38000 135.850
60.39000 134.353
60.40000 134.822
60.41000 136.063
60.42000 137.182
60.43000 136.870
60.44000 136.146
60.45000 135.342
60.46000 133.998
60.47000 132.551
60.48000 131.349
60.49000 134.058
60.50000 136.676
60.51000 138.071
60.52000 135.893
60.53000 133.484
60.54000 131.655
60.55000 130.972
60.56000 130.320
60.57000 129.949
60.58000 131.580
60.59000 132.728
60.60000 135.686
60.61000 140.184
60.62000 144.575
60.63000 143.451
60.64000 139.225
60.65000 135.155
60.66000 135.607
60.67000 137.646
60.68000 139.503
60.69000 139.568
60.70000 139.174
60.71000 138.791
60.72000 138.477
60.73000 138.175
60.74000 137.930
60.75000 130.633
60.76000 124.115
60.77000 119.923
60.78000 121.800
60.79000 123.993
60.80000 128.085
60.81000 135.528
60.82000 143.034
60.83000 147.079
60.84000 136.687
60.85000 129.601
60.86000 129.324
60.87000 134.160
60.88000 138.949
60.89000 142.015
60.90000 144.217
60.91000 146.317
60.92000 143.274
60.93000 138.832
60.94000 135.135
60.95000 137.740
60.96000 141.771
60.97000 144.004
60.98000 136.801
60.99000 128.233
61.00000 121.471
61.01000 123.427
61.02000 125.588
61.03000 128.112
61.04000 131.483
61.05000 134.888
61.06000 137.675
61.07000 139.490
61.08000 141.293
61.09000 142.205
61.10000 142.588
61.11000 142.809
61.12000 139.466
61.13000 133.749
61.14000 128.365
61.15000 131.946
61.16000 139.543
61.17000 146.706
61.18000 145.046
61.19000 141.080
61.20000 137.829
61.21000 139.797
61.22000 142.809
61.23000 145.222
61.24000 144.866
61.25000 144.163
61.26000 143.624
61.27000 141.396
61.28000 139.542
61.29000 139.059
61.30000 141.428
61.31000 143.886
61.32000 145.838
61.33000 147.085
61.34000 148.326
61.35000 147.561
61.36000 144.995
61.37000 142.478
61.38000 142.962
61.39000 145.225
61.40000 147.374
61.41000 147.153
61.42000 145.984
61.43000 144.896
61.44000 146.704
61.45000 149.043
61.46000 151.323
61.47000 153.226
61.48000 155.062
61.49000 158.845
61.50000 170.596
61.51000 183.203
61.52000 192.580
61.53000 207.060
61.54000 218.550
61.55000 229.272
61.56000 238.567
61.57000 247.830
61.58000 261.943
61.59000 282.041
61.60000 302.118
61.61000 315.435
61.62000 323.352
61.63000 331.072
61.64000 330.473
61.65000 325.483
61.66000 320.895
61.67000 323.068
61.68000 327.655
61.69000 331.865
61.70000 340.064
61.71000 348.226
61.72000 352.568
61.73000 335.686
61.74000 315.538
61.75000 298.840
61.76000 294.690
61.77000 291.685
61.78000 289.524
61.79000 264.606
61.80000 244.734
61.81000 225.569
61.82000 207.574
61.83000 189.597
61.84000 176.811
61.85000 169.669
61.86000 162.561
61.87000 158.008
61.88000 155.278
61.89000 152.530
61.90000 149.245
61.91000 145.707
61.92000 142.405
61.93000 142.344
61.94000 143.316
61.95000 144.195
61.96000 144.485
61.97000 144.631
61.98000 144.827
61.99000 145.275
62.00000 145.756
62.01000 145.935
62.02000 145.135
62.03000 144.261
62.04000 143.655
62.05000 141.022
62.06000 138.986
62.07000 138.645
62.08000 140.796
62.09000 142.970
62.10000 141.853
62.11000 137.601
62.12000 133.383
62.13000 134.994
62.14000 140.147
62.15000 145.209
62.16000 148.140
62.17000 150.174
62.18000 152.316
62.19000 155.685
62.20000 159.403
62.21000 162.707
62.22000 154.644
62.23000 145.809
62.24000 139.241
62.25000 142.473
62.26000 146.835
62.27000 149.672
62.28000 148.107
62.29000 146.264
62.30000 145.035
62.31000 137.588
62.32000 131.952
62.33000 132.354
62.34000 140.628
62.35000 148.922
62.36000 150.753
62.37000 147.166
62.38000 143.625
62.39000 142.253
62.40000 142.090
62.41000 142.039
62.42000 144.036
62.43000 146.804
62.44000 148.982
62.45000 145.432
62.46000 140.438
62.47000 136.079
62.48000 132.839
62.49000 130.224
62.50000 129.486
62.51000 135.946
62.52000 143.114
62.53000 146.894
62.54000 141.941
62.55000 136.544
62.56000 133.094
62.57000 138.237
62.58000 142.094
62.59000 145.073
62.60000 147.039
62.61000 149.001
62.62000 150.236
62.63000 150.932
62.64000 151.615
62.65000 150.713
62.66000 149.086
62.67000 147.739
62.68000 150.590
62.69000 154.849
62.70000 158.130
62.71000 153.287
62.72000 146.629
62.73000 140.934
62.74000 140.469
62.75000 140.705
62.76000 141.350
62.77000 143.389
62.78000 145.544
62.79000 146.372
62.80000 144.144
62.81000 141.796
62.82000 140.361
62.83000 144.607
62.84000 147.689
62.85000 147.949
62.86000 145.357
62.87000 142.808
62.88000 144.511
62.89000 149.008
62.90000 153.389
62.91000 151.587
62.92000 147.259
62.93000 143.258
62.94000 143.320
62.95000 144.597
62.96000 145.575
62.97000 144.407
62.98000 142.816
62.99000 141.485
63.00000 144.130
63.01000 146.735
63.02000 148.093
63.03000 145.664
63.04000 142.974
63.05000 142.073
63.06000 144.852
63.07000 147.741
63.08000 149.418
63.09000 143.387
63.10000 139.124
63.11000 139.423
63.12000 143.770
63.13000 148.020
63.14000 146.627
63.15000 141.932
63.16000 137.397
63.17000 138.408
63.18000 141.427
63.19000 144.433
63.20000 147.298
63.21000 150.125
63.22000 152.799
63.23000 154.516
63.24000 156.066
63.25000 157.333
63.26000 156.800
63.27000 156.209
63.28000 155.311
63.29000 153.585
63.30000 151.811
63.31000 151.868
63.32000 155.279
63.33000 158.763
63.34000 160.678
63.35000 157.610
63.36000 155.493
63.37000 154.436
63.38000 154.209
63.39000 153.959
63.40000 152.839
63.41000 151.265
63.42000 149.758
63.43000 150.372
63.44000 151.641
63.45000 152.821
63.46000 153.209
63.47000 153.411
63.48000 153.642
63.49000 154.035
63.50000 154.452
63.51000 154.784
63.52000 158.406
63.53000 161.564
63.54000 162.821
63.55000 159.470
63.56000 155.914
63.57000 155.772
63.58000 161.207
63.59000 166.721
63.60000 169.574
63.61000 160.333
63.62000 154.157
63.63000 155.251
63.64000 161.386
63.65000 167.231
63.66000 164.461
63.67000 157.683
63.68000 151.268
63.69000 147.030
63.70000 143.762
63.71000 141.415
63.72000 146.121
63.73000 152.299
63.74000 157.821
63.75000 160.178
63.76000 162.117
63.77000 163.619
63.78000 162.783
63.79000 161.979
63.80000 162.176
63.81000 164.540
63.82000 166.978
63.83000 166.520
63.84000 161.856
63.85000 157.158
63.86000 154.002
63.87000 152.295
63.88000 150.668
63.89000 154.821
63.90000 162.536
63.91000 169.857
63.92000 168.215
63.93000 162.850
63.94000 157.833
63.95000 156.086
63.96000 155.332
63.97000 155.032
63.98000 157.756
63.99000 161.036
64.00000 163.712
64.01000 163.816
64.02000 163.627
64.03000 163.486
64.04000 165.859
64.05000 167.836
64.06000 168.368
64.07000 166.114
64.08000 163.790
64.09000 162.829
64.10000 163.623
64.11000 164.424
64.12000 164.736
64.13000 164.644
64.14000 164.508
64.15000 162.227
64.16000 158.769
64.17000 155.511
64.18000 155.849
64.19000 157.521
64.20000 159.064
64.21000 157.218
64.22000 154.807
64.23000 153.072
64.24000 155.265
64.25000 158.090
64.26000 161.193
64.27000 165.346
64.28000 169.600
64.29000 172.696
64.30000 168.308
64.31000 164.646
64.32000 162.625
64.33000 163.430
64.34000 164.283
64.35000 164.322
64.36000 163.437
64.37000 162.555
64.38000 163.484
64.39000 165.722
64.40000 167.934
64.41000 169.303
64.42000 170.258
64.43000 171.170
64.44000 171.437
64.45000 171.490
64.46000 171.538
64.47000 169.312
64.48000 166.900
64.49000 165.093
64.50000 166.364
64.51000 168.069
64.52000 170.204
64.53000 173.790
64.54000 177.495
64.55000 180.097
64.56000 178.914
64.57000 177.908
64.58000 177.269
64.59000 177.193
64.60000 177.123
64.61000 178.220
64.62000 180.480
64.63000 182.724
64.64000 182.333
64.65000 180.262
64.66000 178.410
64.67000 182.118
64.68000 188.255
64.69000 193.725
64.70000 191.077
64.71000 186.032
64.72000 181.522
64.73000 182.951
64.74000 185.205
64.75000 186.693
64.76000 184.735
64.77000 182.359
64.78000 181.656
64.79000 185.976
64.80000 190.634
64.81000 193.785
64.82000 195.997
64.83000 197.624
64.84000 197.852
64.85000 196.180
64.86000 194.499
64.87000 194.259
64.88000 195.279
64.89000 196.288
64.90000 195.481
64.91000 193.667
64.92000 192.083
64.93000 195.071
64.94000 199.843
64.95000 204.247
64.96000 204.874
64.97000 204.509
64.98000 204.189
64.99000 204.887
65.00000 205.637
65.01000 206.253
65.02000 206.334
65.03000 206.359
65.04000 209.097
65.05000 219.103
65.06000 229.507
65.07000 236.259
65.08000 234.855
65.09000 233.704
65.10000 234.412
65.11000 237.354
65.12000 240.308
65.13000 245.038
65.14000 251.140
65.15000 257.141
65.16000 262.674
65.17000 267.794
65.18000 272.812
65.19000 276.193
65.20000 279.004
65.21000 282.687
65.22000 294.007
65.23000 307.106
65.24000 318.387
65.25000 328.439
65.26000 336.801
65.27000 344.372
65.28000 349.136
65.29000 353.654
65.30000 358.737
65.31000 365.172
65.32000 371.665
65.33000 375.695
65.34000 384.837
65.35000 391.464
65.36000 401.628
65.37000 415.528
65.38000 429.371
65.39000 436.537
65.40000 439.134
65.41000 441.670
65.42000 444.008
65.43000 446.160
65.44000 448.414
65.45000 452.019
65.46000 456.045
65.47000 460.210
65.48000 465.429
65.49000 470.866
65.50000 475.450
65.51000 470.153
65.52000 464.660
65.53000 462.241
65.54000 469.528
65.55000 477.528
65.56000 479.171
65.57000 467.235
65.58000 454.847
65.59000 447.528
65.60000 468.706
65.61000 483.824
65.62000 497.646
65.63000 510.266
65.64000 522.994
65.65000 543.093
65.66000 567.677
65.67000 591.498
65.68000 631.130
65.69000 674.787
65.70000 718.799
65.71000 766.728
65.72000 815.741
65.73000 869.207
65.74000 951.816
65.75000 1039.710
65.76000 1112.128
65.77000 1171.811
65.78000 1219.750
65.79000 1266.540
65.80000 1310.090
65.81000 1353.445
65.82000 1384.507
65.83000 1392.134
65.84000 1399.193
65.85000 1403.147
65.86000 1394.721
65.87000 1388.852
65.88000 1383.390
65.89000 1378.260
65.90000 1372.674
65.91000 1346.322
65.92000 1308.714
65.93000 1272.604
65.94000 1198.600
65.95000 1116.382
65.96000 1033.760
65.97000 947.342
65.98000 859.992
65.99000 776.307
66.00000 713.600
66.01000 654.225
66.02000 606.511
66.03000 546.910
66.04000 497.685
66.05000 454.813
66.06000 427.924
66.07000 401.807
66.08000 378.605
66.09000 360.355
66.10000 342.188
66.11000 332.588
66.12000 337.438
66.13000 340.708
66.14000 339.106
66.15000 333.987
66.16000 329.171
66.17000 334.312
66.18000 344.267
66.19000 353.727
66.20000 350.066
66.21000 342.719
66.22000 337.281
66.23000 347.202
66.24000 360.468
66.25000 372.498
66.26000 378.312
66.27000 383.267
66.28000 387.143
66.29000 414.128
66.30000 437.144
66.31000 455.163
66.32000 461.957
66.33000 468.328
66.34000 476.168
66.35000 486.229
66.36000 496.312
66.37000 506.612
66.38000 517.125
66.39000 527.563
66.40000 531.558
66.41000 531.423
66.42000 531.230
66.43000 529.605
66.44000 527.360
66.45000 525.253
66.46000 514.908
66.47000 503.283
66.48000 491.806
66.49000 481.363
66.50000 471.117
66.51000 460.361
66.52000 447.331
66.53000 434.031
66.54000 423.927
66.55000 401.935
66.56000 384.031
66.57000 369.914
66.58000 363.394
66.59000 357.087
66.60000 354.826
66.61000 357.989
66.62000 361.178
66.63000 359.960
66.64000 354.949
66.65000 349.839
66.66000 339.360
66.67000 325.817
66.68000 313.131
66.69000 317.129
66.70000 327.560
66.71000 337.230
66.72000 343.991
66.73000 349.399
66.74000 354.116
66.75000 354.640
66.76000 354.456
66.77000 353.375
66.78000 348.757
66.79000 343.779
66.80000 340.115
66.81000 343.530
66.82000 346.466
66.83000 349.610
66.84000 353.126
66.85000 356.649
66.86000 359.963
66.87000 363.031
66.88000 366.091
66.89000 364.262
66.90000 358.742
66.91000 353.559
66.92000 361.087
66.93000 375.082
66.94000 388.175
66.95000 387.112
66.96000 381.178
66.97000 375.756
66.98000 370.123
66.99000 365.078
67.00000 360.162
67.01000 355.934
67.02000 351.807
67.03000 351.253
67.04000 363.217
67.05000 376.261
67.06000 385.539
67.07000 379.819
67.08000 374.982
67.09000 374.687
67.10000 381.629
67.11000 388.664
67.12000 392.907
67.13000 394.243
67.14000 395.571
67.15000 399.330
67.16000 404.664
67.17000 409.953
67.18000 413.964
67.19000 417.394
67.20000 419.835
67.21000 409.467
67.22000 395.166
67.23000 382.307
67.24000 388.056
67.25000 396.404
67.26000 406.146
67.27000 422.436
67.28000 439.562
67.29000 449.806
67.30000 438.579
67.31000 425.806
67.32000 417.053
67.33000 421.592
67.34000 425.312
67.35000 427.069
67.36000 426.047
67.37000 425.008
67.38000 430.010
67.39000 440.531
67.40000 450.953
67.41000 455.874
67.42000 457.458
67.43000 458.812
67.44000 455.208
67.45000 449.594
67.46000 444.848
67.47000 449.516
67.48000 456.755
67.49000 463.153
67.50000 463.547
67.51000 462.960
67.52000 463.638
67.53000 469.573
67.54000 476.085
67.55000 480.712
67.56000 480.091
67.57000 479.160
67.58000 478.548
67.59000 478.469
67.60000 478.421
67.61000 486.044
67.62000 503.276
67.63000 520.496
67.64000 522.984
67.65000 513.610
67.66000 504.373
67.67000 502.942
67.68000 505.609
67.69000 508.114
67.70000 507.833
67.71000 506.545
67.72000 506.260
67.73000 515.234
67.74000 526.454
67.75000 536.184
67.76000 541.471
67.77000 545.382
67.78000 548.357
67.79000 547.883
67.80000 547.087
67.81000 547.306
67.82000 550.047
67.83000 552.907
67.84000 554.710
67.85000 559.338
67.86000 562.721
67.87000 563.084
67.88000 560.110
67.89000 557.173
67.90000 559.826
67.91000 566.461
67.92000 572.958
67.93000 576.652
67.94000 578.913
67.95000 581.160
67.96000 583.191
67.97000 585.153
67.98000 587.200
67.99000 589.919
68.00000 592.783
68.01000 595.215
68.02000 605.776
68.03000 615.568
68.04000 622.770
68.05000 621.463
68.06000 619.491
68.07000 618.122
68.08000 618.092
68.09000 618.110
68.10000 618.122
68.11000 630.942
68.12000 640.143
68.13000 645.538
68.14000 647.247
68.15000 648.970
68.16000 651.800
68.17000 655.330
68.18000 658.761
68.19000 660.900
68.20000 662.408
68.21000 663.867
68.22000 664.741
68.23000 665.446
68.24000 667.474
68.25000 678.576
68.26000 691.398
68.27000 702.047
68.28000 708.709
68.29000 713.830
68.30000 718.130
68.31000 720.021
68.32000 721.756
68.33000 727.079
68.34000 739.510
68.35000 752.134
68.36000 759.339
68.37000 778.147
68.38000 791.303
68.39000 802.064
68.40000 810.786
68.41000 819.483
68.42000 826.901
68.43000 833.598
68.44000 840.049
68.45000 846.549
68.46000 852.671
68.47000 859.612
68.48000 874.654
68.49000 891.770
68.50000 908.627
68.51000 923.939
68.52000 938.995
68.53000 951.199
68.54000 982.468
68.55000 1009.504
68.56000 1044.535
68.57000 1100.467
68.58000 1157.489
68.59000 1203.673
68.60000 1230.708
68.61000 1257.378
68.62000 1271.761
68.63000 1356.894
68.64000 1415.235
68.65000 1481.870
68.66000 1554.744
68.67000 1627.556
68.68000 1698.118
68.69000 1767.550
68.70000 1833.766
68.71000 1904.991
68.72000 1972.655
68.73000 2041.359
68.74000 2118.865
68.75000 2198.368
68.76000 2277.943
68.77000 2357.891
68.78000 2437.894
68.79000 2501.060
68.80000 2579.905
68.81000 2644.243
68.82000 2746.535
68.83000 2937.421
68.84000 3131.946
68.85000 3381.096
68.86000 3716.167
68.87000 4052.285
68.88000 4222.618
68.89000 5393.158
68.90000 6184.696
68.91000 7756.646
68.92000 9849.183
68.93000 11994.637
68.94000 15574.841
68.95000 19798.678
68.96000 23781.740
68.97000 29988.010
68.98000 36291.063
68.99000 42611.695
69.00000 49060.746
69.01000 55535.543
69.02000 61675.695
69.03000 66265.414
69.04000 70660.406
69.05000 74033.023
69.06000 76617.125
69.07000 78615.281
69.08000 80154.664
69.09000 80737.758
69.10000 81291.055
69.11000 81887.492
69.12000 82544.195
69.13000 83201.063
69.14000 83899.586
69.15000 84634.922
69.16000 85357.375
69.17000 85278.367
69.18000 84723.859
69.19000 84080.672
69.20000 81570.930
69.21000 78313.383
69.22000 75279.984
69.23000 70681.141
69.24000 66140.938
69.25000 61733.207
69.26000 58167.273
69.27000 54749.773
69.28000 51550.797
69.29000 49248.277
69.30000 47042.402
69.31000 45401.016
69.32000 43667.109
69.33000 42314.004
69.34000 40973.035
69.35000 39654.645
69.36000 38336.762
69.37000 36646.148
69.38000 34494.828
69.39000 32346.102
69.40000 29547.564
69.41000 26248.061
69.42000 22951.838
69.43000 19794.225
69.44000 16709.902
69.45000 13669.966
69.46000 11377.666
69.47000 9352.800
69.48000 7493.412
69.49000 6173.548
69.50000 5111.300
69.51000 4125.498
69.52000 3565.036
69.53000 3070.183
69.54000 2635.786
69.55000 2421.662
69.56000 2227.700
69.57000 2088.105
69.58000 1955.562
69.59000 1854.322
69.60000 1756.964
69.61000 1666.036
69.62000 1575.204
69.63000 1510.160
69.64000 1473.198
69.65000 1436.409
69.66000 1395.100
69.67000 1351.072
69.68000 1307.416
69.69000 1275.223
69.70000 1248.439
69.71000 1221.152
69.72000 1186.929
69.73000 1150.492
69.74000 1117.544
69.75000 1094.152
69.76000 1075.350
69.77000 1057.764
69.78000 1046.135
69.79000 1035.305
69.80000 1020.471
69.81000 992.646
69.82000 963.824
69.83000 943.816
69.84000 925.797
69.85000 912.275
69.86000 906.233
69.87000 911.208
69.88000 916.280
69.89000 906.110
69.90000 881.385
69.91000 856.859
69.92000 847.396
69.93000 847.349
69.94000 846.650
69.95000 830.637
69.96000 808.172
69.97000 786.708
69.98000 776.755
69.99000 770.072
70.00000 764.131
