20.00000 579.782
20.01000 564.555
20.02000 547.152
20.03000 535.835
20.04000 548.247
20.05000 563.048
20.06000 573.909
20.07000 577.822
20.08000 580.563
20.09000 581.798
20.10000 580.364
20.11000 578.878
20.12000 574.755
20.13000 567.544
20.14000 560.347
20.15000 562.730
20.16000 572.270
20.17000 581.383
20.18000 574.867
20.19000 560.479
20.20000 547.201
20.21000 551.034
20.22000 560.698
20.23000 569.516
20.24000 570.263
20.25000 569.297
20.26000 567.901
20.27000 564.239
20.28000 560.248
20.29000 556.890
20.30000 555.724
20.31000 554.745
20.32000 554.051
20.33000 558.301
20.34000 561.688
20.35000 566.065
20.36000 572.003
20.37000 577.960
20.38000 578.304
20.39000 572.867
20.40000 567.460
20.41000 568.246
20.42000 573.107
20.43000 577.628
20.44000 572.921
20.45000 564.065
20.46000 556.146
20.47000 560.174
20.48000 567.830
20.49000 574.704
20.50000 571.009
20.51000 565.918
20.52000 561.020
20.53000 557.015
20.54000 553.122
20.55000 551.548
20.56000 557.136
20.57000 563.231
20.58000 567.394
20.59000 556.189
20.60000 547.448
20.61000 545.628
20.62000 553.496
20.63000 561.429
20.64000 565.724
20.65000 566.733
20.66000 567.732
20.67000 566.936
20.68000 565.112
20.69000 563.390
20.70000 563.799
20.71000 565.065
20.72000 565.366
20.73000 555.342
20.74000 542.527
20.75000 531.220
20.76000 547.182
20.77000 565.109
20.78000 579.505
20.79000 579.385
20.80000 577.695
20.81000 574.565
20.82000 567.464
20.83000 560.135
20.84000 555.327
20.85000 562.110
20.86000 567.292
20.87000 568.629
20.88000 565.201
20.89000 561.753
20.90000 556.117
20.91000 548.738
20.92000 541.471
20.93000 541.535
20.94000 545.366
20.95000 549.011
20.96000 549.518
20.97000 548.899
20.98000 547.774
20.99000 542.041
21.00000 535.201
21.01000 529.280
21.02000 534.428
21.03000 540.262
21.04000 547.499
21.05000 559.863
21.06000 572.697
21.07000 578.747
21.08000 568.102
21.09000 556.688
21.10000 549.523
21.11000 558.528
21.12000 565.213
21.13000 564.583
21.14000 555.967
21.15000 547.416
21.16000 548.247
21.17000 555.693
21.18000 562.979
21.19000 559.982
21.20000 552.436
21.21000 545.442
21.22000 546.076
21.23000 549.150
21.24000 551.061
21.25000 543.879
21.26000 534.766
21.27000 527.040
21.28000 536.303
21.29000 545.980
21.30000 553.830
21.31000 555.739
21.32000 557.190
21.33000 557.353
21.34000 554.685
21.35000 551.915
21.36000 550.258
21.37000 547.969
21.38000 546.340
21.39000 547.109
21.40000 550.172
21.41000 553.217
21.42000 554.813
21.43000 555.501
21.44000 556.169
21.45000 558.541
21.46000 561.476
21.47000 563.251
21.48000 551.634
21.49000 536.203
21.50000 524.379
21.51000 536.998
21.52000 554.195
21.53000 568.448
21.54000 555.008
21.55000 541.258
21.56000 531.377
21.57000 532.712
21.58000 534.757
21.59000 539.098
21.60000 547.938
21.61000 556.897
21.62000 561.985
21.63000 565.043
21.64000 567.164
21.65000 568.098
21.66000 568.032
21.67000 567.982
21.68000 568.728
21.69000 569.919
21.70000 571.065
21.71000 572.976
21.72000 575.039
21.73000 577.270
21.74000 581.147
21.75000 585.441
21.76000 588.574
21.77000 584.836
21.78000 579.969
21.79000 576.033
21.80000 583.085
21.81000 589.707
21.82000 593.611
21.83000 590.480
21.84000 586.989
21.85000 586.747
21.86000 592.185
21.87000 597.728
21.88000 600.702
21.89000 619.855
21.90000 632.888
21.91000 634.926
21.92000 628.782
21.93000 622.978
21.94000 629.182
21.95000 641.361
21.96000 652.965
21.97000 654.537
21.98000 652.864
21.99000 651.727
22.00000 655.075
22.01000 659.429
22.02000 663.784
22.03000 668.139
22.04000 672.495
22.05000 675.926
22.06000 676.403
22.07000 676.588
22.08000 678.455
22.09000 684.210
22.10000 690.120
22.11000 693.458
22.12000 692.794
22.13000 692.083
22.14000 691.725
22.15000 683.262
22.16000 677.576
22.17000 669.048
22.18000 658.645
22.19000 648.647
22.20000 649.391
22.21000 654.907
22.22000 660.102
22.23000 652.976
22.24000 643.072
22.25000 632.803
22.26000 619.896
22.27000 606.467
22.28000 596.924
22.29000 605.190
22.30000 615.663
22.31000 623.679
22.32000 610.720
22.33000 599.347
22.34000 588.107
22.35000 577.142
22.36000 566.186
22.37000 559.012
22.38000 557.063
22.39000 555.149
22.40000 555.220
22.41000 557.057
22.42000 558.805
22.43000 555.219
22.44000 548.502
22.45000 542.162
22.46000 543.615
22.47000 548.159
22.48000 552.385
22.49000 544.148
22.50000 533.703
22.51000 525.507
22.52000 531.429
22.53000 539.811
22.54000 545.561
22.55000 540.629
22.56000 534.562
22.57000 530.060
22.58000 523.606
22.59000 518.506
22.60000 518.934
22.61000 529.538
22.62000 540.364
22.63000 543.250
22.64000 536.431
22.65000 529.601
22.66000 524.004
22.67000 519.401
22.68000 514.918
22.69000 515.398
22.70000 518.475
22.71000 521.615
22.72000 525.805
22.73000 530.366
22.74000 534.549
22.75000 533.246
22.76000 530.927
22.77000 528.480
22.78000 525.336
22.79000 522.086
22.80000 520.984
22.81000 527.626
22.82000 534.966
22.83000 540.233
22.84000 534.990
22.85000 530.620
22.86000 528.559
22.87000 530.286
22.88000 532.067
22.89000 531.110
22.90000 527.207
22.91000 523.320
22.92000 521.895
22.93000 522.181
22.94000 522.450
22.95000 522.222
22.96000 521.761
22.97000 521.380
22.98000 522.068
22.99000 523.094
23.00000 524.020
23.01000 518.931
23.02000 513.349
23.03000 508.236
23.04000 505.397
23.05000 502.859
23.06000 499.742
23.07000 494.765
23.08000 489.647
23.09000 486.107
23.10000 496.039
23.11000 503.860
23.12000 507.360
23.13000 504.562
23.14000 501.712
23.15000 504.679
23.16000 513.137
23.17000 521.524
23.18000 524.258
23.19000 523.510
23.20000 522.708
23.21000 520.686
23.22000 518.155
23.23000 516.267
23.24000 521.653
23.25000 529.087
23.26000 535.686
23.27000 535.966
23.28000 535.198
23.29000 532.840
23.30000 523.672
23.31000 513.729
23.32000 507.593
23.33000 512.358
23.34000 517.799
23.35000 521.419
23.36000 519.582
23.37000 518.120
23.38000 517.989
23.39000 519.576
23.40000 521.167
23.41000 521.659
23.42000 521.238
23.43000 520.823
23.44000 515.470
23.45000 507.615
23.46000 500.230
23.47000 501.377
23.48000 505.704
23.49000 509.923
23.50000 513.108
23.51000 516.036
23.52000 518.587
23.53000 520.861
23.54000 522.766
23.55000 523.794
23.56000 521.490
23.57000 518.862
23.58000 518.098
23.59000 522.100
23.60000 526.341
23.61000 529.044
23.62000 532.629
23.63000 535.247
23.64000 535.505
23.65000 533.072
23.66000 530.644
23.67000 529.594
23.68000 529.557
23.69000 529.521
23.70000 528.303
23.71000 526.572
23.72000 525.091
23.73000 527.310
23.74000 530.758
23.75000 533.752
23.76000 533.010
23.77000 531.441
23.78000 530.101
23.79000 528.774
23.80000 527.658
23.81000 529.215
23.82000 539.809
23.83000 551.143
23.84000 558.966
23.85000 558.774
23.86000 558.269
23.87000 557.961
23.88000 542.585
23.89000 531.485
23.90000 531.937
23.91000 543.953
23.92000 555.913
23.93000 562.720
23.94000 566.169
23.95000 569.527
23.96000 559.993
23.97000 545.517
23.98000 532.828
23.99000 542.040
24.00000 557.741
24.01000 571.478
24.02000 571.264
24.03000 568.322
24.04000 565.864
24.05000 567.113
24.06000 568.524
24.07000 568.073
24.08000 562.009
24.09000 555.563
24.10000 551.537
24.11000 552.443
24.12000 553.493
24.13000 554.101
24.14000 553.735
24.15000 553.472
24.16000 550.136
24.17000 544.101
24.18000 538.080
24.19000 532.865
24.20000 528.119
24.21000 523.537
24.22000 517.548
24.23000 511.388
24.24000 505.428
24.25000 501.534
24.26000 498.185
24.27000 497.023
24.28000 509.390
24.29000 524.083
24.30000 536.067
24.31000 524.548
24.32000 513.120
24.33000 507.182
24.34000 516.006
24.35000 525.644
24.36000 529.926
24.37000 524.469
24.38000 518.807
24.39000 515.709
24.40000 514.901
24.41000 514.352
24.42000 514.652
24.43000 515.609
24.44000 516.502
24.45000 514.887
24.46000 511.974
24.47000 509.189
24.48000 503.162
24.49000 496.497
24.50000 490.422
24.51000 489.528
24.52000 489.847
24.53000 490.323
24.54000 491.658
24.55000 493.121
24.56000 494.284
24.57000 498.433
24.58000 501.988
24.59000 500.923
24.60000 488.767
24.61000 476.125
24.62000 469.809
24.63000 473.738
24.64000 477.807
24.65000 479.903
24.66000 478.246
24.67000 477.166
24.68000 480.275
24.69000 486.263
24.70000 492.104
24.71000 493.665
24.72000 493.251
24.73000 492.859
24.74000 493.680
24.75000 494.783
24.76000 494.443
24.77000 483.188
24.78000 469.674
24.79000 458.771
24.80000 460.337
24.81000 463.527
24.82000 465.994
24.83000 464.637
24.84000 463.336
24.85000 465.421
24.86000 474.766
24.87000 484.355
24.88000 487.540
24.89000 481.508
24.90000 475.403
24.91000 476.805
24.92000 485.189
24.93000 493.513
24.94000 497.696
24.95000 499.349
24.96000 500.443
24.97000 489.028
24.98000 472.457
24.99000 456.976
25.00000 455.584
25.01000 457.871
25.02000 460.064
25.03000 461.631
25.04000 463.085
25.05000 463.954
25.06000 462.356
25.07000 460.481
25.08000 459.075
25.09000 469.098
25.10000 477.468
25.11000 482.533
25.12000 481.275
25.13000 479.862
25.14000 480.642
25.15000 484.220
25.16000 487.802
25.17000 486.303
25.18000 480.658
25.19000 475.112
25.20000 474.088
25.21000 475.524
25.22000 476.774
25.23000 474.700
25.24000 471.404
25.25000 468.367
25.26000 463.967
25.27000 459.728
25.28000 456.837
25.29000 461.697
25.30000 467.794
25.31000 473.544
25.32000 477.995
25.33000 482.321
25.34000 485.461
25.35000 483.623
25.36000 482.024
25.37000 480.992
25.38000 480.924
25.39000 480.873
25.40000 478.108
25.41000 472.289
25.42000 466.489
25.43000 465.848
25.44000 468.920
25.45000 471.983
25.46000 474.755
25.47000 477.387
25.48000 479.134
25.49000 468.081
25.50000 452.824
25.51000 438.973
25.52000 448.486
25.53000 461.396
25.54000 472.564
25.55000 474.927
25.56000 476.066
25.57000 475.318
25.58000 468.266
25.59000 460.709
25.60000 455.413
25.61000 459.147
25.62000 462.231
25.63000 463.463
25.64000 461.884
25.65000 460.276
25.66000 459.609
25.67000 459.870
25.68000 460.130
25.69000 467.020
25.70000 478.001
25.71000 488.461
25.72000 485.877
25.73000 477.639
25.74000 469.585
25.75000 463.751
25.76000 458.566
25.77000 453.936
25.78000 462.166
25.79000 471.493
25.80000 477.853
25.81000 470.976
25.82000 462.511
25.83000 455.837
25.84000 454.496
25.85000 453.510
25.86000 452.845
25.87000 469.072
25.88000 481.501
25.89000 486.863
25.90000 482.710
25.91000 478.503
25.92000 471.865
25.93000 463.122
25.94000 454.479
25.95000 454.859
25.96000 460.275
25.97000 465.171
25.98000 459.874
25.99000 450.631
26.00000 442.548
26.01000 446.229
26.02000 452.971
26.03000 458.884
26.04000 455.747
26.05000 451.737
26.06000 449.478
26.07000 454.145
26.08000 459.523
26.09000 463.609
26.10000 464.263
26.11000 464.732
26.12000 465.036
26.13000 464.914
26.14000 464.819
26.15000 463.792
26.16000 461.657
26.17000 459.520
26.18000 457.359
26.19000 455.179
26.20000 453.036
26.21000 455.122
26.22000 459.227
26.23000 463.147
26.24000 464.149
26.25000 464.142
26.26000 462.711
26.27000 448.961
26.28000 432.367
26.29000 418.096
26.30000 435.784
26.31000 454.755
26.32000 468.407
26.33000 463.352
26.34000 456.672
26.35000 451.681
26.36000 450.699
26.37000 449.887
26.38000 449.385
26.39000 466.612
26.40000 479.158
26.41000 481.345
26.42000 472.690
26.43000 464.031
26.44000 455.075
26.45000 445.919
26.46000 436.981
26.47000 443.370
26.48000 456.164
26.49000 467.689
26.50000 462.666
26.51000 452.545
26.52000 444.300
26.53000 450.052
26.54000 458.660
26.55000 465.905
26.56000 460.214
26.57000 454.083
26.58000 448.949
26.59000 446.938
26.60000 445.152
26.61000 443.055
26.62000 440.298
26.63000 437.518
26.64000 435.882
26.65000 445.633
26.66000 452.570
26.67000 457.035
26.68000 459.229
26.69000 461.449
26.70000 465.368
26.71000 470.313
26.72000 475.101
26.73000 467.424
26.74000 455.363
26.75000 443.999
26.76000 440.236
26.77000 438.557
26.78000 437.687
26.79000 442.059
26.80000 447.372
26.81000 451.742
26.82000 449.886
26.83000 447.797
26.84000 445.085
26.85000 440.632
26.86000 436.077
26.87000 436.096
26.88000 444.765
26.89000 453.638
26.90000 458.588
26.91000 453.227
26.92000 449.492
26.93000 445.331
26.94000 440.826
26.95000 436.340
26.96000 432.728
26.97000 429.586
26.98000 426.570
26.99000 432.211
27.00000 440.424
27.01000 447.972
27.02000 449.367
27.03000 449.262
27.04000 449.164
27.05000 449.101
27.06000 449.044
27.07000 448.999
27.08000 449.456
27.09000 449.864
27.10000 448.876
27.11000 444.404
27.12000 439.768
27.13000 436.722
27.14000 436.357
27.15000 436.035
27.16000 435.866
27.17000 434.723
27.18000 433.968
27.19000 436.246
27.20000 440.696
27.21000 444.874
27.22000 440.368
27.23000 431.697
27.24000 423.464
27.25000 430.858
27.26000 442.360
27.27000 452.301
27.28000 449.819
27.29000 444.657
27.30000 440.602
27.31000 442.063
27.32000 444.278
27.33000 446.007
27.34000 442.038
27.35000 438.516
27.36000 437.869
27.37000 443.626
27.38000 449.619
27.39000 450.724
27.40000 444.506
27.41000 438.217
27.42000 433.615
27.43000 430.653
27.44000 427.736
27.45000 428.501
27.46000 431.606
27.47000 434.797
27.48000 440.087
27.49000 446.275
27.50000 452.082
27.51000 448.202
27.52000 442.115
27.53000 436.782
27.54000 436.652
27.55000 437.510
27.56000 437.969
27.57000 436.663
27.58000 435.148
27.59000 434.001
27.60000 442.254
27.61000 449.215
27.62000 449.646
27.63000 437.088
27.64000 424.174
27.65000 422.968
27.66000 437.319
27.67000 451.735
27.68000 453.831
27.69000 445.411
27.70000 437.067
27.71000 432.736
27.72000 430.675
27.73000 428.852
27.74000 431.582
27.75000 436.052
27.76000 440.192
27.77000 433.614
27.78000 425.223
27.79000 418.478
27.80000 421.631
27.81000 426.438
27.82000 431.181
27.83000 435.681
27.84000 440.155
27.85000 443.440
27.86000 437.582
27.87000 432.682
27.88000 430.437
27.89000 432.901
27.90000 435.457
27.91000 434.491
27.92000 429.392
27.93000 424.300
27.94000 428.878
27.95000 440.679
27.96000 452.219
27.97000 454.144
27.98000 451.218
27.99000 448.274
28.00000 445.064
28.01000 441.763
28.02000 438.751
28.03000 433.404
28.04000 428.189
28.05000 424.798
28.06000 431.028
28.07000 438.660
28.08000 444.564
28.09000 444.462
28.10000 443.849
28.11000 443.414
28.12000 441.878
28.13000 440.674
28.14000 439.951
28.15000 439.985
28.16000 440.028
28.17000 436.770
28.18000 430.104
28.19000 423.476
28.20000 421.803
28.21000 423.427
28.22000 425.007
28.23000 425.375
28.24000 425.196
28.25000 425.006
28.26000 424.670
28.27000 424.290
28.28000 423.948
28.29000 424.348
28.30000 424.828
28.31000 425.167
28.32000 424.853
28.33000 424.456
28.34000 423.559
28.35000 421.116
28.36000 418.564
28.37000 416.820
28.38000 415.355
28.39000 414.266
28.40000 417.193
28.41000 425.751
28.42000 434.344
28.43000 434.994
28.44000 428.455
28.45000 421.980
28.46000 423.098
28.47000 428.619
28.48000 433.811
28.49000 432.026
28.50000 427.435
28.51000 422.550
28.52000 414.520
28.53000 405.639
28.54000 397.800
28.55000 401.288
28.56000 406.029
28.57000 411.877
28.58000 422.289
28.59000 433.196
28.60000 438.758
28.61000 429.565
28.62000 419.516
28.63000 412.922
28.64000 420.148
28.65000 425.695
28.66000 425.635
28.67000 418.616
28.68000 411.594
28.69000 410.606
28.70000 414.430
28.71000 418.196
28.72000 416.825
28.73000 412.849
28.74000 408.714
28.75000 401.870
28.76000 394.053
28.77000 387.806
28.78000 395.872
28.79000 407.379
28.80000 417.343
28.81000 418.293
28.82000 417.913
28.83000 417.539
28.84000 417.188
28.85000 416.839
28.86000 416.905
28.87000 417.993
28.88000 419.129
28.89000 419.843
28.90000 424.277
28.91000 427.523
28.92000 428.771
28.93000 427.833
28.94000 426.863
28.95000 421.727
28.96000 413.647
28.97000 405.739
28.98000 403.386
28.99000 403.653
29.00000 403.993
29.01000 405.344
29.02000 407.020
29.03000 408.579
29.04000 409.233
29.05000 409.695
29.06000 410.086
29.07000 411.534
29.08000 412.867
29.09000 413.835
29.10000 413.614
29.11000 413.302
29.12000 414.297
29.13000 418.170
29.14000 422.146
29.15000 424.527
29.16000 407.796
29.17000 395.794
29.18000 396.688
29.19000 409.949
29.20000 423.077
29.21000 425.890
29.22000 422.232
29.23000 418.679
29.24000 411.835
29.25000 404.016
29.26000 396.653
29.27000 394.576
29.28000 394.007
29.29000 393.568
29.30000 394.011
29.31000 394.618
29.32000 395.122
29.33000 399.013
29.34000 402.552
29.35000 403.890
29.36000 398.832
29.37000 393.368
29.38000 391.961
29.39000 398.525
29.40000 405.300
29.41000 409.151
29.42000 404.126
29.43000 400.604
29.44000 401.026
29.45000 404.775
29.46000 408.476
29.47000 409.777
29.48000 409.737
29.49000 409.698
29.50000 412.446
29.51000 416.012
29.52000 419.337
29.53000 420.301
29.54000 420.666
29.55000 419.968
29.56000 412.966
29.57000 404.926
29.58000 398.422
29.59000 397.819
29.60000 397.805
29.61000 398.257
29.62000 399.913
29.63000 401.632
29.64000 403.643
29.65000 406.167
29.66000 408.700
29.67000 410.061
29.68000 403.363
29.69000 398.806
29.70000 399.058
29.71000 402.895
29.72000 406.581
29.73000 404.932
29.74000 400.626
29.75000 396.522
29.76000 400.188
29.77000 406.014
29.78000 411.295
29.79000 412.021
29.80000 411.722
29.81000 412.163
29.82000 416.453
29.83000 421.296
29.84000 425.111
29.85000 415.288
29.86000 406.500
29.87000 402.316
29.88000 408.794
29.89000 415.702
29.90000 419.692
29.91000 419.134
29.92000 418.523
29.93000 418.215
29.94000 416.456
29.95000 415.294
29.96000 415.564
29.97000 416.779
29.98000 418.022
29.99000 419.987
30.00000 422.273
30.01000 424.427
30.02000 422.091
30.03000 418.718
30.04000 415.910
30.05000 417.185
30.06000 419.271
30.07000 422.036
30.08000 427.917
30.09000 434.184
30.10000 438.983
30.11000 432.551
30.12000 426.857
30.13000 423.328
30.14000 424.273
30.15000 425.353
30.16000 426.393
30.17000 427.376
30.18000 428.358
30.19000 425.701
30.20000 419.802
30.21000 413.906
30.22000 408.214
30.23000 402.642
30.24000 397.245
30.25000 395.477
30.26000 395.151
30.27000 394.848
30.28000 395.664
30.29000 396.673
30.30000 398.131
30.31000 402.419
30.32000 407.201
30.33000 411.817
30.34000 415.762
30.35000 419.635
30.36000 422.509
30.37000 423.233
30.38000 423.700
30.39000 422.412
30.40000 417.885
30.41000 413.288
30.42000 410.940
30.43000 411.349
30.44000 411.764
30.45000 410.856
30.46000 408.917
30.47000 407.079
30.48000 409.459
30.49000 414.050
30.50000 418.098
30.51000 413.139
30.52000 404.986
30.53000 397.507
30.54000 400.198
30.55000 404.748
30.56000 408.603
30.57000 408.629
30.58000 408.071
30.59000 408.734
30.60000 413.811
30.61000 419.286
30.62000 423.216
30.63000 419.507
30.64000 416.408
30.65000 416.893
30.66000 423.268
30.67000 429.728
30.68000 431.948
30.69000 429.594
30.70000 427.249
30.71000 419.780
30.72000 408.859
30.73000 398.305
30.74000 398.823
30.75000 404.522
30.76000 410.473
30.77000 419.840
30.78000 430.289
30.79000 439.725
30.80000 435.071
30.81000 428.378
30.82000 423.339
30.83000 426.328
30.84000 430.382
30.85000 434.004
30.86000 436.242
30.87000 438.375
30.88000 439.851
30.89000 441.955
30.90000 443.553
30.91000 445.250
30.92000 447.090
30.93000 448.931
30.94000 453.768
30.95000 461.439
30.96000 469.046
30.97000 472.726
30.98000 473.949
30.99000 475.357
31.00000 480.997
31.01000 488.406
31.02000 496.213
31.03000 508.539
31.04000 522.139
31.05000 534.216
31.06000 537.067
31.07000 538.059
31.08000 541.984
31.09000 558.498
31.10000 576.449
31.11000 594.877
31.12000 614.672
31.13000 634.553
31.14000 647.785
31.15000 690.443
31.16000 722.563
31.17000 747.049
31.18000 761.655
31.19000 776.263
31.20000 810.899
31.21000 862.201
31.22000 912.828
31.23000 957.237
31.24000 997.111
31.25000 1037.214
31.26000 1081.489
31.27000 1127.320
31.28000 1173.368
31.29000 1221.490
31.30000 1270.131
31.31000 1312.529
31.32000 1365.699
31.33000 1412.638
31.34000 1456.866
31.35000 1490.780
31.36000 1523.689
31.37000 1548.315
31.38000 1551.732
31.39000 1554.087
31.40000 1555.588
31.41000 1555.034
31.42000 1554.605
31.43000 1548.422
31.44000 1535.667
31.45000 1522.896
31.46000 1508.530
31.47000 1492.991
31.48000 1477.749
31.49000 1443.522
31.50000 1401.544
31.51000 1358.748
31.52000 1303.814
31.53000 1244.838
31.54000 1187.220
31.55000 1140.783
31.56000 1096.827
31.57000 1059.280
31.58000 1001.047
31.59000 949.526
31.60000 902.108
31.61000 868.581
31.62000 836.194
31.63000 805.576
31.64000 779.000
31.65000 752.583
31.66000 736.498
31.67000 690.647
31.68000 657.655
31.69000 627.769
31.70000 600.998
31.71000 574.289
31.72000 553.371
31.73000 536.234
31.74000 519.546
31.75000 507.426
31.76000 497.788
31.77000 488.559
31.78000 484.353
31.79000 481.638
31.80000 478.298
31.81000 470.505
31.82000 461.841
31.83000 454.600
31.84000 449.210
31.85000 444.922
31.86000 440.867
31.87000 437.513
31.88000 434.208
31.89000 429.954
31.90000 423.764
31.91000 417.517
31.92000 413.901
31.93000 418.275
31.94000 421.370
31.95000 420.226
31.96000 415.348
31.97000 410.505
31.98000 407.688
31.99000 406.046
32.00000 404.462
32.01000 405.930
32.02000 408.441
32.03000 411.044
32.04000 414.582
32.05000 418.367
32.06000 420.725
32.07000 414.227
32.08000 406.204
32.09000 399.657
32.10000 399.577
32.11000 400.066
32.12000 402.547
32.13000 410.396
32.14000 418.542
32.15000 420.586
32.16000 411.517
32.17000 402.215
32.18000 397.119
32.19000 395.411
32.20000 394.250
32.21000 395.230
32.22000 397.871
32.23000 400.410
32.24000 398.857
32.25000 395.184
32.26000 391.672
32.27000 390.195
32.28000 389.483
32.29000 389.105
32.30000 391.663
32.31000 394.909
32.32000 397.680
32.33000 397.868
32.34000 397.668
32.35000 397.508
32.36000 389.712
32.37000 382.885
32.38000 378.578
32.39000 380.332
32.40000 382.352
32.41000 386.210
32.42000 393.051
32.43000 399.932
32.44000 403.480
32.45000 401.633
32.46000 400.344
32.47000 393.779
32.48000 383.582
32.49000 373.844
32.50000 377.490
32.51000 387.323
32.52000 396.623
32.53000 397.685
32.54000 396.294
32.55000 394.110
32.56000 385.905
32.57000 376.453
32.58000 368.116
32.59000 365.117
32.60000 362.816
32.61000 361.037
32.62000 371.703
32.63000 380.898
32.64000 387.676
32.65000 389.263
32.66000 390.675
32.67000 389.417
32.68000 384.308
32.69000 379.169
32.70000 373.654
32.71000 367.791
32.72000 362.059
32.73000 365.543
32.74000 374.664
32.75000 383.352
32.76000 382.328
32.77000 377.296
32.78000 372.594
32.79000 368.823
32.80000 365.636
32.81000 363.082
32.82000 364.702
32.83000 367.084
32.84000 368.669
32.85000 366.878
32.86000 364.708
32.87000 363.080
32.88000 363.715
32.89000 364.318
32.90000 366.571
32.91000 371.984
32.92000 377.475
32.93000 380.886
32.94000 381.641
32.95000 382.386
32.96000 387.870
32.97000 397.212
32.98000 406.327
32.99000 404.835
33.00000 397.563
33.01000 390.593
33.02000 389.012
33.03000 389.418
33.04000 389.791
33.05000 390.009
33.06000 390.169
33.07000 389.864
33.08000 386.881
33.09000 383.469
33.10000 380.655
33.11000 380.086
33.12000 379.732
33.13000 379.475
33.14000 372.983
33.15000 367.757
33.16000 363.242
33.17000 359.942
33.18000 356.663
33.19000 357.527
33.20000 363.058
33.21000 368.574
33.22000 368.273
33.23000 363.786
33.24000 359.404
33.25000 358.493
33.26000 359.269
33.27000 360.338
33.28000 365.643
33.29000 372.342
33.30000 378.424
33.31000 367.168
33.32000 353.871
33.33000 343.064
33.34000 344.862
33.35000 348.415
33.36000 352.041
33.37000 355.911
33.38000 359.801
33.39000 362.528
33.40000 352.028
33.41000 343.703
33.42000 340.392
33.43000 344.703
33.44000 349.094
33.45000 349.170
33.46000 344.980
33.47000 340.820
33.48000 339.278
33.49000 339.423
33.50000 339.686
33.51000 342.932
33.52000 347.474
33.53000 351.662
33.54000 351.581
33.55000 350.249
33.56000 349.059
33.57000 349.431
33.58000 350.018
33.59000 350.134
33.60000 348.142
33.61000 345.896
33.62000 344.052
33.63000 343.403
33.64000 342.834
33.65000 342.450
33.66000 343.516
33.67000 344.340
33.68000 342.999
33.69000 338.740
33.70000 334.471
33.71000 335.779
33.72000 341.931
33.73000 348.012
33.74000 346.840
33.75000 341.634
33.76000 336.636
33.77000 335.740
33.78000 336.434
33.79000 336.877
33.80000 334.762
33.81000 331.980
33.82000 329.540
33.83000 339.745
33.84000 350.354
33.85000 357.376
33.86000 350.186
33.87000 341.534
33.88000 337.028
33.89000 343.556
33.90000 350.680
33.91000 355.292
33.92000 346.642
33.93000 340.118
33.94000 341.146
33.95000 351.176
33.96000 361.173
33.97000 359.520
33.98000 348.935
33.99000 338.529
34.00000 341.883
34.01000 351.931
34.02000 361.425
34.03000 362.141
34.04000 359.818
34.05000 357.758
34.06000 357.976
34.07000 358.722
34.08000 359.364
34.09000 370.468
34.10000 381.181
34.11000 386.467
34.12000 372.636
34.13000 357.140
34.14000 347.051
34.15000 349.809
34.16000 353.116
34.17000 355.162
34.18000 355.060
34.19000 354.967
34.20000 357.288
34.21000 362.143
34.22000 366.931
34.23000 364.134
34.24000 356.182
34.25000 348.418
34.26000 350.359
34.27000 356.455
34.28000 362.299
34.29000 364.856
34.30000 366.398
34.31000 367.432
34.32000 364.678
34.33000 361.150
34.34000 358.178
34.35000 367.901
34.36000 377.374
34.37000 384.418
34.38000 383.842
34.39000 382.712
34.40000 380.510
34.41000 376.034
34.42000 371.483
34.43000 368.802
34.44000 366.230
34.45000 364.415
34.46000 361.708
34.47000 358.180
34.48000 354.704
34.49000 354.675
34.50000 356.728
34.51000 358.717
34.52000 364.373
34.53000 371.138
34.54000 377.370
34.55000 377.774
34.56000 376.577
34.57000 374.997
34.58000 370.931
34.59000 366.418
34.60000 362.704
34.61000 361.562
34.62000 360.857
34.63000 358.516
34.64000 351.598
34.65000 344.406
34.66000 338.309
34.67000 334.282
34.68000 330.304
34.69000 328.083
34.70000 340.979
34.71000 349.917
34.72000 350.257
34.73000 343.630
34.74000 337.112
34.75000 335.402
34.76000 336.281
34.77000 337.125
34.78000 340.462
34.79000 344.429
34.80000 348.144
34.81000 349.507
34.82000 350.296
34.83000 350.584
34.84000 348.030
34.85000 345.027
34.86000 342.618
34.87000 338.467
34.88000 334.972
34.89000 332.524
34.90000 332.692
34.91000 332.985
34.92000 333.540
34.93000 334.538
34.94000 335.543
34.95000 336.072
34.96000 329.093
34.97000 324.392
34.98000 325.074
34.99000 329.617
35.00000 334.017
35.01000 333.853
35.02000 331.495
35.03000 329.257
35.04000 325.197
35.05000 320.903
35.06000 316.572
35.07000 311.949
35.08000 307.263
35.09000 303.760
35.10000 306.162
35.11000 309.374
35.12000 311.882
35.13000 316.754
35.14000 320.789
35.15000 324.495
35.16000 327.467
35.17000 330.411
35.18000 330.707
35.19000 327.028
35.20000 323.310
35.21000 321.532
35.22000 321.645
35.23000 321.747
35.24000 320.983
35.25000 319.668
35.26000 318.335
35.27000 316.564
35.28000 314.605
35.29000 312.767
35.30000 311.542
35.31000 310.588
35.32000 309.504
35.33000 307.520
35.34000 305.365
35.35000 304.442
35.36000 308.956
35.37000 314.114
35.38000 318.026
35.39000 314.965
35.40000 312.205
35.41000 310.920
35.42000 312.575
35.43000 314.310
35.44000 312.516
35.45000 306.022
35.46000 299.510
35.47000 299.901
35.48000 306.192
35.49000 312.467
35.50000 317.923
35.51000 322.915
35.52000 327.565
35.53000 325.654
35.54000 321.231
35.55000 317.133
35.56000 311.022
35.57000 305.059
35.58000 300.392
35.59000 303.534
35.60000 307.983
35.61000 312.386
35.62000 316.611
35.63000 320.819
35.64000 323.909
35.65000 314.273
35.66000 306.303
35.67000 301.387
35.68000 301.894
35.69000 302.506
35.70000 304.078
35.71000 306.778
35.72000 309.473
35.73000 308.095
35.74000 303.666
35.75000 299.426
35.76000 302.197
35.77000 308.511
35.78000 314.426
35.79000 314.160
35.80000 311.780
35.81000 309.608
35.82000 314.314
35.83000 319.884
35.84000 323.687
35.85000 318.158
35.86000 311.266
35.87000 305.201
35.88000 302.010
35.89000 299.066
35.90000 296.976
35.91000 298.080
35.92000 299.022
35.93000 300.865
35.94000 304.136
35.95000 307.424
35.96000 306.987
35.97000 302.699
35.98000 298.435
35.99000 295.202
36.00000 292.695
36.01000 290.374
36.02000 293.145
36.03000 298.214
36.04000 303.022
36.05000 304.490
36.06000 304.941
36.07000 305.347
36.08000 306.224
36.09000 307.075
36.10000 308.469
36.11000 312.393
36.12000 316.638
36.13000 321.087
36.14000 326.169
36.15000 331.296
36.16000 334.802
36.17000 323.834
36.18000 315.283
36.19000 308.832
36.20000 305.330
36.21000 301.849
36.22000 298.885
36.23000 296.390
36.24000 293.919
36.25000 296.971
36.26000 303.184
36.27000 309.116
36.28000 309.058
36.29000 306.586
36.30000 304.547
36.31000 307.159
36.32000 311.033
36.33000 314.452
36.34000 304.156
36.35000 293.171
36.36000 284.394
36.37000 284.730
36.38000 286.056
36.39000 289.592
36.40000 299.243
36.41000 309.249
36.42000 315.820
36.43000 306.233
36.44000 298.907
36.45000 296.537
36.46000 300.331
36.47000 304.135
36.48000 305.499
36.49000 304.911
36.50000 304.333
36.51000 303.365
36.52000 302.225
36.53000 301.190
36.54000 301.944
36.55000 303.342
36.56000 304.027
36.57000 298.206
36.58000 290.817
36.59000 284.418
36.60000 281.030
36.61000 278.546
36.62000 277.482
36.63000 281.624
36.64000 286.247
36.65000 287.991
36.66000 282.629
36.67000 276.938
36.68000 273.360
36.69000 281.055
36.70000 286.745
36.71000 291.474
36.72000 295.150
36.73000 298.803
36.74000 299.257
36.75000 297.448
36.76000 295.677
36.77000 294.744
36.78000 294.229
36.79000 293.473
36.80000 289.352
36.81000 284.150
36.82000 279.357
36.83000 277.770
36.84000 276.867
36.85000 276.100
36.86000 281.074
36.87000 285.894
36.88000 292.561
36.89000 305.252
36.90000 318.409
36.91000 322.302
36.92000 305.771
36.93000 288.507
36.94000 278.160
36.95000 291.789
36.96000 301.624
36.97000 302.200
36.98000 293.879
36.99000 285.641
37.00000 283.928
37.01000 286.316
37.02000 288.636
37.03000 294.337
37.04000 301.112
37.05000 307.152
37.06000 304.664
37.07000 299.738
37.08000 295.618
37.09000 296.986
37.10000 299.385
37.11000 301.374
37.12000 297.319
37.13000 293.388
37.14000 291.915
37.15000 297.593
37.16000 303.728
37.17000 307.368
37.18000 306.096
37.19000 304.695
37.20000 303.897
37.21000 293.126
37.22000 285.603
37.23000 286.471
37.24000 294.431
37.25000 302.262
37.26000 303.605
37.27000 301.316
37.28000 299.113
37.29000 297.523
37.30000 296.250
37.31000 295.398
37.32000 298.686
37.33000 303.026
37.34000 305.995
37.35000 300.824
37.36000 294.310
37.37000 289.038
37.38000 284.723
37.39000 281.288
37.40000 277.139
37.41000 271.139
37.42000 265.043
37.43000 263.413
37.44000 269.623
37.45000 275.978
37.46000 279.393
37.47000 288.960
37.48000 295.479
37.49000 297.502
37.50000 296.168
37.51000 294.921
37.52000 296.761
37.53000 300.140
37.54000 303.362
37.55000 299.951
37.56000 294.713
37.57000 290.041
37.58000 290.115
37.59000 291.258
37.60000 292.585
37.61000 294.865
37.62000 297.282
37.63000 299.187
37.64000 293.834
37.65000 289.054
37.66000 287.384
37.67000 292.924
37.68000 298.755
37.69000 300.758
37.70000 296.781
37.71000 292.734
37.72000 290.690
37.73000 295.215
37.74000 298.228
37.75000 299.987
37.76000 300.916
37.77000 301.662
37.78000 297.540
37.79000 291.248
37.80000 285.319
37.81000 287.570
37.82000 291.885
37.83000 295.589
37.84000 294.871
37.85000 293.274
37.86000 291.841
37.87000 291.163
37.88000 290.579
37.89000 290.132
37.90000 291.892
37.91000 293.403
37.92000 294.663
37.93000 295.402
37.94000 296.125
37.95000 295.874
37.96000 294.274
37.97000 292.666
37.98000 291.513
37.99000 290.766
38.00000 290.021
38.01000 289.368
38.02000 288.769
38.03000 288.147
38.04000 287.056
38.05000 285.778
38.06000 284.590
38.07000 288.076
38.08000 292.358
38.09000 296.246
38.10000 297.651
38.11000 298.621
38.12000 298.246
38.13000 292.394
38.14000 285.958
38.15000 281.177
38.16000 290.771
38.17000 298.863
38.18000 301.650
38.19000 294.638
38.20000 287.410
38.21000 284.998
38.22000 288.496
38.23000 292.002
38.24000 295.550
38.25000 299.113
38.26000 302.728
38.27000 308.460
38.28000 315.305
38.29000 321.538
38.30000 317.593
38.31000 310.032
38.32000 303.095
38.33000 307.005
38.34000 312.791
38.35000 318.281
38.36000 322.134
38.37000 325.738
38.38000 329.246
38.39000 332.409
38.40000 335.541
38.41000 337.791
38.42000 341.688
38.43000 344.726
38.44000 349.769
38.45000 358.109
38.46000 366.498
38.47000 378.737
38.48000 395.136
38.49000 411.462
38.50000 423.124
38.51000 431.438
38.52000 440.033
38.53000 457.099
38.54000 478.137
38.55000 499.269
38.56000 521.690
38.57000 544.520
38.58000 565.145
38.59000 596.782
38.60000 626.638
38.61000 655.263
38.62000 677.905
38.63000 699.751
38.64000 722.662
38.65000 749.001
38.66000 775.600
38.67000 794.024
38.68000 826.119
38.69000 850.632
38.70000 869.224
38.71000 879.154
38.72000 889.009
38.73000 903.699
38.74000 922.969
38.75000 942.080
38.76000 944.194
38.77000 935.911
38.78000 927.203
38.79000 908.650
38.80000 885.977
38.81000 863.342
38.82000 841.156
38.83000 819.096
38.84000 799.502
38.85000 784.169
38.86000 771.559
38.87000 757.185
38.88000 735.229
38.89000 712.404
38.90000 686.844
38.91000 653.426
38.92000 619.518
38.93000 596.936
38.94000 554.285
38.95000 522.338
38.96000 497.578
38.97000 482.136
38.98000 466.725
38.99000 448.284
39.00000 427.317
39.01000 406.624
39.02000 395.278
39.03000 389.264
39.04000 383.052
39.05000 373.210
39.06000 362.012
39.07000 350.932
39.08000 340.986
39.09000 331.324
39.10000 322.901
39.11000 316.237
39.12000 310.785
39.13000 307.452
39.14000 312.196
39.15000 317.729
39.16000 319.008
39.17000 309.375
39.18000 299.194
39.19000 292.696
39.20000 283.227
39.21000 276.301
39.22000 276.088
39.23000 283.558
39.24000 291.007
39.25000 293.265
39.26000 291.697
39.27000 290.158
39.28000 287.806
39.29000 285.153
39.30000 282.498
39.31000 279.830
39.32000 277.156
39.33000 275.153
39.34000 278.676
39.35000 283.428
39.36000 287.488
39.37000 284.900
39.38000 281.925
39.39000 279.809
39.40000 280.608
39.41000 281.647
39.42000 280.026
39.43000 272.312
39.44000 264.358
39.45000 259.512
39.46000 261.401
39.47000 262.804
39.48000 267.673
39.49000 276.026
39.50000 284.299
39.51000 285.206
39.52000 281.296
39.53000 277.488
39.54000 273.240
39.55000 269.005
39.56000 265.230
39.57000 267.119
39.58000 270.691
39.59000 274.104
39.60000 276.379
39.61000 278.431
39.62000 280.146
39.63000 274.578
39.64000 269.214
39.65000 264.982
39.66000 264.172
39.67000 263.596
39.68000 265.613
39.69000 272.935
39.70000 280.415
39.71000 284.747
39.72000 278.801
39.73000 274.591
39.74000 273.814
39.75000 276.066
39.76000 278.235
39.77000 275.616
39.78000 270.212
39.79000 264.993
39.80000 265.908
39.81000 269.044
39.82000 271.692
39.83000 269.274
39.84000 265.516
39.85000 262.229
39.86000 261.868
39.87000 262.011
39.88000 262.129
39.89000 260.991
39.90000 259.953
39.91000 260.942
39.92000 267.401
39.93000 274.164
39.94000 277.351
39.95000 274.011
39.96000 270.533
39.97000 268.626
39.98000 268.280
39.99000 268.038
40.00000 266.114
40.01000 262.882
40.02000 259.791
40.03000 262.307
40.04000 267.731
40.05000 272.919
40.06000 271.470
40.07000 267.952
40.08000 264.231
40.09000 258.721
40.10000 252.791
40.11000 248.881
40.12000 255.970
40.13000 264.717
40.14000 271.675
40.15000 268.859
40.16000 265.888
40.17000 263.540
40.18000 262.694
40.19000 261.913
40.20000 261.693
40.21000 262.382
40.22000 263.083
40.23000 263.446
40.24000 262.251
40.25000 261.440
40.26000 259.926
40.27000 257.928
40.28000 255.957
40.29000 254.785
40.30000 253.984
40.31000 253.226
40.32000 254.141
40.33000 255.463
40.34000 257.087
40.35000 261.002
40.36000 265.392
40.37000 268.824
40.38000 267.664
40.39000 265.904
40.40000 264.542
40.41000 267.882
40.42000 270.811
40.43000 270.331
40.44000 262.519
40.45000 254.459
40.46000 250.980
40.47000 254.117
40.48000 257.307
40.49000 255.850
40.50000 250.054
40.51000 244.335
40.52000 243.974
40.53000 246.897
40.54000 249.838
40.55000 253.196
40.56000 256.725
40.57000 260.023
40.58000 256.454
40.59000 251.478
40.60000 247.283
40.61000 248.254
40.62000 250.168
40.63000 251.774
40.64000 252.070
40.65000 252.219
40.66000 252.330
40.67000 261.410
40.68000 268.933
40.69000 271.048
40.70000 262.777
40.71000 254.249
40.72000 251.251
40.73000 255.327
40.74000 259.425
40.75000 259.052
40.76000 255.017
40.77000 251.014
40.78000 248.534
40.79000 246.884
40.80000 245.501
40.81000 248.882
40.82000 254.023
40.83000 258.762
40.84000 254.619
40.85000 248.938
40.86000 244.121
40.87000 244.286
40.88000 245.250
40.89000 245.831
40.90000 244.970
40.91000 243.971
40.92000 243.245
40.93000 245.908
40.94000 248.085
40.95000 248.589
40.96000 246.230
40.97000 243.823
40.98000 241.873
40.99000 240.437
41.00000 239.006
41.01000 240.422
41.02000 243.880
41.03000 247.259
41.04000 248.007
41.05000 247.474
41.06000 246.963
41.07000 246.780
41.08000 246.706
41.09000 246.638
41.10000 250.991
41.11000 255.695
41.12000 259.440
41.13000 258.326
41.14000 256.535
41.15000 253.988
41.16000 248.910
41.17000 243.629
41.18000 239.924
41.19000 246.801
41.20000 252.312
41.21000 254.448
41.22000 251.446
41.23000 248.390
41.24000 246.165
41.25000 244.764
41.26000 243.372
41.27000 244.236
41.28000 246.522
41.29000 248.747
41.30000 249.450
41.31000 249.492
41.32000 249.425
41.33000 248.037
41.34000 246.261
41.35000 244.674
41.36000 249.011
41.37000 253.788
41.38000 257.432
41.39000 256.003
41.40000 253.963
41.41000 252.954
41.42000 255.028
41.43000 257.307
41.44000 258.847
41.45000 252.704
41.46000 247.968
41.47000 244.648
41.48000 243.241
41.49000 241.846
41.50000 240.818
41.51000 240.110
41.52000 239.410
41.53000 236.356
41.54000 232.054
41.55000 228.056
41.56000 230.063
41.57000 234.402
41.58000 238.600
41.59000 241.371
41.60000 243.768
41.61000 245.872
41.62000 243.994
41.63000 241.799
41.64000 239.765
41.65000 238.369
41.66000 237.038
41.67000 236.466
41.68000 237.917
41.69000 239.477
41.70000 240.487
41.71000 243.556
41.72000 245.832
41.73000 246.568
41.74000 245.464
41.75000 244.365
41.76000 245.440
41.77000 248.184
41.78000 250.882
41.79000 248.443
41.80000 243.540
41.81000 238.990
41.82000 240.064
41.83000 243.089
41.84000 245.602
41.85000 243.662
41.86000 240.691
41.87000 238.134
41.88000 239.574
41.89000 241.295
41.90000 243.132
41.91000 245.379
41.92000 247.662
41.93000 249.136
41.94000 248.685
41.95000 248.152
41.96000 247.822
41.97000 247.706
41.98000 247.626
41.99000 246.563
42.00000 244.470
42.01000 242.402
42.02000 243.189
42.03000 245.920
42.04000 248.586
42.05000 245.403
42.06000 239.796
42.07000 234.824
42.08000 238.172
42.09000 244.092
42.10000 248.783
42.11000 244.267
42.12000 237.865
42.13000 232.472
42.14000 235.480
42.15000 238.893
42.16000 242.001
42.17000 244.152
42.18000 246.233
42.19000 246.841
42.20000 244.319
42.21000 241.694
42.22000 240.147
42.23000 238.890
42.24000 238.004
42.25000 237.144
42.26000 236.308
42.27000 235.564
42.28000 241.000
42.29000 250.176
42.30000 259.064
42.31000 254.996
42.32000 246.142
42.33000 238.236
42.34000 240.742
42.35000 246.114
42.36000 250.498
42.37000 248.454
42.38000 245.250
42.39000 242.613
42.40000 239.639
42.41000 237.163
42.42000 236.990
42.43000 243.274
42.44000 249.944
42.45000 250.111
42.46000 237.942
42.47000 225.479
42.48000 218.514
42.49000 227.315
42.50000 233.444
42.51000 238.777
42.52000 243.465
42.53000 248.051
42.54000 248.056
42.55000 245.591
42.56000 243.225
42.57000 241.377
42.58000 239.827
42.59000 238.348
42.60000 237.531
42.61000 236.876
42.62000 235.792
42.63000 232.270
42.64000 228.363
42.65000 225.227
42.66000 222.688
42.67000 220.677
42.68000 219.886
42.69000 222.148
42.70000 224.556
42.71000 224.979
42.72000 222.046
42.73000 219.059
42.74000 217.484
42.75000 218.781
42.76000 219.676
42.77000 222.649
42.78000 227.116
42.79000 231.527
42.80000 234.133
42.81000 235.872
42.82000 237.523
42.83000 236.431
42.84000 234.599
42.85000 233.509
42.86000 238.354
42.87000 244.484
42.88000 248.951
42.89000 245.097
42.90000 240.099
42.91000 236.195
42.92000 236.682
42.93000 237.347
42.94000 236.679
42.95000 233.030
42.96000 229.271
42.97000 226.540
42.98000 225.356
42.99000 224.187
43.00000 224.751
43.01000 227.006
43.02000 229.246
43.03000 230.312
43.04000 230.629
43.05000 231.034
43.06000 233.583
43.07000 237.054
43.08000 240.312
43.09000 236.264
43.10000 230.643
43.11000 225.938
43.12000 227.573
43.13000 230.419
43.14000 231.953
43.15000 227.689
43.16000 222.738
43.17000 218.981
43.18000 222.599
43.19000 225.820
43.20000 227.492
43.21000 226.075
43.22000 224.572
43.23000 224.186
43.24000 225.290
43.25000 226.401
43.26000 227.775
43.27000 229.371
43.28000 230.884
43.29000 227.969
43.30000 222.541
43.31000 217.477
43.32000 219.447
43.33000 224.116
43.34000 228.441
43.35000 229.754
43.36000 230.238
43.37000 230.229
43.38000 227.250
43.39000 223.774
43.40000 221.245
43.41000 222.436
43.42000 224.003
43.43000 225.154
43.44000 226.447
43.45000 227.452
43.46000 228.540
43.47000 229.775
43.48000 231.013
43.49000 229.360
43.50000 224.300
43.51000 219.248
43.52000 219.267
43.53000 223.104
43.54000 226.836
43.55000 226.657
43.56000 224.499
43.57000 222.373
43.58000 220.759
43.59000 219.320
43.60000 218.006
43.61000 221.971
43.62000 226.562
43.63000 229.877
43.64000 226.434
43.65000 222.003
43.66000 217.979
43.67000 215.377
43.68000 212.896
43.69000 211.134
43.70000 215.269
43.71000 218.603
43.72000 224.031
43.73000 232.776
43.74000 241.564
43.75000 238.767
43.76000 223.968
43.77000 209.251
43.78000 208.111
43.79000 215.991
43.80000 223.620
43.81000 224.312
43.82000 221.871
43.83000 219.607
43.84000 219.629
43.85000 220.349
43.86000 220.996
43.87000 220.583
43.88000 220.033
43.89000 220.099
43.90000 223.037
43.91000 226.339
43.92000 227.179
43.93000 220.374
43.94000 213.023
43.95000 207.994
43.96000 214.315
43.97000 219.317
43.98000 221.270
43.99000 218.930
44.00000 216.561
44.01000 215.404
44.02000 215.350
44.03000 215.296
44.04000 216.675
44.05000 218.865
44.06000 221.052
44.07000 223.176
44.08000 225.275
44.09000 227.299
44.10000 228.513
44.11000 229.508
44.12000 230.386
44.13000 227.184
44.14000 223.794
44.15000 220.682
44.16000 218.722
44.17000 216.887
44.18000 216.995
44.19000 222.483
44.20000 228.284
44.21000 232.096
44.22000 229.109
44.23000 226.796
44.24000 227.689
44.25000 232.575
44.26000 237.453
44.27000 235.499
44.28000 228.076
44.29000 220.763
44.30000 220.913
44.31000 224.916
44.32000 228.699
44.33000 228.742
44.34000 227.438
44.35000 226.542
44.36000 229.385
44.37000 233.131
44.38000 236.377
44.39000 233.910
44.40000 231.055
44.41000 228.264
44.42000 225.708
44.43000 223.174
44.44000 222.481
44.45000 226.338
44.46000 230.407
44.47000 232.966
44.48000 236.184
44.49000 238.519
44.50000 239.583
44.51000 239.249
44.52000 238.897
44.53000 235.920
44.54000 231.082
44.55000 226.347
44.56000 226.758
44.57000 229.501
44.58000 232.373
44.59000 237.050
44.60000 242.307
44.61000 246.807
44.62000 245.358
44.63000 242.638
44.64000 240.330
44.65000 242.003
44.66000 243.857
44.67000 245.153
44.68000 244.625
44.69000 243.956
44.70000 244.878
44.71000 249.314
44.72000 253.876
44.73000 256.613
44.74000 255.172
44.75000 254.120
44.76000 252.482
44.77000 250.279
44.78000 248.126
44.79000 249.816
44.80000 253.927
44.81000 257.920
44.82000 264.301
44.83000 271.322
44.84000 277.871
44.85000 278.914
44.86000 278.381
44.87000 278.097
44.88000 279.515
44.89000 281.254
44.90000 282.696
44.91000 281.857
44.92000 280.944
44.93000 282.243
44.94000 289.991
44.95000 298.151
44.96000 304.605
44.97000 307.699
44.98000 310.703
44.99000 312.413
45.00000 305.580
45.01000 300.799
45.02000 301.935
45.03000 308.079
45.04000 314.250
45.05000 321.774
45.06000 330.058
45.07000 338.034
45.08000 332.786
45.09000 323.156
45.10000 314.825
45.11000 319.271
45.12000 326.971
45.13000 333.409
45.14000 332.342
45.15000 330.035
45.16000 328.167
45.17000 326.898
45.18000 325.912
45.19000 324.017
45.20000 319.755
45.21000 315.372
45.22000 313.470
45.23000 315.932
45.24000 318.476
45.25000 319.844
45.26000 306.035
45.27000 296.617
45.28000 293.458
45.29000 294.983
45.30000 296.406
45.31000 294.203
45.32000 290.187
45.33000 286.359
45.34000 281.684
45.35000 277.083
45.36000 272.483
45.37000 267.890
45.38000 263.300
45.39000 259.795
45.40000 261.960
45.41000 264.941
45.42000 267.293
45.43000 268.803
45.44000 269.958
45.45000 269.303
45.46000 264.443
45.47000 259.413
45.48000 254.281
45.49000 248.988
45.50000 243.693
45.51000 241.017
45.52000 238.785
45.53000 237.310
45.54000 237.639
45.55000 239.165
45.56000 240.490
45.57000 236.416
45.58000 229.933
45.59000 223.823
45.60000 228.570
45.61000 235.914
45.62000 241.632
45.63000 235.536
45.64000 227.086
45.65000 220.789
45.66000 224.416
45.67000 229.281
45.68000 233.009
45.69000 225.052
45.70000 218.124
45.71000 213.570
45.72000 213.941
45.73000 214.464
45.74000 216.177
45.75000 219.546
45.76000 222.923
45.77000 222.296
45.78000 218.085
45.79000 213.881
45.80000 210.121
45.81000 206.624
45.82000 203.344
45.83000 204.608
45.84000 207.683
45.85000 210.545
45.86000 213.155
45.87000 215.453
45.88000 217.336
45.89000 216.601
45.90000 215.407
45.91000 213.838
45.92000 210.736
45.93000 207.470
45.94000 205.043
45.95000 208.713
45.96000 211.836
45.97000 214.052
45.98000 214.588
45.99000 215.086
46.00000 213.334
46.01000 208.814
46.02000 204.296
46.03000 201.251
46.04000 199.379
46.05000 197.718
46.06000 204.835
46.07000 216.571
46.08000 227.551
46.09000 225.930
46.10000 219.823
46.11000 214.219
46.12000 211.773
46.13000 210.264
46.14000 209.626
46.15000 213.813
46.16000 218.739
46.17000 220.565
46.18000 211.154
46.19000 200.723
46.20000 193.226
46.21000 202.111
46.22000 209.478
46.23000 213.831
46.24000 213.213
46.25000 212.521
46.26000 210.306
46.27000 206.440
46.28000 202.592
46.29000 206.159
46.30000 214.822
46.31000 223.208
46.32000 223.196
46.33000 219.243
46.34000 215.416
46.35000 213.327
46.36000 211.791
46.37000 210.403
46.38000 209.430
46.39000 208.651
46.40000 209.141
46.41000 215.812
46.42000 223.307
46.43000 227.792
46.44000 222.561
46.45000 216.591
46.46000 212.454
46.47000 206.547
46.48000 202.055
46.49000 199.411
46.50000 199.478
46.51000 199.569
46.52000 202.742
46.53000 208.841
46.54000 214.890
46.55000 213.074
46.56000 206.490
46.57000 200.217
46.58000 201.183
46.59000 205.184
46.60000 208.783
46.61000 207.796
46.62000 205.512
46.63000 203.482
46.64000 204.440
46.65000 205.751
46.66000 206.895
46.67000 207.316
46.68000 207.655
46.69000 206.426
46.70000 200.687
46.71000 194.665
46.72000 190.652
46.73000 199.947
46.74000 207.081
46.75000 207.808
46.76000 200.210
46.77000 192.588
46.78000 190.491
46.79000 193.007
46.80000 195.491
46.81000 200.013
46.82000 205.512
46.83000 210.335
46.84000 202.730
46.85000 190.472
46.86000 179.825
46.87000 184.733
46.88000 193.551
46.89000 201.242
46.90000 197.525
46.91000 192.758
46.92000 188.741
46.93000 187.584
46.94000 186.708
46.95000 187.683
46.96000 193.414
46.97000 199.385
46.98000 203.198
46.99000 202.381
47.00000 201.727
47.01000 201.053
47.02000 200.356
47.03000 199.661
47.04000 199.425
47.05000 199.528
47.06000 199.628
47.07000 201.430
47.08000 203.976
47.09000 206.214
47.10000 203.846
47.11000 199.939
47.12000 196.385
47.13000 195.746
47.14000 195.756
47.15000 195.765
47.16000 198.841
47.17000 201.799
47.18000 203.779
47.19000 202.435
47.20000 200.817
47.21000 199.644
47.22000 199.493
47.23000 199.383
47.24000 199.315
47.25000 199.192
47.26000 199.103
47.27000 198.923
47.28000 198.649
47.29000 198.374
47.30000 197.990
47.31000 197.533
47.32000 197.089
47.33000 193.944
47.34000 189.811
47.35000 186.401
47.36000 191.926
47.37000 200.112
47.38000 206.813
47.39000 202.890
47.40000 196.878
47.41000 191.850
47.42000 189.812
47.43000 188.425
47.44000 187.870
47.45000 189.837
47.46000 191.976
47.47000 191.211
47.48000 184.495
47.49000 177.602
47.50000 173.606
47.51000 182.279
47.52000 188.413
47.53000 190.267
47.54000 188.339
47.55000 186.469
47.56000 188.006
47.57000 191.530
47.58000 194.933
47.59000 192.744
47.60000 188.605
47.61000 184.899
47.62000 185.685
47.63000 187.661
47.64000 188.892
47.65000 185.483
47.66000 181.271
47.67000 177.832
47.68000 185.965
47.69000 193.617
47.70000 198.004
47.71000 193.566
47.72000 188.638
47.73000 186.113
47.74000 187.982
47.75000 189.944
47.76000 191.020
47.77000 194.558
47.78000 196.985
47.79000 196.445
47.80000 193.592
47.81000 190.736
47.82000 187.752
47.83000 184.700
47.84000 181.780
47.85000 180.743
47.86000 180.394
47.87000 180.274
47.88000 182.184
47.89000 184.571
47.90000 186.889
47.91000 188.829
47.92000 190.713
47.93000 192.211
47.94000 187.774
47.95000 183.770
47.96000 180.962
47.97000 181.040
47.98000 181.245
47.99000 182.005
48.00000 183.668
48.01000 185.343
48.02000 186.209
48.03000 187.488
48.04000 188.330
48.05000 186.602
48.06000 183.100
48.07000 179.843
48.08000 183.831
48.09000 191.179
48.10000 198.132
48.11000 198.031
48.12000 195.905
48.13000 193.515
48.14000 189.112
48.15000 184.291
48.16000 180.639
48.17000 182.606
48.18000 185.309
48.19000 187.402
48.20000 185.925
48.21000 184.541
48.22000 184.103
48.23000 185.704
48.24000 187.375
48.25000 186.101
48.26000 180.568
48.27000 175.001
48.28000 172.290
48.29000 172.255
48.30000 172.290
48.31000 177.406
48.32000 185.640
48.33000 193.633
48.34000 196.162
48.35000 196.427
48.36000 196.676
48.37000 194.926
48.38000 192.831
48.39000 191.104
48.40000 191.807
48.41000 192.955
48.42000 193.740
48.43000 192.978
48.44000 192.041
48.45000 191.337
48.46000 185.355
48.47000 180.427
48.48000 178.522
48.49000 182.431
48.50000 186.485
48.51000 186.670
48.52000 181.898
48.53000 177.113
48.54000 175.363
48.55000 176.111
48.56000 176.879
48.57000 178.587
48.58000 180.810
48.59000 182.902
48.60000 182.658
48.61000 181.550
48.62000 180.527
48.63000 177.200
48.64000 173.707
48.65000 171.386
48.66000 175.842
48.67000 181.386
48.68000 185.638
48.69000 185.017
48.70000 183.928
48.71000 183.136
48.72000 176.714
48.73000 171.561
48.74000 170.403
48.75000 176.094
48.76000 181.903
48.77000 184.976
48.78000 184.955
48.79000 184.931
48.80000 186.936
48.81000 190.390
48.82000 193.692
48.83000 191.908
48.84000 187.643
48.85000 183.440
48.86000 180.156
48.87000 177.175
48.88000 174.467
48.89000 176.365
48.90000 178.936
48.91000 181.460
48.92000 183.742
48.93000 185.990
48.94000 187.208
48.95000 184.965
48.96000 182.442
48.97000 180.672
48.98000 178.223
48.99000 176.350
49.00000 175.747
49.01000 177.082
49.02000 178.437
49.03000 179.752
49.04000 181.026
49.05000 182.292
49.06000 182.133
49.07000 181.069
49.08000 180.035
49.09000 179.739
49.10000 179.765
49.11000 179.726
49.12000 178.905
49.13000 177.853
49.14000 176.914
49.15000 181.565
49.16000 186.563
49.17000 189.979
49.18000 186.290
49.19000 181.743
49.20000 177.516
49.21000 174.247
49.22000 171.041
49.23000 168.875
49.24000 172.338
49.25000 175.036
49.26000 175.401
49.27000 172.607
49.28000 169.802
49.29000 171.896
49.30000 178.261
49.31000 184.553
49.32000 185.096
49.33000 182.393
49.34000 179.702
49.35000 177.243
49.36000 174.874
49.37000 172.888
49.38000 174.809
49.39000 177.752
49.40000 180.335
49.41000 179.666
49.42000 178.614
49.43000 178.230
49.44000 180.498
49.45000 183.040
49.46000 183.681
49.47000 179.245
49.48000 174.533
49.49000 171.480
49.50000 173.256
49.51000 174.628
49.52000 176.655
49.53000 179.466
49.54000 182.276
49.55000 184.580
49.56000 186.494
49.57000 188.375
49.58000 184.515
49.59000 177.931
49.60000 171.760
49.61000 172.169
49.62000 174.863
49.63000 177.192
49.64000 176.347
49.65000 174.766
49.66000 173.404
49.67000 175.367
49.68000 177.447
49.69000 179.191
49.70000 179.743
49.71000 180.190
49.72000 179.043
49.73000 174.094
49.74000 168.982
49.75000 165.814
49.76000 172.470
49.77000 177.351
49.78000 178.151
49.79000 174.655
49.80000 171.190
49.81000 171.431
49.82000 174.198
49.83000 176.899
49.84000 176.508
49.85000 174.777
49.86000 173.211
49.87000 173.797
49.88000 175.050
49.89000 175.953
49.90000 174.231
49.91000 171.971
49.92000 170.066
49.93000 175.835
49.94000 181.477
49.95000 185.020
49.96000 181.956
49.97000 178.409
49.98000 176.475
49.99000 177.975
50.00000 179.589
50.01000 180.541
50.02000 184.766
50.03000 187.765
50.04000 187.248
50.05000 183.486
50.06000 179.732
50.07000 176.543
50.08000 173.695
50.09000 170.936
50.10000 173.750
50.11000 178.570
50.12000 183.109
50.13000 184.545
50.14000 185.126
50.15000 185.681
50.16000 186.066
50.17000 186.421
50.18000 186.713
50.19000 186.004
50.20000 185.329
50.21000 184.849
50.22000 184.915
50.23000 185.014
50.24000 183.504
50.25000 178.938
50.26000 174.299
50.27000 171.704
50.28000 175.319
50.29000 177.830
50.30000 177.703
50.31000 175.430
50.32000 173.212
50.33000 173.456
50.34000 175.030
50.35000 176.542
50.36000 173.507
50.37000 169.115
50.38000 165.826
50.39000 172.826
50.40000 182.346
50.41000 190.308
50.42000 189.396
50.43000 187.079
50.44000 185.219
50.45000 192.358
50.46000 198.831
50.47000 201.365
50.48000 194.023
50.49000 186.208
50.50000 183.086
50.51000 187.910
50.52000 192.863
50.53000 195.476
50.54000 191.863
50.55000 189.438
50.56000 191.632
50.57000 197.148
50.58000 202.544
50.59000 204.033
50.60000 203.640
50.61000 203.265
50.62000 203.653
50.63000 204.241
50.64000 204.544
50.65000 202.570
50.66000 200.103
50.67000 199.431
50.68000 207.762
50.69000 217.333
50.70000 224.812
50.71000 221.630
50.72000 218.416
50.73000 215.021
50.74000 211.220
50.75000 207.405
50.76000 206.727
50.77000 210.777
50.78000 214.875
50.79000 215.948
50.80000 214.061
50.81000 212.182
50.82000 210.927
50.83000 210.070
50.84000 209.144
50.85000 206.500
50.86000 203.118
50.87000 199.942
50.88000 198.058
50.89000 196.683
50.90000 195.082
50.91000 191.923
50.92000 188.466
50.93000 185.558
50.94000 185.077
50.95000 184.885
50.96000 184.739
50.97000 188.318
50.98000 191.322
50.99000 191.867
51.00000 187.498
51.01000 182.993
51.02000 180.662
51.03000 181.236
51.04000 181.825
51.05000 180.910
51.06000 178.707
51.07000 176.524
51.08000 175.374
51.09000 174.812
51.10000 174.405
51.11000 176.988
51.12000 180.721
51.13000 184.180
51.14000 181.779
51.15000 178.256
51.16000 175.282
51.17000 175.625
51.18000 176.526
51.19000 176.925
51.20000 175.354
51.21000 173.583
51.22000 172.281
51.23000 167.153
51.24000 163.029
51.25000 161.488
51.26000 164.553
51.27000 167.709
51.28000 169.728
51.29000 170.405
51.30000 171.079
51.31000 169.074
51.32000 165.061
51.33000 161.248
51.34000 164.896
51.35000 172.327
51.36000 178.999
51.37000 173.815
51.38000 164.564
51.39000 156.116
51.40000 159.192
51.41000 164.267
51.42000 168.037
51.43000 164.880
51.44000 160.709
51.45000 158.624
51.46000 163.821
51.47000 169.643
51.48000 173.780
51.49000 171.211
51.50000 169.042
51.51000 166.683
51.52000 164.025
51.53000 161.362
51.54000 161.137
51.55000 163.442
51.56000 165.735
51.57000 167.806
51.58000 169.702
51.59000 171.379
51.60000 166.977
51.61000 159.824
51.62000 153.248
51.63000 154.107
51.64000 157.241
51.65000 160.058
51.66000 162.848
51.67000 165.287
51.68000 167.125
51.69000 166.152
51.70000 164.823
51.71000 164.561
51.72000 167.619
51.73000 170.915
51.74000 173.171
51.75000 166.690
51.76000 161.629
51.77000 159.775
51.78000 162.442
51.79000 165.141
51.80000 166.538
51.81000 166.750
51.82000 166.959
51.83000 164.779
51.84000 161.242
51.85000 157.844
51.86000 157.421
51.87000 158.201
51.88000 159.046
51.89000 160.594
51.90000 162.334
51.91000 163.871
51.92000 163.569
51.93000 163.026
51.94000 162.658
51.95000 163.020
51.96000 163.462
51.97000 163.339
51.98000 161.648
51.99000 159.865
52.00000 158.693
52.01000 160.382
52.02000 161.674
52.03000 163.635
52.04000 166.429
52.05000 169.213
52.06000 167.775
52.07000 162.951
52.08000 158.198
52.09000 158.285
52.10000 160.875
52.11000 163.353
52.12000 163.914
52.13000 163.784
52.14000 163.206
52.15000 158.519
52.16000 152.838
52.17000 147.915
52.18000 153.746
52.19000 160.136
52.20000 165.662
52.21000 168.014
52.22000 170.071
52.23000 170.507
52.24000 166.926
52.25000 163.156
52.26000 160.784
52.27000 163.443
52.28000 165.424
52.29000 164.689
52.30000 160.966
52.31000 157.259
52.32000 156.123
52.33000 156.812
52.34000 157.487
52.35000 155.745
52.36000 152.968
52.37000 150.475
52.38000 151.969
52.39000 154.746
52.40000 157.189
52.41000 156.993
52.42000 156.232
52.43000 155.585
52.44000 158.291
52.45000 160.942
52.46000 162.607
52.47000 161.046
52.48000 159.234
52.49000 158.838
52.50000 161.575
52.51000 164.425
52.52000 166.135
52.53000 168.928
52.54000 170.919
52.55000 170.503
52.56000 167.765
52.57000 165.055
52.58000 164.479
52.59000 165.251
52.60000 166.000
52.61000 167.452
52.62000 169.115
52.63000 170.462
52.64000 168.126
52.65000 164.733
52.66000 161.668
52.67000 160.849
52.68000 160.454
52.69000 160.126
52.70000 162.252
52.71000 164.246
52.72000 164.601
52.73000 160.171
52.74000 155.434
52.75000 152.462
52.76000 152.973
52.77000 153.579
52.78000 153.923
52.79000 153.901
52.80000 153.886
52.81000 155.017
52.82000 157.122
52.83000 159.218
52.84000 160.860
52.85000 162.248
52.86000 163.584
52.87000 159.224
52.88000 153.099
52.89000 147.660
52.90000 148.975
52.91000 152.014
52.92000 155.219
52.93000 159.416
52.94000 163.779
52.95000 167.312
52.96000 163.317
52.97000 159.450
52.98000 157.127
52.99000 158.824
53.00000 160.730
53.01000 159.928
53.02000 154.361
53.03000 148.704
53.04000 145.658
53.05000 154.185
53.06000 159.986
53.07000 158.041
53.08000 150.289
53.09000 142.793
53.10000 144.488
53.11000 150.786
53.12000 156.790
53.13000 158.201
53.14000 158.065
53.15000 157.618
53.16000 154.558
53.17000 150.906
53.18000 148.684
53.19000 153.942
53.20000 160.281
53.21000 165.282
53.22000 164.219
53.23000 162.955
53.24000 160.393
53.25000 154.809
53.26000 149.101
53.27000 147.690
53.28000 153.012
53.29000 158.414
53.30000 161.147
53.31000 163.068
53.32000 164.353
53.33000 165.538
53.34000 166.657
53.35000 167.666
53.36000 165.749
53.37000 162.523
53.38000 159.482
53.39000 161.566
53.40000 164.893
53.41000 167.927
53.42000 168.834
53.43000 169.316
53.44000 170.038
53.45000 171.872
53.46000 173.845
53.47000 175.358
53.48000 169.554
53.49000 164.564
53.50000 160.719
53.51000 159.253
53.52000 157.861
53.53000 157.337
53.54000 158.023
53.55000 158.716
53.56000 159.795
53.57000 161.218
53.58000 162.604
53.59000 161.711
53.60000 159.470
53.61000 157.423
53.62000 159.422
53.63000 163.036
53.64000 166.401
53.65000 163.691
53.66000 159.765
53.67000 156.635
53.68000 158.540
53.69000 161.329
53.70000 163.227
53.71000 161.482
53.72000 159.346
53.73000 157.759
53.74000 155.017
53.75000 152.834
53.76000 153.112
53.77000 157.954
53.78000 162.898
53.79000 165.637
53.80000 165.663
53.81000 165.681
53.82000 161.828
53.83000 154.945
53.84000 148.173
53.85000 146.010
53.86000 146.278
53.87000 146.759
53.88000 150.813
53.89000 156.140
53.90000 161.031
53.91000 159.637
53.92000 157.056
53.93000 154.870
53.94000 154.868
53.95000 155.202
53.96000 155.895
53.97000 157.893
53.98000 160.009
53.99000 161.531
54.00000 161.277
54.01000 161.020
54.02000 160.665
54.03000 160.148
54.04000 159.629
54.05000 157.294
54.06000 152.990
54.07000 148.704
54.08000 148.086
54.09000 150.018
54.10000 151.966
54.11000 154.382
54.12000 157.018
54.13000 159.519
54.14000 160.151
54.15000 160.189
54.16000 160.223
54.17000 157.606
54.18000 154.811
54.19000 152.193
54.20000 150.435
54.21000 148.792
54.22000 148.017
54.23000 150.047
54.24000 152.291
54.25000 153.847
54.26000 155.416
54.27000 156.598
54.28000 157.945
54.29000 159.536
54.30000 161.129
54.31000 160.444
54.32000 157.593
54.33000 154.765
54.34000 154.305
54.35000 155.303
54.36000 156.387
54.37000 159.482
54.38000 163.421
54.39000 167.029
54.40000 166.838
54.41000 165.572
54.42000 164.446
54.43000 162.564
54.44000 160.810
54.45000 159.046
54.46000 157.244
54.47000 155.437
54.48000 154.798
54.49000 157.526
54.50000 160.465
54.51000 162.425
54.52000 153.959
54.53000 147.491
54.54000 146.427
54.55000 152.397
54.56000 158.390
54.57000 161.005
54.58000 160.793
54.59000 160.584
54.60000 159.032
54.61000 156.796
54.62000 154.576
54.63000 152.672
54.64000 150.886
54.65000 149.332
54.66000 150.021
54.67000 151.274
54.68000 152.367
54.69000 149.327
54.70000 146.151
54.71000 144.173
54.72000 146.782
54.73000 149.842
54.74000 152.775
54.75000 155.387
54.76000 157.982
54.77000 159.640
54.78000 160.831
54.79000 161.692
54.80000 161.079
54.81000 158.772
54.82000 156.490
54.83000 158.842
54.84000 164.623
54.85000 170.295
54.86000 168.974
54.87000 164.366
54.88000 160.037
54.89000 159.889
54.90000 161.140
54.91000 162.316
54.92000 162.857
54.93000 163.257
54.94000 163.599
54.95000 159.767
54.96000 156.036
54.97000 153.854
54.98000 156.945
54.99000 160.472
55.00000 162.956
55.01000 163.042
55.02000 163.032
55.03000 163.027
55.04000 164.769
55.05000 166.029
55.06000 166.985
55.07000 167.633
55.08000 168.277
55.09000 168.528
55.10000 168.519
55.11000 168.511
55.12000 166.157
55.13000 162.923
55.14000 159.894
55.15000 159.407
55.16000 159.678
55.17000 160.167
55.18000 162.210
55.19000 164.559
55.20000 166.525
55.21000 170.617
55.22000 174.234
55.23000 175.702
55.24000 170.654
55.25000 165.158
55.26000 161.117
55.27000 160.062
55.28000 159.097
55.29000 158.537
55.30000 159.458
55.31000 160.112
55.32000 161.781
55.33000 164.350
55.34000 166.916
55.35000 169.352
55.36000 171.710
55.37000 173.988
55.38000 175.563
55.39000 176.786
55.40000 178.015
55.41000 179.319
55.42000 180.642
55.43000 181.730
55.44000 181.353
55.45000 180.722
55.46000 180.206
55.47000 183.550
55.48000 186.620
55.49000 189.452
55.50000 191.640
55.51000 193.791
55.52000 194.288
55.53000 191.755
55.54000 189.157
55.55000 187.730
55.56000 196.604
55.57000 202.729
55.58000 208.923
55.59000 215.173
55.60000 221.349
55.61000 224.548
55.62000 226.197
55.63000 227.776
55.64000 235.148
55.65000 243.915
55.66000 251.958
55.67000 253.571
55.68000 253.669
55.69000 255.068
55.70000 263.570
55.71000 273.147
55.72000 280.772
55.73000 301.786
55.74000 319.693
55.75000 334.539
55.76000 341.983
55.77000 349.098
55.78000 356.952
55.79000 366.012
55.80000 375.089
55.81000 379.781
55.82000 395.087
55.83000 405.425
55.84000 417.865
55.85000 431.758
55.86000 445.342
55.87000 449.772
55.88000 449.950
55.89000 450.118
55.90000 461.164
55.91000 474.465
55.92000 487.352
55.93000 497.075
55.94000 506.137
55.95000 514.179
55.96000 517.308
55.97000 519.792
55.98000 521.715
55.99000 523.383
56.00000 524.692
56.01000 521.591
56.02000 508.972
56.03000 496.027
56.04000 484.979
56.05000 476.678
56.06000 468.401
56.07000 462.467
56.08000 458.732
56.09000 454.990
56.10000 450.782
56.11000 446.288
56.12000 441.411
56.13000 427.839
56.14000 410.659
56.15000 394.596
56.16000 382.785
56.17000 373.141
56.18000 363.189
56.19000 351.192
56.20000 338.820
56.21000 326.827
56.22000 316.445
56.23000 306.245
56.24000 298.581
56.25000 283.755
56.26000 271.821
56.27000 260.690
56.28000 251.106
56.29000 241.560
56.30000 235.131
56.31000 232.704
56.32000 230.295
56.33000 226.968
56.34000 222.898
56.35000 218.825
56.36000 214.631
56.37000 210.372
56.38000 206.057
56.39000 200.747
56.40000 195.068
56.41000 189.829
56.42000 187.603
56.43000 186.280
56.44000 184.594
56.45000 180.810
56.46000 176.689
56.47000 173.284
56.48000 172.588
56.49000 172.152
56.50000 171.836
56.51000 170.650
56.52000 169.705
56.53000 167.263
56.54000 162.250
56.55000 157.193
56.56000 156.472
56.57000 160.665
56.58000 164.848
56.59000 167.668
56.60000 169.477
56.61000 171.164
56.62000 168.777
56.63000 164.398
56.64000 160.355
56.65000 161.230
56.66000 163.731
56.67000 166.004
56.68000 161.626
56.69000 156.463
56.70000 152.233
56.71000 152.751
56.72000 153.935
56.73000 154.591
56.74000 153.474
56.75000 152.213
56.76000 151.328
56.77000 149.134
56.78000 147.435
56.79000 146.314
56.80000 146.075
56.81000 145.846
56.82000 146.372
56.83000 147.650
56.84000 148.918
56.85000 150.772
56.86000 152.970
56.87000 155.004
56.88000 152.870
56.89000 148.918
56.90000 145.583
56.91000 149.751
56.92000 156.128
56.93000 161.830
56.94000 159.625
56.95000 156.363
56.96000 153.464
56.97000 152.191
56.98000 151.116
56.99000 149.729
57.00000 147.412
57.01000 145.033
57.02000 143.425
57.03000 149.046
57.04000 153.388
57.05000 154.201
57.06000 150.230
57.07000 146.236
57.08000 146.606
57.09000 150.786
57.10000 154.918
57.11000 155.454
57.12000 153.952
57.13000 152.468
57.14000 151.361
57.15000 150.400
57.16000 148.986
57.17000 142.942
57.18000 135.683
57.19000 129.310
57.20000 133.413
57.21000 138.477
57.22000 142.770
57.23000 144.001
57.24000 144.913
57.25000 145.497
57.26000 145.202
57.27000 144.858
57.28000 144.636
57.29000 141.067
57.30000 138.404
57.31000 138.501
57.32000 141.905
57.33000 145.307
57.34000 146.749
57.35000 146.678
57.36000 146.608
57.37000 146.166
57.38000 145.554
57.39000 144.997
57.40000 145.322
57.41000 145.955
57.42000 146.716
57.43000 148.593
57.44000 150.730
57.45000 152.571
57.46000 148.964
57.47000 145.221
57.48000 143.142
57.49000 146.953
57.50000 151.281
57.51000 152.934
57.52000 148.198
57.53000 143.186
57.54000 140.078
57.55000 137.482
57.56000 135.620
57.57000 136.566
57.58000 140.473
57.59000 144.362
57.60000 146.020
57.61000 146.155
57.62000 146.286
57.63000 144.926
57.64000 142.969
57.65000 141.203
57.66000 141.947
57.67000 143.469
57.68000 144.948
57.69000 146.092
57.70000 147.168
57.71000 148.074
57.72000 144.146
57.73000 140.345
57.74000 138.521
57.75000 142.933
57.76000 147.802
57.77000 150.761
57.78000 149.649
57.79000 148.403
57.80000 147.666
57.81000 142.982
57.82000 139.653
57.83000 138.747
57.84000 140.083
57.85000 141.431
57.86000 143.625
57.87000 146.332
57.88000 148.955
57.89000 148.165
57.90000 146.093
57.91000 144.067
57.92000 142.547
57.93000 141.166
57.94000 140.653
57.95000 145.800
57.96000 151.973
57.97000 157.057
57.98000 152.214
57.99000 147.322
58.00000 143.487
58.01000 142.624
58.02000 141.941
58.03000 142.938
58.04000 147.137
58.05000 151.413
58.06000 153.806
58.07000 150.286
58.08000 147.837
58.09000 146.794
58.10000 146.897
58.11000 146.955
58.12000 144.985
58.13000 141.917
58.14000 138.973
58.15000 138.061
58.16000 137.903
58.17000 137.403
58.18000 133.694
58.19000 129.198
58.20000 126.302
58.21000 132.542
58.22000 140.230
58.23000 146.407
58.24000 147.191
58.25000 147.414
58.26000 145.984
58.27000 140.405
58.28000 134.627
58.29000 132.008
58.30000 134.748
58.31000 137.577
58.32000 139.070
58.33000 138.828
58.34000 138.661
58.35000 138.167
58.36000 137.439
58.37000 136.739
58.38000 136.949
58.39000 137.600
58.40000 138.218
58.41000 141.309
58.42000 144.910
58.43000 147.859
58.44000 145.567
58.45000 142.137
58.46000 139.290
58.47000 139.374
58.48000 139.863
58.49000 140.245
58.50000 141.529
58.51000 142.612
58.52000 141.673
58.53000 136.198
58.54000 130.554
58.55000 128.934
58.56000 133.385
58.57000 137.898
58.58000 139.448
58.59000 138.094
58.60000 136.769
58.61000 137.820
58.62000 140.391
58.63000 142.828
58.64000 141.965
58.65000 139.681
58.66000 137.535
58.67000 139.494
58.68000 142.368
58.69000 144.314
58.70000 139.808
58.71000 134.065
58.72000 130.541
58.73000 136.860
58.74000 144.351
58.75000 150.039
58.76000 142.918
58.77000 136.660
58.78000 132.408
58.79000 132.174
58.80000 132.052
58.81000 132.448
58.82000 133.539
58.83000 134.633
58.84000 136.560
58.85000 139.201
58.86000 141.807
58.87000 142.523
58.88000 142.163
58.89000 141.591
58.90000 136.889
58.91000 130.598
58.92000 124.767
58.93000 122.688
58.94000 121.690
58.95000 121.467
58.96000 125.937
58.97000 131.198
58.98000 135.269
58.99000 134.664
59.00000 133.582
59.01000 132.786
59.02000 137.951
59.03000 142.193
59.04000 145.468
59.05000 147.017
59.06000 148.531
59.07000 147.450
59.08000 143.298
59.09000 139.152
59.10000 138.622
59.11000 140.830
59.12000 143.001
59.13000 143.798
59.14000 143.897
59.15000 143.846
59.16000 141.448
59.17000 138.244
59.18000 135.316
59.19000 136.078
59.20000 137.505
59.21000 138.176
59.22000 134.823
59.23000 130.880
59.24000 128.331
59.25000 130.660
59.26000 133.408
59.27000 135.362
59.28000 133.688
59.29000 132.297
59.30000 130.006
59.31000 126.285
59.32000 122.545
59.33000 121.151
59.34000 122.197
59.35000 123.237
59.36000 123.473
59.37000 123.170
59.38000 122.991
59.39000 126.227
59.40000 131.013
59.41000 135.493
59.42000 136.036
59.43000 135.371
59.44000 134.773
59.45000 137.817
59.46000 141.129
59.47000 143.303
59.48000 140.148
59.49000 136.315
59.50000 133.073
59.51000 131.674
59.52000 130.407
59.53000 129.539
59.54000 134.768
59.55000 138.831
59.56000 140.267
59.57000 137.994
59.58000 135.696
59.59000 135.098
59.60000 136.052
59.61000 136.997
59.62000 139.206
59.63000 142.111
59.64000 144.837
59.65000 143.712
59.66000 141.027
59.67000 138.641
59.68000 139.487
59.69000 141.216
59.70000 142.743
59.71000 138.879
59.72000 134.711
59.73000 131.405
59.74000 131.677
59.75000 132.340
59.76000 132.795
59.77000 132.673
59.78000 132.517
59.79000 132.415
59.80000 132.230
59.81000 132.093
59.82000 131.118
59.83000 129.096
59.84000 127.074
59.85000 126.603
59.86000 127.377
59.87000 128.140
59.88000 130.439
59.89000 133.466
59.90000 136.348
59.91000 136.718
59.92000 136.182
59.93000 135.974
59.94000 138.798
59.95000 142.356
59.96000 145.440
59.97000 142.351
59.98000 138.901
59.99000 135.762
60.00000 133.767
60.01000 131.878
60.02000 130.892
60.03000 132.145
60.04000 133.503
60.05000 134.359
60.06000 134.793
60.07000 135.103
60.08000 134.996
60.09000 134.430
60.10000 133.864
60.11000 133.379
60.12000 132.953
60.13000 132.535
60.14000 132.822
60.15000 133.422
60.16000 133.933
60.17000 133.211
60.18000 132.090
60.19000 131.544
60.20000 135.531
60.21000 140.490
60.22000 144.701
60.23000 139.850
60.24000 134.747
60.25000 130.370
60.26000 128.372
60.27000 126.561
60.28000 125.947
60.29000 127.988
60.30000 130.125
60.31000 131.409
60.32000 126.076
60.33000 122.241
60.34000 121.070
60.35000 122.472
60.36000 123.891
60.37000 126.549
60.38000 129.991
60.39000 133.335
60.40000 133.493
60.41000 132.355
60.42000 131.247
60.43000 130.491
60.44000 129.836
60.45000 129.432
60.46000 130.748
60.47000 132.390
60.48000 133.754
60.49000 133.753
60.50000 133.621
60.51000 134.489
60.52000 138.284
60.53000 142.267
60.54000 142.692
60.55000 136.078
60.56000 129.273
60.57000 125.393
60.58000 130.643
60.59000 134.333
60.60000 136.355
60.61000 136.960
60.62000 137.483
60.63000 133.768
60.64000 127.671
60.65000 121.798
60.66000 123.580
60.67000 127.987
60.68000 132.489
60.69000 137.938
60.70000 143.628
60.71000 148.052
60.72000 144.907
60.73000 140.506
60.74000 136.941
60.75000 133.573
60.76000 130.846
60.77000 130.616
60.78000 136.898
60.79000 143.520
60.80000 146.273
60.81000 142.202
60.82000 138.001
60.83000 135.738
60.84000 139.096
60.85000 141.392
60.86000 142.517
60.87000 142.763
60.88000 142.957
60.89000 141.222
60.90000 138.520
60.91000 135.943
60.92000 134.028
60.93000 132.459
60.94000 130.983
60.95000 130.297
60.96000 129.790
60.97000 130.006
60.98000 134.018
60.99000 138.579
61.00000 142.179
61.01000 140.439
61.02000 138.681
61.03000 137.571
61.04000 137.971
61.05000 138.434
61.06000 138.854
61.07000 139.207
61.08000 139.560
61.09000 139.738
61.10000 138.978
61.11000 138.481
61.12000 139.082
61.13000 140.415
61.14000 141.743
61.15000 142.948
61.16000 144.096
61.17000 145.179
61.18000 142.194
61.19000 138.332
61.20000 135.154
61.21000 136.962
61.22000 139.769
61.23000 141.559
61.24000 138.650
61.25000 135.153
61.26000 132.471
61.27000 132.836
61.28000 133.293
61.29000 134.922
61.30000 138.989
61.31000 143.131
61.32000 144.362
61.33000 141.537
61.34000 138.686
61.35000 138.934
61.36000 141.967
61.37000 144.947
61.38000 144.606
61.39000 142.298
61.40000 139.870
61.41000 134.918
61.42000 128.958
61.43000 123.408
61.44000 126.632
61.45000 131.682
61.46000 135.982
61.47000 135.528
61.48000 134.236
61.49000 134.981
61.50000 144.061
61.51000 154.037
61.52000 161.457
61.53000 165.733
61.54000 168.918
61.55000 172.699
61.56000 177.584
61.57000 182.494
61.58000 188.743
61.59000 196.646
61.60000 204.539
61.61000 210.599
61.62000 215.184
61.63000 219.721
61.64000 222.280
61.65000 223.793
61.66000 225.760
61.67000 235.349
61.68000 247.659
61.69000 258.960
61.70000 259.503
61.71000 257.692
61.72000 255.703
61.73000 252.725
61.74000 249.594
61.75000 247.102
61.76000 246.935
61.77000 246.981
61.78000 247.013
61.79000 232.078
61.80000 220.121
61.81000 209.273
61.82000 200.260
61.83000 191.274
61.84000 183.761
61.85000 177.851
61.86000 171.966
61.87000 164.570
61.88000 156.200
61.89000 147.922
61.90000 142.480
61.91000 138.373
61.92000 134.766
61.93000 138.026
61.94000 143.473
61.95000 148.397
61.96000 153.780
61.97000 158.603
61.98000 160.909
61.99000 150.916
62.00000 139.277
62.01000 131.390
62.02000 135.648
62.03000 140.836
62.04000 144.435
62.05000 142.052
62.06000 140.099
62.07000 139.368
62.08000 140.436
62.09000 141.520
62.10000 141.236
62.11000 139.649
62.12000 138.074
62.13000 138.462
62.14000 140.045
62.15000 141.589
62.16000 142.229
62.17000 142.488
62.18000 142.483
62.19000 139.453
62.20000 135.564
62.21000 132.108
62.22000 134.745
62.23000 138.019
62.24000 140.471
62.25000 139.369
62.26000 137.858
62.27000 137.577
62.28000 140.852
62.29000 144.352
62.30000 146.686
62.31000 148.853
62.32000 150.454
62.33000 150.022
62.34000 146.939
62.35000 143.851
62.36000 143.900
62.37000 146.579
62.38000 149.223
62.39000 151.212
62.40000 152.794
62.41000 154.157
62.42000 151.461
62.43000 147.242
62.44000 143.510
62.45000 144.516
62.46000 146.717
62.47000 148.637
62.48000 143.639
62.49000 138.396
62.50000 134.520
62.51000 135.888
62.52000 137.771
62.53000 138.316
62.54000 135.408
62.55000 132.326
62.56000 130.355
62.57000 135.847
62.58000 139.944
62.59000 140.734
62.60000 137.718
62.61000 134.707
62.62000 133.418
62.63000 133.406
62.64000 133.394
62.65000 136.970
62.66000 142.132
62.67000 147.268
62.68000 152.035
62.69000 156.677
62.70000 160.350
62.71000 155.971
62.72000 149.792
62.73000 144.507
62.74000 142.915
62.75000 142.016
62.76000 140.425
62.77000 136.474
62.78000 132.328
62.79000 129.661
62.80000 130.402
62.81000 131.279
62.82000 131.814
62.83000 140.598
62.84000 146.947
62.85000 149.793
62.86000 149.097
62.87000 148.404
62.88000 148.020
62.89000 147.839
62.90000 147.663
62.91000 145.897
62.92000 143.543
62.93000 141.620
62.94000 145.043
62.95000 150.064
62.96000 154.598
62.97000 155.634
62.98000 155.981
62.99000 156.270
63.00000 146.359
63.01000 137.078
63.02000 131.074
63.03000 135.027
63.04000 139.665
63.05000 141.704
63.06000 138.402
63.07000 134.939
63.08000 132.928
63.09000 140.441
63.10000 145.752
63.11000 146.974
63.12000 144.571
63.13000 142.191
63.14000 141.219
63.15000 141.070
63.16000 140.927
63.17000 139.727
63.18000 138.202
63.19000 136.825
63.20000 136.990
63.21000 137.565
63.22000 138.227
63.23000 139.433
63.24000 140.734
63.25000 141.796
63.26000 146.099
63.27000 149.902
63.28000 151.410
63.29000 146.698
63.30000 141.637
63.31000 137.659
63.32000 135.667
63.33000 133.718
63.34000 132.647
63.35000 145.130
63.36000 153.725
63.37000 156.636
63.38000 155.099
63.39000 153.592
63.40000 153.330
63.41000 153.717
63.42000 154.087
63.43000 151.559
63.44000 148.251
63.45000 145.340
63.46000 145.946
63.47000 147.382
63.48000 148.873
63.49000 150.666
63.50000 152.504
63.51000 153.968
63.52000 151.341
63.53000 148.927
63.54000 147.863
63.55000 150.069
63.56000 152.421
63.57000 153.002
63.58000 150.691
63.59000 148.339
63.60000 147.122
63.61000 145.439
63.62000 144.328
63.63000 146.219
63.64000 150.190
63.65000 154.040
63.66000 154.264
63.67000 152.801
63.68000 151.417
63.69000 150.018
63.70000 148.728
63.71000 147.634
63.72000 148.039
63.73000 148.756
63.74000 149.210
63.75000 148.398
63.76000 147.418
63.77000 146.659
63.78000 148.674
63.79000 150.440
63.80000 152.603
63.81000 155.628
63.82000 158.683
63.83000 160.022
63.84000 158.872
63.85000 157.701
63.86000 156.642
63.87000 155.687
63.88000 154.715
63.89000 152.447
63.90000 149.383
63.91000 146.430
63.92000 146.016
63.93000 146.656
63.94000 147.255
63.95000 150.005
63.96000 153.050
63.97000 155.462
63.98000 153.668
63.99000 151.100
64.00000 149.412
64.01000 151.475
64.02000 153.962
64.03000 155.833
64.04000 152.966
64.05000 150.495
64.06000 149.765
64.07000 152.393
64.08000 155.105
64.09000 157.265
64.10000 158.715
64.11000 160.161
64.12000 160.903
64.13000 161.063
64.14000 161.207
64.15000 160.604
64.16000 159.590
64.17000 158.529
64.18000 156.596
64.19000 154.340
64.20000 152.258
64.21000 156.412
64.22000 161.526
64.23000 165.766
64.24000 164.937
64.25000 163.290
64.26000 161.954
64.27000 161.794
64.28000 161.747
64.29000 161.713
64.30000 162.277
64.31000 162.734
64.32000 161.929
64.33000 158.953
64.34000 155.939
64.35000 155.808
64.36000 158.951
64.37000 162.087
64.38000 162.052
64.39000 159.718
64.40000 157.490
64.41000 158.834
64.42000 161.926
64.43000 164.591
64.44000 160.986
64.45000 155.304
64.46000 150.139
64.47000 154.862
64.48000 160.964
64.49000 166.728
64.50000 170.759
64.51000 174.547
64.52000 176.292
64.53000 171.159
64.54000 165.466
64.55000 161.466
64.56000 161.364
64.57000 161.401
64.58000 162.478
64.59000 165.148
64.60000 167.836
64.61000 168.903
64.62000 168.358
64.63000 167.816
64.64000 166.574
64.65000 164.903
64.66000 163.348
64.67000 164.747
64.68000 167.436
64.69000 170.133
64.70000 172.926
64.71000 175.748
64.72000 178.271
64.73000 177.776
64.74000 176.831
64.75000 175.583
64.76000 172.965
64.77000 170.181
64.78000 167.439
64.79000 164.822
64.80000 162.215
64.81000 160.451
64.82000 170.873
64.83000 178.900
64.84000 182.050
64.85000 178.576
64.86000 175.069
64.87000 175.538
64.88000 179.488
64.89000 183.393
64.90000 182.976
64.91000 180.131
64.92000 177.531
64.93000 179.820
64.94000 184.017
64.95000 187.815
64.96000 187.523
64.97000 186.157
64.98000 184.957
64.99000 179.001
65.00000 173.183
65.01000 168.864
65.02000 170.528
65.03000 172.814
65.04000 176.627
65.05000 184.531
65.06000 192.659
65.07000 197.934
65.08000 200.663
65.09000 202.624
65.10000 202.276
65.11000 199.157
65.12000 196.048
65.13000 196.840
65.14000 200.645
65.15000 204.386
65.16000 206.954
65.17000 208.854
65.18000 210.491
65.19000 207.909
65.20000 203.858
65.21000 200.249
65.22000 200.514
65.23000 201.681
65.24000 202.686
65.25000 209.862
65.26000 216.724
65.27000 220.947
65.28000 215.814
65.29000 209.858
65.30000 208.579
65.31000 218.488
65.32000 228.882
65.33000 235.331
65.34000 230.036
65.35000 226.112
65.36000 226.777
65.37000 232.291
65.38000 237.814
65.39000 244.259
65.40000 251.334
65.41000 258.244
65.42000 258.921
65.43000 256.826
65.44000 255.020
65.45000 257.031
65.46000 260.229
65.47000 262.892
65.48000 261.519
65.49000 259.316
65.50000 257.458
65.51000 263.499
65.52000 269.398
65.53000 274.869
65.54000 278.985
65.55000 283.001
65.56000 286.629
65.57000 289.425
65.58000 292.193
65.59000 293.829
65.60000 307.688
65.61000 317.544
65.62000 321.246
65.63000 319.246
65.64000 317.375
65.65000 324.329
65.66000 336.652
65.67000 348.594
65.68000 370.607
65.69000 395.358
65.70000 419.442
65.71000 436.151
65.72000 450.820
65.73000 468.191
65.74000 503.250
65.75000 541.517
65.76000 573.046
65.77000 621.179
65.78000 662.307
65.79000 704.961
65.80000 751.913
65.81000 799.124
65.82000 837.459
65.83000 858.872
65.84000 879.876
65.85000 891.642
65.86000 901.713
65.87000 908.666
65.88000 906.956
65.89000 898.177
65.90000 889.564
65.91000 888.559
65.92000 891.678
65.93000 894.673
65.94000 883.403
65.95000 867.969
65.96000 849.784
65.97000 805.797
65.98000 755.467
65.99000 704.008
66.00000 646.089
66.01000 587.145
66.02000 539.776
66.03000 497.372
66.04000 463.382
66.05000 429.116
66.06000 394.153
66.07000 359.156
66.08000 332.021
66.09000 318.243
66.10000 304.686
66.11000 297.522
66.12000 303.247
66.13000 307.071
66.14000 299.767
66.15000 284.428
66.16000 269.490
66.17000 267.690
66.18000 272.243
66.19000 276.570
66.20000 281.388
66.21000 285.989
66.22000 289.567
66.23000 284.925
66.24000 278.493
66.25000 274.205
66.26000 280.703
66.27000 288.691
66.28000 294.940
66.29000 303.634
66.30000 310.731
66.31000 318.093
66.32000 326.047
66.33000 334.024
66.34000 341.652
66.35000 348.754
66.36000 355.851
66.37000 367.601
66.38000 383.921
66.39000 400.090
66.40000 403.453
66.41000 398.608
66.42000 394.055
66.43000 396.740
66.44000 402.552
66.45000 408.010
66.46000 402.843
66.47000 395.306
66.48000 388.593
66.49000 387.615
66.50000 387.738
66.51000 387.021
66.52000 382.573
66.53000 377.680
66.54000 373.963
66.55000 363.989
66.56000 355.825
66.57000 347.963
66.58000 340.710
66.59000 333.473
66.60000 325.377
66.61000 316.128
66.62000 306.880
66.63000 302.479
66.64000 302.262
66.65000 302.073
66.66000 303.406
66.67000 305.607
66.68000 307.593
66.69000 305.410
66.70000 301.619
66.71000 298.106
66.72000 298.731
66.73000 300.259
66.74000 301.362
66.75000 299.881
66.76000 297.963
66.77000 296.947
66.78000 299.480
66.79000 302.376
66.80000 304.507
66.81000 301.825
66.82000 299.551
66.83000 298.936
66.84000 301.292
66.85000 303.707
66.86000 306.779
66.87000 310.630
66.88000 314.472
66.89000 316.037
66.90000 315.868
66.91000 315.789
66.92000 319.095
66.93000 324.123
66.94000 328.911
66.95000 329.922
66.96000 329.633
66.97000 329.369
66.98000 331.210
66.99000 333.274
67.00000 334.259
67.01000 329.496
67.02000 323.887
67.03000 319.250
67.04000 318.018
67.05000 317.080
67.06000 316.413
67.07000 336.282
67.08000 352.072
67.09000 359.360
67.10000 353.107
67.11000 346.680
67.12000 345.195
67.13000 348.861
67.14000 352.507
67.15000 352.997
67.16000 351.374
67.17000 349.724
67.18000 347.286
67.19000 344.490
67.20000 342.696
67.21000 353.861
67.22000 369.003
67.23000 382.620
67.24000 383.659
67.25000 382.331
67.26000 379.119
67.27000 367.058
67.28000 353.868
67.29000 345.944
67.30000 354.450
67.31000 364.138
67.32000 370.778
67.33000 371.274
67.34000 371.497
67.35000 373.692
67.36000 378.674
67.37000 383.675
67.38000 384.315
67.39000 380.971
67.40000 377.659
67.41000 381.380
67.42000 389.163
67.43000 396.421
67.44000 392.326
67.45000 383.628
67.46000 376.282
67.47000 383.618
67.48000 394.965
67.49000 404.993
67.50000 405.244
67.51000 403.951
67.52000 403.661
67.53000 407.545
67.54000 411.887
67.55000 415.851
67.56000 418.765
67.57000 421.616
67.58000 423.494
67.59000 427.305
67.60000 430.146
67.61000 429.174
67.62000 423.425
67.63000 417.674
67.64000 416.414
67.65000 418.771
67.66000 421.094
67.67000 428.291
67.68000 437.809
67.69000 447.087
67.70000 452.216
67.71000 455.843
67.72000 458.998
67.73000 457.804
67.74000 455.554
67.75000 453.604
67.76000 455.561
67.77000 457.749
67.78000 457.938
67.79000 450.752
67.80000 442.879
67.81000 439.629
67.82000 447.868
67.83000 456.649
67.84000 462.183
67.85000 464.020
67.86000 465.308
67.87000 466.371
67.88000 467.185
67.89000 468.013
67.90000 471.024
67.91000 475.590
67.92000 480.061
67.93000 480.930
67.94000 480.112
67.95000 479.860
67.96000 487.586
67.97000 497.889
67.98000 506.868
67.99000 505.364
68.00000 501.609
68.01000 498.419
68.02000 504.993
68.03000 511.625
68.04000 516.469
68.05000 515.437
68.06000 513.945
68.07000 514.165
68.08000 518.183
68.09000 522.339
68.10000 524.837
68.11000 532.645
68.12000 538.232
68.13000 542.258
68.14000 544.774
68.15000 547.292
68.16000 549.919
68.17000 552.616
68.18000 555.237
68.19000 554.780
68.20000 553.099
68.21000 551.987
68.22000 557.557
68.23000 565.051
68.24000 571.739
68.25000 572.899
68.26000 573.013
68.27000 573.108
68.28000 580.340
68.29000 587.013
68.30000 596.820
68.31000 615.804
68.32000 635.380
68.33000 646.311
68.34000 640.115
68.35000 633.454
68.36000 629.653
68.37000 627.174
68.38000 625.459
68.39000 629.959
68.40000 639.750
68.41000 649.499
68.42000 657.106
68.43000 663.507
68.44000 669.672
68.45000 672.544
68.46000 674.064
68.47000 676.131
68.48000 683.628
68.49000 692.515
68.50000 702.009
68.51000 715.139
68.52000 728.873
68.53000 740.006
68.54000 760.412
68.55000 777.796
68.56000 792.593
68.57000 800.630
68.58000 808.314
68.59000 824.736
68.60000 856.596
68.61000 888.749
68.62000 906.090
68.63000 935.522
68.64000 955.742
68.65000 991.838
68.66000 1039.876
68.67000 1087.873
68.68000 1134.391
68.69000 1180.167
68.70000 1223.823
68.71000 1275.069
68.72000 1325.010
68.73000 1373.379
68.74000 1408.446
68.75000 1440.494
68.76000 1474.285
68.77000 1517.231
68.78000 1561.505
68.79000 1596.461
68.80000 1664.358
68.81000 1721.084
68.82000 1778.522
68.83000 1837.622
68.84000 1896.791
68.85000 1958.900
68.86000 2025.635
68.87000 2092.426
68.88000 2126.273
68.89000 2365.946
68.90000 2527.407
68.91000 2786.325
68.92000 3110.254
68.93000 3453.360
68.94000 4316.402
68.95000 5412.688
68.96000 6446.483
68.97000 8887.569
68.98000 11514.693
68.99000 14282.748
69.00000 18080.283
69.01000 22084.197
69.02000 26105.162
69.03000 30205.123
69.04000 34315.008
69.05000 37468.836
69.06000 40974.746
69.07000 43764.906
69.08000 45989.512
69.09000 47035.262
69.10000 48044.281
69.11000 48643.977
69.12000 48671.973
69.13000 48696.121
69.14000 48939.668
69.15000 49380.484
69.16000 49823.590
69.17000 50409.180
69.18000 51079.309
69.19000 51722.641
69.20000 51801.984
69.21000 51655.371
69.22000 51518.848
69.23000 49453.910
69.24000 47116.363
69.25000 44731.684
69.26000 42047.520
69.27000 39310.547
69.28000 36678.109
69.29000 34474.520
69.30000 32317.158
69.31000 30711.873
69.32000 28899.352
69.33000 27479.945
69.34000 26372.088
69.35000 25843.654
69.36000 25328.250
69.37000 24760.395
69.38000 24127.703
69.39000 23495.971
69.40000 22452.121
69.41000 21087.182
69.42000 19710.186
69.43000 17824.113
69.44000 15668.867
69.45000 13525.382
69.46000 11579.980
69.47000 9705.436
69.48000 7984.084
69.49000 6570.297
69.50000 5374.688
69.51000 4256.466
69.52000 3568.819
69.53000 2947.590
69.54000 2405.840
69.55000 2153.678
69.56000 1928.024
69.57000 1765.619
69.58000 1605.293
69.59000 1482.607
69.60000 1386.093
69.61000 1332.949
69.62000 1280.458
69.63000 1233.849
69.64000 1193.645
69.65000 1153.618
69.66000 1120.047
69.67000 1091.317
69.68000 1062.637
69.69000 1035.467
69.70000 1009.009
69.71000 982.569
69.72000 956.363
69.73000 930.233
69.74000 906.604
69.75000 893.236
69.76000 883.386
69.77000 871.557
69.78000 850.040
69.79000 827.223
69.80000 808.144
69.81000 801.184
69.82000 795.154
69.83000 790.968
69.84000 776.516
69.85000 765.355
69.86000 753.295
69.87000 739.911
69.88000 726.515
69.89000 720.145
69.90000 720.483
69.91000 720.818
69.92000 715.927
69.93000 707.914
69.94000 699.703
69.95000 686.833
69.96000 672.001
69.97000 657.954
69.98000 652.938
69.99000 650.489
70.00000 648.311
