20.00000 574.631
20.01000 573.122
20.02000 571.398
20.03000 571.523
20.04000 578.858
20.05000 586.919
20.06000 592.834
20.07000 580.290
20.08000 569.849
20.09000 561.246
20.10000 555.899
20.11000 550.613
20.12000 552.887
20.13000 564.016
20.14000 575.128
20.15000 576.113
20.16000 569.507
20.17000 563.096
20.18000 563.830
20.19000 568.162
20.20000 572.424
20.21000 575.596
20.22000 578.397
20.23000 580.953
20.24000 585.369
20.25000 589.661
20.26000 592.153
20.27000 585.164
20.28000 576.796
20.29000 570.156
20.30000 569.505
20.31000 569.364
20.32000 569.263
20.33000 558.247
20.34000 549.528
20.35000 548.428
20.36000 559.342
20.37000 570.404
20.38000 570.765
20.39000 560.103
20.40000 549.503
20.41000 549.238
20.42000 555.794
20.43000 562.340
20.44000 568.627
20.45000 574.796
20.46000 579.849
20.47000 570.680
20.48000 557.190
20.49000 545.078
20.50000 557.238
20.51000 572.143
20.52000 582.711
20.53000 573.138
20.54000 561.029
20.55000 553.294
20.56000 559.067
20.57000 565.796
20.58000 570.392
20.59000 568.379
20.60000 566.718
20.61000 560.375
20.62000 547.477
20.63000 534.543
20.64000 535.639
20.65000 549.407
20.66000 563.040
20.67000 567.960
20.68000 567.706
20.69000 567.547
20.70000 569.400
20.71000 572.061
20.72000 573.843
20.73000 566.237
20.74000 556.091
20.75000 547.139
20.76000 545.599
20.77000 545.400
20.78000 545.547
20.79000 547.118
20.80000 548.843
20.81000 549.931
20.82000 549.261
20.83000 548.490
20.84000 547.984
20.85000 554.815
20.86000 559.961
20.87000 560.028
20.88000 553.802
20.89000 547.581
20.90000 548.682
20.91000 555.616
20.92000 562.445
20.93000 562.130
20.94000 558.154
20.95000 554.212
20.96000 550.836
20.97000 547.663
20.98000 544.808
20.99000 544.843
21.00000 545.572
21.01000 546.204
21.02000 557.152
21.03000 567.818
21.04000 575.081
21.05000 569.916
21.06000 563.609
21.07000 559.863
21.08000 562.420
21.09000 565.268
21.10000 567.055
21.11000 573.786
21.12000 578.706
21.13000 574.929
21.14000 561.660
21.15000 548.480
21.16000 548.092
21.17000 556.723
21.18000 565.169
21.19000 565.410
21.20000 561.918
21.21000 558.194
21.22000 551.270
21.23000 543.322
21.24000 536.060
21.25000 534.154
21.26000 533.386
21.27000 532.734
21.28000 544.153
21.29000 555.082
21.30000 562.240
21.31000 557.134
21.32000 551.084
21.33000 548.404
21.34000 553.128
21.35000 558.115
21.36000 561.100
21.37000 562.811
21.38000 564.017
21.39000 560.126
21.40000 551.358
21.41000 542.696
21.42000 542.261
21.43000 546.979
21.44000 551.560
21.45000 553.478
21.46000 554.232
21.47000 554.994
21.48000 555.852
21.49000 556.736
21.50000 556.496
21.51000 548.631
21.52000 539.339
21.53000 531.637
21.54000 540.330
21.55000 549.079
21.56000 555.159
21.57000 553.502
21.58000 551.355
21.59000 551.052
21.60000 554.366
21.61000 557.776
21.62000 559.713
21.63000 551.444
21.64000 545.662
21.65000 544.805
21.66000 548.094
21.67000 551.339
21.68000 552.412
21.69000 552.273
21.70000 552.139
21.71000 564.278
21.72000 580.009
21.73000 594.619
21.74000 598.281
21.75000 599.170
21.76000 600.107
21.77000 601.322
21.78000 602.583
21.79000 603.603
21.80000 624.101
21.81000 642.346
21.82000 652.451
21.83000 641.490
21.84000 629.452
21.85000 631.436
21.86000 657.946
21.87000 684.906
21.88000 699.369
21.89000 713.541
21.90000 723.157
21.91000 721.460
21.92000 711.345
21.93000 701.646
21.94000 706.672
21.95000 719.022
21.96000 730.789
21.97000 749.662
21.98000 769.371
21.99000 788.072
22.00000 798.361
22.01000 806.762
22.02000 813.797
22.03000 813.739
22.04000 812.666
22.05000 811.820
22.06000 810.665
22.07000 809.719
22.08000 804.349
22.09000 788.757
22.10000 772.755
22.11000 761.556
22.12000 757.834
22.13000 754.198
22.14000 752.366
22.15000 728.708
22.16000 712.879
22.17000 695.424
22.18000 676.897
22.19000 659.008
22.20000 658.040
22.21000 664.588
22.22000 670.755
22.23000 654.451
22.24000 633.362
22.25000 613.852
22.26000 605.731
22.27000 599.868
22.28000 594.291
22.29000 590.020
22.30000 585.911
22.31000 582.766
22.32000 577.480
22.33000 573.191
22.34000 571.654
22.35000 575.793
22.36000 580.105
22.37000 577.350
22.38000 564.828
22.39000 552.250
22.40000 544.692
22.41000 541.609
22.42000 538.651
22.43000 543.169
22.44000 552.079
22.45000 560.350
22.46000 555.478
22.47000 545.393
22.48000 536.013
22.49000 527.295
22.50000 519.580
22.51000 513.609
22.52000 518.585
22.53000 525.469
22.54000 530.471
22.55000 527.836
22.56000 524.390
22.57000 521.832
22.58000 523.103
22.59000 524.258
22.60000 528.461
22.61000 538.278
22.62000 548.216
22.63000 551.979
22.64000 548.192
22.65000 544.393
22.66000 546.667
22.67000 553.677
22.68000 560.403
22.69000 555.485
22.70000 544.472
22.71000 534.020
22.72000 532.839
22.73000 534.942
22.74000 536.870
22.75000 532.064
22.76000 526.359
22.77000 523.280
22.78000 534.650
22.79000 548.221
22.80000 557.323
22.81000 550.312
22.82000 541.847
22.83000 535.774
22.84000 532.692
22.85000 530.438
22.86000 527.993
22.87000 525.236
22.88000 522.474
22.89000 522.369
22.90000 525.126
22.91000 527.870
22.92000 527.144
22.93000 524.037
22.94000 521.029
22.95000 520.991
22.96000 522.341
22.97000 523.649
22.98000 524.377
22.99000 524.923
23.00000 525.416
23.01000 522.393
23.02000 519.088
23.03000 515.792
23.04000 512.536
23.05000 509.286
23.06000 505.898
23.07000 502.068
23.08000 498.204
23.09000 495.530
23.10000 509.565
23.11000 520.556
23.12000 524.206
23.13000 517.153
23.14000 510.010
23.15000 510.277
23.16000 517.536
23.17000 524.734
23.18000 520.717
23.19000 509.964
23.20000 499.847
23.21000 504.311
23.22000 514.857
23.23000 524.836
23.24000 528.385
23.25000 530.125
23.26000 531.670
23.27000 528.525
23.28000 525.049
23.29000 520.245
23.30000 509.751
23.31000 498.609
23.32000 489.401
23.33000 485.736
23.34000 482.415
23.35000 480.206
23.36000 489.827
23.37000 497.166
23.38000 502.379
23.39000 504.845
23.40000 507.298
23.41000 508.921
23.42000 509.854
23.43000 510.774
23.44000 510.618
23.45000 509.889
23.46000 509.432
23.47000 513.916
23.48000 520.241
23.49000 526.271
23.50000 529.479
23.51000 531.980
23.52000 534.160
23.53000 525.737
23.54000 517.073
23.55000 511.403
23.56000 517.109
23.57000 523.920
23.58000 526.705
23.59000 519.196
23.60000 511.173
23.61000 506.059
23.62000 508.286
23.63000 509.999
23.64000 514.976
23.65000 523.672
23.66000 532.336
23.67000 534.809
23.68000 532.734
23.69000 530.698
23.70000 527.748
23.71000 524.472
23.72000 521.246
23.73000 518.754
23.74000 516.506
23.75000 514.269
23.76000 512.133
23.77000 510.019
23.78000 508.213
23.79000 516.281
23.80000 524.248
23.81000 528.765
23.82000 521.615
23.83000 513.511
23.84000 505.422
23.85000 497.368
23.86000 489.316
23.87000 484.416
23.88000 502.685
23.89000 515.915
23.90000 524.228
23.91000 527.619
23.92000 530.930
23.93000 526.869
23.94000 518.005
23.95000 509.375
23.96000 508.170
23.97000 510.127
23.98000 512.192
23.99000 515.564
24.00000 519.324
24.01000 522.400
24.02000 520.612
24.03000 517.872
24.04000 515.584
24.05000 518.651
24.06000 521.739
24.07000 526.459
24.08000 536.099
24.09000 546.073
24.10000 549.446
24.11000 539.363
24.12000 528.885
24.13000 522.825
24.14000 530.137
24.15000 535.306
24.16000 529.746
24.17000 514.759
24.18000 500.086
24.19000 503.431
24.20000 517.226
24.21000 530.545
24.22000 526.485
24.23000 516.244
24.24000 507.366
24.25000 512.530
24.26000 521.395
24.27000 528.295
24.28000 523.029
24.29000 515.672
24.30000 509.671
24.31000 500.091
24.32000 491.950
24.33000 488.473
24.34000 497.534
24.35000 507.287
24.36000 512.972
24.37000 511.259
24.38000 509.392
24.39000 508.370
24.40000 498.103
24.41000 491.070
24.42000 493.819
24.43000 504.155
24.44000 514.263
24.45000 515.355
24.46000 511.786
24.47000 508.373
24.48000 510.409
24.49000 514.076
24.50000 516.519
24.51000 508.189
24.52000 497.340
24.53000 487.674
24.54000 484.424
24.55000 482.137
24.56000 480.319
24.57000 488.950
24.58000 496.648
24.59000 502.510
24.60000 503.961
24.61000 505.220
24.62000 503.015
24.63000 495.199
24.64000 487.306
24.65000 483.241
24.66000 493.617
24.67000 500.566
24.68000 502.716
24.69000 501.568
24.70000 500.219
24.71000 492.977
24.72000 483.016
24.73000 473.595
24.74000 478.705
24.75000 487.566
24.76000 495.056
24.77000 492.158
24.78000 487.111
24.79000 483.618
24.80000 487.553
24.81000 492.456
24.82000 496.245
24.83000 495.530
24.84000 494.699
24.85000 492.629
24.86000 487.904
24.87000 483.091
24.88000 483.320
24.89000 490.807
24.90000 498.350
24.91000 499.137
24.92000 493.638
24.93000 488.198
24.94000 486.837
24.95000 487.967
24.96000 488.944
24.97000 486.522
24.98000 482.698
24.99000 479.126
25.00000 478.309
25.01000 478.261
25.02000 477.773
25.03000 474.385
25.04000 470.469
25.05000 468.416
25.06000 474.246
25.07000 480.958
25.08000 485.993
25.09000 497.162
25.10000 506.176
25.11000 509.526
25.12000 502.037
25.13000 494.281
25.14000 487.257
25.15000 481.165
25.16000 475.085
25.17000 472.836
25.18000 473.725
25.19000 474.690
25.20000 479.167
25.21000 485.554
25.22000 491.556
25.23000 490.708
25.24000 487.340
25.25000 484.237
25.26000 485.434
25.27000 487.456
25.28000 488.555
25.29000 484.340
25.30000 479.278
25.31000 475.819
25.32000 478.376
25.33000 481.507
25.34000 483.780
25.35000 482.894
25.36000 482.094
25.37000 483.413
25.38000 488.350
25.39000 493.346
25.40000 490.911
25.41000 480.118
25.42000 469.356
25.43000 467.113
25.44000 471.011
25.45000 474.760
25.46000 473.587
25.47000 470.025
25.48000 466.773
25.49000 468.020
25.50000 470.744
25.51000 473.218
25.52000 475.815
25.53000 478.134
25.54000 479.433
25.55000 475.583
25.56000 471.018
25.57000 467.177
25.58000 465.756
25.59000 464.528
25.60000 463.668
25.61000 461.389
25.62000 459.625
25.63000 462.566
25.64000 472.648
25.65000 482.804
25.66000 484.999
25.67000 479.340
25.68000 473.720
25.69000 472.139
25.70000 473.142
25.71000 474.216
25.72000 477.053
25.73000 480.653
25.74000 483.638
25.75000 479.221
25.76000 472.637
25.77000 466.758
25.78000 471.037
25.79000 476.469
25.80000 481.398
25.81000 484.079
25.82000 486.490
25.83000 487.906
25.84000 486.362
25.85000 484.621
25.86000 483.447
25.87000 473.434
25.88000 465.798
25.89000 460.892
25.90000 459.662
25.91000 458.455
25.92000 460.004
25.93000 463.941
25.94000 467.834
25.95000 473.545
25.96000 480.137
25.97000 486.418
25.98000 486.605
25.99000 484.434
26.00000 482.315
26.01000 480.739
26.02000 479.304
26.03000 478.046
26.04000 470.740
26.05000 463.587
26.06000 459.135
26.07000 465.370
26.08000 472.703
26.09000 476.004
26.10000 468.600
26.11000 460.619
26.12000 455.456
26.13000 456.385
26.14000 457.154
26.15000 457.224
26.16000 456.463
26.17000 455.708
26.18000 456.887
26.19000 459.545
26.20000 462.157
26.21000 458.854
26.22000 452.741
26.23000 447.295
26.24000 452.400
26.25000 461.151
26.26000 468.813
26.27000 467.047
26.28000 463.106
26.29000 459.716
26.30000 469.629
26.31000 479.686
26.32000 485.059
26.33000 473.968
26.34000 461.446
26.35000 455.005
26.36000 462.987
26.37000 471.583
26.38000 476.898
26.39000 473.052
26.40000 470.203
26.41000 468.364
26.42000 467.583
26.43000 466.799
26.44000 465.626
26.45000 464.188
26.46000 462.785
26.47000 462.456
26.48000 462.611
26.49000 463.021
26.50000 466.772
26.51000 471.552
26.52000 475.295
26.53000 471.315
26.54000 465.758
26.55000 461.081
26.56000 453.441
26.57000 446.752
26.58000 442.686
26.59000 446.838
26.60000 451.585
26.61000 455.907
26.62000 459.331
26.63000 462.725
26.64000 464.724
26.65000 463.946
26.66000 463.382
26.67000 461.542
26.68000 458.530
26.69000 455.489
26.70000 450.481
26.71000 444.286
26.72000 438.288
26.73000 443.315
26.74000 452.316
26.75000 460.647
26.76000 461.677
26.77000 460.703
26.78000 458.809
26.79000 450.949
26.80000 442.018
26.81000 434.672
26.82000 441.267
26.83000 447.951
26.84000 451.358
26.85000 445.607
26.86000 439.314
26.87000 435.164
26.88000 435.067
26.89000 435.066
26.90000 435.066
26.91000 451.553
26.92000 462.975
26.93000 464.975
26.94000 459.357
26.95000 453.838
26.96000 452.758
26.97000 454.063
26.98000 455.315
26.99000 454.112
27.00000 452.154
27.01000 450.735
27.02000 454.319
27.03000 459.122
27.04000 461.943
27.05000 453.534
27.06000 443.358
27.07000 435.197
27.08000 444.296
27.09000 452.974
27.10000 458.315
27.11000 455.330
27.12000 451.951
27.13000 451.183
27.14000 454.815
27.15000 458.517
27.16000 460.464
27.17000 455.181
27.18000 451.590
27.19000 447.254
27.20000 442.383
27.21000 437.780
27.22000 441.748
27.23000 449.825
27.24000 457.494
27.25000 455.136
27.26000 449.959
27.27000 445.955
27.28000 451.296
27.29000 458.652
27.30000 463.161
27.31000 453.478
27.32000 441.853
27.33000 432.779
27.34000 439.920
27.35000 446.633
27.36000 452.351
27.37000 455.854
27.38000 459.276
27.39000 460.948
27.40000 459.997
27.41000 459.020
27.42000 454.904
27.43000 447.733
27.44000 440.675
27.45000 442.748
27.46000 450.623
27.47000 458.231
27.48000 459.331
27.49000 457.643
27.50000 456.060
27.51000 450.584
27.52000 444.568
27.53000 439.015
27.54000 436.649
27.55000 434.889
27.56000 433.784
27.57000 435.563
27.58000 437.682
27.59000 439.289
27.60000 454.697
27.61000 467.501
27.62000 474.295
27.63000 469.137
27.64000 463.651
27.65000 459.792
27.66000 458.096
27.67000 456.413
27.68000 452.160
27.69000 445.724
27.70000 439.385
27.71000 438.076
27.72000 439.613
27.73000 440.865
27.74000 436.660
27.75000 430.368
27.76000 424.542
27.77000 426.895
27.78000 430.901
27.79000 434.212
27.80000 433.349
27.81000 431.789
27.82000 432.085
27.83000 439.630
27.84000 447.906
27.85000 453.982
27.86000 447.431
27.87000 441.854
27.88000 439.086
27.89000 441.299
27.90000 443.609
27.91000 439.775
27.92000 428.728
27.93000 417.700
27.94000 413.751
27.95000 415.140
27.96000 416.825
27.97000 429.398
27.98000 447.464
27.99000 464.353
28.00000 463.029
28.01000 455.489
28.02000 448.608
28.03000 441.867
28.04000 435.914
28.05000 432.080
28.06000 439.420
28.07000 448.389
28.08000 452.488
28.09000 439.681
28.10000 425.432
28.11000 415.325
28.12000 420.764
28.13000 425.391
28.14000 430.072
28.15000 434.836
28.16000 439.602
28.17000 439.791
28.18000 435.258
28.19000 430.750
28.20000 429.041
28.21000 429.203
28.22000 429.357
28.23000 429.271
28.24000 429.078
28.25000 429.266
28.26000 434.323
28.27000 440.863
28.28000 446.737
28.29000 447.879
28.30000 448.045
28.31000 447.795
28.32000 445.604
28.33000 443.169
28.34000 440.501
28.35000 437.110
28.36000 433.669
28.37000 431.317
28.38000 439.225
28.39000 445.384
28.40000 448.190
28.41000 446.291
28.42000 444.362
28.43000 444.073
28.44000 445.270
28.45000 446.456
28.46000 444.750
28.47000 441.395
28.48000 438.103
28.49000 436.161
28.50000 434.762
28.51000 433.085
28.52000 428.433
28.53000 422.975
28.54000 418.157
28.55000 419.150
28.56000 420.895
28.57000 421.948
28.58000 420.152
28.59000 418.047
28.60000 418.204
28.61000 424.603
28.62000 431.364
28.63000 435.801
28.64000 432.853
28.65000 430.561
28.66000 427.567
28.67000 423.702
28.68000 419.851
28.69000 421.606
28.70000 427.832
28.71000 433.965
28.72000 429.772
28.73000 420.390
28.74000 411.511
28.75000 411.162
28.76000 413.877
28.77000 416.560
28.78000 418.961
28.79000 421.293
28.80000 423.312
28.81000 425.258
28.82000 426.903
28.83000 428.960
28.84000 432.526
28.85000 436.230
28.86000 438.055
28.87000 435.247
28.88000 432.225
28.89000 430.327
28.90000 435.884
28.91000 439.984
28.92000 440.022
28.93000 435.619
28.94000 431.183
28.95000 422.582
28.96000 411.039
28.97000 399.743
28.98000 402.928
28.99000 412.570
29.00000 421.557
29.01000 421.448
29.02000 418.425
29.03000 416.006
29.04000 418.313
29.05000 421.626
29.06000 424.436
29.07000 423.244
29.08000 421.793
29.09000 419.825
29.10000 416.175
29.11000 412.395
29.12000 412.766
29.13000 422.275
29.14000 432.111
29.15000 438.001
29.16000 444.535
29.17000 449.177
29.18000 445.269
29.19000 433.161
29.20000 421.199
29.21000 420.535
29.22000 426.961
29.23000 433.201
29.24000 434.567
29.25000 433.908
29.26000 432.702
29.27000 425.170
29.28000 415.833
29.29000 408.526
29.30000 414.998
29.31000 424.055
29.32000 431.565
29.33000 427.403
29.34000 422.844
29.35000 419.383
29.36000 419.106
29.37000 419.033
29.38000 417.917
29.39000 414.753
29.40000 411.535
29.41000 409.706
29.42000 416.625
29.43000 421.475
29.44000 427.420
29.45000 434.288
29.46000 440.979
29.47000 438.706
29.48000 431.424
29.49000 424.416
29.50000 422.604
29.51000 422.746
29.52000 422.808
29.53000 422.093
29.54000 421.181
29.55000 419.948
29.56000 416.819
29.57000 413.378
29.58000 410.594
29.59000 406.692
29.60000 403.427
29.61000 402.508
29.62000 407.673
29.63000 413.150
29.64000 415.611
29.65000 412.790
29.66000 409.871
29.67000 408.304
29.68000 409.692
29.69000 410.612
29.70000 405.787
29.71000 396.678
29.72000 387.970
29.73000 393.499
29.74000 406.121
29.75000 418.150
29.76000 426.224
29.77000 432.472
29.78000 438.424
29.79000 441.901
29.80000 444.820
29.81000 445.764
29.82000 436.429
29.83000 425.619
29.84000 417.101
29.85000 435.003
29.86000 451.125
29.87000 460.886
29.88000 455.923
29.89000 450.368
29.90000 445.031
29.91000 440.035
29.92000 435.044
29.93000 432.527
29.94000 440.022
29.95000 445.030
29.96000 449.691
29.97000 454.121
29.98000 458.452
29.99000 460.134
30.00000 460.638
30.01000 461.112
30.02000 463.905
30.03000 467.100
30.04000 469.710
30.05000 468.095
30.06000 465.641
30.07000 462.686
30.08000 457.433
30.09000 451.894
30.10000 447.653
30.11000 451.858
30.12000 455.641
30.13000 456.308
30.14000 450.538
30.15000 444.572
30.16000 441.067
30.17000 440.970
30.18000 440.895
30.19000 439.307
30.20000 436.373
30.21000 433.514
30.22000 435.220
30.23000 439.611
30.24000 443.694
30.25000 441.430
30.26000 436.643
30.27000 432.190
30.28000 428.020
30.29000 424.320
30.30000 421.026
30.31000 420.275
30.32000 419.970
30.33000 420.573
30.34000 424.870
30.35000 429.561
30.36000 433.043
30.37000 424.219
30.38000 416.821
30.39000 412.854
30.40000 415.215
30.41000 417.714
30.42000 418.482
30.43000 417.128
30.44000 415.771
30.45000 421.757
30.46000 433.466
30.47000 444.905
30.48000 445.247
30.49000 439.769
30.50000 434.488
30.51000 432.461
30.52000 431.588
30.53000 430.786
30.54000 438.667
30.55000 447.527
30.56000 453.338
30.57000 442.343
30.58000 428.781
30.59000 420.022
30.60000 428.613
30.61000 438.773
30.62000 446.066
30.63000 439.917
30.64000 434.752
30.65000 433.718
30.66000 439.473
30.67000 445.326
30.68000 449.434
30.69000 451.659
30.70000 453.873
30.71000 454.671
30.72000 454.483
30.73000 454.364
30.74000 456.325
30.75000 459.259
30.76000 461.970
30.77000 461.641
30.78000 460.349
30.79000 459.183
30.80000 461.580
30.81000 464.345
30.82000 467.943
30.83000 475.583
30.84000 483.759
30.85000 489.375
30.86000 486.757
30.87000 483.516
30.88000 481.272
30.89000 493.776
30.90000 503.569
30.91000 511.239
30.92000 515.810
30.93000 520.354
30.94000 524.137
30.95000 527.199
30.96000 530.236
30.97000 544.791
30.98000 566.086
30.99000 587.137
31.00000 602.585
31.01000 615.692
31.02000 629.688
31.03000 653.792
31.04000 680.745
31.05000 704.677
31.06000 736.410
31.07000 765.172
31.08000 796.811
31.09000 840.802
31.10000 886.203
31.11000 938.175
31.12000 1008.994
31.13000 1080.986
31.14000 1128.903
31.15000 1259.325
31.16000 1357.388
31.17000 1449.710
31.18000 1534.605
31.19000 1619.549
31.20000 1743.023
31.21000 1898.560
31.22000 2052.050
31.23000 2220.182
31.24000 2391.646
31.25000 2561.343
31.26000 2698.816
31.27000 2824.265
31.28000 2951.776
31.29000 3099.118
31.30000 3251.427
31.31000 3384.183
31.32000 3494.711
31.33000 3586.095
31.34000 3667.105
31.35000 3708.623
31.36000 3746.293
31.37000 3757.939
31.38000 3702.948
31.39000 3644.619
31.40000 3607.418
31.41000 3532.386
31.42000 3477.332
31.43000 3401.599
31.44000 3302.245
31.45000 3202.752
31.46000 3083.347
31.47000 2949.293
31.48000 2817.802
31.49000 2669.590
31.50000 2518.868
31.51000 2367.999
31.52000 2214.950
31.53000 2061.174
31.54000 1907.703
31.55000 1756.741
31.56000 1606.334
31.57000 1477.858
31.58000 1358.941
31.59000 1259.898
31.60000 1163.611
31.61000 1076.655
31.62000 990.464
31.63000 915.508
31.64000 866.248
31.65000 817.994
31.66000 788.613
31.67000 719.193
31.68000 669.283
31.69000 636.849
31.70000 621.943
31.71000 607.007
31.72000 589.368
31.73000 569.964
31.74000 551.069
31.75000 536.878
31.76000 525.323
31.77000 513.684
31.78000 501.012
31.79000 488.033
31.80000 475.723
31.81000 468.167
31.82000 461.542
31.83000 456.006
31.84000 458.364
31.85000 461.123
31.86000 462.115
31.87000 457.771
31.88000 453.064
31.89000 450.201
31.90000 451.104
31.91000 452.117
31.92000 452.703
31.93000 442.259
31.94000 434.896
31.95000 433.499
31.96000 437.356
31.97000 441.101
31.98000 438.430
31.99000 432.031
32.00000 425.853
32.01000 420.202
32.02000 415.074
32.03000 410.083
32.04000 406.514
32.05000 403.322
32.06000 400.709
32.07000 401.690
32.08000 403.290
32.09000 404.596
32.10000 410.112
32.11000 414.985
32.12000 418.571
32.13000 418.691
32.14000 418.618
32.15000 418.297
32.16000 417.522
32.17000 416.737
32.18000 416.307
32.19000 417.673
32.20000 418.605
32.21000 416.923
32.22000 413.210
32.23000 409.434
32.24000 403.112
32.25000 395.472
32.26000 388.166
32.27000 387.479
32.28000 388.998
32.29000 390.546
32.30000 392.349
32.31000 394.212
32.32000 396.224
32.33000 399.046
32.34000 401.991
32.35000 404.332
32.36000 396.362
32.37000 389.203
32.38000 384.675
32.39000 386.473
32.40000 388.548
32.41000 390.365
32.42000 391.762
32.43000 393.153
32.44000 393.871
32.45000 386.931
32.46000 382.308
32.47000 384.027
32.48000 390.110
32.49000 396.055
32.50000 397.956
32.51000 397.989
32.52000 398.019
32.53000 393.494
32.54000 388.025
32.55000 382.552
32.56000 377.049
32.57000 371.539
32.58000 368.044
32.59000 374.194
32.60000 381.604
32.61000 387.335
32.62000 377.252
32.63000 368.322
32.64000 364.323
32.65000 370.916
32.66000 377.865
32.67000 378.493
32.68000 370.005
32.69000 361.446
32.70000 360.508
32.71000 366.674
32.72000 372.759
32.73000 373.226
32.74000 370.255
32.75000 367.469
32.76000 368.807
32.77000 371.847
32.78000 374.689
32.79000 376.476
32.80000 377.831
32.81000 378.850
32.82000 377.657
32.83000 376.061
32.84000 374.064
32.85000 370.371
32.86000 366.488
32.87000 363.574
32.88000 386.738
32.89000 406.075
32.90000 418.829
32.91000 418.964
32.92000 418.789
32.93000 422.601
32.94000 431.506
32.95000 440.417
32.96000 443.666
32.97000 442.270
32.98000 440.954
32.99000 443.350
33.00000 447.769
33.01000 451.732
33.02000 447.568
33.03000 440.407
33.04000 433.806
33.05000 428.433
33.06000 423.893
33.07000 420.483
33.08000 423.583
33.09000 427.725
33.10000 427.888
33.11000 413.099
33.12000 396.879
33.13000 385.099
33.14000 389.231
33.15000 393.006
33.16000 392.434
33.17000 384.436
33.18000 376.312
33.19000 370.976
33.20000 368.781
33.21000 366.597
33.22000 363.783
33.23000 360.538
33.24000 357.379
33.25000 357.059
33.26000 358.119
33.27000 358.949
33.28000 356.437
33.29000 352.827
33.30000 349.549
33.31000 354.552
33.32000 360.572
33.33000 365.682
33.34000 366.184
33.35000 366.044
33.36000 365.193
33.37000 361.966
33.38000 358.547
33.39000 356.151
33.40000 352.163
33.41000 349.100
33.42000 348.563
33.43000 351.865
33.44000 355.208
33.45000 358.050
33.46000 360.398
33.47000 362.729
33.48000 357.717
33.49000 348.123
33.50000 338.938
33.51000 340.034
33.52000 345.594
33.53000 350.647
33.54000 349.594
33.55000 346.751
33.56000 344.211
33.57000 346.310
33.58000 348.919
33.59000 350.576
33.60000 347.972
33.61000 344.855
33.62000 343.066
33.63000 345.235
33.64000 347.667
33.65000 349.309
33.66000 349.885
33.67000 350.292
33.68000 347.584
33.69000 340.674
33.70000 333.748
33.71000 331.494
33.72000 333.296
33.73000 335.079
33.74000 335.853
33.75000 336.045
33.76000 336.209
33.77000 335.849
33.78000 335.285
33.79000 335.172
33.80000 339.639
33.81000 345.300
33.82000 350.267
33.83000 345.809
33.84000 340.607
33.85000 335.948
33.86000 333.441
33.87000 331.156
33.88000 329.725
33.89000 330.567
33.90000 331.531
33.91000 332.155
33.92000 331.570
33.93000 331.124
33.94000 332.394
33.95000 335.711
33.96000 339.013
33.97000 338.170
33.98000 334.147
33.99000 330.192
34.00000 332.737
34.01000 338.410
34.02000 343.751
34.03000 343.805
34.04000 342.031
34.05000 340.635
34.06000 342.525
34.07000 345.174
34.08000 347.453
34.09000 347.692
34.10000 347.639
34.11000 346.825
34.12000 343.332
34.13000 339.604
34.14000 338.791
34.15000 344.901
34.16000 351.307
34.17000 355.271
34.18000 347.921
34.19000 342.530
34.20000 339.098
34.21000 337.721
34.22000 336.322
34.23000 332.443
34.24000 326.879
34.25000 321.447
34.26000 325.475
34.27000 333.460
34.28000 340.854
34.29000 340.538
34.30000 337.842
34.31000 335.813
34.32000 338.767
34.33000 342.740
34.34000 346.085
34.35000 343.301
34.36000 340.321
34.37000 337.016
34.38000 332.693
34.39000 328.296
34.40000 324.926
34.41000 323.733
34.42000 322.611
34.43000 321.951
34.44000 326.067
34.45000 328.996
34.46000 328.457
34.47000 324.729
34.48000 321.068
34.49000 321.874
34.50000 325.379
34.51000 328.774
34.52000 327.509
34.53000 324.514
34.54000 321.914
34.55000 323.632
34.56000 326.537
34.57000 329.348
34.58000 331.548
34.59000 333.640
34.60000 335.360
34.61000 335.119
34.62000 334.743
34.63000 334.749
34.64000 335.824
34.65000 336.962
34.66000 339.365
34.67000 344.164
34.68000 349.020
34.69000 351.731
34.70000 345.229
34.71000 340.700
34.72000 333.717
34.73000 324.748
34.74000 315.993
34.75000 316.813
34.76000 322.788
34.77000 328.521
34.78000 329.211
34.79000 328.140
34.80000 326.784
34.81000 322.793
34.82000 318.158
34.83000 315.599
34.84000 324.829
34.85000 335.918
34.86000 344.815
34.87000 337.317
34.88000 329.996
34.89000 324.640
34.90000 324.195
34.91000 323.983
34.92000 323.122
34.93000 321.164
34.94000 319.189
34.95000 318.149
34.96000 326.491
34.97000 332.121
34.98000 332.856
34.99000 330.081
35.00000 327.423
35.01000 328.540
35.02000 331.471
35.03000 334.253
35.04000 332.908
35.05000 330.428
35.06000 328.219
35.07000 328.177
35.08000 328.603
35.09000 329.203
35.10000 330.674
35.11000 332.265
35.12000 333.507
35.13000 326.121
35.14000 319.687
35.15000 315.052
35.16000 314.432
35.17000 313.960
35.18000 313.086
35.19000 311.609
35.20000 310.127
35.21000 311.383
35.22000 315.308
35.23000 319.212
35.24000 321.333
35.25000 322.319
35.26000 323.102
35.27000 318.912
35.28000 312.588
35.29000 306.654
35.30000 306.485
35.31000 307.852
35.32000 308.705
35.33000 306.004
35.34000 302.626
35.35000 299.907
35.36000 300.090
35.37000 300.617
35.38000 301.016
35.39000 303.856
35.40000 306.212
35.41000 309.102
35.42000 313.060
35.43000 317.047
35.44000 319.021
35.45000 318.315
35.46000 317.598
35.47000 317.337
35.48000 317.468
35.49000 317.525
35.50000 313.723
35.51000 307.734
35.52000 302.308
35.53000 307.707
35.54000 317.252
35.55000 326.092
35.56000 323.879
35.57000 319.329
35.58000 315.288
35.59000 314.314
35.60000 313.854
35.61000 313.555
35.62000 313.891
35.63000 314.292
35.64000 314.586
35.65000 314.041
35.66000 313.586
35.67000 312.020
35.68000 308.481
35.69000 304.904
35.70000 304.206
35.71000 306.894
35.72000 309.580
35.73000 311.090
35.74000 311.705
35.75000 312.326
35.76000 313.131
35.77000 314.030
35.78000 314.590
35.79000 309.903
35.80000 303.421
35.81000 297.505
35.82000 302.234
35.83000 308.586
35.84000 313.655
35.85000 311.942
35.86000 309.238
35.87000 307.310
35.88000 308.080
35.89000 309.081
35.90000 309.791
35.91000 311.215
35.92000 312.321
35.93000 311.553
35.94000 307.822
35.95000 304.053
35.96000 303.390
35.97000 305.940
35.98000 308.475
35.99000 308.060
36.00000 305.697
36.01000 303.518
36.02000 306.403
36.03000 311.572
36.04000 316.134
36.05000 312.923
36.06000 307.343
36.07000 302.330
36.08000 302.875
36.09000 304.334
36.10000 305.920
36.11000 308.098
36.12000 310.350
36.13000 311.910
36.14000 311.321
36.15000 310.579
36.16000 310.072
36.17000 305.527
36.18000 302.031
36.19000 301.130
36.20000 303.876
36.21000 306.648
36.22000 309.278
36.23000 311.779
36.24000 314.255
36.25000 313.502
36.26000 310.879
36.27000 308.079
36.28000 301.544
36.29000 293.504
36.30000 286.523
36.31000 290.929
36.32000 298.424
36.33000 305.041
36.34000 299.689
36.35000 293.238
36.36000 288.560
36.37000 291.197
36.38000 294.629
36.39000 296.739
36.40000 295.195
36.41000 293.438
36.42000 292.284
36.43000 301.241
36.44000 308.002
36.45000 308.127
36.46000 299.999
36.47000 291.867
36.48000 290.088
36.49000 293.387
36.50000 296.637
36.51000 296.473
36.52000 294.554
36.53000 292.878
36.54000 295.332
36.55000 299.272
36.56000 302.874
36.57000 303.384
36.58000 303.149
36.59000 302.945
36.60000 306.391
36.61000 309.803
36.62000 311.665
36.63000 307.843
36.64000 303.497
36.65000 300.033
36.66000 298.750
36.67000 297.567
36.68000 296.824
36.69000 293.376
36.70000 290.852
36.71000 293.549
36.72000 301.969
36.73000 310.304
36.74000 306.492
36.75000 294.086
36.76000 281.944
36.77000 285.591
36.78000 296.287
36.79000 306.489
36.80000 309.825
36.81000 310.957
36.82000 310.833
36.83000 300.845
36.84000 288.753
36.85000 278.495
36.86000 287.135
36.87000 296.519
36.88000 302.869
36.89000 299.322
36.90000 295.010
36.91000 293.267
36.92000 297.187
36.93000 301.310
36.94000 303.781
36.95000 299.649
36.96000 296.672
36.97000 298.673
36.98000 305.457
36.99000 312.140
37.00000 310.924
37.01000 304.744
37.02000 298.741
37.03000 299.211
37.04000 302.262
37.05000 305.086
37.06000 305.280
37.07000 304.723
37.08000 304.500
37.09000 306.556
37.10000 309.040
37.11000 311.101
37.12000 309.581
37.13000 307.981
37.14000 306.891
37.15000 307.285
37.16000 307.774
37.17000 306.637
37.18000 302.298
37.19000 297.874
37.20000 295.357
37.21000 305.854
37.22000 313.195
37.23000 311.806
37.24000 303.040
37.25000 294.438
37.26000 294.125
37.27000 298.453
37.28000 302.619
37.29000 303.715
37.30000 303.652
37.31000 303.309
37.32000 300.206
37.33000 296.401
37.34000 292.911
37.35000 291.286
37.36000 289.969
37.37000 288.902
37.38000 289.552
37.39000 290.220
37.40000 292.252
37.41000 297.826
37.42000 303.583
37.43000 304.555
37.44000 297.129
37.45000 289.546
37.46000 285.472
37.47000 289.796
37.48000 292.755
37.49000 295.381
37.50000 297.756
37.51000 300.016
37.52000 298.135
37.53000 294.186
37.54000 290.423
37.55000 291.729
37.56000 294.527
37.57000 296.690
37.58000 293.533
37.59000 289.177
37.60000 285.881
37.61000 288.106
37.62000 291.126
37.63000 293.506
37.64000 294.267
37.65000 294.768
37.66000 296.278
37.67000 300.128
37.68000 304.072
37.69000 306.849
37.70000 307.800
37.71000 308.730
37.72000 309.200
37.73000 294.641
37.74000 284.971
37.75000 281.881
37.76000 283.149
37.77000 284.458
37.78000 286.857
37.79000 289.740
37.80000 292.457
37.81000 291.309
37.82000 289.193
37.83000 287.302
37.84000 287.040
37.85000 287.102
37.86000 288.390
37.87000 295.318
37.88000 302.947
37.89000 308.792
37.90000 313.630
37.91000 317.395
37.92000 316.019
37.93000 304.001
37.94000 291.657
37.95000 283.992
37.96000 282.818
37.97000 281.686
37.98000 285.390
37.99000 293.411
38.00000 301.269
38.01000 299.267
38.02000 291.455
38.03000 284.171
38.04000 287.838
38.05000 295.862
38.06000 303.328
38.07000 301.172
38.08000 296.895
38.09000 293.337
38.10000 294.308
38.11000 296.072
38.12000 297.854
38.13000 299.707
38.14000 301.568
38.15000 302.950
38.16000 307.683
38.17000 311.510
38.18000 311.612
38.19000 304.831
38.20000 297.899
38.21000 295.481
38.22000 298.602
38.23000 301.731
38.24000 304.795
38.25000 307.794
38.26000 310.781
38.27000 313.295
38.28000 315.560
38.29000 317.977
38.30000 322.924
38.31000 328.771
38.32000 334.134
38.33000 333.128
38.34000 330.880
38.35000 329.011
38.36000 329.232
38.37000 329.773
38.38000 332.248
38.39000 341.723
38.40000 351.832
38.41000 359.092
38.42000 365.987
38.43000 371.249
38.44000 380.258
38.45000 395.432
38.46000 410.697
38.47000 424.648
38.48000 437.180
38.49000 449.654
38.50000 464.349
38.51000 480.422
38.52000 496.500
38.53000 512.784
38.54000 529.163
38.55000 546.543
38.56000 577.590
38.57000 612.969
38.58000 644.930
38.59000 667.143
38.60000 684.872
38.61000 703.457
38.62000 726.203
38.63000 749.501
38.64000 772.315
38.65000 793.569
38.66000 814.705
38.67000 829.344
38.68000 830.537
38.69000 831.082
38.70000 838.364
38.71000 855.502
38.72000 872.722
38.73000 874.524
38.74000 861.717
38.75000 849.016
38.76000 837.437
38.77000 826.752
38.78000 815.558
38.79000 792.592
38.80000 764.699
38.81000 737.391
38.82000 716.742
38.83000 697.972
38.84000 681.301
38.85000 646.239
38.86000 612.881
38.87000 583.000
38.88000 568.068
38.89000 554.847
38.90000 538.512
38.91000 513.229
38.92000 487.388
38.93000 470.178
38.94000 443.611
38.95000 423.771
38.96000 406.256
38.97000 391.755
38.98000 377.269
38.99000 364.146
39.00000 352.160
39.01000 340.331
39.02000 337.453
39.03000 339.468
39.04000 341.064
39.05000 334.987
39.06000 326.042
39.07000 317.718
39.08000 315.375
39.09000 314.533
39.10000 313.799
39.11000 308.211
39.12000 302.758
39.13000 297.886
39.14000 295.227
39.15000 292.784
39.16000 290.735
39.17000 289.700
39.18000 288.716
39.19000 288.087
39.20000 285.054
39.21000 282.817
39.22000 282.968
39.23000 285.852
39.24000 288.718
39.25000 287.884
39.26000 284.324
39.27000 280.832
39.28000 278.166
39.29000 275.990
39.30000 274.205
39.31000 278.222
39.32000 284.174
39.33000 290.113
39.34000 295.937
39.35000 301.736
39.36000 306.691
39.37000 298.178
39.38000 289.397
39.39000 282.434
39.40000 281.639
39.41000 281.352
39.42000 278.943
39.43000 271.676
39.44000 264.217
39.45000 259.672
39.46000 264.442
39.47000 267.925
39.48000 267.355
39.49000 262.711
39.50000 258.120
39.51000 258.358
39.52000 261.756
39.53000 265.065
39.54000 266.892
39.55000 268.011
39.56000 269.126
39.57000 270.201
39.58000 271.263
39.59000 272.539
39.60000 275.343
39.61000 278.447
39.62000 281.042
39.63000 280.221
39.64000 279.191
39.65000 276.801
39.66000 270.294
39.67000 263.506
39.68000 259.984
39.69000 263.141
39.70000 266.496
39.71000 268.439
39.72000 273.491
39.73000 277.041
39.74000 273.662
39.75000 264.171
39.76000 254.867
39.77000 256.387
39.78000 264.205
39.79000 271.755
39.80000 270.402
39.81000 265.830
39.82000 262.080
39.83000 266.870
39.84000 273.917
39.85000 279.298
39.86000 274.320
39.87000 267.555
39.88000 262.033
39.89000 262.817
39.90000 264.000
39.91000 264.885
39.92000 264.969
39.93000 265.008
39.94000 264.678
39.95000 263.674
39.96000 262.655
39.97000 262.097
39.98000 266.434
39.99000 269.414
40.00000 269.441
40.01000 267.168
40.02000 264.971
40.03000 265.829
40.04000 268.271
40.05000 270.606
40.06000 269.723
40.07000 267.848
40.08000 266.052
40.09000 264.949
40.10000 264.009
40.11000 263.515
40.12000 265.452
40.13000 267.756
40.14000 269.588
40.15000 263.274
40.16000 257.601
40.17000 255.361
40.18000 261.394
40.19000 267.791
40.20000 269.831
40.21000 264.791
40.22000 259.652
40.23000 257.000
40.24000 248.020
40.25000 242.043
40.26000 244.963
40.27000 254.020
40.28000 262.702
40.29000 260.442
40.30000 253.116
40.31000 246.184
40.32000 250.549
40.33000 257.814
40.34000 263.912
40.35000 261.140
40.36000 256.527
40.37000 252.596
40.38000 251.935
40.39000 251.703
40.40000 251.524
40.41000 251.257
40.42000 251.039
40.43000 252.629
40.44000 258.104
40.45000 263.710
40.46000 265.199
40.47000 260.739
40.48000 256.233
40.49000 253.479
40.50000 252.362
40.51000 251.312
40.52000 254.933
40.53000 261.418
40.54000 267.529
40.55000 265.247
40.56000 259.495
40.57000 254.118
40.58000 250.323
40.59000 247.278
40.60000 244.933
40.61000 247.212
40.62000 250.336
40.63000 253.271
40.64000 255.405
40.65000 257.449
40.66000 258.983
40.67000 259.230
40.68000 259.361
40.69000 260.287
40.70000 262.735
40.71000 265.222
40.72000 263.931
40.73000 257.807
40.74000 251.673
40.75000 248.318
40.76000 247.251
40.77000 246.222
40.78000 246.983
40.79000 248.721
40.80000 250.406
40.81000 251.138
40.82000 251.519
40.83000 251.870
40.84000 249.898
40.85000 247.618
40.86000 245.389
40.87000 243.455
40.88000 241.568
40.89000 240.759
40.90000 244.005
40.91000 247.640
40.92000 250.282
40.93000 256.733
40.94000 261.838
40.95000 261.496
40.96000 251.828
40.97000 242.002
40.98000 237.753
40.99000 239.797
41.00000 241.841
41.01000 240.205
41.02000 235.930
41.03000 231.996
41.04000 239.431
41.05000 252.403
41.06000 264.198
41.07000 258.842
41.08000 247.836
41.09000 237.839
41.10000 234.434
41.11000 232.705
41.12000 233.070
41.13000 244.062
41.14000 256.536
41.15000 264.564
41.16000 257.697
41.17000 249.627
41.18000 243.967
41.19000 241.810
41.20000 240.279
41.21000 243.850
41.22000 255.193
41.23000 266.617
41.24000 266.813
41.25000 255.885
41.26000 245.032
41.27000 243.556
41.28000 248.063
41.29000 252.282
41.30000 249.219
41.31000 242.989
41.32000 237.557
41.33000 241.763
41.34000 248.800
41.35000 255.087
41.36000 248.255
41.37000 240.090
41.38000 234.673
41.39000 241.561
41.40000 249.933
41.41000 255.138
41.42000 250.887
41.43000 246.005
41.44000 242.708
41.45000 244.332
41.46000 245.645
41.47000 245.599
41.48000 243.715
41.49000 241.822
41.50000 240.354
41.51000 239.258
41.52000 238.173
41.53000 237.766
41.54000 237.750
41.55000 237.786
41.56000 238.880
41.57000 240.383
41.58000 242.011
41.59000 244.902
41.60000 248.122
41.61000 250.949
41.62000 255.261
41.63000 259.182
41.64000 261.382
41.65000 256.745
41.66000 251.402
41.67000 247.830
41.68000 248.975
41.69000 250.376
41.70000 251.284
41.71000 244.732
41.72000 239.827
41.73000 237.189
41.74000 237.261
41.75000 237.340
41.76000 238.024
41.77000 239.173
41.78000 240.302
41.79000 238.089
41.80000 234.293
41.81000 230.652
41.82000 229.470
41.83000 229.140
41.84000 229.310
41.85000 233.834
41.86000 239.366
41.87000 244.126
41.88000 239.479
41.89000 234.362
41.90000 231.238
41.91000 235.153
41.92000 239.682
41.93000 241.736
41.94000 237.899
41.95000 233.809
41.96000 231.277
41.97000 234.446
41.98000 236.780
41.99000 238.700
42.00000 240.186
42.01000 241.643
42.02000 239.800
42.03000 235.710
42.04000 231.716
42.05000 234.793
42.06000 240.832
42.07000 246.164
42.08000 242.240
42.09000 235.454
42.10000 230.210
42.11000 236.502
42.12000 245.157
42.13000 252.447
42.14000 256.464
42.15000 259.464
42.16000 259.713
42.17000 251.316
42.18000 242.288
42.19000 235.592
42.20000 233.848
42.21000 232.267
42.22000 231.335
42.23000 230.683
42.24000 230.226
42.25000 232.383
42.26000 236.949
42.27000 241.416
42.28000 239.237
42.29000 233.036
42.30000 227.029
42.31000 228.659
42.32000 233.152
42.33000 237.148
42.34000 235.685
42.35000 232.719
42.36000 230.823
42.37000 235.891
42.38000 242.214
42.39000 247.419
42.40000 239.027
42.41000 230.888
42.42000 225.160
42.43000 226.192
42.44000 227.628
42.45000 230.527
42.46000 236.201
42.47000 241.942
42.48000 245.150
42.49000 238.263
42.50000 233.477
42.51000 231.213
42.52000 230.995
42.53000 230.748
42.54000 229.190
42.55000 226.925
42.56000 224.752
42.57000 229.240
42.58000 235.709
42.59000 241.028
42.60000 235.643
42.61000 227.640
42.62000 221.788
42.63000 228.172
42.64000 236.486
42.65000 243.161
42.66000 240.324
42.67000 237.301
42.68000 235.474
42.69000 236.644
42.70000 237.957
42.71000 236.507
42.72000 230.390
42.73000 224.196
42.74000 220.932
42.75000 228.128
42.76000 232.989
42.77000 233.895
42.78000 231.961
42.79000 230.051
42.80000 228.913
42.81000 228.146
42.82000 227.418
42.83000 225.490
42.84000 223.349
42.85000 222.263
42.86000 229.619
42.87000 238.802
42.88000 245.822
42.89000 242.024
42.90000 236.739
42.91000 232.611
42.92000 234.054
42.93000 235.556
42.94000 236.913
42.95000 237.941
42.96000 238.958
42.97000 238.899
42.98000 237.224
42.99000 235.533
43.00000 234.046
43.01000 232.759
43.02000 231.512
43.03000 233.560
43.04000 237.710
43.05000 241.639
43.06000 240.165
43.07000 236.368
43.08000 232.804
43.09000 231.486
43.10000 230.878
43.11000 229.984
43.12000 227.111
43.13000 223.860
43.14000 221.797
43.15000 224.988
43.16000 228.803
43.17000 231.696
43.18000 231.935
43.19000 231.986
43.20000 233.151
43.21000 236.538
43.22000 239.986
43.23000 239.598
43.24000 234.093
43.25000 228.566
43.26000 224.466
43.27000 221.596
43.28000 218.818
43.29000 220.880
43.30000 225.690
43.31000 230.288
43.32000 230.806
43.33000 229.758
43.34000 228.788
43.35000 230.317
43.36000 232.272
43.37000 233.990
43.38000 234.272
43.39000 234.313
43.40000 234.051
43.41000 232.598
43.42000 231.024
43.43000 229.868
43.44000 231.306
43.45000 232.524
43.46000 230.057
43.47000 221.032
43.48000 211.880
43.49000 210.371
43.50000 217.870
43.51000 225.363
43.52000 227.673
43.53000 226.064
43.54000 224.571
43.55000 227.377
43.56000 232.360
43.57000 236.910
43.58000 234.741
43.59000 230.271
43.60000 226.189
43.61000 228.387
43.62000 231.612
43.63000 233.379
43.64000 227.428
43.65000 220.347
43.66000 216.560
43.67000 224.248
43.68000 232.920
43.69000 239.078
43.70000 234.207
43.71000 230.151
43.72000 229.487
43.73000 234.200
43.74000 238.980
43.75000 235.472
43.76000 223.377
43.77000 211.350
43.78000 207.484
43.79000 209.082
43.80000 210.817
43.81000 216.315
43.82000 223.513
43.83000 230.326
43.84000 232.179
43.85000 232.518
43.86000 232.823
43.87000 231.334
43.88000 229.713
43.89000 227.950
43.90000 225.517
43.91000 223.000
43.92000 219.093
43.93000 210.873
43.94000 202.346
43.95000 196.512
43.96000 205.789
43.97000 213.093
43.98000 218.753
43.99000 222.101
44.00000 225.431
44.01000 226.851
44.02000 226.536
44.03000 226.224
44.04000 226.142
44.05000 226.195
44.06000 226.384
44.07000 229.491
44.08000 233.775
44.09000 237.657
44.10000 237.206
44.11000 235.576
44.12000 234.137
44.13000 232.996
44.14000 232.056
44.15000 231.036
44.16000 229.684
44.17000 228.296
44.18000 227.103
44.19000 226.448
44.20000 225.824
44.21000 225.415
44.22000 230.177
44.23000 233.770
44.24000 231.752
44.25000 222.743
44.26000 213.735
44.27000 211.960
44.28000 215.978
44.29000 219.936
44.30000 223.888
44.31000 227.719
44.32000 231.406
44.33000 232.631
44.34000 232.969
44.35000 233.160
44.36000 232.007
44.37000 230.530
44.38000 229.250
44.39000 223.445
44.40000 217.906
44.41000 214.010
44.42000 216.141
44.43000 218.829
44.44000 221.319
44.45000 223.315
44.46000 225.289
44.47000 226.531
44.48000 227.122
44.49000 227.543
44.50000 228.364
44.51000 229.625
44.52000 230.906
44.53000 234.931
44.54000 240.901
44.55000 246.745
44.56000 245.676
44.57000 241.494
44.58000 237.197
44.59000 231.284
44.60000 224.851
44.61000 219.736
44.62000 224.989
44.63000 232.458
44.64000 238.795
44.65000 240.946
44.66000 242.275
44.67000 244.768
44.68000 251.066
44.69000 257.659
44.70000 260.776
44.71000 256.217
44.72000 251.381
44.73000 248.480
44.74000 256.944
44.75000 263.031
44.76000 267.770
44.77000 271.211
44.78000 274.642
44.79000 277.325
44.80000 279.537
44.81000 281.686
44.82000 288.849
44.83000 297.674
44.84000 306.168
44.85000 310.818
44.86000 314.367
44.87000 317.758
44.88000 320.070
44.89000 322.179
44.90000 323.929
44.91000 337.371
44.92000 349.607
44.93000 363.063
44.94000 380.074
44.95000 397.312
44.96000 409.682
44.97000 412.457
44.98000 414.974
44.99000 416.408
45.00000 424.935
45.01000 430.901
45.02000 436.292
45.03000 441.195
45.04000 446.059
45.05000 448.903
45.06000 450.614
45.07000 452.261
45.08000 449.045
45.09000 444.295
45.10000 439.892
45.11000 438.904
45.12000 438.785
45.13000 438.080
45.14000 433.888
45.15000 429.119
45.16000 425.259
45.17000 420.296
45.18000 416.166
45.19000 408.848
45.20000 393.239
45.21000 377.201
45.22000 364.846
45.23000 358.964
45.24000 353.202
45.25000 350.103
45.26000 334.127
45.27000 323.200
45.28000 313.006
45.29000 303.358
45.30000 293.884
45.31000 290.621
45.32000 290.462
45.33000 290.311
45.34000 286.043
45.35000 280.794
45.36000 275.693
45.37000 271.840
45.38000 268.269
45.39000 264.498
45.40000 259.684
45.41000 254.719
45.42000 250.804
45.43000 242.876
45.44000 236.247
45.45000 233.351
45.46000 239.125
45.47000 245.252
45.48000 245.604
45.49000 236.922
45.50000 228.132
45.51000 223.691
45.52000 216.363
45.53000 211.528
45.54000 213.407
45.55000 219.742
45.56000 225.823
45.57000 225.086
45.58000 221.305
45.59000 217.741
45.60000 219.982
45.61000 223.635
45.62000 226.784
45.63000 226.271
45.64000 225.027
45.65000 223.966
45.66000 223.748
45.67000 223.635
45.68000 223.548
45.69000 221.856
45.70000 220.431
45.71000 217.847
45.72000 212.860
45.73000 207.799
45.74000 207.611
45.75000 214.192
45.76000 220.814
45.77000 224.741
45.78000 226.250
45.79000 227.705
45.80000 225.839
45.81000 222.013
45.82000 218.212
45.83000 214.939
45.84000 211.875
45.85000 209.024
45.86000 214.913
45.87000 222.354
45.88000 227.809
45.89000 220.722
45.90000 211.436
45.91000 204.329
45.92000 206.109
45.93000 208.841
45.94000 210.871
45.95000 206.308
45.96000 202.468
45.97000 200.421
45.98000 201.692
45.99000 203.036
46.00000 204.852
46.01000 207.248
46.02000 209.641
46.03000 208.029
46.04000 203.274
46.05000 198.656
46.06000 199.692
46.07000 203.703
46.08000 207.706
46.09000 211.572
46.10000 215.388
46.11000 218.890
46.12000 219.495
46.13000 219.419
46.14000 218.884
46.15000 215.816
46.16000 212.360
46.17000 209.618
46.18000 209.466
46.19000 209.550
46.20000 209.610
46.21000 205.775
46.22000 202.705
46.23000 203.379
46.24000 210.226
46.25000 217.164
46.26000 219.666
46.27000 217.364
46.28000 215.070
46.29000 214.941
46.30000 216.313
46.31000 217.559
46.32000 214.998
46.33000 210.650
46.34000 206.670
46.35000 207.718
46.36000 210.364
46.37000 212.754
46.38000 213.254
46.39000 213.342
46.40000 212.802
46.41000 209.199
46.42000 205.188
46.43000 202.789
46.44000 205.596
46.45000 208.798
46.46000 211.017
46.47000 211.420
46.48000 211.675
46.49000 212.011
46.50000 212.466
46.51000 212.922
46.52000 210.633
46.53000 205.738
46.54000 200.883
46.55000 199.078
46.56000 199.167
46.57000 199.175
46.58000 197.313
46.59000 194.666
46.60000 192.764
46.61000 199.372
46.62000 208.385
46.63000 216.393
46.64000 216.062
46.65000 214.430
46.66000 213.645
46.67000 216.503
46.68000 219.778
46.69000 220.640
46.70000 214.552
46.71000 208.029
46.72000 203.683
46.73000 201.407
46.74000 199.761
46.75000 198.288
46.76000 197.039
46.77000 195.793
46.78000 195.685
46.79000 196.526
46.80000 197.357
46.81000 195.978
46.82000 193.446
46.83000 190.949
46.84000 189.108
46.85000 187.512
46.86000 186.539
46.87000 191.578
46.88000 198.128
46.89000 203.840
46.90000 203.258
46.91000 201.885
46.92000 200.520
46.93000 199.188
46.94000 197.859
46.95000 196.465
46.96000 194.904
46.97000 193.335
46.98000 192.333
46.99000 195.402
47.00000 197.688
47.01000 198.548
47.02000 197.772
47.03000 197.008
47.04000 198.759
47.05000 202.368
47.06000 205.908
47.07000 202.271
47.08000 195.350
47.09000 188.827
47.10000 188.249
47.11000 189.657
47.12000 190.852
47.13000 190.285
47.14000 189.326
47.15000 188.506
47.16000 190.824
47.17000 193.153
47.18000 194.340
47.19000 191.647
47.20000 188.634
47.21000 186.295
47.22000 185.503
47.23000 184.772
47.24000 184.327
47.25000 188.236
47.26000 191.066
47.27000 192.922
47.28000 193.799
47.29000 194.682
47.30000 196.084
47.31000 197.828
47.32000 199.526
47.33000 199.472
47.34000 198.684
47.35000 198.027
47.36000 198.994
47.37000 200.445
47.38000 201.429
47.39000 199.074
47.40000 196.062
47.41000 193.543
47.42000 192.637
47.43000 192.049
47.44000 191.140
47.45000 189.258
47.46000 187.309
47.47000 187.334
47.48000 191.401
47.49000 195.588
47.50000 198.016
47.51000 195.968
47.52000 194.515
47.53000 195.756
47.54000 199.379
47.55000 202.880
47.56000 199.252
47.57000 191.468
47.58000 183.949
47.59000 188.913
47.60000 198.226
47.61000 206.079
47.62000 198.777
47.63000 187.459
47.64000 177.608
47.65000 176.885
47.66000 177.739
47.67000 178.437
47.68000 186.433
47.69000 193.605
47.70000 197.592
47.71000 192.976
47.72000 187.880
47.73000 186.141
47.74000 190.536
47.75000 195.062
47.76000 197.545
47.77000 197.878
47.78000 198.100
47.79000 197.598
47.80000 196.530
47.81000 195.395
47.82000 191.546
47.83000 186.288
47.84000 181.258
47.85000 182.099
47.86000 184.804
47.87000 187.427
47.88000 189.313
47.89000 191.026
47.90000 192.532
47.91000 192.913
47.92000 193.123
47.93000 193.290
47.94000 188.618
47.95000 184.503
47.96000 181.400
47.97000 180.736
47.98000 180.180
47.99000 181.539
48.00000 186.018
48.01000 190.541
48.02000 192.876
48.03000 184.854
48.04000 179.476
48.05000 177.908
48.06000 178.970
48.07000 180.050
48.08000 181.656
48.09000 183.505
48.10000 185.254
48.11000 187.889
48.12000 190.568
48.13000 193.391
48.14000 197.315
48.15000 201.467
48.16000 204.034
48.17000 198.980
48.18000 192.926
48.19000 188.241
48.20000 184.967
48.21000 182.452
48.22000 181.399
48.23000 183.497
48.24000 185.702
48.25000 187.899
48.26000 190.083
48.27000 192.267
48.28000 195.040
48.29000 198.364
48.30000 201.620
48.31000 200.117
48.32000 195.692
48.33000 191.396
48.34000 190.021
48.35000 189.856
48.36000 189.701
48.37000 186.984
48.38000 183.868
48.39000 181.470
48.40000 183.826
48.41000 187.053
48.42000 190.672
48.43000 195.958
48.44000 201.433
48.45000 205.545
48.46000 192.392
48.47000 181.285
48.48000 174.542
48.49000 176.193
48.50000 178.053
48.51000 180.284
48.52000 182.990
48.53000 185.694
48.54000 188.016
48.55000 190.018
48.56000 191.982
48.57000 192.156
48.58000 191.351
48.59000 190.514
48.60000 189.091
48.61000 187.451
48.62000 185.939
48.63000 188.785
48.64000 192.303
48.65000 194.914
48.66000 192.286
48.67000 188.817
48.68000 185.771
48.69000 184.320
48.70000 183.022
48.71000 182.079
48.72000 180.282
48.73000 178.868
48.74000 179.541
48.75000 183.791
48.76000 188.103
48.77000 187.912
48.78000 182.629
48.79000 177.358
48.80000 173.111
48.81000 169.640
48.82000 166.288
48.83000 166.957
48.84000 169.587
48.85000 172.004
48.86000 171.319
48.87000 169.611
48.88000 168.059
48.89000 170.894
48.90000 174.252
48.91000 176.723
48.92000 174.693
48.93000 172.033
48.94000 171.148
48.95000 176.222
48.96000 181.778
48.97000 185.678
48.98000 189.580
48.99000 192.534
49.00000 193.727
49.01000 192.233
49.02000 190.711
49.03000 189.275
49.04000 187.926
49.05000 186.585
49.06000 183.181
49.07000 178.515
49.08000 174.205
49.09000 178.894
49.10000 187.503
49.11000 195.594
49.12000 197.408
49.13000 197.375
49.14000 197.345
49.15000 193.745
49.16000 190.004
49.17000 186.060
49.18000 181.203
49.19000 176.237
49.20000 173.382
49.21000 176.844
49.22000 180.729
49.23000 183.354
49.24000 179.249
49.25000 176.049
49.26000 174.615
49.27000 175.570
49.28000 176.541
49.29000 179.663
49.30000 184.660
49.31000 189.601
49.32000 187.778
49.33000 182.197
49.34000 176.982
49.35000 179.037
49.36000 183.921
49.37000 188.418
49.38000 188.983
49.39000 188.518
49.40000 188.110
49.41000 184.636
49.42000 181.201
49.43000 179.056
49.44000 182.034
49.45000 185.543
49.46000 187.463
49.47000 185.145
49.48000 182.595
49.49000 180.943
49.50000 179.452
49.51000 178.364
49.52000 177.949
49.53000 178.341
49.54000 178.730
49.55000 177.849
49.56000 175.990
49.57000 174.164
49.58000 176.173
49.59000 180.019
49.60000 183.663
49.61000 184.059
49.62000 183.326
49.63000 182.857
49.64000 184.671
49.65000 187.016
49.66000 189.035
49.67000 187.241
49.68000 185.241
49.69000 182.941
49.70000 179.581
49.71000 176.128
49.72000 174.156
49.73000 175.714
49.74000 177.424
49.75000 178.484
49.76000 179.544
49.77000 180.306
49.78000 180.470
49.79000 180.005
49.80000 179.539
49.81000 179.055
49.82000 178.559
49.83000 178.075
49.84000 177.839
49.85000 177.722
49.86000 177.548
49.87000 176.634
49.88000 175.490
49.89000 174.671
49.90000 176.285
49.91000 178.400
49.92000 180.181
49.93000 175.735
49.94000 171.352
49.95000 168.809
49.96000 172.057
49.97000 175.727
49.98000 177.721
49.99000 176.144
50.00000 174.450
50.01000 173.450
50.02000 171.576
50.03000 170.249
50.04000 171.580
50.05000 175.362
50.06000 179.124
50.07000 181.464
50.08000 182.941
50.09000 184.372
50.10000 178.907
50.11000 171.066
50.12000 164.233
50.13000 168.483
50.14000 175.790
50.15000 181.884
50.16000 180.067
50.17000 176.820
50.18000 174.147
50.19000 176.044
50.20000 178.021
50.21000 180.646
50.22000 185.088
50.23000 189.640
50.24000 190.881
50.25000 185.833
50.26000 180.635
50.27000 177.728
50.28000 181.830
50.29000 184.689
50.30000 187.927
50.31000 191.473
50.32000 194.944
50.33000 194.997
50.34000 193.205
50.35000 191.484
50.36000 194.891
50.37000 199.828
50.38000 204.064
50.39000 201.757
50.40000 197.848
50.41000 195.592
50.42000 202.761
50.43000 211.422
50.44000 218.376
50.45000 217.602
50.46000 216.384
50.47000 216.165
50.48000 218.450
50.49000 220.856
50.50000 222.235
50.51000 221.876
50.52000 221.489
50.53000 221.285
50.54000 233.107
50.55000 241.120
50.56000 246.477
50.57000 249.923
50.58000 253.406
50.59000 258.062
50.60000 263.284
50.61000 268.245
50.62000 269.738
50.63000 270.072
50.64000 270.315
50.65000 269.821
50.66000 269.167
50.67000 269.734
50.68000 276.420
50.69000 283.949
50.70000 289.832
50.71000 279.409
50.72000 270.059
50.73000 263.775
50.74000 264.355
50.75000 265.191
50.76000 267.752
50.77000 272.912
50.78000 278.097
50.79000 275.375
50.80000 264.917
50.81000 254.548
50.82000 251.684
50.83000 253.615
50.84000 255.229
50.85000 249.060
50.86000 239.543
50.87000 230.607
50.88000 226.814
50.89000 224.717
50.90000 222.896
50.91000 222.988
50.92000 223.445
50.93000 223.730
50.94000 223.256
50.95000 222.691
50.96000 222.262
50.97000 211.453
50.98000 202.425
50.99000 196.900
51.00000 198.377
51.01000 200.049
51.02000 200.948
51.03000 200.815
51.04000 200.676
51.05000 196.178
51.06000 187.947
51.07000 179.811
51.08000 176.728
51.09000 176.519
51.10000 176.270
51.11000 175.259
51.12000 173.955
51.13000 172.747
51.14000 178.541
51.15000 185.383
51.16000 190.785
51.17000 187.475
51.18000 182.703
51.19000 178.629
51.20000 177.299
51.21000 176.247
51.22000 175.474
51.23000 173.941
51.24000 172.723
51.25000 171.482
51.26000 170.199
51.27000 168.914
51.28000 167.914
51.29000 167.248
51.30000 166.586
51.31000 164.606
51.32000 161.645
51.33000 158.824
51.34000 161.254
51.35000 166.346
51.36000 170.873
51.37000 166.585
51.38000 159.273
51.39000 152.596
51.40000 153.738
51.41000 156.343
51.42000 158.960
51.43000 161.646
51.44000 164.341
51.45000 165.276
51.46000 160.066
51.47000 154.328
51.48000 150.252
51.49000 154.693
51.50000 158.346
51.51000 162.465
51.52000 167.326
51.53000 172.196
51.54000 173.852
51.55000 172.172
51.56000 170.502
51.57000 170.248
51.58000 170.938
51.59000 171.540
51.60000 169.692
51.61000 166.734
51.62000 163.895
51.63000 162.585
51.64000 161.741
51.65000 160.984
51.66000 160.795
51.67000 160.732
51.68000 160.542
51.69000 159.766
51.70000 158.915
51.71000 159.027
51.72000 162.137
51.73000 165.462
51.74000 167.738
51.75000 163.612
51.76000 160.370
51.77000 159.149
51.78000 160.777
51.79000 162.425
51.80000 163.832
51.81000 165.020
51.82000 166.196
51.83000 162.920
51.84000 157.099
51.85000 151.603
51.86000 153.051
51.87000 157.306
51.88000 161.296
51.89000 162.421
51.90000 162.766
51.91000 163.071
51.92000 167.091
51.93000 171.133
51.94000 174.110
51.95000 172.679
51.96000 170.767
51.97000 168.813
51.98000 166.741
51.99000 164.663
52.00000 163.297
52.01000 165.837
52.02000 167.773
52.03000 169.409
52.04000 170.670
52.05000 171.929
52.06000 172.929
52.07000 173.721
52.08000 174.501
52.09000 172.402
52.10000 168.876
52.11000 165.298
52.12000 160.828
52.13000 156.037
52.14000 152.194
52.15000 157.052
52.16000 164.013
52.17000 170.046
52.18000 162.666
52.19000 154.605
52.20000 149.638
52.21000 156.048
52.22000 163.513
52.23000 167.592
52.24000 163.280
52.25000 158.576
52.26000 155.616
52.27000 151.511
52.28000 148.529
52.29000 150.444
52.30000 157.748
52.31000 165.005
52.32000 165.023
52.33000 159.901
52.34000 154.888
52.35000 155.847
52.36000 159.499
52.37000 162.909
52.38000 162.920
52.39000 161.836
52.40000 160.734
52.41000 159.488
52.42000 158.210
52.43000 157.126
52.44000 160.243
52.45000 163.334
52.46000 165.304
52.47000 163.601
52.48000 161.611
52.49000 161.416
52.50000 165.189
52.51000 169.106
52.52000 171.456
52.53000 169.053
52.54000 167.313
52.55000 167.320
52.56000 169.012
52.57000 170.640
52.58000 167.303
52.59000 160.834
52.60000 154.550
52.61000 152.474
52.62000 152.201
52.63000 152.124
52.64000 154.317
52.65000 157.161
52.66000 160.201
52.67000 164.576
52.68000 169.202
52.69000 173.041
52.70000 171.217
52.71000 169.161
52.72000 167.159
52.73000 165.309
52.74000 163.470
52.75000 162.830
52.76000 164.559
52.77000 166.351
52.78000 167.372
52.79000 163.976
52.80000 161.593
52.81000 158.494
52.82000 154.788
52.83000 151.163
52.84000 151.679
52.85000 154.522
52.86000 157.259
52.87000 160.749
52.88000 164.293
52.89000 167.222
52.90000 164.084
52.91000 159.398
52.92000 156.328
52.93000 162.883
52.94000 171.032
52.95000 177.633
52.96000 171.804
52.97000 166.047
52.98000 161.587
52.99000 160.506
53.00000 159.601
53.01000 160.106
53.02000 163.091
53.03000 166.123
53.04000 167.755
53.05000 166.811
53.06000 166.153
53.07000 163.660
53.08000 159.790
53.09000 155.899
53.10000 151.239
53.11000 146.195
53.12000 141.386
53.13000 147.482
53.14000 156.563
53.15000 164.586
53.16000 163.699
53.17000 160.798
53.18000 159.187
53.19000 164.330
53.20000 170.449
53.21000 175.276
53.22000 170.726
53.23000 166.443
53.24000 162.874
53.25000 160.967
53.26000 159.128
53.27000 157.806
53.28000 157.295
53.29000 156.793
53.30000 156.540
53.31000 157.890
53.32000 158.802
53.33000 160.567
53.34000 162.899
53.35000 165.086
53.36000 163.377
53.37000 159.927
53.38000 156.674
53.39000 157.312
53.40000 158.972
53.41000 160.334
53.42000 159.531
53.43000 158.296
53.44000 157.605
53.45000 159.421
53.46000 161.552
53.47000 163.185
53.48000 165.541
53.49000 167.442
53.50000 167.509
53.51000 163.766
53.52000 159.906
53.53000 156.361
53.54000 153.255
53.55000 150.154
53.56000 149.351
53.57000 150.610
53.58000 151.894
53.59000 154.627
53.60000 158.218
53.61000 161.683
53.62000 162.516
53.63000 162.298
53.64000 162.095
53.65000 160.783
53.66000 159.327
53.67000 157.382
53.68000 152.346
53.69000 146.766
53.70000 143.338
53.71000 148.705
53.72000 155.016
53.73000 159.708
53.74000 162.239
53.75000 164.111
53.76000 163.926
53.77000 159.928
53.78000 155.844
53.79000 155.436
53.80000 159.554
53.81000 163.675
53.82000 165.479
53.83000 165.449
53.84000 165.458
53.85000 167.135
53.86000 169.691
53.87000 172.049
53.88000 171.080
53.89000 168.927
53.90000 166.950
53.91000 164.659
53.92000 162.549
53.93000 160.752
53.94000 160.687
53.95000 160.888
53.96000 160.244
53.97000 156.532
53.98000 152.540
53.99000 149.671
54.00000 147.993
54.01000 146.750
54.02000 148.464
54.03000 155.060
54.04000 161.729
54.05000 164.697
54.06000 163.651
54.07000 162.608
54.08000 161.772
54.09000 161.088
54.10000 160.355
54.11000 158.147
54.12000 155.243
54.13000 152.624
54.14000 153.902
54.15000 156.419
54.16000 158.693
54.17000 156.693
54.18000 154.140
54.19000 152.568
54.20000 155.788
54.21000 159.647
54.22000 162.051
54.23000 159.751
54.24000 157.092
54.25000 155.248
54.26000 153.936
54.27000 152.962
54.28000 153.380
54.29000 155.842
54.30000 158.322
54.31000 158.218
54.32000 155.657
54.33000 153.116
54.34000 157.040
54.35000 164.848
54.36000 172.238
54.37000 169.900
54.38000 163.475
54.39000 157.397
54.40000 155.285
54.41000 154.295
54.42000 153.415
54.43000 157.029
54.44000 160.889
54.45000 163.086
54.46000 158.113
54.47000 152.314
54.48000 150.251
54.49000 158.955
54.50000 168.335
54.51000 174.589
54.52000 163.020
54.53000 154.110
54.54000 150.212
54.55000 152.834
54.56000 155.479
54.57000 155.310
54.58000 152.786
54.59000 150.295
54.60000 151.806
54.61000 155.439
54.62000 158.869
54.63000 158.580
54.64000 156.896
54.65000 155.545
54.66000 157.411
54.67000 160.088
54.68000 162.423
54.69000 156.758
54.70000 150.797
54.71000 147.187
54.72000 152.580
54.73000 158.856
54.74000 162.913
54.75000 161.259
54.76000 159.317
54.77000 158.075
54.78000 154.824
54.79000 152.431
54.80000 151.808
54.81000 153.217
54.82000 154.619
54.83000 154.378
54.84000 152.920
54.85000 151.490
54.86000 153.416
54.87000 156.871
54.88000 160.154
54.89000 160.863
54.90000 160.709
54.91000 160.487
54.92000 159.696
54.93000 158.779
54.94000 157.994
54.95000 155.852
54.96000 153.884
54.97000 153.776
54.98000 159.997
54.99000 166.741
55.00000 171.052
55.01000 169.768
55.02000 168.262
55.03000 167.343
55.04000 162.230
55.05000 158.541
55.06000 156.705
55.07000 156.738
55.08000 156.784
55.09000 157.940
55.10000 159.825
55.11000 161.661
55.12000 158.323
55.13000 152.962
55.14000 148.390
55.15000 153.590
55.16000 161.705
55.17000 169.033
55.18000 170.717
55.19000 171.289
55.20000 171.768
55.21000 170.463
55.22000 169.196
55.23000 167.584
55.24000 164.922
55.25000 162.188
55.26000 162.214
55.27000 167.906
55.28000 173.767
55.29000 177.168
55.30000 179.203
55.31000 180.624
55.32000 180.316
55.33000 178.477
55.34000 176.616
55.35000 173.512
55.36000 169.682
55.37000 165.982
55.38000 166.468
55.39000 168.482
55.40000 170.569
55.41000 173.414
55.42000 176.459
55.43000 179.216
55.44000 180.181
55.45000 180.836
55.46000 181.370
55.47000 183.508
55.48000 185.395
55.49000 187.268
55.50000 189.103
55.51000 190.935
55.52000 194.534
55.53000 201.368
55.54000 208.270
55.55000 212.060
55.56000 220.885
55.57000 226.959
55.58000 231.045
55.59000 233.578
55.60000 236.150
55.61000 240.300
55.62000 245.271
55.63000 250.028
55.64000 258.737
55.65000 268.145
55.66000 277.840
55.67000 290.084
55.68000 302.929
55.69000 317.286
55.70000 339.910
55.71000 363.786
55.72000 382.795
55.73000 389.016
55.74000 393.109
55.75000 403.284
55.76000 428.158
55.77000 453.684
55.78000 475.420
55.79000 490.976
55.80000 506.443
55.81000 514.439
55.82000 537.786
55.83000 553.577
55.84000 575.489
55.85000 601.635
55.86000 627.261
55.87000 637.504
55.88000 640.601
55.89000 643.531
55.90000 646.395
55.91000 649.011
55.92000 651.581
55.93000 653.803
55.94000 655.953
55.95000 656.842
55.96000 651.663
55.97000 645.686
55.98000 641.057
55.99000 637.076
56.00000 633.952
56.01000 627.514
56.02000 613.919
56.03000 600.080
56.04000 582.622
56.05000 559.916
56.06000 537.170
56.07000 520.424
56.08000 509.308
56.09000 498.152
56.10000 484.144
56.11000 468.380
56.12000 452.276
56.13000 428.421
56.14000 401.351
56.15000 376.041
56.16000 361.202
56.17000 350.389
56.18000 339.802
56.19000 330.709
56.20000 321.891
56.21000 312.054
56.22000 297.879
56.23000 283.214
56.24000 272.195
56.25000 269.212
56.26000 267.267
56.27000 261.344
56.28000 247.756
56.29000 233.977
56.30000 224.168
56.31000 219.457
56.32000 214.770
56.33000 207.538
56.34000 198.234
56.35000 189.065
56.36000 186.275
56.37000 186.980
56.38000 187.430
56.39000 183.287
56.40000 177.442
56.41000 172.051
56.42000 173.911
56.43000 177.192
56.44000 179.706
56.45000 177.769
56.46000 175.116
56.47000 172.400
56.48000 169.443
56.49000 166.464
56.50000 164.296
56.51000 159.517
56.52000 155.740
56.53000 155.251
56.54000 160.411
56.55000 165.667
56.56000 169.545
56.57000 171.862
56.58000 174.169
56.59000 172.879
56.60000 168.996
56.61000 165.254
56.62000 166.284
56.63000 169.646
56.64000 172.672
56.65000 170.776
56.66000 167.252
56.67000 164.051
56.68000 162.086
56.69000 160.589
56.70000 159.101
56.71000 157.652
56.72000 156.208
56.73000 155.794
56.74000 158.846
56.75000 162.178
56.76000 164.518
56.77000 156.055
56.78000 149.332
56.79000 147.125
56.80000 151.818
56.81000 156.584
56.82000 156.433
56.83000 151.390
56.84000 146.381
56.85000 146.927
56.86000 151.010
56.87000 154.943
56.88000 155.107
56.89000 153.626
56.90000 152.127
56.91000 150.424
56.92000 148.661
56.93000 147.084
56.94000 148.338
56.95000 149.910
56.96000 150.324
56.97000 145.532
56.98000 140.110
56.99000 136.634
57.00000 138.993
57.01000 141.743
57.02000 143.602
57.03000 142.143
57.04000 140.985
57.05000 142.525
57.06000 147.723
57.07000 152.937
57.08000 155.129
57.09000 154.680
57.10000 154.237
57.11000 151.891
57.12000 148.529
57.13000 145.319
57.14000 145.143
57.15000 146.148
57.16000 147.013
57.17000 146.430
57.18000 145.469
57.19000 144.625
57.20000 143.581
57.21000 142.654
57.22000 143.191
57.23000 149.561
57.24000 156.535
57.25000 160.752
57.26000 157.591
57.27000 154.028
57.28000 151.718
57.29000 146.865
57.30000 143.274
57.31000 142.385
57.32000 144.734
57.33000 147.080
57.34000 146.940
57.35000 144.886
57.36000 142.866
57.37000 142.800
57.38000 143.709
57.39000 144.488
57.40000 143.196
57.41000 141.183
57.42000 139.388
57.43000 139.503
57.44000 140.062
57.45000 140.544
57.46000 141.578
57.47000 142.524
57.48000 144.134
57.49000 148.099
57.50000 152.270
57.51000 153.276
57.52000 146.723
57.53000 139.844
57.54000 135.579
57.55000 143.157
57.56000 148.722
57.57000 151.906
57.58000 152.578
57.59000 153.241
57.60000 152.855
57.61000 151.753
57.62000 150.677
57.63000 148.686
57.64000 146.378
57.65000 143.994
57.66000 140.596
57.67000 136.884
57.68000 134.025
57.69000 137.583
57.70000 142.461
57.71000 146.572
57.72000 147.308
57.73000 147.557
57.74000 147.832
57.75000 148.186
57.76000 148.546
57.77000 148.134
57.78000 146.074
57.79000 143.959
57.80000 142.711
57.81000 138.584
57.82000 135.655
57.83000 135.717
57.84000 138.544
57.85000 141.325
57.86000 140.936
57.87000 138.622
57.88000 136.379
57.89000 138.573
57.90000 142.369
57.91000 145.796
57.92000 145.140
57.93000 143.357
57.94000 141.943
57.95000 142.940
57.96000 144.374
57.97000 145.554
57.98000 149.390
57.99000 152.789
58.00000 154.072
58.01000 149.404
58.02000 144.379
58.03000 140.545
58.04000 138.976
58.05000 137.462
58.06000 136.615
58.07000 136.525
58.08000 136.464
58.09000 136.126
58.10000 135.562
58.11000 135.068
58.12000 137.749
58.13000 142.147
58.14000 146.370
58.15000 146.541
58.16000 145.315
58.17000 143.918
58.18000 140.914
58.19000 137.517
58.20000 135.008
58.21000 137.574
58.22000 140.946
58.23000 143.654
58.24000 141.715
58.25000 139.786
58.26000 138.658
58.27000 139.537
58.28000 140.513
58.29000 140.272
58.30000 137.965
58.31000 135.624
58.32000 134.389
58.33000 139.755
58.34000 143.385
58.35000 144.401
58.36000 143.532
58.37000 142.729
58.38000 144.048
58.39000 146.393
58.40000 148.620
58.41000 144.082
58.42000 137.849
58.43000 132.257
58.44000 131.801
58.45000 132.463
58.46000 133.579
58.47000 136.982
58.48000 140.700
58.49000 143.607
58.50000 137.562
58.51000 132.167
58.52000 129.947
58.53000 134.844
58.54000 140.009
58.55000 142.165
58.56000 139.783
58.57000 137.355
58.58000 136.055
58.59000 135.860
58.60000 135.656
58.61000 134.755
58.62000 133.407
58.63000 132.266
58.64000 136.238
58.65000 142.415
58.66000 148.215
58.67000 146.420
58.68000 142.768
58.69000 139.572
58.70000 139.545
58.71000 140.126
58.72000 140.674
58.73000 141.080
58.74000 141.469
58.75000 141.764
58.76000 135.928
58.77000 131.024
58.78000 126.796
58.79000 123.924
58.80000 121.090
58.81000 122.408
58.82000 129.283
58.83000 136.180
58.84000 139.588
58.85000 139.987
58.86000 140.369
58.87000 139.755
58.88000 138.576
58.89000 137.483
58.90000 138.068
58.91000 139.299
58.92000 140.441
58.93000 141.982
58.94000 143.461
58.95000 144.173
58.96000 140.228
58.97000 135.500
58.98000 131.091
58.99000 127.938
59.00000 124.913
59.01000 122.688
59.02000 129.720
59.03000 135.541
59.04000 139.327
59.05000 139.479
59.06000 139.558
59.07000 137.857
59.08000 134.051
59.09000 130.250
59.10000 132.132
59.11000 138.295
59.12000 144.340
59.13000 145.899
59.14000 145.180
59.15000 144.358
59.16000 141.913
59.17000 138.912
59.18000 136.170
59.19000 136.099
59.20000 136.580
59.21000 136.828
59.22000 135.836
59.23000 134.662
59.24000 133.718
59.25000 133.575
59.26000 133.501
59.27000 133.449
59.28000 133.786
59.29000 134.054
59.30000 134.244
59.31000 134.306
59.32000 134.367
59.33000 135.414
59.34000 137.485
59.35000 139.544
59.36000 138.701
59.37000 135.937
59.38000 133.273
59.39000 133.445
59.40000 134.902
59.41000 136.170
59.42000 135.005
59.43000 133.095
59.44000 131.378
59.45000 130.365
59.46000 129.603
59.47000 128.740
59.48000 127.409
59.49000 126.018
59.50000 126.787
59.51000 134.283
59.52000 142.262
59.53000 147.727
59.54000 139.817
59.55000 133.573
59.56000 130.476
59.57000 131.827
59.58000 133.209
59.59000 135.731
59.60000 139.292
59.61000 142.818
59.62000 143.404
59.63000 142.250
59.64000 141.032
59.65000 138.412
59.66000 135.225
59.67000 132.372
59.68000 133.142
59.69000 134.899
59.70000 136.452
59.71000 138.748
59.72000 140.845
59.73000 142.178
59.74000 140.336
59.75000 138.148
59.76000 136.820
59.77000 137.886
59.78000 139.092
59.79000 139.885
59.80000 134.107
59.81000 129.740
59.82000 128.846
59.83000 132.296
59.84000 135.750
59.85000 136.273
59.86000 134.440
59.87000 132.634
59.88000 130.209
59.89000 127.536
59.90000 125.092
59.91000 126.599
59.92000 129.535
59.93000 132.246
59.94000 132.895
59.95000 133.044
59.96000 133.174
59.97000 136.383
59.98000 139.524
59.99000 141.476
60.00000 139.052
60.01000 136.221
60.02000 133.768
60.03000 132.253
60.04000 130.782
60.05000 129.855
60.06000 129.992
60.07000 130.103
60.08000 130.338
60.09000 130.710
60.10000 131.083
60.11000 131.656
60.12000 132.372
60.13000 133.074
60.14000 134.673
60.15000 136.621
60.16000 138.385
60.17000 137.557
60.18000 135.893
60.19000 134.629
60.20000 136.522
60.21000 139.092
60.22000 141.274
60.23000 137.097
60.24000 132.867
60.25000 129.626
60.26000 129.625
60.27000 129.877
60.28000 130.314
60.29000 131.162
60.30000 132.025
60.31000 132.543
60.32000 129.024
60.33000 126.495
60.34000 126.010
60.35000 127.502
60.36000 128.988
60.37000 130.019
60.38000 130.763
60.39000 131.486
60.40000 134.392
60.41000 138.035
60.42000 141.259
60.43000 139.581
60.44000 136.495
60.45000 133.636
60.46000 132.332
60.47000 131.321
60.48000 130.482
60.49000 125.201
60.50000 120.405
60.51000 118.123
60.52000 123.188
60.53000 128.727
60.54000 131.542
60.55000 128.970
60.56000 126.252
60.57000 124.702
60.58000 124.012
60.59000 123.536
60.60000 124.853
60.61000 127.693
60.62000 130.486
60.63000 130.869
60.64000 129.897
60.65000 128.961
60.66000 129.309
60.67000 130.093
60.68000 131.241
60.69000 135.976
60.70000 141.628
60.71000 146.158
60.72000 143.989
60.73000 140.709
60.74000 138.051
60.75000 135.294
60.76000 133.040
60.77000 131.063
60.78000 129.807
60.79000 128.589
60.80000 127.975
60.81000 128.428
60.82000 128.901
60.83000 129.155
60.84000 130.763
60.85000 131.862
60.86000 132.865
60.87000 133.796
60.88000 134.760
60.89000 136.949
60.90000 139.752
60.91000 142.425
60.92000 140.476
60.93000 137.213
60.94000 134.291
60.95000 134.247
60.96000 134.856
60.97000 135.467
60.98000 136.089
60.99000 136.714
61.00000 137.207
61.01000 140.364
61.02000 143.078
61.03000 143.633
61.04000 139.156
61.05000 134.474
61.06000 131.670
61.07000 131.815
61.08000 131.996
61.09000 132.088
61.10000 137.663
61.11000 141.352
61.12000 140.660
61.13000 137.051
61.14000 133.570
61.15000 133.572
61.16000 135.133
61.17000 136.604
61.18000 135.445
61.19000 133.653
61.20000 131.889
61.21000 130.321
61.22000 128.792
61.23000 128.481
61.24000 133.804
61.25000 139.833
61.26000 144.458
61.27000 142.096
61.28000 139.842
61.29000 137.718
61.30000 135.865
61.31000 134.020
61.32000 132.729
61.33000 132.209
61.34000 131.694
61.35000 132.987
61.36000 135.902
61.37000 138.808
61.38000 141.099
61.39000 143.025
61.40000 144.905
61.41000 145.790
61.42000 146.278
61.43000 146.732
61.44000 146.219
61.45000 145.519
61.46000 145.745
61.47000 151.837
61.48000 158.963
61.49000 164.920
61.50000 166.095
61.51000 166.755
61.52000 167.247
61.53000 177.055
61.54000 185.100
61.55000 195.131
61.56000 208.848
61.57000 222.647
61.58000 234.865
61.59000 245.130
61.60000 255.371
61.61000 265.037
61.62000 274.205
61.63000 283.342
61.64000 291.174
61.65000 298.318
61.66000 305.279
61.67000 309.174
61.68000 311.974
61.69000 314.545
61.70000 314.325
61.71000 313.533
61.72000 312.582
61.73000 310.750
61.74000 308.782
61.75000 305.754
61.76000 298.869
61.77000 291.632
61.78000 286.427
61.79000 259.388
61.80000 237.926
61.81000 218.595
61.82000 202.788
61.83000 187.034
61.84000 178.507
61.85000 177.836
61.86000 177.171
61.87000 172.010
61.88000 163.779
61.89000 155.763
61.90000 154.316
61.91000 155.963
61.92000 157.152
61.93000 152.032
61.94000 144.902
61.95000 138.456
61.96000 141.484
61.97000 145.912
61.98000 149.010
61.99000 145.608
62.00000 141.337
62.01000 139.314
62.02000 144.567
62.03000 150.377
62.04000 154.408
62.05000 154.834
62.06000 155.059
62.07000 152.936
62.08000 147.362
62.09000 141.757
62.10000 138.966
62.11000 138.857
62.12000 138.749
62.13000 138.451
62.14000 138.042
62.15000 137.669
62.16000 138.162
62.17000 139.018
62.18000 139.713
62.19000 138.555
62.20000 136.871
62.21000 135.374
62.22000 136.685
62.23000 138.277
62.24000 139.245
62.25000 137.520
62.26000 135.484
62.27000 135.198
62.28000 139.967
62.29000 145.054
62.30000 148.448
62.31000 142.552
62.32000 138.006
62.33000 136.068
62.34000 137.531
62.35000 139.008
62.36000 139.802
62.37000 140.024
62.38000 140.244
62.39000 140.855
62.40000 141.662
62.41000 142.456
62.42000 143.015
62.43000 143.486
62.44000 143.761
62.45000 142.145
62.46000 140.051
62.47000 138.224
62.48000 142.221
62.49000 146.455
62.50000 149.279
62.51000 146.704
62.52000 143.597
62.53000 141.677
62.54000 142.821
62.55000 144.119
62.56000 144.950
62.57000 142.608
62.58000 140.862
62.59000 141.456
62.60000 144.745
62.61000 148.018
62.62000 147.838
62.63000 145.100
62.64000 142.412
62.65000 140.869
62.66000 139.927
62.67000 139.252
62.68000 142.572
62.69000 147.230
62.70000 151.180
62.71000 149.241
62.72000 145.985
62.73000 143.200
62.74000 143.014
62.75000 143.169
62.76000 141.917
62.77000 135.864
62.78000 129.412
62.79000 127.557
62.80000 136.283
62.81000 145.430
62.82000 151.015
62.83000 143.899
62.84000 138.705
62.85000 137.965
62.86000 141.728
62.87000 145.460
62.88000 146.306
62.89000 145.254
62.90000 144.229
62.91000 146.785
62.92000 150.734
62.93000 154.163
62.94000 151.140
62.95000 146.188
62.96000 142.140
62.97000 144.582
62.98000 148.305
62.99000 151.420
63.00000 150.879
63.01000 150.055
63.02000 148.830
63.03000 146.387
63.04000 143.861
63.05000 141.947
63.06000 141.291
63.07000 140.673
63.08000 140.315
63.09000 147.993
63.10000 153.413
63.11000 154.552
63.12000 151.891
63.13000 149.259
63.14000 148.303
63.15000 148.328
63.16000 148.351
63.17000 152.708
63.18000 158.431
63.19000 163.452
63.20000 161.142
63.21000 156.884
63.22000 153.176
63.23000 152.915
63.24000 153.252
63.25000 153.528
63.26000 153.650
63.27000 153.736
63.28000 153.798
63.29000 153.796
63.30000 153.789
63.31000 152.633
63.32000 149.367
63.33000 146.056
63.34000 144.236
63.35000 144.881
63.36000 145.323
63.37000 143.953
63.38000 141.164
63.39000 138.393
63.40000 136.335
63.41000 134.649
63.42000 133.035
63.43000 136.386
63.44000 141.139
63.45000 145.489
63.46000 146.251
63.47000 146.165
63.48000 146.355
63.49000 148.046
63.50000 149.966
63.51000 151.495
63.52000 155.783
63.53000 159.441
63.54000 161.799
63.55000 161.008
63.56000 160.077
63.57000 157.605
63.58000 152.617
63.59000 147.593
63.60000 144.993
63.61000 150.427
63.62000 154.059
63.63000 153.477
63.64000 149.973
63.65000 146.605
63.66000 147.290
63.67000 149.860
63.68000 152.293
63.69000 154.507
63.70000 156.480
63.71000 158.303
63.72000 158.979
63.73000 159.415
63.74000 160.042
63.75000 161.593
63.76000 163.266
63.77000 164.562
63.78000 156.904
63.79000 150.290
63.80000 147.361
63.81000 152.404
63.82000 157.719
63.83000 162.005
63.84000 164.795
63.85000 167.572
63.86000 167.651
63.87000 165.197
63.88000 162.734
63.89000 159.600
63.90000 156.053
63.91000 152.546
63.92000 149.933
63.93000 147.692
63.94000 145.596
63.95000 146.152
63.96000 147.331
63.97000 148.642
63.98000 150.822
63.99000 153.162
64.00000 155.879
64.01000 160.206
64.02000 164.716
64.03000 168.105
64.04000 166.744
64.05000 165.450
64.06000 164.713
64.07000 165.050
64.08000 165.414
64.09000 167.154
64.10000 170.664
64.11000 174.178
64.12000 172.291
64.13000 165.958
64.14000 159.764
64.15000 160.098
64.16000 164.016
64.17000 167.724
64.18000 167.656
64.19000 166.187
64.20000 164.831
64.21000 162.861
64.22000 160.958
64.23000 159.448
64.24000 160.215
64.25000 161.349
64.26000 162.077
64.27000 161.263
64.28000 160.301
64.29000 159.600
64.30000 162.887
64.31000 165.568
64.32000 166.145
64.33000 163.099
64.34000 159.990
64.35000 159.875
64.36000 163.157
64.37000 166.432
64.38000 167.024
64.39000 165.667
64.40000 164.409
64.41000 166.518
64.42000 170.274
64.43000 173.685
64.44000 172.031
64.45000 168.698
64.46000 165.670
64.47000 168.109
64.48000 171.332
64.49000 173.828
64.50000 172.623
64.51000 170.898
64.52000 169.947
64.53000 171.603
64.54000 173.471
64.55000 174.784
64.56000 172.217
64.57000 170.160
64.58000 170.083
64.59000 173.036
64.60000 176.022
64.61000 176.681
64.62000 175.020
64.63000 173.371
64.64000 172.253
64.65000 171.493
64.66000 170.724
64.67000 169.742
64.68000 168.666
64.69000 167.712
64.70000 168.228
64.71000 169.178
64.72000 170.027
64.73000 168.397
64.74000 166.556
64.75000 166.133
64.76000 172.103
64.77000 178.848
64.78000 183.865
64.79000 183.697
64.80000 183.179
64.81000 182.828
64.82000 181.270
64.83000 180.083
64.84000 178.085
64.85000 174.984
64.86000 171.881
64.87000 172.165
64.88000 175.414
64.89000 178.626
64.90000 181.919
64.91000 185.181
64.92000 188.525
64.93000 193.519
64.94000 199.157
64.95000 204.372
64.96000 205.253
64.97000 204.996
64.98000 204.770
64.99000 204.289
65.00000 203.838
65.01000 203.242
65.02000 202.066
65.03000 200.829
65.04000 200.721
65.05000 203.633
65.06000 206.710
65.07000 208.707
65.08000 209.795
65.09000 210.578
65.10000 212.584
65.11000 216.057
65.12000 219.529
65.13000 221.638
65.14000 222.694
65.15000 223.733
65.16000 227.388
65.17000 232.226
65.18000 236.705
65.19000 235.402
65.20000 232.084
65.21000 229.666
65.22000 235.105
65.23000 242.376
65.24000 248.637
65.25000 257.640
65.26000 265.615
65.27000 272.485
65.28000 275.434
65.29000 278.039
65.30000 281.729
65.31000 288.015
65.32000 294.415
65.33000 298.385
65.34000 308.702
65.35000 316.187
65.36000 320.689
65.37000 322.037
65.38000 323.419
65.39000 328.890
65.40000 337.159
65.41000 345.236
65.42000 358.807
65.43000 374.216
65.44000 389.132
65.45000 397.541
65.46000 403.927
65.47000 410.312
65.48000 416.683
65.49000 423.051
65.50000 428.420
65.51000 433.501
65.52000 437.713
65.53000 439.759
65.54000 434.962
65.55000 429.663
65.56000 429.014
65.57000 438.300
65.58000 447.915
65.59000 453.597
65.60000 472.232
65.61000 485.466
65.62000 493.794
65.63000 497.575
65.64000 501.387
65.65000 507.331
65.66000 514.570
65.67000 521.586
65.68000 546.315
65.69000 576.606
65.70000 607.351
65.71000 643.110
65.72000 680.256
65.73000 721.927
65.74000 793.214
65.75000 869.872
65.76000 933.032
65.77000 995.050
65.78000 1045.975
65.79000 1095.217
65.80000 1139.720
65.81000 1183.938
65.82000 1218.448
65.83000 1234.454
65.84000 1250.010
65.85000 1258.726
65.86000 1267.203
65.87000 1273.059
65.88000 1271.166
65.89000 1262.951
65.90000 1254.524
65.91000 1236.437
65.92000 1213.115
65.93000 1190.722
65.94000 1138.938
65.95000 1080.421
65.96000 1020.216
65.97000 944.183
65.98000 864.259
65.99000 786.417
66.00000 720.487
66.01000 656.448
66.02000 604.986
66.03000 531.018
66.04000 469.329
66.05000 418.446
66.06000 394.746
66.07000 372.359
66.08000 355.607
66.09000 348.429
66.10000 341.409
66.11000 337.700
66.12000 336.964
66.13000 336.449
66.14000 333.151
66.15000 327.845
66.16000 322.587
66.17000 318.908
66.18000 315.993
66.19000 313.223
66.20000 315.049
66.21000 318.126
66.22000 321.351
66.23000 325.763
66.24000 330.434
66.25000 335.864
66.26000 345.115
66.27000 354.894
66.28000 362.543
66.29000 370.753
66.30000 377.342
66.31000 385.691
66.32000 397.993
66.33000 410.442
66.34000 422.248
66.35000 433.081
66.36000 443.903
66.37000 452.724
66.38000 459.578
66.39000 466.443
66.40000 474.273
66.41000 482.721
66.42000 490.774
66.43000 489.019
66.44000 483.030
66.45000 477.405
66.46000 475.302
66.47000 474.321
66.48000 473.342
66.49000 472.388
66.50000 471.438
66.51000 468.334
66.52000 455.654
66.53000 441.830
66.54000 431.330
66.55000 403.568
66.56000 380.849
66.57000 362.420
66.58000 352.593
66.59000 343.008
66.60000 334.243
66.61000 326.578
66.62000 318.923
66.63000 314.898
66.64000 314.007
66.65000 313.213
66.66000 317.714
66.67000 325.235
66.68000 332.346
66.69000 331.476
66.70000 327.528
66.71000 323.868
66.72000 327.600
66.73000 332.683
66.74000 335.952
66.75000 328.201
66.76000 318.591
66.77000 312.919
66.78000 322.766
66.79000 334.198
66.80000 342.611
66.81000 348.887
66.82000 353.655
66.83000 358.697
66.84000 364.230
66.85000 369.773
66.86000 366.235
66.87000 351.938
66.88000 337.657
66.89000 333.138
66.90000 336.039
66.91000 338.874
66.92000 339.217
66.93000 338.292
66.94000 337.464
66.95000 338.164
66.96000 339.391
66.97000 340.512
66.98000 347.723
66.99000 355.370
67.00000 361.708
67.01000 361.071
67.02000 359.408
67.03000 358.336
67.04000 359.339
67.05000 360.521
67.06000 361.361
67.07000 363.410
67.08000 365.008
67.09000 368.742
67.10000 375.875
67.11000 383.053
67.12000 384.781
67.13000 380.830
67.14000 376.900
67.15000 381.534
67.16000 391.822
67.17000 401.712
67.18000 400.463
67.19000 394.156
67.20000 388.486
67.21000 391.080
67.22000 396.209
67.23000 400.822
67.24000 403.094
67.25000 404.669
67.26000 405.167
67.27000 400.612
67.28000 395.412
67.29000 392.532
67.30000 396.892
67.31000 401.773
67.32000 405.118
67.33000 416.729
67.34000 425.626
67.35000 429.696
67.36000 426.936
67.37000 424.126
67.38000 421.287
67.39000 418.422
67.40000 415.583
67.41000 421.434
67.42000 432.279
67.43000 442.676
67.44000 443.413
67.45000 440.233
67.46000 437.511
67.47000 439.762
67.48000 443.371
67.49000 446.561
67.50000 450.177
67.51000 453.366
67.52000 456.518
67.53000 459.515
67.54000 462.495
67.55000 463.049
67.56000 456.849
67.57000 450.253
67.58000 445.910
67.59000 451.784
67.60000 456.286
67.61000 459.686
67.62000 461.705
67.63000 463.729
67.64000 468.961
67.65000 476.777
67.66000 484.479
67.67000 486.080
67.68000 484.464
67.69000 483.019
67.70000 484.515
67.71000 487.075
67.72000 489.903
67.73000 495.192
67.74000 501.079
67.75000 506.183
67.76000 499.749
67.77000 492.732
67.78000 488.661
67.79000 495.461
67.80000 503.275
67.81000 509.064
67.82000 509.823
67.83000 510.345
67.84000 510.674
67.85000 508.584
67.86000 507.044
67.87000 506.840
67.88000 508.112
67.89000 509.449
67.90000 520.224
67.91000 537.725
67.92000 554.861
67.93000 554.860
67.94000 546.996
67.95000 540.560
67.96000 554.225
67.97000 574.385
67.98000 591.871
67.99000 588.187
68.00000 579.955
68.01000 572.963
68.02000 568.084
68.03000 564.231
68.04000 560.556
68.05000 557.470
68.06000 554.430
68.07000 557.995
68.08000 576.217
68.09000 594.974
68.10000 606.248
68.11000 613.870
68.12000 619.264
68.13000 629.185
68.14000 643.490
68.15000 657.604
68.16000 656.394
68.17000 645.484
68.18000 634.883
68.19000 635.833
68.20000 641.419
68.21000 646.150
68.22000 640.865
68.23000 632.696
68.24000 626.580
68.25000 634.538
68.26000 645.162
68.27000 653.987
68.28000 664.432
68.29000 673.228
68.30000 678.575
68.31000 673.825
68.32000 668.422
68.33000 672.108
68.34000 693.800
68.35000 715.980
68.36000 728.639
68.37000 737.055
68.38000 742.909
68.39000 747.353
68.40000 750.597
68.41000 753.837
68.42000 756.855
68.43000 759.748
68.44000 762.535
68.45000 769.971
68.46000 778.617
68.47000 787.877
68.48000 803.213
68.49000 820.104
68.50000 836.713
68.51000 851.632
68.52000 866.270
68.53000 878.135
68.54000 894.626
68.55000 908.440
68.56000 926.177
68.57000 954.170
68.58000 982.698
68.59000 1016.283
68.60000 1058.802
68.61000 1101.491
68.62000 1124.513
68.63000 1214.664
68.64000 1276.378
68.65000 1335.208
68.66000 1391.869
68.67000 1448.468
68.68000 1502.806
68.69000 1556.009
68.70000 1606.748
68.71000 1677.951
68.72000 1750.469
68.73000 1820.703
68.74000 1871.602
68.75000 1918.114
68.76000 1967.169
68.77000 2029.585
68.78000 2093.938
68.79000 2144.748
68.80000 2237.194
68.81000 2314.213
68.82000 2395.620
68.83000 2487.273
68.84000 2579.347
68.85000 2700.275
68.86000 2866.589
68.87000 3033.455
68.88000 3118.017
68.89000 3652.344
68.90000 4014.843
68.91000 4853.948
68.92000 6010.983
68.93000 7212.818
68.94000 9629.329
68.95000 12590.747
68.96000 15383.353
68.97000 20302.982
68.98000 25400.615
68.99000 30609.111
69.00000 36627.461
69.01000 42808.156
69.02000 48767.273
69.03000 53699.777
69.04000 58503.352
69.05000 62189.500
69.06000 65192.145
69.07000 67526.906
69.08000 69263.438
69.09000 69753.016
69.10000 70203.734
69.11000 70580.797
69.12000 70854.977
69.13000 71128.367
69.14000 71778.086
69.15000 72765.930
69.16000 73746.977
69.17000 74304.641
69.18000 74611.125
69.19000 74836.578
69.20000 73356.680
69.21000 71193.555
69.22000 69179.273
69.23000 65142.566
69.24000 60999.184
69.25000 56929.785
69.26000 53330.523
69.27000 49814.164
69.28000 46506.297
69.29000 44053.750
69.30000 41693.406
69.31000 39937.086
69.32000 38443.875
69.33000 37293.953
69.34000 36284.480
69.35000 35536.215
69.36000 34793.824
69.37000 33700.906
69.38000 32174.711
69.39000 30650.066
69.40000 28407.684
69.41000 25608.049
69.42000 22804.709
69.43000 19844.957
69.44000 16802.502
69.45000 13802.051
69.46000 11509.067
69.47000 9469.149
69.48000 7595.939
69.49000 6152.717
69.50000 4957.007
69.51000 3862.196
69.52000 3328.773
69.53000 2881.947
69.54000 2488.432
69.55000 2289.159
69.56000 2107.667
69.57000 1977.045
69.58000 1839.216
69.59000 1733.428
69.60000 1641.035
69.61000 1570.838
69.62000 1500.974
69.63000 1438.355
69.64000 1383.624
69.65000 1329.135
69.66000 1280.240
69.67000 1235.747
69.68000 1191.754
69.69000 1163.139
69.70000 1141.781
69.71000 1120.073
69.72000 1093.551
69.73000 1065.492
69.74000 1040.120
69.75000 1015.005
69.76000 992.951
69.77000 973.398
69.78000 966.099
69.79000 960.441
69.80000 951.469
69.81000 931.743
69.82000 911.193
69.83000 896.928
69.84000 878.785
69.85000 865.015
69.86000 852.956
69.87000 843.421
69.88000 833.908
69.89000 820.960
69.90000 804.732
69.91000 788.635
69.92000 782.960
69.93000 783.786
69.94000 784.489
69.95000 782.343
69.96000 778.996
69.97000 774.861
69.98000 761.670
69.99000 745.905
70.00000 731.888
