20.00000 567.126
20.01000 563.761
20.02000 559.916
20.03000 559.556
20.04000 572.782
20.05000 587.376
20.06000 598.086
20.07000 594.914
20.08000 591.902
20.09000 584.713
20.10000 570.128
20.11000 555.402
20.12000 551.050
20.13000 558.854
20.14000 566.655
20.15000 562.378
20.16000 549.085
20.17000 536.272
20.18000 541.042
20.19000 554.668
20.20000 567.575
20.21000 569.403
20.22000 567.455
20.23000 565.677
20.24000 567.763
20.25000 570.391
20.26000 572.463
20.27000 571.598
20.28000 570.307
20.29000 566.820
20.30000 555.724
20.31000 543.981
20.32000 535.656
20.33000 554.793
20.34000 570.207
20.35000 575.150
20.36000 563.584
20.37000 551.814
20.38000 552.418
20.39000 565.767
20.40000 579.039
20.41000 581.182
20.42000 575.956
20.43000 570.663
20.44000 563.593
20.45000 555.723
20.46000 548.814
20.47000 554.145
20.48000 563.195
20.49000 571.321
20.50000 572.661
20.51000 572.641
20.52000 571.027
20.53000 562.005
20.54000 552.051
20.55000 545.536
20.56000 549.643
20.57000 554.502
20.58000 557.820
20.59000 557.454
20.60000 557.093
20.61000 555.797
20.62000 553.191
20.63000 550.577
20.64000 550.081
20.65000 551.500
20.66000 552.904
20.67000 552.399
20.68000 550.793
20.69000 549.274
20.70000 549.574
20.71000 550.605
20.72000 551.570
20.73000 551.821
20.74000 551.880
20.75000 551.932
20.76000 552.711
20.77000 553.493
20.78000 552.789
20.79000 545.969
20.80000 538.488
20.81000 535.128
20.82000 543.125
20.83000 551.778
20.84000 557.454
20.85000 548.209
20.86000 541.160
20.87000 541.669
20.88000 551.541
20.89000 561.428
20.90000 567.775
20.91000 571.305
20.92000 574.780
20.93000 570.254
20.94000 561.752
20.95000 553.739
20.96000 553.985
20.97000 557.192
20.98000 560.131
20.99000 560.633
21.00000 560.549
21.01000 560.476
21.02000 556.998
21.03000 553.592
21.04000 551.269
21.05000 552.900
21.06000 554.894
21.07000 557.424
21.08000 561.272
21.09000 565.181
21.10000 567.635
21.11000 566.439
21.12000 565.534
21.13000 559.099
21.14000 546.627
21.15000 534.227
21.16000 531.974
21.17000 536.878
21.18000 541.675
21.19000 552.600
21.20000 565.868
21.21000 577.896
21.22000 572.764
21.23000 562.144
21.24000 553.083
21.25000 556.208
21.26000 561.922
21.27000 566.766
21.28000 562.564
21.29000 558.022
21.30000 552.806
21.31000 545.398
21.32000 537.821
21.33000 532.392
21.34000 531.681
21.35000 531.139
21.36000 530.815
21.37000 540.979
21.38000 548.261
21.39000 552.349
21.40000 553.380
21.41000 554.332
21.42000 549.177
21.43000 540.195
21.44000 531.474
21.45000 532.516
21.46000 537.420
21.47000 541.949
21.48000 542.154
21.49000 541.129
21.50000 541.061
21.51000 547.483
21.52000 555.122
21.53000 561.452
21.54000 563.224
21.55000 564.250
21.56000 563.258
21.57000 556.412
21.58000 549.195
21.59000 545.774
21.60000 549.800
21.61000 554.022
21.62000 556.420
21.63000 554.721
21.64000 553.532
21.65000 556.118
21.66000 561.882
21.67000 567.603
21.68000 571.182
21.69000 573.568
21.70000 575.864
21.71000 577.767
21.72000 579.413
21.73000 580.815
21.74000 579.833
21.75000 578.248
21.76000 578.680
21.77000 591.046
21.78000 605.372
21.79000 616.959
21.80000 626.896
21.81000 634.848
21.82000 639.717
21.83000 636.608
21.84000 633.091
21.85000 634.367
21.86000 644.026
21.87000 653.838
21.88000 659.103
21.89000 675.800
21.90000 687.199
21.91000 696.556
21.92000 704.392
21.93000 712.491
21.94000 729.871
21.95000 751.869
21.96000 772.828
21.97000 776.697
21.98000 774.951
21.99000 774.840
22.00000 788.378
22.01000 804.979
22.02000 820.122
22.03000 827.686
22.04000 834.165
22.05000 839.268
22.06000 836.962
22.07000 834.619
22.08000 829.733
22.09000 818.968
22.10000 807.967
22.11000 799.848
22.12000 796.212
22.13000 792.629
22.14000 790.824
22.15000 788.283
22.16000 786.500
22.17000 776.532
22.18000 761.160
22.19000 746.019
22.20000 736.997
22.21000 730.692
22.22000 724.753
22.23000 703.774
22.24000 680.448
22.25000 658.380
22.26000 645.386
22.27000 634.190
22.28000 623.947
22.29000 618.070
22.30000 612.735
22.31000 608.651
22.32000 592.436
22.33000 578.976
22.34000 568.430
22.35000 563.897
22.36000 559.547
22.37000 557.641
22.38000 559.113
22.39000 560.606
22.40000 562.452
22.41000 564.612
22.42000 566.711
22.43000 565.267
22.44000 561.741
22.45000 557.940
22.46000 548.464
22.47000 536.737
22.48000 525.830
22.49000 532.588
22.50000 542.951
22.51000 550.797
22.52000 542.836
22.53000 532.119
22.54000 524.819
22.55000 531.390
22.56000 539.435
22.57000 545.404
22.58000 550.009
22.59000 553.527
22.60000 551.531
22.61000 539.386
22.62000 527.019
22.63000 527.257
22.64000 542.906
22.65000 558.562
22.66000 556.088
22.67000 539.450
22.68000 523.175
22.69000 521.713
22.70000 528.005
22.71000 533.834
22.72000 532.020
22.73000 527.500
22.74000 523.354
22.75000 518.487
22.76000 513.997
22.77000 510.876
22.78000 515.285
22.79000 520.840
22.80000 525.627
22.81000 527.643
22.82000 529.408
22.83000 530.675
22.84000 527.124
22.85000 524.243
22.86000 522.957
22.87000 524.288
22.88000 525.656
22.89000 525.176
22.90000 522.704
22.91000 520.243
22.92000 520.819
22.93000 523.481
22.94000 526.050
22.95000 525.841
22.96000 524.335
22.97000 522.885
22.98000 522.195
22.99000 521.745
23.00000 521.339
23.01000 520.271
23.02000 519.211
23.03000 517.381
23.04000 511.826
23.05000 505.778
23.06000 502.382
23.07000 507.502
23.08000 513.265
23.09000 517.252
23.10000 516.952
23.11000 516.616
23.12000 518.548
23.13000 523.788
23.14000 529.055
23.15000 528.136
23.16000 521.379
23.17000 514.678
23.18000 511.441
23.19000 510.367
23.20000 509.199
23.21000 505.846
23.22000 501.583
23.23000 498.400
23.24000 507.458
23.25000 519.959
23.26000 531.056
23.27000 532.451
23.28000 532.108
23.29000 530.669
23.30000 524.540
23.31000 517.877
23.32000 513.184
23.33000 514.136
23.34000 515.438
23.35000 516.304
23.36000 521.389
23.37000 525.230
23.38000 522.165
23.39000 510.181
23.40000 498.172
23.41000 491.555
23.42000 489.417
23.43000 487.307
23.44000 489.804
23.45000 494.704
23.46000 499.677
23.47000 505.979
23.48000 512.778
23.49000 518.998
23.50000 519.678
23.51000 518.973
23.52000 518.358
23.53000 513.471
23.54000 508.705
23.55000 505.980
23.56000 511.017
23.57000 516.809
23.58000 518.855
23.59000 511.324
23.60000 503.316
23.61000 498.212
23.62000 503.367
23.63000 507.246
23.64000 509.773
23.65000 510.757
23.66000 511.748
23.67000 514.151
23.68000 517.590
23.69000 520.963
23.70000 523.430
23.71000 525.376
23.72000 526.544
23.73000 516.207
23.74000 502.044
23.75000 489.694
23.76000 492.235
23.77000 498.076
23.78000 503.063
23.79000 496.930
23.80000 490.443
23.81000 486.962
23.82000 493.647
23.83000 501.164
23.84000 506.005
23.85000 504.737
23.86000 503.230
23.87000 502.314
23.88000 496.874
23.89000 492.954
23.90000 495.377
23.91000 504.150
23.92000 512.887
23.93000 518.310
23.94000 521.572
23.95000 524.750
23.96000 523.164
23.97000 519.661
23.98000 516.519
23.99000 517.793
24.00000 520.376
24.01000 521.730
24.02000 514.354
24.03000 505.269
24.04000 497.681
24.05000 493.373
24.06000 490.130
24.07000 489.999
24.08000 499.248
24.09000 509.134
24.10000 512.453
24.11000 502.389
24.12000 491.932
24.13000 485.884
24.14000 502.049
24.15000 513.464
24.16000 517.244
24.17000 514.317
24.18000 511.409
24.19000 509.638
24.20000 508.527
24.21000 507.453
24.22000 504.777
24.23000 501.665
24.24000 498.615
24.25000 496.212
24.26000 493.980
24.27000 492.279
24.28000 493.864
24.29000 496.014
24.30000 497.768
24.31000 501.471
24.32000 504.665
24.33000 506.817
24.34000 506.167
24.35000 505.362
24.36000 502.223
24.37000 494.839
24.38000 487.367
24.39000 483.278
24.40000 489.893
24.41000 494.452
24.42000 497.823
24.43000 500.273
24.44000 502.545
24.45000 497.759
24.46000 489.325
24.47000 481.261
24.48000 485.708
24.49000 493.919
24.50000 501.520
24.51000 503.746
24.52000 504.717
24.53000 504.542
24.54000 498.158
24.55000 490.842
24.56000 485.027
24.57000 479.918
24.58000 475.853
24.59000 475.596
24.60000 484.484
24.61000 493.771
24.62000 498.826
24.63000 497.027
24.64000 495.134
24.65000 494.159
24.66000 491.433
24.67000 489.619
24.68000 490.357
24.69000 492.849
24.70000 495.194
24.71000 493.254
24.72000 489.337
24.73000 485.632
24.74000 483.509
24.75000 482.012
24.76000 480.461
24.77000 478.505
24.78000 476.466
24.79000 474.094
24.80000 470.132
24.81000 465.963
24.82000 462.741
24.83000 463.708
24.84000 464.721
24.85000 469.246
24.86000 481.303
24.87000 493.612
24.88000 495.898
24.89000 483.757
24.90000 471.503
24.91000 469.506
24.92000 477.049
24.93000 484.568
24.94000 490.423
24.95000 495.261
24.96000 499.837
24.97000 498.553
24.98000 494.852
24.99000 491.395
25.00000 490.752
25.01000 490.878
25.02000 491.307
25.03000 493.731
25.04000 496.518
25.05000 497.983
25.06000 493.856
25.07000 489.102
25.08000 485.536
25.09000 478.125
25.10000 472.155
25.11000 469.618
25.12000 473.654
25.13000 477.851
25.14000 482.052
25.15000 486.256
25.16000 490.456
25.17000 486.234
25.18000 475.152
25.19000 464.313
25.20000 464.707
25.21000 471.214
25.22000 477.667
25.23000 483.159
25.24000 488.297
25.25000 493.032
25.26000 487.414
25.27000 480.098
25.28000 474.673
25.29000 480.123
25.30000 487.309
25.31000 493.328
25.32000 494.968
25.33000 496.191
25.34000 497.078
25.35000 493.692
25.36000 490.929
25.37000 487.025
25.38000 481.171
25.39000 475.285
25.40000 473.979
25.41000 477.825
25.42000 481.662
25.43000 484.207
25.44000 485.803
25.45000 487.332
25.46000 486.660
25.47000 484.918
25.48000 482.700
25.49000 473.578
25.50000 462.188
25.51000 451.848
25.52000 465.005
25.53000 481.159
25.54000 494.224
25.55000 491.679
25.56000 486.964
25.57000 481.769
25.58000 474.970
25.59000 468.041
25.60000 463.187
25.61000 476.378
25.62000 486.874
25.63000 491.501
25.64000 487.220
25.65000 482.847
25.66000 481.163
25.67000 482.133
25.68000 483.095
25.69000 480.405
25.70000 475.442
25.71000 470.629
25.72000 469.551
25.73000 470.093
25.74000 470.787
25.75000 473.314
25.76000 476.379
25.77000 479.115
25.78000 475.993
25.79000 472.290
25.80000 468.405
25.81000 463.705
25.82000 458.907
25.83000 457.583
25.84000 466.596
25.85000 476.296
25.86000 482.837
25.87000 469.231
25.88000 458.682
25.89000 456.239
25.90000 464.706
25.91000 473.225
25.92000 476.413
25.93000 474.982
25.94000 473.566
25.95000 472.527
25.96000 471.721
25.97000 470.720
25.98000 465.858
25.99000 459.503
26.00000 453.570
26.01000 451.918
26.02000 451.379
26.03000 450.906
26.04000 454.727
26.05000 458.631
26.06000 462.578
26.07000 466.691
26.08000 470.820
26.09000 472.203
26.10000 466.288
26.11000 459.981
26.12000 455.901
26.13000 454.094
26.14000 452.806
26.15000 455.488
26.16000 462.891
26.17000 470.282
26.18000 472.691
26.19000 471.287
26.20000 469.908
26.21000 469.660
26.22000 469.978
26.23000 470.381
26.24000 472.108
26.25000 474.293
26.26000 475.746
26.27000 470.857
26.28000 464.506
26.29000 459.044
26.30000 462.858
26.31000 467.247
26.32000 469.734
26.33000 465.530
26.34000 460.745
26.35000 458.251
26.36000 461.192
26.37000 464.364
26.38000 466.325
26.39000 461.879
26.40000 458.624
26.41000 460.439
26.42000 467.562
26.43000 474.593
26.44000 471.386
26.45000 461.234
26.46000 451.323
26.47000 449.075
26.48000 450.265
26.49000 450.859
26.50000 443.693
26.51000 434.136
26.52000 426.535
26.53000 433.513
26.54000 443.468
26.55000 451.847
26.56000 463.485
26.57000 473.541
26.58000 478.069
26.59000 465.281
26.60000 451.238
26.61000 442.760
26.62000 446.069
26.63000 449.761
26.64000 451.934
26.65000 464.129
26.66000 472.779
26.67000 469.139
26.68000 454.221
26.69000 439.528
26.70000 439.709
26.71000 448.863
26.72000 457.727
26.73000 453.370
26.74000 444.158
26.75000 435.622
26.76000 434.455
26.77000 435.310
26.78000 436.396
26.79000 438.977
26.80000 441.828
26.81000 444.172
26.82000 444.993
26.83000 445.530
26.84000 446.789
26.85000 450.066
26.86000 453.463
26.87000 455.553
26.88000 455.172
26.89000 454.732
26.90000 454.487
26.91000 455.289
26.92000 455.838
26.93000 453.245
26.94000 448.113
26.95000 443.223
26.96000 449.121
26.97000 460.817
26.98000 472.038
26.99000 472.442
27.00000 469.145
27.01000 465.231
27.02000 455.605
27.03000 444.587
27.04000 434.787
27.05000 431.887
27.06000 430.072
27.07000 428.617
27.08000 430.666
27.09000 432.591
27.10000 435.845
27.11000 442.415
27.12000 449.142
27.13000 452.206
27.14000 449.101
27.15000 445.897
27.16000 444.211
27.17000 436.284
27.18000 430.933
27.19000 429.765
27.20000 431.590
27.21000 433.584
27.22000 440.995
27.23000 451.004
27.24000 460.507
27.25000 458.802
27.26000 453.873
27.27000 448.962
27.28000 444.197
27.29000 439.463
27.30000 435.137
27.31000 432.839
27.32000 430.819
27.33000 429.243
27.34000 428.597
27.35000 428.140
27.36000 428.613
27.37000 431.158
27.38000 433.780
27.39000 440.570
27.40000 453.607
27.41000 466.705
27.42000 465.591
27.43000 450.654
27.44000 435.880
27.45000 434.422
27.46000 441.425
27.47000 448.160
27.48000 448.378
27.49000 445.806
27.50000 443.393
27.51000 445.535
27.52000 448.687
27.53000 451.109
27.54000 448.497
27.55000 444.928
27.56000 441.555
27.57000 439.045
27.58000 436.638
27.59000 434.813
27.60000 436.382
27.61000 437.787
27.62000 436.207
27.63000 428.691
27.64000 421.011
27.65000 419.381
27.66000 425.790
27.67000 432.233
27.68000 435.662
27.69000 436.513
27.70000 437.360
27.71000 438.043
27.72000 438.633
27.73000 439.112
27.74000 437.481
27.75000 435.043
27.76000 432.785
27.77000 434.761
27.78000 437.518
27.79000 440.385
27.80000 443.920
27.81000 447.567
27.82000 448.051
27.83000 436.181
27.84000 423.064
27.85000 413.434
27.86000 415.486
27.87000 417.548
27.88000 422.003
27.89000 430.706
27.90000 439.490
27.91000 441.483
27.92000 435.504
27.93000 429.529
27.94000 430.346
27.95000 436.253
27.96000 442.027
27.97000 442.917
27.98000 441.342
27.99000 439.723
28.00000 437.434
28.01000 434.916
28.02000 432.617
28.03000 427.289
28.04000 421.949
28.05000 419.039
28.06000 428.944
28.07000 440.717
28.08000 449.596
28.09000 448.422
28.10000 446.392
28.11000 444.952
28.12000 447.598
28.13000 449.739
28.14000 450.208
28.15000 448.034
28.16000 445.828
28.17000 443.841
28.18000 442.081
28.19000 440.331
28.20000 439.751
28.21000 439.953
28.22000 440.201
28.23000 441.728
28.24000 443.831
28.25000 445.846
28.26000 446.737
28.27000 447.286
28.28000 447.778
28.29000 449.288
28.30000 450.789
28.31000 450.891
28.32000 444.489
28.33000 437.266
28.34000 432.689
28.35000 436.300
28.36000 440.493
28.37000 443.358
28.38000 445.113
28.39000 446.400
28.40000 444.972
28.41000 439.738
28.42000 434.478
28.43000 432.110
28.44000 432.359
28.45000 432.606
28.46000 432.643
28.47000 432.557
28.48000 432.406
28.49000 430.880
28.50000 428.801
28.51000 426.997
28.52000 428.148
28.53000 430.100
28.54000 431.822
28.55000 430.941
28.56000 429.784
28.57000 427.441
28.58000 420.218
28.59000 412.465
28.60000 408.129
28.61000 413.221
28.62000 418.859
28.63000 422.560
28.64000 431.172
28.65000 437.590
28.66000 440.102
28.67000 437.767
28.68000 435.408
28.69000 430.177
28.70000 422.652
28.71000 415.241
28.72000 414.375
28.73000 416.904
28.74000 419.519
28.75000 423.578
28.76000 428.157
28.77000 432.212
28.78000 431.494
28.79000 429.628
28.80000 428.013
28.81000 430.611
28.82000 433.377
28.83000 435.859
28.84000 437.300
28.85000 438.646
28.86000 438.295
28.87000 433.758
28.88000 429.027
28.89000 426.056
28.90000 417.439
28.91000 411.147
28.92000 410.210
28.93000 415.130
28.94000 420.051
28.95000 424.650
28.96000 429.023
28.97000 433.302
28.98000 434.641
28.99000 434.588
29.00000 434.475
29.01000 433.508
29.02000 432.267
29.03000 430.435
29.04000 423.967
29.05000 416.511
29.06000 410.189
29.07000 408.699
29.08000 407.996
29.09000 408.716
29.10000 414.071
29.11000 419.783
29.12000 423.923
29.13000 424.601
29.14000 425.155
29.15000 425.486
29.16000 417.304
29.17000 411.441
29.18000 412.303
29.19000 419.615
29.20000 426.823
29.21000 426.028
29.22000 420.210
29.23000 414.560
29.24000 407.887
29.25000 401.141
29.26000 395.745
29.27000 405.974
29.28000 420.662
29.29000 432.952
29.30000 428.966
29.31000 421.925
29.32000 416.088
29.33000 417.295
29.34000 418.968
29.35000 420.762
29.36000 422.910
29.37000 425.081
29.38000 426.756
29.39000 427.459
29.40000 428.136
29.41000 428.520
29.42000 421.177
29.43000 416.041
29.44000 413.268
29.45000 412.488
29.46000 411.733
29.47000 412.213
29.48000 413.384
29.49000 414.512
29.50000 418.317
29.51000 422.837
29.52000 426.585
29.53000 422.777
29.54000 417.052
29.55000 413.003
29.56000 418.889
29.57000 426.411
29.58000 432.496
29.59000 430.462
29.60000 428.150
29.61000 424.934
29.62000 419.371
29.63000 413.688
29.64000 411.083
29.65000 413.873
29.66000 416.762
29.67000 418.314
29.68000 413.920
29.69000 410.930
29.70000 410.972
29.71000 413.276
29.72000 415.584
29.73000 418.063
29.74000 420.628
29.75000 423.071
29.76000 432.907
29.77000 444.336
29.78000 453.601
29.79000 444.761
29.80000 431.849
29.81000 420.795
29.82000 419.406
29.83000 419.404
29.84000 419.403
29.85000 429.028
29.86000 437.389
29.87000 443.440
29.88000 444.144
29.89000 444.632
29.90000 444.744
29.91000 444.271
29.92000 443.791
29.93000 443.549
29.94000 457.023
29.95000 465.927
29.96000 464.637
29.97000 456.604
29.98000 449.049
29.99000 454.177
30.00000 464.948
30.01000 475.095
30.02000 473.681
30.03000 469.205
30.04000 464.455
30.05000 457.710
30.06000 450.571
30.07000 446.001
30.08000 453.232
30.09000 461.929
30.10000 468.588
30.11000 457.906
30.12000 448.522
30.13000 442.474
30.14000 443.321
30.15000 444.379
30.16000 445.319
30.17000 446.098
30.18000 446.875
30.19000 446.309
30.20000 444.547
30.21000 442.830
30.22000 443.908
30.23000 446.630
30.24000 449.374
30.25000 452.597
30.26000 456.010
30.27000 459.185
30.28000 455.787
30.29000 451.130
30.30000 446.579
30.31000 442.694
30.32000 438.924
30.33000 434.297
30.34000 426.181
30.35000 417.693
30.36000 411.392
30.37000 432.874
30.38000 450.791
30.39000 460.834
30.40000 456.356
30.41000 451.560
30.42000 447.614
30.43000 444.710
30.44000 441.815
30.45000 438.662
30.46000 435.321
30.47000 431.979
30.48000 428.572
30.49000 425.131
30.50000 421.991
30.51000 423.841
30.52000 427.460
30.53000 430.781
30.54000 439.736
30.55000 448.911
30.56000 456.252
30.57000 453.491
30.58000 449.187
30.59000 445.414
30.60000 443.557
30.61000 441.872
30.62000 440.663
30.63000 445.467
30.64000 449.348
30.65000 451.876
30.66000 452.181
30.67000 452.454
30.68000 453.087
30.69000 454.111
30.70000 455.129
30.71000 458.872
30.72000 464.454
30.73000 469.810
30.74000 468.378
30.75000 463.770
30.76000 459.676
30.77000 462.577
30.78000 467.692
30.79000 472.312
30.80000 472.618
30.81000 472.090
30.82000 472.079
30.83000 474.575
30.84000 477.404
30.85000 479.130
30.86000 477.311
30.87000 475.223
30.88000 473.777
30.89000 487.510
30.90000 498.240
30.91000 506.666
30.92000 511.730
30.93000 516.766
30.94000 523.715
30.95000 532.472
30.96000 541.157
30.97000 550.590
30.98000 560.306
30.99000 570.180
31.00000 583.710
31.01000 598.767
31.02000 613.458
31.03000 623.989
31.04000 633.348
31.05000 641.658
31.06000 669.777
31.07000 697.332
31.08000 729.101
31.09000 778.955
31.10000 830.875
31.11000 884.673
31.12000 943.860
31.13000 1003.383
31.14000 1043.000
31.15000 1136.753
31.16000 1207.145
31.17000 1298.403
31.18000 1416.664
31.19000 1535.043
31.20000 1657.351
31.21000 1782.931
31.22000 1906.857
31.23000 2040.897
31.24000 2176.756
31.25000 2315.211
31.26000 2501.045
31.27000 2704.557
31.28000 2905.802
31.29000 3085.244
31.30000 3259.224
31.31000 3410.871
31.32000 3525.774
31.33000 3618.885
31.34000 3713.131
31.35000 3811.696
31.36000 3910.682
31.37000 3996.571
31.38000 4048.923
31.39000 4099.596
31.40000 4131.914
31.41000 4050.982
31.42000 3990.668
31.43000 3932.083
31.44000 3875.475
31.45000 3818.628
31.46000 3719.507
31.47000 3589.282
31.48000 3461.547
31.49000 3299.990
31.50000 3128.299
31.51000 2956.354
31.52000 2780.631
31.53000 2603.650
31.54000 2426.450
31.55000 2247.437
31.56000 2068.022
31.57000 1914.767
31.58000 1765.602
31.59000 1640.427
31.60000 1516.797
31.61000 1398.402
31.62000 1280.436
31.63000 1171.938
31.64000 1085.093
31.65000 999.095
31.66000 946.733
31.67000 850.032
31.68000 780.599
31.69000 730.930
31.70000 701.084
31.71000 671.214
31.72000 639.173
31.73000 605.713
31.74000 573.129
31.75000 553.599
31.76000 540.452
31.77000 528.123
31.78000 525.833
31.79000 526.523
31.80000 525.481
31.81000 512.108
31.82000 496.320
31.83000 483.127
31.84000 482.337
31.85000 482.940
31.86000 480.793
31.87000 470.346
31.88000 459.333
31.89000 453.228
31.90000 457.141
31.91000 461.350
31.92000 463.787
31.93000 446.101
31.94000 433.625
31.95000 429.793
31.96000 433.571
31.97000 437.325
31.98000 439.657
31.99000 441.165
32.00000 442.620
32.01000 438.012
32.02000 431.428
32.03000 425.674
32.04000 428.493
32.05000 433.575
32.06000 437.779
32.07000 436.528
32.08000 434.339
32.09000 432.553
32.10000 423.698
32.11000 415.850
32.12000 410.844
32.13000 413.496
32.14000 416.571
32.15000 416.481
32.16000 410.629
32.17000 404.654
32.18000 401.382
32.19000 405.484
32.20000 408.315
32.21000 410.886
32.22000 413.257
32.23000 415.456
32.24000 410.849
32.25000 402.716
32.26000 394.940
32.27000 401.004
32.28000 411.164
32.29000 419.749
32.30000 414.456
32.31000 405.910
32.32000 398.987
32.33000 400.882
32.34000 404.102
32.35000 406.663
32.36000 401.135
32.37000 396.102
32.38000 393.016
32.39000 394.612
32.40000 396.413
32.41000 396.442
32.42000 393.596
32.43000 390.710
32.44000 389.223
32.45000 386.319
32.46000 384.402
32.47000 387.267
32.48000 393.423
32.49000 399.340
32.50000 398.300
32.51000 394.044
32.52000 390.018
32.53000 383.665
32.54000 377.158
32.55000 371.606
32.56000 373.303
32.57000 376.502
32.58000 379.759
32.59000 383.297
32.60000 386.871
32.61000 389.635
32.62000 381.253
32.63000 373.946
32.64000 370.513
32.65000 375.402
32.66000 380.570
32.67000 382.891
32.68000 381.106
32.69000 379.288
32.70000 375.073
32.71000 368.626
32.72000 362.328
32.73000 366.511
32.74000 377.106
32.75000 387.225
32.76000 386.674
32.77000 381.718
32.78000 377.087
32.79000 379.276
32.80000 382.985
32.81000 386.270
32.82000 386.762
32.83000 386.745
32.84000 387.111
32.85000 389.098
32.86000 391.268
32.87000 392.895
32.88000 411.938
32.89000 427.643
32.90000 436.836
32.91000 433.543
32.92000 429.943
32.93000 431.690
32.94000 440.267
32.95000 448.856
32.96000 456.580
32.97000 463.568
32.98000 470.305
32.99000 465.391
33.00000 454.128
33.01000 444.020
33.02000 454.500
33.03000 472.570
33.04000 489.227
33.05000 486.765
33.06000 480.328
33.07000 473.950
33.08000 467.909
33.09000 461.922
33.10000 455.339
33.11000 446.514
33.12000 437.475
33.13000 430.911
33.14000 423.729
33.15000 418.183
33.16000 412.011
33.17000 404.768
33.18000 397.507
33.19000 390.629
33.20000 384.180
33.21000 377.755
33.22000 374.145
33.23000 372.594
33.24000 371.007
33.25000 368.250
33.26000 364.925
33.27000 361.854
33.28000 362.468
33.29000 364.294
33.30000 365.952
33.31000 352.777
33.32000 338.271
33.33000 327.899
33.34000 338.455
33.35000 351.924
33.36000 359.879
33.37000 349.395
33.38000 337.428
33.39000 329.038
33.40000 337.079
33.41000 343.636
33.42000 347.789
33.43000 348.288
33.44000 348.748
33.45000 348.908
33.46000 348.772
33.47000 348.636
33.48000 350.878
33.49000 354.592
33.50000 358.132
33.51000 357.269
33.52000 354.496
33.53000 352.134
33.54000 354.740
33.55000 358.801
33.56000 362.429
33.57000 358.444
33.58000 353.692
33.59000 349.088
33.60000 345.152
33.61000 341.296
33.62000 338.625
33.63000 339.487
33.64000 340.585
33.65000 341.326
33.66000 336.450
33.67000 332.703
33.68000 333.955
33.69000 341.949
33.70000 349.971
33.71000 351.083
33.72000 346.193
33.73000 341.359
33.74000 341.454
33.75000 344.309
33.76000 347.110
33.77000 348.870
33.78000 350.226
33.79000 351.363
33.80000 350.284
33.81000 348.628
33.82000 347.175
33.83000 349.226
33.84000 351.499
33.85000 352.892
33.86000 350.800
33.87000 348.350
33.88000 347.129
33.89000 349.180
33.90000 351.408
33.91000 352.850
33.92000 346.541
33.93000 341.811
33.94000 341.216
33.95000 345.551
33.96000 349.877
33.97000 349.971
33.98000 346.821
33.99000 343.725
34.00000 337.859
34.01000 330.819
34.02000 324.378
34.03000 327.432
34.04000 333.772
34.05000 339.928
34.06000 344.478
34.07000 348.658
34.08000 352.253
34.09000 337.032
34.10000 321.784
34.11000 311.843
34.12000 320.588
34.13000 330.961
34.14000 338.472
34.15000 339.184
34.16000 339.605
34.17000 339.865
34.18000 344.487
34.19000 347.849
34.20000 346.421
34.21000 339.969
34.22000 333.604
34.23000 337.035
34.24000 347.124
34.25000 356.974
34.26000 349.593
34.27000 335.006
34.28000 321.442
34.29000 321.248
34.30000 325.182
34.31000 328.374
34.32000 326.029
34.33000 322.552
34.34000 319.624
34.35000 321.507
34.36000 323.595
34.37000 325.720
34.38000 327.964
34.39000 330.218
34.40000 331.338
34.41000 330.053
34.42000 328.690
34.43000 327.887
34.44000 338.467
34.45000 345.989
34.46000 341.216
34.47000 325.136
34.48000 309.249
34.49000 306.171
34.50000 310.830
34.51000 315.343
34.52000 318.334
34.53000 320.575
34.54000 322.746
34.55000 324.150
34.56000 325.343
34.57000 326.495
34.58000 327.384
34.59000 328.225
34.60000 328.917
34.61000 334.525
34.62000 339.582
34.63000 343.165
34.64000 342.626
34.65000 341.842
34.66000 340.269
34.67000 337.203
34.68000 334.102
34.69000 332.370
34.70000 339.022
34.71000 343.629
34.72000 341.970
34.73000 335.234
34.74000 328.516
34.75000 322.540
34.76000 316.965
34.77000 311.616
34.78000 311.046
34.79000 312.141
34.80000 313.668
34.81000 319.206
34.82000 325.723
34.83000 331.039
34.84000 329.526
34.85000 326.937
34.86000 324.860
34.87000 319.909
34.88000 315.681
34.89000 313.902
34.90000 318.244
34.91000 322.878
34.92000 323.617
34.93000 317.785
34.94000 311.846
34.95000 308.719
34.96000 320.003
34.97000 327.620
34.98000 328.670
34.99000 325.011
35.00000 321.322
35.01000 316.658
35.02000 311.525
35.03000 306.652
35.04000 308.808
35.05000 312.906
35.06000 316.856
35.07000 319.615
35.08000 322.118
35.09000 324.729
35.10000 327.887
35.11000 331.119
35.12000 333.643
35.13000 330.562
35.14000 327.752
35.15000 324.986
35.16000 322.320
35.17000 319.656
35.18000 320.545
35.19000 326.765
35.20000 333.037
35.21000 334.568
35.22000 331.479
35.23000 328.395
35.24000 325.717
35.25000 323.296
35.26000 320.776
35.27000 315.823
35.28000 309.826
35.29000 304.198
35.30000 306.689
35.31000 311.100
35.32000 314.272
35.33000 308.881
35.34000 301.859
35.35000 297.218
35.36000 303.086
35.37000 310.199
35.38000 315.592
35.39000 322.900
35.40000 328.737
35.41000 329.505
35.42000 320.173
35.43000 310.563
35.44000 310.340
35.45000 322.614
35.46000 334.939
35.47000 335.819
35.48000 326.914
35.49000 318.129
35.50000 315.694
35.51000 316.857
35.52000 318.015
35.53000 319.079
35.54000 320.107
35.55000 321.059
35.56000 316.184
35.57000 310.450
35.58000 305.935
35.59000 308.763
35.60000 312.820
35.61000 315.963
35.62000 315.534
35.63000 314.744
35.64000 314.163
35.65000 311.861
35.66000 310.011
35.67000 310.746
35.68000 316.074
35.69000 321.491
35.70000 324.085
35.71000 323.360
35.72000 322.630
35.73000 320.086
35.74000 316.195
35.75000 312.422
35.76000 313.009
35.77000 315.798
35.78000 318.534
35.79000 320.423
35.80000 322.023
35.81000 323.484
35.82000 311.870
35.83000 298.917
35.84000 288.870
35.85000 294.186
35.86000 301.744
35.87000 308.107
35.88000 310.308
35.89000 312.153
35.90000 313.463
35.91000 310.491
35.92000 308.095
35.93000 305.541
35.94000 302.739
35.95000 299.933
35.96000 303.308
35.97000 313.075
35.98000 322.787
35.99000 323.264
36.00000 317.621
36.01000 312.016
36.02000 307.454
36.03000 303.362
36.04000 299.846
36.05000 303.696
36.06000 309.791
36.07000 315.267
36.08000 312.675
36.09000 308.982
36.10000 305.784
36.11000 304.898
36.12000 304.303
36.13000 303.894
36.14000 304.060
36.15000 304.266
36.16000 304.407
36.17000 303.599
36.18000 302.971
36.19000 302.412
36.20000 301.950
36.21000 301.490
36.22000 302.903
36.23000 306.016
36.24000 309.097
36.25000 310.438
36.26000 310.735
36.27000 311.013
36.28000 310.916
36.29000 310.668
36.30000 310.332
36.31000 309.062
36.32000 307.537
36.33000 306.192
36.34000 304.429
36.35000 302.844
36.36000 301.833
36.37000 303.188
36.38000 304.799
36.39000 306.607
36.40000 308.957
36.41000 311.338
36.42000 312.902
36.43000 306.901
36.44000 302.359
36.45000 297.815
36.46000 293.272
36.47000 288.748
36.48000 290.536
36.49000 297.371
36.50000 304.103
36.51000 305.698
36.52000 304.597
36.53000 303.416
36.54000 300.875
36.55000 297.845
36.56000 295.680
36.57000 301.420
36.58000 309.064
36.59000 315.684
36.60000 312.718
36.61000 308.929
36.62000 305.556
36.63000 303.711
36.64000 302.007
36.65000 299.894
36.66000 296.772
36.67000 293.602
36.68000 291.610
36.69000 293.623
36.70000 295.123
36.71000 293.865
36.72000 289.584
36.73000 285.361
36.74000 289.387
36.75000 299.252
36.76000 308.907
36.77000 310.615
36.78000 308.634
36.79000 306.760
36.80000 306.373
36.81000 306.462
36.82000 306.921
36.83000 310.280
36.84000 314.259
36.85000 317.633
36.86000 315.476
36.87000 313.041
36.88000 308.707
36.89000 298.178
36.90000 287.171
36.91000 280.879
36.92000 284.983
36.93000 289.461
36.94000 292.145
36.95000 301.584
36.96000 308.330
36.97000 310.283
36.98000 307.628
36.99000 305.020
37.00000 306.091
37.01000 309.475
37.02000 312.761
37.03000 310.309
37.04000 305.672
37.05000 301.362
37.06000 300.840
37.07000 301.401
37.08000 301.336
37.09000 297.016
37.10000 291.895
37.11000 287.647
37.12000 291.399
37.13000 295.269
37.14000 297.736
37.15000 296.125
37.16000 294.254
37.17000 293.737
37.18000 295.883
37.19000 298.101
37.20000 299.363
37.21000 302.320
37.22000 304.383
37.23000 304.961
37.24000 304.282
37.25000 303.615
37.26000 303.515
37.27000 303.732
37.28000 303.942
37.29000 309.403
37.30000 316.394
37.31000 321.843
37.32000 312.165
37.33000 298.643
37.34000 287.482
37.35000 290.335
37.36000 295.499
37.37000 299.679
37.38000 296.868
37.39000 294.015
37.40000 292.686
37.41000 295.314
37.42000 298.146
37.43000 301.095
37.44000 304.249
37.45000 307.406
37.46000 309.103
37.47000 311.041
37.48000 312.345
37.49000 309.964
37.50000 304.828
37.51000 299.782
37.52000 297.917
37.53000 297.640
37.54000 297.375
37.55000 298.617
37.56000 300.239
37.57000 301.756
37.58000 302.397
37.59000 302.840
37.60000 302.102
37.61000 295.207
37.62000 287.427
37.63000 281.293
37.64000 296.497
37.65000 310.121
37.66000 316.842
37.67000 307.559
37.68000 297.629
37.69000 292.304
37.70000 294.173
37.71000 296.128
37.72000 297.114
37.73000 286.538
37.74000 279.566
37.75000 282.702
37.76000 292.534
37.77000 302.114
37.78000 305.001
37.79000 304.905
37.80000 304.814
37.81000 302.233
37.82000 299.184
37.83000 296.868
37.84000 299.859
37.85000 303.907
37.86000 306.348
37.87000 301.397
37.88000 295.527
37.89000 291.030
37.90000 285.054
37.91000 280.254
37.92000 277.996
37.93000 281.001
37.94000 284.167
37.95000 289.192
37.96000 296.795
37.97000 304.412
37.98000 306.156
37.99000 302.652
38.00000 299.135
38.01000 294.792
38.02000 289.964
38.03000 285.452
38.04000 287.525
38.05000 292.218
38.06000 296.584
38.07000 296.870
38.08000 296.141
38.09000 295.204
38.10000 292.956
38.11000 290.480
38.12000 288.895
38.13000 290.945
38.14000 293.382
38.15000 295.192
38.16000 291.813
38.17000 288.958
38.18000 288.895
38.19000 293.989
38.20000 299.198
38.21000 301.966
38.22000 301.740
38.23000 301.507
38.24000 298.338
38.25000 292.881
38.26000 287.708
38.27000 294.315
38.28000 307.109
38.29000 319.302
38.30000 321.499
38.31000 320.145
38.32000 318.902
38.33000 316.756
38.34000 314.651
38.35000 313.474
38.36000 317.423
38.37000 322.157
38.38000 325.416
38.39000 323.343
38.40000 320.787
38.41000 318.951
38.42000 332.445
38.43000 343.297
38.44000 352.050
38.45000 357.347
38.46000 362.593
38.47000 371.285
38.48000 383.700
38.49000 396.060
38.50000 410.485
38.51000 426.182
38.52000 441.682
38.53000 451.232
38.54000 457.994
38.55000 465.898
38.56000 489.365
38.57000 517.764
38.58000 543.420
38.59000 569.390
38.60000 592.283
38.61000 612.764
38.62000 621.519
38.63000 628.715
38.64000 637.522
38.65000 651.515
38.66000 665.902
38.67000 675.867
38.68000 706.093
38.69000 729.373
38.70000 744.296
38.71000 746.995
38.72000 749.586
38.73000 745.678
38.74000 735.610
38.75000 725.625
38.76000 732.031
38.77000 748.309
38.78000 763.670
38.79000 757.815
38.80000 743.080
38.81000 727.864
38.82000 707.159
38.83000 684.905
38.84000 665.140
38.85000 642.585
38.86000 622.580
38.87000 601.204
38.88000 573.936
38.89000 545.993
38.90000 520.378
38.91000 501.450
38.92000 482.940
38.93000 470.612
38.94000 464.089
38.95000 459.372
38.96000 445.744
38.97000 420.561
38.98000 395.344
38.99000 375.944
39.00000 361.394
39.01000 347.035
39.02000 340.173
39.03000 337.529
39.04000 334.622
39.05000 326.908
39.06000 317.397
39.07000 309.157
39.08000 313.157
39.09000 320.228
39.10000 326.393
39.11000 319.437
39.12000 311.668
39.13000 305.430
39.14000 305.036
39.15000 305.212
39.16000 304.358
39.17000 300.859
39.18000 297.229
39.19000 294.911
39.20000 296.655
39.21000 297.976
39.22000 294.922
39.23000 286.863
39.24000 278.824
39.25000 275.481
39.26000 275.599
39.27000 275.715
39.28000 276.038
39.29000 276.448
39.30000 276.901
39.31000 277.987
39.32000 279.284
39.33000 280.058
39.34000 276.513
39.35000 272.007
39.36000 268.157
39.37000 273.564
39.38000 279.226
39.39000 283.738
39.40000 284.351
39.41000 284.643
39.42000 284.014
39.43000 281.276
39.44000 278.455
39.45000 276.736
39.46000 273.511
39.47000 271.195
39.48000 270.617
39.49000 271.786
39.50000 272.960
39.51000 274.550
39.52000 276.413
39.53000 278.227
39.54000 273.759
39.55000 266.864
39.56000 260.236
39.57000 256.900
39.58000 254.544
39.59000 253.130
39.60000 258.442
39.61000 265.074
39.62000 270.618
39.63000 269.424
39.64000 267.748
39.65000 266.613
39.66000 267.114
39.67000 267.726
39.68000 268.024
39.69000 267.676
39.70000 267.309
39.71000 267.097
39.72000 264.907
39.73000 263.366
39.74000 264.981
39.75000 269.381
39.76000 273.681
39.77000 272.233
39.78000 267.440
39.79000 262.810
39.80000 261.044
39.81000 260.441
39.82000 260.308
39.83000 265.038
39.84000 271.054
39.85000 275.808
39.86000 272.716
39.87000 268.270
39.88000 264.641
39.89000 262.690
39.90000 261.238
39.91000 260.588
39.92000 262.101
39.93000 263.734
39.94000 265.699
39.95000 268.268
39.96000 270.849
39.97000 272.265
39.98000 265.500
39.99000 260.844
40.00000 258.904
40.01000 259.076
40.02000 259.335
40.03000 263.040
40.04000 268.532
40.05000 273.786
40.06000 268.415
40.07000 259.943
40.08000 252.623
40.09000 255.483
40.10000 260.733
40.11000 264.379
40.12000 259.295
40.13000 252.895
40.14000 247.803
40.15000 253.419
40.16000 258.713
40.17000 261.035
40.18000 256.197
40.19000 251.043
40.20000 249.205
40.21000 252.756
40.22000 256.381
40.23000 258.252
40.24000 262.044
40.25000 264.587
40.26000 265.482
40.27000 265.242
40.28000 264.949
40.29000 263.103
40.30000 260.538
40.31000 258.111
40.32000 254.997
40.33000 251.935
40.34000 249.731
40.35000 254.045
40.36000 259.713
40.37000 264.864
40.38000 267.537
40.39000 269.885
40.40000 271.702
40.41000 260.137
40.42000 250.169
40.43000 245.338
40.44000 251.562
40.45000 258.159
40.46000 261.195
40.47000 259.088
40.48000 256.939
40.49000 255.892
40.50000 255.875
40.51000 255.861
40.52000 256.037
40.53000 256.329
40.54000 256.656
40.55000 257.744
40.56000 259.147
40.57000 260.458
40.58000 258.500
40.59000 255.896
40.60000 254.155
40.61000 258.112
40.62000 263.110
40.63000 267.516
40.64000 269.410
40.65000 271.022
40.66000 272.232
40.67000 265.052
40.68000 259.042
40.69000 254.899
40.70000 254.342
40.71000 253.873
40.72000 256.227
40.73000 262.192
40.74000 268.162
40.75000 267.258
40.76000 260.723
40.77000 254.225
40.78000 249.506
40.79000 245.759
40.80000 242.306
40.81000 244.105
40.82000 247.845
40.83000 251.293
40.84000 255.664
40.85000 259.784
40.86000 262.868
40.87000 259.970
40.88000 256.114
40.89000 253.741
40.90000 256.953
40.91000 260.700
40.92000 263.423
40.93000 256.759
40.94000 251.278
40.95000 249.777
40.96000 255.087
40.97000 260.513
40.98000 260.941
40.99000 255.728
41.00000 250.528
41.01000 244.734
41.02000 238.562
41.03000 232.665
41.04000 235.948
41.05000 243.702
41.06000 251.204
41.07000 255.045
41.08000 257.679
41.09000 260.072
41.10000 259.844
41.11000 259.134
41.12000 258.826
41.13000 260.560
41.14000 262.578
41.15000 264.361
41.16000 265.358
41.17000 266.292
41.18000 266.947
41.19000 255.986
41.20000 247.354
41.21000 241.651
41.22000 240.409
41.23000 239.214
41.24000 237.893
41.25000 236.448
41.26000 235.012
41.27000 235.299
41.28000 236.676
41.29000 238.088
41.30000 240.398
41.31000 243.099
41.32000 245.399
41.33000 242.858
41.34000 238.896
41.35000 235.356
41.36000 234.916
41.37000 235.055
41.38000 234.870
41.39000 233.233
41.40000 231.421
41.41000 231.550
41.42000 237.477
41.43000 243.790
41.44000 248.053
41.45000 248.225
41.46000 248.266
41.47000 249.861
41.48000 253.556
41.49000 257.257
41.50000 257.085
41.51000 253.544
41.52000 250.044
41.53000 244.842
41.54000 238.811
41.55000 233.205
41.56000 235.991
41.57000 242.038
41.58000 247.105
41.59000 242.208
41.60000 234.707
41.61000 228.126
41.62000 233.242
41.63000 239.345
41.64000 244.781
41.65000 247.565
41.66000 250.076
41.67000 251.851
41.68000 251.667
41.69000 251.377
41.70000 251.189
41.71000 241.324
41.72000 233.962
41.73000 231.882
41.74000 236.113
41.75000 240.346
41.76000 242.215
41.77000 242.268
41.78000 242.320
41.79000 243.262
41.80000 244.614
41.81000 245.755
41.82000 243.533
41.83000 240.147
41.84000 236.670
41.85000 232.412
41.86000 227.972
41.87000 224.152
41.88000 225.659
41.89000 227.604
41.90000 229.238
41.91000 229.771
41.92000 230.207
41.93000 232.267
41.94000 238.189
41.95000 244.276
41.96000 248.046
41.97000 249.298
41.98000 250.174
41.99000 250.730
42.00000 250.950
42.01000 251.170
42.02000 251.398
42.03000 251.634
42.04000 251.863
42.05000 249.065
42.06000 245.062
42.07000 241.339
42.08000 241.289
42.09000 242.376
42.10000 243.236
42.11000 242.405
42.12000 241.227
42.13000 240.235
42.14000 237.580
42.15000 235.186
42.16000 233.696
42.17000 235.045
42.18000 236.601
42.19000 236.355
42.20000 232.278
42.21000 228.076
42.22000 225.599
42.23000 228.516
42.24000 230.604
42.25000 231.991
42.26000 232.733
42.27000 233.427
42.28000 230.987
42.29000 226.650
42.30000 222.449
42.31000 227.187
42.32000 235.123
42.33000 242.266
42.34000 240.695
42.35000 236.727
42.36000 233.427
42.37000 234.481
42.38000 236.320
42.39000 237.833
42.40000 234.484
42.41000 231.287
42.42000 228.775
42.43000 228.182
42.44000 227.704
42.45000 227.648
42.46000 228.391
42.47000 229.154
42.48000 229.580
42.49000 234.526
42.50000 237.954
42.51000 238.542
42.52000 236.825
42.53000 235.143
42.54000 235.043
42.55000 235.795
42.56000 236.517
42.57000 237.268
42.58000 237.980
42.59000 238.537
42.60000 237.645
42.61000 236.398
42.62000 235.155
42.63000 233.934
42.64000 232.715
42.65000 231.738
42.66000 229.538
42.67000 227.664
42.68000 226.399
42.69000 226.662
42.70000 226.998
42.71000 228.791
42.72000 233.048
42.73000 237.344
42.74000 239.609
42.75000 243.217
42.76000 245.645
42.77000 244.814
42.78000 241.643
42.79000 238.482
42.80000 235.654
42.81000 232.986
42.82000 230.452
42.83000 229.826
42.84000 229.822
42.85000 229.912
42.86000 230.765
42.87000 231.782
42.88000 232.324
42.89000 230.490
42.90000 228.330
42.91000 226.642
42.92000 233.407
42.93000 239.338
42.94000 242.547
42.95000 239.673
42.96000 236.573
42.97000 233.023
42.98000 228.796
42.99000 224.563
43.00000 223.209
43.01000 224.668
43.02000 226.149
43.03000 229.417
43.04000 233.825
43.05000 237.985
43.06000 236.047
43.07000 231.491
43.08000 227.214
43.09000 223.138
43.10000 219.476
43.11000 217.090
43.12000 223.535
43.13000 231.667
43.14000 237.797
43.15000 235.076
43.16000 231.305
43.17000 228.445
43.18000 226.503
43.19000 225.025
43.20000 225.183
43.21000 228.606
43.22000 232.119
43.23000 232.878
43.24000 229.963
43.25000 227.032
43.26000 225.693
43.27000 225.721
43.28000 225.824
43.29000 229.942
43.30000 236.339
43.31000 242.345
43.32000 240.806
43.33000 236.371
43.34000 232.264
43.35000 232.438
43.36000 233.587
43.37000 234.877
43.38000 237.015
43.39000 239.295
43.40000 240.750
43.41000 238.968
43.42000 236.858
43.43000 235.308
43.44000 236.903
43.45000 238.265
43.46000 237.161
43.47000 231.666
43.48000 226.085
43.49000 221.861
43.50000 219.235
43.51000 216.618
43.52000 218.134
43.53000 222.753
43.54000 227.230
43.55000 226.489
43.56000 223.106
43.57000 219.882
43.58000 219.130
43.59000 219.223
43.60000 219.309
43.61000 221.590
43.62000 224.060
43.63000 225.924
43.64000 224.583
43.65000 222.773
43.66000 221.685
43.67000 223.112
43.68000 224.755
43.69000 225.922
43.70000 225.199
43.71000 224.589
43.72000 224.932
43.73000 226.785
43.74000 228.657
43.75000 230.592
43.76000 232.594
43.77000 234.584
43.78000 231.926
43.79000 226.218
43.80000 220.618
43.81000 217.992
43.82000 216.710
43.83000 215.784
43.84000 219.444
43.85000 224.504
43.86000 229.051
43.87000 232.192
43.88000 234.692
43.89000 235.648
43.90000 229.397
43.91000 222.232
43.92000 217.004
43.93000 217.792
43.94000 219.009
43.95000 219.841
43.96000 224.717
43.97000 228.463
43.98000 231.335
43.99000 232.976
44.00000 234.607
44.01000 234.504
44.02000 232.826
44.03000 231.164
44.04000 228.221
44.05000 224.590
44.06000 221.142
44.07000 221.613
44.08000 223.665
44.09000 225.624
44.10000 226.572
44.11000 227.245
44.12000 227.840
44.13000 229.775
44.14000 231.652
44.15000 233.475
44.16000 235.082
44.17000 236.666
44.18000 236.316
44.19000 230.612
44.20000 224.596
44.21000 220.643
44.22000 224.906
44.23000 228.183
44.24000 227.539
44.25000 222.010
44.26000 216.484
44.27000 216.456
44.28000 220.831
44.29000 225.141
44.30000 226.584
44.31000 226.502
44.32000 226.323
44.33000 224.468
44.34000 222.009
44.35000 220.034
44.36000 222.499
44.37000 226.035
44.38000 229.098
44.39000 228.226
44.40000 226.963
44.41000 226.550
44.42000 229.260
44.43000 232.258
44.44000 234.117
44.45000 233.159
44.46000 232.070
44.47000 231.385
44.48000 225.897
44.49000 221.874
44.50000 219.248
44.51000 218.154
44.52000 217.099
44.53000 221.349
44.54000 229.360
44.55000 237.202
44.56000 239.575
44.57000 239.360
44.58000 239.193
44.59000 239.722
44.60000 240.474
44.61000 241.106
44.62000 240.803
44.63000 240.300
44.64000 239.873
44.65000 243.942
44.66000 247.865
44.67000 250.171
44.68000 247.193
44.69000 243.806
44.70000 243.821
44.71000 251.350
44.72000 259.150
44.73000 263.828
44.74000 258.795
44.75000 255.157
44.76000 259.036
44.77000 270.154
44.78000 281.168
44.79000 283.982
44.80000 281.635
44.81000 279.355
44.82000 289.318
44.83000 303.716
44.84000 317.026
44.85000 317.685
44.86000 314.721
44.87000 313.905
44.88000 327.728
44.89000 344.308
44.90000 358.064
44.91000 369.064
44.92000 377.888
44.93000 388.371
44.94000 403.685
44.95000 419.309
44.96000 430.129
44.97000 431.480
44.98000 432.579
44.99000 433.204
45.00000 442.813
45.01000 449.550
45.02000 462.340
45.03000 480.256
45.04000 497.877
45.05000 500.503
45.06000 494.723
45.07000 489.157
45.08000 485.701
45.09000 483.206
45.10000 481.134
45.11000 483.220
45.12000 486.364
45.13000 487.418
45.14000 476.036
45.15000 462.598
45.16000 451.718
45.17000 439.119
45.18000 428.721
45.19000 418.806
45.20000 410.146
45.21000 401.551
45.22000 393.045
45.23000 384.697
45.24000 376.352
45.25000 371.864
45.26000 373.156
45.27000 374.008
45.28000 367.550
45.29000 355.623
45.30000 343.753
45.31000 333.911
45.32000 325.082
45.33000 316.666
45.34000 307.096
45.35000 297.859
45.36000 288.678
45.37000 279.969
45.38000 271.367
45.39000 264.908
45.40000 269.648
45.41000 276.002
45.42000 281.012
45.43000 275.879
45.44000 271.078
45.45000 266.423
45.46000 262.105
45.47000 257.801
45.48000 254.094
45.49000 251.324
45.50000 248.564
45.51000 247.170
45.52000 238.503
45.53000 232.721
45.54000 228.497
45.55000 225.309
45.56000 222.219
45.57000 221.756
45.58000 222.465
45.59000 223.134
45.60000 225.841
45.61000 228.882
45.62000 231.531
45.63000 231.340
45.64000 230.583
45.65000 229.810
45.66000 228.966
45.67000 228.114
45.68000 227.461
45.69000 227.074
45.70000 226.784
45.71000 224.890
45.72000 219.669
45.73000 214.347
45.74000 213.005
45.75000 217.194
45.76000 221.417
45.77000 222.299
45.78000 220.190
45.79000 218.090
45.80000 216.505
45.81000 215.224
45.82000 213.935
45.83000 212.494
45.84000 210.992
45.85000 209.594
45.86000 211.066
45.87000 213.094
45.88000 215.138
45.89000 217.295
45.90000 219.471
45.91000 219.889
45.92000 213.137
45.93000 205.618
45.94000 200.030
45.95000 204.898
45.96000 209.146
45.97000 211.333
45.98000 209.709
45.99000 208.000
46.00000 209.134
46.01000 213.763
46.02000 218.392
46.03000 217.955
46.04000 213.536
46.05000 209.237
46.06000 209.898
46.07000 213.168
46.08000 216.248
46.09000 216.157
46.10000 214.938
46.11000 213.820
46.12000 210.533
46.13000 207.143
46.14000 204.754
46.15000 207.909
46.16000 211.914
46.17000 215.062
46.18000 215.101
46.19000 214.858
46.20000 214.684
46.21000 212.793
46.22000 211.286
46.23000 211.021
46.24000 212.803
46.25000 214.615
46.26000 214.245
46.27000 211.512
46.28000 208.790
46.29000 207.506
46.30000 207.232
46.31000 206.991
46.32000 207.768
46.33000 209.024
46.34000 210.049
46.35000 207.930
46.36000 204.813
46.37000 201.997
46.38000 204.003
46.39000 206.661
46.40000 208.849
46.41000 208.749
46.42000 208.345
46.43000 208.190
46.44000 208.843
46.45000 209.558
46.46000 210.054
46.47000 205.094
46.48000 201.217
46.49000 200.891
46.50000 205.769
46.51000 210.693
46.52000 213.636
46.53000 214.700
46.54000 215.755
46.55000 213.386
46.56000 208.970
46.57000 204.670
46.58000 203.080
46.59000 202.627
46.60000 202.285
46.61000 203.214
46.62000 204.503
46.63000 205.649
46.64000 205.164
46.65000 204.482
46.66000 204.498
46.67000 207.526
46.68000 210.899
46.69000 212.401
46.70000 208.519
46.71000 204.300
46.72000 201.488
46.73000 200.096
46.74000 199.092
46.75000 199.201
46.76000 200.756
46.77000 202.312
46.78000 201.993
46.79000 200.106
46.80000 198.244
46.81000 197.436
46.82000 197.218
46.83000 197.091
46.84000 198.634
46.85000 200.803
46.86000 202.523
46.87000 199.896
46.88000 196.176
46.89000 192.932
46.90000 201.349
46.91000 210.169
46.92000 215.474
46.93000 207.352
46.94000 197.916
46.95000 191.723
46.96000 193.862
46.97000 196.421
46.98000 198.056
46.99000 196.940
47.00000 196.093
47.01000 194.921
47.02000 193.378
47.03000 191.836
47.04000 190.562
47.05000 189.486
47.06000 188.430
47.07000 189.731
47.08000 192.107
47.09000 194.380
47.10000 195.112
47.11000 195.329
47.12000 195.368
47.13000 193.941
47.14000 192.187
47.15000 190.688
47.16000 194.463
47.17000 198.276
47.18000 199.899
47.19000 194.080
47.20000 187.647
47.21000 183.467
47.22000 184.458
47.23000 185.654
47.24000 186.382
47.25000 181.816
47.26000 178.510
47.27000 182.017
47.28000 192.383
47.29000 202.621
47.30000 200.705
47.31000 190.827
47.32000 181.205
47.33000 182.266
47.34000 187.769
47.35000 192.758
47.36000 191.384
47.37000 188.116
47.38000 185.768
47.39000 189.988
47.40000 195.501
47.41000 200.110
47.42000 201.823
47.43000 202.951
47.44000 204.163
47.45000 205.636
47.46000 207.126
47.47000 205.593
47.48000 197.867
47.49000 189.958
47.50000 185.372
47.51000 179.285
47.52000 175.015
47.53000 177.610
47.54000 186.272
47.55000 194.841
47.56000 197.949
47.57000 197.873
47.58000 197.799
47.59000 195.235
47.60000 191.893
47.61000 189.218
47.62000 193.479
47.63000 199.579
47.64000 204.364
47.65000 200.969
47.66000 196.160
47.67000 192.233
47.68000 190.789
47.69000 189.821
47.70000 190.083
47.71000 193.668
47.72000 197.438
47.73000 199.027
47.74000 196.630
47.75000 194.148
47.76000 192.787
47.77000 192.668
47.78000 192.589
47.79000 192.875
47.80000 193.444
47.81000 194.001
47.82000 194.075
47.83000 193.898
47.84000 193.728
47.85000 195.016
47.86000 196.692
47.87000 198.160
47.88000 197.796
47.89000 197.000
47.90000 195.737
47.91000 191.924
47.92000 187.727
47.93000 184.386
47.94000 186.296
47.95000 188.214
47.96000 188.754
47.97000 185.967
47.98000 183.033
47.99000 183.162
48.00000 188.278
48.01000 193.464
48.02000 196.142
48.03000 191.747
48.04000 188.779
48.05000 185.183
48.06000 181.153
48.07000 177.315
48.08000 179.134
48.09000 183.577
48.10000 187.780
48.11000 188.773
48.12000 188.760
48.13000 187.951
48.14000 181.072
48.15000 172.930
48.16000 167.015
48.17000 171.802
48.18000 177.992
48.19000 182.783
48.20000 183.646
48.21000 184.098
48.22000 183.877
48.23000 182.207
48.24000 180.488
48.25000 180.201
48.26000 181.987
48.27000 183.790
48.28000 185.266
48.29000 186.436
48.30000 187.608
48.31000 188.888
48.32000 190.236
48.33000 191.423
48.34000 188.992
48.35000 185.061
48.36000 181.387
48.37000 184.040
48.38000 188.053
48.39000 191.229
48.40000 188.879
48.41000 185.516
48.42000 183.312
48.43000 186.036
48.44000 189.316
48.45000 191.780
48.46000 192.573
48.47000 193.114
48.48000 193.159
48.49000 192.250
48.50000 191.318
48.51000 190.564
48.52000 190.037
48.53000 189.512
48.54000 186.641
48.55000 181.854
48.56000 177.176
48.57000 177.601
48.58000 180.816
48.59000 183.851
48.60000 183.676
48.61000 182.312
48.62000 181.055
48.63000 183.329
48.64000 186.150
48.65000 188.255
48.66000 186.210
48.67000 183.500
48.68000 181.612
48.69000 182.826
48.70000 184.338
48.71000 185.437
48.72000 186.913
48.73000 188.063
48.74000 186.806
48.75000 181.421
48.76000 175.965
48.77000 174.532
48.78000 177.648
48.79000 180.758
48.80000 183.194
48.81000 185.123
48.82000 186.923
48.83000 184.404
48.84000 179.779
48.85000 175.382
48.86000 174.330
48.87000 174.382
48.88000 174.429
48.89000 172.626
48.90000 170.674
48.91000 169.567
48.92000 172.750
48.93000 176.533
48.94000 179.031
48.95000 177.214
48.96000 175.047
48.97000 173.527
48.98000 181.898
48.99000 188.522
49.00000 190.046
49.01000 183.788
49.02000 177.448
49.03000 175.360
49.04000 177.491
49.05000 179.608
49.06000 181.204
49.07000 182.445
49.08000 183.656
49.09000 184.111
49.10000 184.237
49.11000 184.403
49.12000 185.061
49.13000 185.862
49.14000 186.579
49.15000 185.487
49.16000 184.229
49.17000 183.721
49.18000 186.573
49.19000 189.832
49.20000 192.162
49.21000 191.713
49.22000 191.078
49.23000 190.649
49.24000 185.021
49.25000 180.720
49.26000 179.972
49.27000 184.034
49.28000 188.118
49.29000 189.382
49.30000 188.188
49.31000 187.008
49.32000 186.897
49.33000 187.392
49.34000 187.786
49.35000 186.191
49.36000 183.824
49.37000 181.286
49.38000 177.017
49.39000 172.294
49.40000 168.148
49.41000 173.402
49.42000 179.292
49.43000 183.772
49.44000 182.645
49.45000 180.939
49.46000 178.967
49.47000 176.287
49.48000 173.569
49.49000 171.808
49.50000 169.616
49.51000 168.005
49.52000 167.314
49.53000 167.722
49.54000 168.146
49.55000 171.813
49.56000 177.975
49.57000 184.034
49.58000 183.131
49.59000 178.801
49.60000 174.736
49.61000 174.883
49.62000 176.493
49.63000 178.288
49.64000 181.697
49.65000 185.480
49.66000 188.737
49.67000 179.511
49.68000 170.124
49.69000 163.461
49.70000 166.427
49.71000 170.235
49.72000 172.137
49.73000 169.495
49.74000 166.657
49.75000 164.899
49.76000 166.663
49.77000 167.966
49.78000 169.271
49.79000 170.577
49.80000 171.916
49.81000 176.932
49.82000 184.454
49.83000 191.800
49.84000 186.260
49.85000 175.308
49.86000 165.158
49.87000 165.544
49.88000 169.193
49.89000 173.086
49.90000 178.805
49.91000 184.898
49.92000 190.033
49.93000 185.716
49.94000 181.094
49.95000 178.256
49.96000 181.030
49.97000 184.214
49.98000 185.801
49.99000 183.988
50.00000 182.063
50.01000 180.928
50.02000 190.570
50.03000 197.433
50.04000 196.329
50.05000 187.872
50.06000 179.529
50.07000 178.889
50.08000 182.921
50.09000 186.826
50.10000 185.420
50.11000 182.032
50.12000 178.973
50.13000 179.530
50.14000 181.083
50.15000 182.035
50.16000 179.064
50.17000 175.385
50.18000 172.355
50.19000 179.972
50.20000 187.207
50.21000 192.129
50.22000 190.551
50.23000 188.583
50.24000 187.581
50.25000 188.412
50.26000 189.287
50.27000 189.776
50.28000 187.060
50.29000 185.177
50.30000 185.679
50.31000 188.121
50.32000 190.496
50.33000 189.836
50.34000 187.536
50.35000 185.329
50.36000 188.151
50.37000 192.507
50.38000 196.457
50.39000 196.606
50.40000 195.824
50.41000 195.677
50.42000 199.149
50.43000 203.193
50.44000 206.440
50.45000 207.969
50.46000 209.076
50.47000 211.032
50.48000 215.115
50.49000 219.299
50.50000 223.113
50.51000 226.298
50.52000 229.472
50.53000 231.147
50.54000 233.840
50.55000 235.681
50.56000 239.494
50.57000 244.724
50.58000 250.001
50.59000 256.758
50.60000 264.228
50.61000 271.324
50.62000 274.028
50.63000 275.202
50.64000 276.904
50.65000 282.838
50.66000 289.689
50.67000 295.668
50.68000 297.267
50.69000 298.264
50.70000 299.044
50.71000 298.129
50.72000 297.293
50.73000 295.786
50.74000 292.777
50.75000 289.712
50.76000 287.133
50.77000 285.288
50.78000 283.450
50.79000 283.115
50.80000 284.250
50.81000 285.310
50.82000 280.053
50.83000 270.763
50.84000 261.737
50.85000 259.235
50.86000 259.541
50.87000 259.827
50.88000 254.058
50.89000 247.194
50.90000 240.914
50.91000 238.692
50.92000 237.247
50.93000 234.662
50.94000 227.034
50.95000 218.807
50.96000 212.563
50.97000 207.059
50.98000 202.772
50.99000 199.927
51.00000 199.961
51.01000 200.076
51.02000 200.861
51.03000 202.542
51.04000 204.226
51.05000 203.182
51.06000 199.799
51.07000 196.440
51.08000 194.311
51.09000 192.882
51.10000 191.487
51.11000 190.743
51.12000 190.250
51.13000 189.793
51.14000 190.501
51.15000 191.408
51.16000 190.984
51.17000 182.504
51.18000 172.672
51.19000 165.290
51.20000 167.532
51.21000 170.752
51.22000 173.120
51.23000 167.688
51.24000 163.166
51.25000 161.650
51.26000 165.494
51.27000 169.443
51.28000 171.788
51.29000 172.238
51.30000 172.684
51.31000 175.526
51.32000 180.158
51.33000 184.646
51.34000 183.783
51.35000 180.205
51.36000 176.898
51.37000 177.806
51.38000 180.159
51.39000 182.309
51.40000 182.994
51.41000 183.304
51.42000 183.133
51.43000 180.409
51.44000 177.310
51.45000 173.912
51.46000 169.464
51.47000 164.927
51.48000 161.704
51.49000 162.105
51.50000 162.526
51.51000 164.560
51.52000 169.154
51.53000 173.781
51.54000 172.521
51.55000 165.150
51.56000 157.820
51.57000 156.157
51.58000 158.282
51.59000 160.371
51.60000 161.461
51.61000 162.099
51.62000 162.813
51.63000 164.517
51.64000 166.522
51.65000 168.325
51.66000 164.672
51.67000 160.507
51.68000 157.456
51.69000 159.624
51.70000 162.455
51.71000 164.367
51.72000 163.421
51.73000 162.271
51.74000 161.483
51.75000 160.439
51.76000 159.651
51.77000 160.128
51.78000 162.388
51.79000 164.660
51.80000 164.327
51.81000 161.621
51.82000 158.941
51.83000 158.460
51.84000 159.278
51.85000 160.115
51.86000 161.374
51.87000 162.804
51.88000 164.056
51.89000 163.392
51.90000 162.207
51.91000 161.159
51.92000 159.656
51.93000 158.288
51.94000 157.314
51.95000 157.977
51.96000 158.819
51.97000 160.256
51.98000 163.346
51.99000 166.532
52.00000 168.626
52.01000 164.347
52.02000 161.088
52.03000 158.720
52.04000 157.464
52.05000 156.227
52.06000 160.010
52.07000 167.822
52.08000 175.517
52.09000 173.532
52.10000 166.593
52.11000 160.037
52.12000 160.022
52.13000 162.367
52.14000 164.488
52.15000 164.547
52.16000 164.109
52.17000 163.728
52.18000 164.003
52.19000 164.324
52.20000 164.261
52.21000 162.788
52.22000 161.184
52.23000 160.691
52.24000 162.951
52.25000 165.339
52.26000 166.842
52.27000 169.774
52.28000 171.911
52.29000 168.210
52.30000 158.084
52.31000 148.013
52.32000 146.170
52.33000 150.171
52.34000 154.088
52.35000 157.501
52.36000 160.549
52.37000 163.418
52.38000 163.789
52.39000 163.355
52.40000 163.364
52.41000 166.867
52.42000 171.118
52.43000 174.726
52.44000 172.883
52.45000 170.718
52.46000 168.230
52.47000 164.688
52.48000 161.064
52.49000 158.592
52.50000 158.668
52.51000 158.837
52.52000 158.938
52.53000 166.281
52.54000 171.546
52.55000 170.080
52.56000 162.119
52.57000 154.197
52.58000 149.287
52.59000 146.278
52.60000 143.354
52.61000 145.007
52.62000 148.426
52.63000 151.886
52.64000 155.834
52.65000 159.922
52.66000 163.490
52.67000 163.515
52.68000 162.872
52.69000 162.338
52.70000 164.297
52.71000 166.157
52.72000 167.206
52.73000 165.883
52.74000 164.409
52.75000 162.572
52.76000 160.019
52.77000 157.447
52.78000 155.981
52.79000 162.100
52.80000 166.381
52.81000 165.056
52.82000 158.977
52.83000 152.974
52.84000 150.931
52.85000 151.110
52.86000 151.283
52.87000 153.940
52.88000 157.319
52.89000 160.370
52.90000 160.191
52.91000 159.188
52.92000 158.293
52.93000 158.037
52.94000 157.887
52.95000 157.765
52.96000 162.193
52.97000 166.169
52.98000 168.322
52.99000 165.729
53.00000 162.889
53.01000 161.913
53.02000 164.218
53.03000 166.585
53.04000 167.859
53.05000 169.402
53.06000 170.430
53.07000 166.314
53.08000 158.342
53.09000 150.566
53.10000 149.905
53.11000 152.806
53.12000 155.573
53.13000 159.699
53.14000 163.954
53.15000 167.883
53.16000 169.058
53.17000 169.610
53.18000 169.475
53.19000 165.739
53.20000 161.482
53.21000 158.124
53.22000 161.765
53.23000 165.158
53.24000 167.086
53.25000 165.607
53.26000 163.989
53.27000 164.093
53.28000 166.897
53.29000 169.733
53.30000 171.167
53.31000 170.723
53.32000 170.399
53.33000 167.271
53.34000 162.281
53.35000 157.483
53.36000 157.836
53.37000 160.493
53.38000 162.998
53.39000 167.931
53.40000 173.121
53.41000 177.076
53.42000 172.042
53.43000 165.212
53.44000 159.820
53.45000 161.060
53.46000 163.129
53.47000 164.715
53.48000 165.030
53.49000 165.209
53.50000 165.834
53.51000 167.388
53.52000 168.971
53.53000 170.004
53.54000 170.272
53.55000 170.535
53.56000 171.079
53.57000 171.874
53.58000 172.643
53.59000 171.840
53.60000 170.106
53.61000 168.386
53.62000 166.947
53.63000 165.620
53.64000 164.385
53.65000 162.976
53.66000 161.661
53.67000 160.717
53.68000 162.121
53.69000 163.938
53.70000 165.929
53.71000 168.633
53.72000 171.415
53.73000 173.482
53.74000 169.611
53.75000 166.337
53.76000 162.506
53.77000 157.644
53.78000 152.758
53.79000 150.827
53.80000 152.535
53.81000 154.249
53.82000 155.730
53.83000 157.019
53.84000 158.344
53.85000 161.189
53.86000 164.833
53.87000 168.280
53.88000 168.413
53.89000 167.365
53.90000 166.402
53.91000 158.916
53.92000 150.852
53.93000 144.452
53.94000 147.280
53.95000 151.527
53.96000 156.047
53.97000 161.566
53.98000 167.176
53.99000 171.210
54.00000 167.403
54.01000 164.216
54.02000 162.363
54.03000 162.711
54.04000 163.092
54.05000 164.120
54.06000 165.852
54.07000 167.576
54.08000 165.490
54.09000 160.783
54.10000 156.215
54.11000 155.887
54.12000 157.552
54.13000 159.304
54.14000 162.259
54.15000 165.596
54.16000 168.611
54.17000 164.505
54.18000 159.569
54.19000 155.897
54.20000 158.393
54.21000 161.713
54.22000 164.035
54.23000 163.132
54.24000 161.982
54.25000 161.185
54.26000 163.264
54.27000 164.906
54.28000 164.784
54.29000 162.071
54.30000 159.336
54.31000 157.831
54.32000 157.495
54.33000 157.162
54.34000 154.452
54.35000 150.336
54.36000 146.462
54.37000 148.238
54.38000 152.386
54.39000 156.243
54.40000 156.763
54.41000 156.338
54.42000 155.960
54.43000 157.748
54.44000 159.650
54.45000 161.031
54.46000 160.171
54.47000 159.053
54.48000 157.653
54.49000 155.442
54.50000 153.180
54.51000 151.672
54.52000 152.553
54.53000 153.252
54.54000 153.264
54.55000 152.381
54.56000 151.501
54.57000 153.643
54.58000 158.315
54.59000 162.926
54.60000 160.161
54.61000 153.487
54.62000 147.072
54.63000 145.445
54.64000 145.613
54.65000 146.133
54.66000 150.067
54.67000 154.861
54.68000 159.043
54.69000 155.697
54.70000 151.784
54.71000 149.387
54.72000 152.788
54.73000 156.758
54.74000 159.588
54.75000 159.484
54.76000 159.231
54.77000 159.070
54.78000 161.508
54.79000 163.316
54.80000 161.563
54.81000 155.718
54.82000 149.902
54.83000 150.202
54.84000 155.027
54.85000 159.760
54.86000 159.982
54.87000 158.046
54.88000 156.346
54.89000 158.180
54.90000 161.198
54.91000 163.354
54.92000 158.374
54.93000 151.801
54.94000 146.181
54.95000 153.755
54.96000 161.722
54.97000 167.291
54.98000 164.697
54.99000 161.428
55.00000 158.237
55.01000 155.223
55.02000 152.217
55.03000 150.383
55.04000 159.725
55.05000 166.495
55.06000 166.078
55.07000 158.409
55.08000 150.799
55.09000 148.724
55.10000 150.281
55.11000 151.798
55.12000 154.205
55.13000 156.875
55.14000 159.405
55.15000 160.197
55.16000 160.469
55.17000 160.655
55.18000 160.216
55.19000 159.655
55.20000 159.185
55.21000 161.641
55.22000 163.979
55.23000 166.177
55.24000 167.950
55.25000 169.693
55.26000 171.519
55.27000 173.516
55.28000 175.518
55.29000 176.680
55.30000 171.951
55.31000 168.607
55.32000 165.053
55.33000 161.313
55.34000 157.636
55.35000 157.680
55.36000 159.896
55.37000 162.037
55.38000 167.293
55.39000 173.406
55.40000 179.002
55.41000 179.219
55.42000 178.007
55.43000 176.755
55.44000 175.250
55.45000 173.702
55.46000 172.437
55.47000 177.844
55.48000 182.846
55.49000 186.028
55.50000 184.285
55.51000 182.267
55.52000 185.159
55.53000 197.040
55.54000 209.113
55.55000 215.743
55.56000 216.108
55.57000 216.352
55.58000 217.395
55.59000 219.061
55.60000 220.821
55.61000 226.380
55.62000 233.916
55.63000 241.126
55.64000 247.575
55.65000 253.332
55.66000 260.214
55.67000 277.071
55.68000 296.279
55.69000 314.311
55.70000 325.917
55.71000 336.551
55.72000 345.018
55.73000 361.009
55.74000 374.445
55.75000 389.766
55.76000 409.642
55.77000 429.720
55.78000 448.126
55.79000 463.803
55.80000 479.442
55.81000 487.527
55.82000 525.746
55.83000 551.425
55.84000 565.680
55.85000 572.029
55.86000 578.680
55.87000 594.244
55.88000 613.948
55.89000 632.597
55.90000 645.975
55.91000 656.758
55.92000 665.906
55.93000 662.568
55.94000 656.628
55.95000 650.639
55.96000 644.415
55.97000 638.159
55.98000 633.316
55.99000 628.949
56.00000 625.511
56.01000 620.951
56.02000 613.972
56.03000 606.910
56.04000 596.910
56.05000 582.650
56.06000 568.356
56.07000 547.486
56.08000 520.458
56.09000 493.642
56.10000 482.027
56.11000 479.759
56.12000 476.801
56.13000 458.195
56.14000 433.096
56.15000 409.629
56.16000 395.241
56.17000 384.483
56.18000 373.064
56.19000 357.270
56.20000 340.672
56.21000 325.629
56.22000 317.205
56.23000 309.530
56.24000 303.763
56.25000 286.342
56.26000 272.162
56.27000 261.055
56.28000 255.867
56.29000 250.827
56.30000 243.766
56.31000 234.109
56.32000 224.454
56.33000 216.018
56.34000 208.613
56.35000 201.337
56.36000 200.138
56.37000 202.269
56.38000 204.162
56.39000 201.798
56.40000 197.856
56.41000 194.220
56.42000 184.960
56.43000 175.412
56.44000 167.406
56.45000 168.337
56.46000 170.706
56.47000 172.532
56.48000 172.307
56.49000 171.883
56.50000 171.576
56.51000 170.902
56.52000 170.369
56.53000 168.467
56.54000 164.211
56.55000 159.915
56.56000 156.357
56.57000 153.634
56.58000 150.921
56.59000 151.087
56.60000 153.334
56.61000 155.564
56.62000 157.223
56.63000 158.603
56.64000 159.753
56.65000 157.551
56.66000 154.240
56.67000 151.232
56.68000 152.887
56.69000 155.257
56.70000 157.517
56.71000 159.213
56.72000 160.831
56.73000 162.501
56.74000 164.344
56.75000 166.201
56.76000 167.506
56.77000 164.899
56.78000 162.812
56.79000 161.875
56.80000 162.696
56.81000 163.536
56.82000 164.123
56.83000 164.459
56.84000 164.794
56.85000 161.049
56.86000 154.760
56.87000 148.711
56.88000 148.773
56.89000 151.500
56.90000 153.736
56.91000 149.996
56.92000 144.497
56.93000 139.581
56.94000 140.497
56.95000 142.284
56.96000 143.538
56.97000 142.399
56.98000 140.969
56.99000 140.466
57.00000 142.737
57.01000 145.195
57.02000 146.856
57.03000 148.408
57.04000 149.562
57.05000 148.341
57.06000 143.900
57.07000 139.447
57.08000 140.598
57.09000 146.644
57.10000 152.623
57.11000 155.276
57.12000 155.994
57.13000 156.676
57.14000 156.640
57.15000 156.322
57.16000 155.780
57.17000 152.934
57.18000 149.485
57.19000 146.456
57.20000 145.285
57.21000 144.551
57.22000 143.132
57.23000 138.982
57.24000 134.550
57.25000 132.008
57.26000 134.522
57.27000 137.312
57.28000 139.122
57.29000 142.220
57.30000 144.507
57.31000 146.138
57.32000 146.981
57.33000 147.828
57.34000 149.830
57.35000 152.724
57.36000 155.569
57.37000 154.031
57.38000 150.365
57.39000 146.815
57.40000 145.118
57.41000 144.065
57.42000 143.425
57.43000 146.386
57.44000 150.185
57.45000 153.455
57.46000 153.579
57.47000 153.287
57.48000 152.515
57.49000 150.043
57.50000 147.422
57.51000 144.482
57.52000 140.780
57.53000 137.044
57.54000 134.728
57.55000 142.007
57.56000 147.337
57.57000 147.832
57.58000 143.227
57.59000 138.667
57.60000 139.436
57.61000 143.845
57.62000 148.151
57.63000 151.211
57.64000 153.592
57.65000 155.819
57.66000 156.006
57.67000 155.561
57.68000 155.137
57.69000 154.869
57.70000 154.634
57.71000 154.435
57.72000 149.952
57.73000 145.747
57.74000 142.290
57.75000 141.192
57.76000 140.266
57.77000 140.933
57.78000 144.996
57.79000 149.171
57.80000 151.636
57.81000 146.153
57.82000 142.238
57.83000 141.373
57.84000 143.329
57.85000 145.255
57.86000 145.150
57.87000 143.813
57.88000 142.518
57.89000 142.537
57.90000 143.066
57.91000 143.512
57.92000 143.052
57.93000 142.341
57.94000 141.995
57.95000 144.028
57.96000 146.492
57.97000 148.521
57.98000 147.731
57.99000 146.824
58.00000 145.910
58.01000 144.976
58.02000 144.042
58.03000 142.917
58.04000 141.428
58.05000 139.930
58.06000 139.092
58.07000 140.697
58.08000 141.809
58.09000 140.305
58.10000 136.670
58.11000 133.116
58.12000 133.185
58.13000 135.214
58.14000 137.163
58.15000 139.732
58.16000 142.348
58.17000 144.979
58.18000 147.755
58.19000 150.568
58.20000 152.588
58.21000 150.089
58.22000 146.874
58.23000 144.291
58.24000 138.257
58.25000 133.102
58.26000 130.725
58.27000 135.325
58.28000 140.260
58.29000 142.731
58.30000 141.022
58.31000 139.244
58.32000 138.305
58.33000 147.842
58.34000 154.271
58.35000 152.699
58.36000 145.359
58.37000 138.086
58.38000 132.998
58.39000 128.964
58.40000 125.132
58.41000 129.924
58.42000 136.951
58.43000 143.273
58.44000 143.934
58.45000 143.364
58.46000 143.557
58.47000 147.574
58.48000 152.119
58.49000 155.672
58.50000 147.274
58.51000 139.813
58.52000 134.903
58.53000 135.717
58.54000 136.744
58.55000 137.329
58.56000 137.245
58.57000 137.154
58.58000 138.125
58.59000 140.136
58.60000 142.130
58.61000 142.601
58.62000 142.098
58.63000 141.552
58.64000 139.967
58.65000 137.934
58.66000 136.025
58.67000 139.442
58.68000 143.973
58.69000 147.564
58.70000 144.632
58.71000 140.449
58.72000 137.487
58.73000 139.941
58.74000 143.041
58.75000 145.394
58.76000 142.250
58.77000 139.494
58.78000 138.130
58.79000 139.553
58.80000 141.054
58.81000 142.439
58.82000 143.671
58.83000 144.901
58.84000 146.416
58.85000 148.173
58.86000 149.884
58.87000 149.101
58.88000 146.898
58.89000 144.587
58.90000 140.169
58.91000 134.940
58.92000 130.094
58.93000 128.248
58.94000 127.284
58.95000 126.873
58.96000 129.802
58.97000 133.295
58.98000 135.829
58.99000 134.597
59.00000 132.981
59.01000 131.793
59.02000 133.161
59.03000 134.325
59.04000 134.865
59.05000 134.293
59.06000 133.700
59.07000 133.265
59.08000 133.020
59.09000 132.775
59.10000 132.230
59.11000 131.463
59.12000 130.756
59.13000 132.325
59.14000 135.051
59.15000 137.727
59.16000 139.631
59.17000 141.269
59.18000 142.765
59.19000 142.856
59.20000 142.651
59.21000 142.323
59.22000 141.350
59.23000 140.283
59.24000 139.391
59.25000 139.118
59.26000 138.897
59.27000 138.741
59.28000 138.649
59.29000 138.582
59.30000 138.454
59.31000 138.230
59.32000 138.004
59.33000 136.523
59.34000 133.735
59.35000 130.962
59.36000 130.708
59.37000 132.134
59.38000 133.494
59.39000 133.031
59.40000 131.741
59.41000 130.692
59.42000 132.750
59.43000 135.761
59.44000 138.468
59.45000 139.516
59.46000 140.140
59.47000 139.908
59.48000 135.668
59.49000 130.917
59.50000 129.366
59.51000 137.778
59.52000 146.906
59.53000 153.159
59.54000 147.619
59.55000 143.188
59.56000 138.858
59.57000 134.670
59.58000 130.486
59.59000 129.585
59.60000 131.680
59.61000 133.755
59.62000 133.599
59.63000 132.135
59.64000 130.631
59.65000 128.239
59.66000 125.488
59.67000 123.404
59.68000 128.531
59.69000 135.624
59.70000 141.891
59.71000 139.796
59.72000 136.699
59.73000 134.543
59.74000 136.295
59.75000 138.474
59.76000 139.034
59.77000 135.091
59.78000 130.883
59.79000 128.115
59.80000 137.122
59.81000 143.955
59.82000 144.985
59.83000 138.758
59.84000 132.517
59.85000 129.075
59.86000 127.883
59.87000 126.709
59.88000 128.477
59.89000 131.719
59.90000 134.844
59.91000 135.937
59.92000 136.297
59.93000 136.541
59.94000 135.710
59.95000 134.618
59.96000 133.673
59.97000 132.825
59.98000 132.116
59.99000 131.133
60.00000 129.134
60.01000 127.041
60.02000 126.777
60.03000 131.051
60.04000 135.538
60.05000 138.364
60.06000 133.286
60.07000 129.521
60.08000 129.579
60.09000 133.851
60.10000 138.097
60.11000 138.291
60.12000 135.602
60.13000 132.969
60.14000 130.676
60.15000 128.629
60.16000 126.935
60.17000 130.207
60.18000 135.080
60.19000 139.262
60.20000 137.983
60.21000 135.533
60.22000 133.453
60.23000 136.014
60.24000 138.692
60.25000 140.592
60.26000 139.939
60.27000 139.087
60.28000 137.512
60.29000 134.333
60.30000 131.097
60.31000 129.153
60.32000 139.137
60.33000 146.313
60.34000 147.865
60.35000 143.982
60.36000 140.117
60.37000 137.774
60.38000 136.392
60.39000 135.050
60.40000 131.976
60.41000 128.356
60.42000 125.167
60.43000 127.034
60.44000 130.352
60.45000 133.488
60.46000 135.376
60.47000 137.029
60.48000 138.400
60.49000 138.611
60.50000 138.673
60.51000 138.199
60.52000 136.157
60.53000 134.014
60.54000 132.632
60.55000 132.756
60.56000 132.920
60.57000 133.014
60.58000 138.521
60.59000 142.371
60.60000 141.218
60.61000 135.813
60.62000 130.516
60.63000 130.800
60.64000 134.224
60.65000 137.521
60.66000 138.851
60.67000 139.398
60.68000 139.898
60.69000 139.945
60.70000 139.876
60.71000 139.479
60.72000 137.129
60.73000 134.455
60.74000 132.289
60.75000 137.354
60.76000 142.069
60.77000 143.839
60.78000 137.923
60.79000 131.607
60.80000 128.241
60.81000 130.078
60.82000 132.014
60.83000 133.057
60.84000 129.744
60.85000 127.488
60.86000 127.766
60.87000 129.947
60.88000 132.129
60.89000 134.331
60.90000 136.543
60.91000 138.652
60.92000 135.151
60.93000 130.136
60.94000 125.581
60.95000 124.913
60.96000 125.124
60.97000 126.201
60.98000 131.810
60.99000 138.075
61.00000 143.019
61.01000 139.677
61.02000 136.434
61.03000 135.045
61.04000 137.977
61.05000 141.085
61.06000 142.921
61.07000 142.761
61.08000 142.576
61.09000 142.482
61.10000 149.069
61.11000 153.411
61.12000 150.936
61.13000 143.921
61.14000 137.143
61.15000 136.762
61.16000 139.246
61.17000 141.588
61.18000 141.045
61.19000 139.748
61.20000 138.757
61.21000 139.999
61.22000 141.687
61.23000 142.509
61.24000 139.325
61.25000 135.640
61.26000 132.813
61.27000 138.967
61.28000 144.328
61.29000 146.341
61.30000 141.387
61.31000 136.216
61.32000 133.049
61.33000 132.676
61.34000 132.321
61.35000 134.434
61.36000 138.762
61.37000 143.037
61.38000 144.038
61.39000 143.101
61.40000 142.037
61.41000 138.326
61.42000 133.556
61.43000 129.115
61.44000 135.637
61.45000 144.203
61.46000 151.687
61.47000 152.307
61.48000 151.719
61.49000 150.884
61.50000 149.040
61.51000 147.087
61.52000 145.634
61.53000 160.448
61.54000 172.697
61.55000 183.977
61.56000 193.461
61.57000 202.905
61.58000 217.187
61.59000 237.436
61.60000 257.665
61.61000 272.972
61.62000 284.321
61.63000 295.512
61.64000 300.036
61.65000 301.041
61.66000 302.294
61.67000 307.699
61.68000 314.586
61.69000 320.909
61.70000 322.102
61.71000 322.071
61.72000 323.065
61.73000 329.751
61.74000 337.314
61.75000 341.370
61.76000 332.672
61.77000 322.810
61.78000 315.715
61.79000 301.789
61.80000 290.890
61.81000 276.276
61.82000 255.518
61.83000 234.667
61.84000 216.839
61.85000 202.296
61.86000 187.818
61.87000 178.748
61.88000 173.529
61.89000 168.239
61.90000 160.720
61.91000 152.153
61.92000 144.198
61.93000 144.669
61.94000 147.825
61.95000 150.678
61.96000 150.834
61.97000 150.469
61.98000 150.422
61.99000 151.926
62.00000 153.638
62.01000 154.027
62.02000 150.132
62.03000 145.910
62.04000 142.980
62.05000 150.112
62.06000 155.751
62.07000 156.407
62.08000 149.734
62.09000 142.996
62.10000 140.331
62.11000 141.546
62.12000 142.751
62.13000 144.164
62.14000 145.678
62.15000 147.111
62.16000 146.622
62.17000 145.326
62.18000 143.990
62.19000 142.200
62.20000 140.281
62.21000 138.576
62.22000 135.460
62.23000 132.528
62.24000 131.444
62.25000 138.343
62.26000 146.164
62.27000 150.880
62.28000 146.633
62.29000 141.820
62.30000 138.610
62.31000 137.138
62.32000 136.081
62.33000 137.473
62.34000 142.058
62.35000 146.650
62.36000 148.048
62.37000 146.768
62.38000 145.504
62.39000 143.771
62.40000 141.831
62.41000 139.894
62.42000 138.021
62.43000 136.172
62.44000 134.562
62.45000 135.271
62.46000 136.565
62.47000 137.694
62.48000 141.679
62.49000 145.488
62.50000 147.235
62.51000 141.081
62.52000 134.150
62.53000 130.369
62.54000 134.707
62.55000 139.457
62.56000 142.494
62.57000 143.142
62.58000 143.583
62.59000 144.718
62.60000 146.653
62.61000 148.580
62.62000 148.783
62.63000 147.709
62.64000 146.654
62.65000 146.421
62.66000 146.588
62.67000 146.707
62.68000 146.089
62.69000 145.225
62.70000 144.410
62.71000 144.011
62.72000 143.705
62.73000 143.443
62.74000 143.808
62.75000 144.191
62.76000 143.620
62.77000 139.801
62.78000 135.712
62.79000 133.357
62.80000 134.993
62.81000 136.788
62.82000 137.883
62.83000 141.660
62.84000 144.382
62.85000 144.150
62.86000 140.929
62.87000 137.729
62.88000 136.489
62.89000 136.537
62.90000 136.584
62.91000 135.973
62.92000 135.113
62.93000 134.410
62.94000 135.672
62.95000 137.521
62.96000 139.381
62.97000 141.328
62.98000 143.293
62.99000 144.936
63.00000 147.463
63.01000 149.652
63.02000 149.935
63.03000 144.423
63.04000 138.511
63.05000 136.736
63.06000 143.461
63.07000 150.442
63.08000 154.496
63.09000 153.377
63.10000 152.571
63.11000 153.781
63.12000 156.781
63.13000 159.718
63.14000 159.006
63.15000 156.159
63.16000 153.408
63.17000 153.319
63.18000 154.227
63.19000 154.990
63.20000 154.239
63.21000 153.086
63.22000 152.339
63.23000 154.123
63.24000 156.347
63.25000 158.164
63.26000 155.026
63.27000 152.027
63.28000 150.145
63.29000 151.291
63.30000 152.606
63.31000 152.420
63.32000 149.481
63.33000 146.483
63.34000 144.835
63.35000 138.642
63.36000 134.398
63.37000 137.663
63.38000 146.802
63.39000 155.750
63.40000 156.938
63.41000 154.080
63.42000 151.346
63.43000 151.547
63.44000 152.700
63.45000 153.266
63.46000 148.610
63.47000 142.722
63.48000 138.045
63.49000 140.003
63.50000 142.967
63.51000 145.328
63.52000 147.384
63.53000 149.020
63.54000 149.454
63.55000 146.982
63.56000 144.380
63.57000 143.923
63.58000 146.970
63.59000 150.066
63.60000 151.668
63.61000 151.408
63.62000 151.257
63.63000 154.255
63.64000 159.435
63.65000 164.462
63.66000 164.981
63.67000 163.402
63.68000 161.908
63.69000 161.792
63.70000 162.084
63.71000 161.975
63.72000 158.790
63.73000 154.964
63.74000 152.310
63.75000 155.314
63.76000 159.062
63.77000 161.966
63.78000 155.286
63.79000 149.410
63.80000 145.836
63.81000 147.238
63.82000 148.811
63.83000 152.401
63.84000 158.922
63.85000 165.466
63.86000 165.075
63.87000 158.172
63.88000 151.380
63.89000 152.580
63.90000 158.703
63.91000 164.606
63.92000 165.473
63.93000 164.248
63.94000 163.102
63.95000 161.908
63.96000 160.811
63.97000 159.585
63.98000 157.495
63.99000 155.246
64.00000 153.987
64.01000 156.952
64.02000 160.396
64.03000 162.984
64.04000 159.461
64.05000 156.411
64.06000 154.469
64.07000 154.665
64.08000 154.915
64.09000 154.131
64.10000 152.014
64.11000 149.895
64.12000 151.013
64.13000 154.797
64.14000 158.619
64.15000 164.252
64.16000 170.880
64.17000 177.213
64.18000 178.218
64.19000 177.246
64.20000 176.350
64.21000 168.708
64.22000 160.356
64.23000 153.855
64.24000 158.096
64.25000 164.070
64.26000 168.166
64.27000 165.159
64.28000 161.465
64.29000 158.778
64.30000 159.406
64.31000 160.015
64.32000 162.329
64.33000 167.575
64.34000 172.872
64.35000 173.849
64.36000 169.921
64.37000 166.002
64.38000 163.743
64.39000 162.708
64.40000 161.681
64.41000 160.965
64.42000 160.399
64.43000 159.873
64.44000 159.927
64.45000 160.173
64.46000 160.397
64.47000 162.490
64.48000 164.705
64.49000 166.684
64.50000 167.461
64.51000 168.069
64.52000 169.649
64.53000 174.501
64.54000 179.619
64.55000 183.215
64.56000 177.118
64.57000 172.217
64.58000 169.320
64.59000 169.493
64.60000 169.700
64.61000 168.828
64.62000 166.883
64.63000 164.951
64.64000 167.800
64.65000 173.664
64.66000 179.162
64.67000 175.350
64.68000 167.468
64.69000 160.721
64.70000 167.778
64.71000 178.910
64.72000 188.863
64.73000 191.545
64.74000 192.650
64.75000 194.267
64.76000 198.198
64.77000 202.409
64.78000 203.719
64.79000 196.323
64.80000 188.339
64.81000 182.940
64.82000 181.126
64.83000 179.852
64.84000 181.185
64.85000 186.059
64.86000 190.949
64.87000 192.197
64.88000 190.258
64.89000 188.340
64.90000 189.262
64.91000 191.765
64.92000 194.162
64.93000 194.446
64.94000 193.904
64.95000 193.306
64.96000 192.124
64.97000 190.790
64.98000 189.617
64.99000 195.258
65.00000 201.108
65.01000 205.007
65.02000 201.117
65.03000 196.418
65.04000 194.390
65.05000 199.515
65.06000 205.032
65.07000 208.612
65.08000 210.697
65.09000 212.200
65.10000 216.930
65.11000 225.533
65.12000 234.117
65.13000 235.681
65.14000 231.825
65.15000 228.033
65.16000 226.739
65.17000 226.732
65.18000 227.053
65.19000 232.639
65.20000 240.060
65.21000 247.300
65.22000 252.956
65.23000 258.243
65.24000 262.796
65.25000 266.154
65.26000 268.847
65.27000 272.774
65.28000 281.073
65.29000 289.756
65.30000 296.684
65.31000 299.411
65.32000 301.956
65.33000 303.535
65.34000 307.342
65.35000 310.104
65.36000 317.135
65.37000 328.681
65.38000 340.204
65.39000 349.049
65.40000 356.061
65.41000 362.910
65.42000 364.749
65.43000 364.306
65.44000 365.486
65.45000 388.098
65.46000 417.370
65.47000 443.760
65.48000 448.428
65.49000 448.623
65.50000 448.787
65.51000 449.453
65.52000 450.063
65.53000 450.996
65.54000 452.951
65.55000 454.980
65.56000 463.004
65.57000 483.833
65.58000 505.087
65.59000 517.646
65.60000 501.981
65.61000 490.764
65.62000 492.230
65.63000 505.448
65.64000 518.624
65.65000 528.979
65.66000 537.616
65.67000 545.986
65.68000 562.702
65.69000 581.768
65.70000 601.916
65.71000 634.028
65.72000 669.451
65.73000 708.771
65.74000 773.601
65.75000 843.058
65.76000 900.286
65.77000 967.114
65.78000 1022.983
65.79000 1076.744
65.80000 1124.562
65.81000 1172.022
65.82000 1217.494
65.83000 1259.174
65.84000 1300.762
65.85000 1324.060
65.86000 1352.277
65.87000 1371.786
65.88000 1367.309
65.89000 1343.259
65.90000 1319.539
65.91000 1310.843
65.92000 1310.291
65.93000 1309.760
65.94000 1272.996
65.95000 1226.183
65.96000 1178.240
65.97000 1119.703
65.98000 1058.562
65.99000 993.668
66.00000 907.297
66.01000 817.513
66.02000 745.363
66.03000 672.113
66.04000 612.654
66.05000 557.452
66.06000 512.964
66.07000 468.993
66.08000 433.309
66.09000 411.705
66.10000 390.335
66.11000 379.042
66.12000 367.225
66.13000 359.187
66.14000 349.331
66.15000 338.163
66.16000 327.200
66.17000 322.940
66.18000 321.921
66.19000 320.952
66.20000 323.199
66.21000 326.247
66.22000 329.244
66.23000 331.840
66.24000 334.348
66.25000 336.784
66.26000 338.860
66.27000 340.886
66.28000 342.470
66.29000 364.128
66.30000 382.698
66.31000 399.484
66.32000 412.267
66.33000 424.899
66.34000 435.525
66.35000 443.118
66.36000 450.680
66.37000 461.991
66.38000 476.984
66.39000 491.895
66.40000 499.926
66.41000 503.546
66.42000 506.954
66.43000 505.105
66.44000 500.986
66.45000 497.118
66.46000 493.415
66.47000 490.080
66.48000 487.058
66.49000 486.209
66.50000 485.778
66.51000 482.864
66.52000 468.912
66.53000 453.642
66.54000 442.043
66.55000 430.466
66.56000 421.367
66.57000 410.374
66.58000 395.585
66.59000 380.688
66.60000 368.933
66.61000 361.388
66.62000 353.871
66.63000 349.412
66.64000 347.596
66.65000 345.766
66.66000 343.116
66.67000 339.999
66.68000 337.136
66.69000 339.217
66.70000 343.205
66.71000 346.902
66.72000 341.564
66.73000 334.651
66.74000 329.533
66.75000 335.306
66.76000 342.916
66.77000 346.704
66.78000 335.437
66.79000 322.633
66.80000 313.209
66.81000 318.350
66.82000 322.930
66.83000 328.633
66.84000 336.343
66.85000 344.093
66.86000 347.707
66.87000 346.419
66.88000 345.126
66.89000 347.985
66.90000 353.969
66.91000 359.788
66.92000 359.380
66.93000 355.805
66.94000 352.565
66.95000 354.604
66.96000 358.461
66.97000 361.984
66.98000 363.672
66.99000 364.796
67.00000 366.744
67.01000 373.079
67.02000 380.059
67.03000 385.321
67.04000 384.567
67.05000 383.293
67.06000 382.386
67.07000 377.424
67.08000 373.515
67.09000 374.701
67.10000 384.003
67.11000 393.409
67.12000 395.652
67.13000 390.431
67.14000 385.237
67.15000 389.018
67.16000 398.738
67.17000 408.015
67.18000 404.941
67.19000 396.257
67.20000 387.864
67.21000 383.253
67.22000 379.801
67.23000 376.697
67.24000 388.056
67.25000 400.580
67.26000 411.241
67.27000 413.160
67.28000 413.963
67.29000 412.972
67.30000 406.382
67.31000 399.389
67.32000 394.596
67.33000 414.633
67.34000 430.240
67.35000 438.040
67.36000 434.790
67.37000 431.462
67.38000 429.288
67.39000 428.170
67.40000 427.062
67.41000 430.620
67.42000 436.850
67.43000 442.880
67.44000 444.571
67.45000 444.503
67.46000 445.006
67.47000 451.703
67.48000 460.092
67.49000 467.506
67.50000 462.281
67.51000 455.816
67.52000 451.711
67.53000 457.411
67.54000 464.185
67.55000 469.585
67.56000 471.156
67.57000 472.501
67.58000 473.386
67.59000 480.471
67.60000 485.797
67.61000 487.821
67.62000 485.712
67.63000 483.587
67.64000 480.827
67.65000 477.553
67.66000 474.328
67.67000 479.998
67.68000 490.124
67.69000 499.899
67.70000 503.632
67.71000 505.176
67.72000 506.176
67.73000 502.154
67.74000 496.912
67.75000 492.367
67.76000 506.836
67.77000 521.689
67.78000 534.853
67.79000 541.783
67.80000 548.132
67.81000 549.017
67.82000 536.323
67.83000 522.989
67.84000 514.586
67.85000 526.997
67.86000 536.220
67.87000 541.345
67.88000 541.945
67.89000 542.557
67.90000 545.352
67.91000 549.703
67.92000 553.963
67.93000 558.527
67.94000 563.051
67.95000 567.716
67.96000 574.357
67.97000 581.638
67.98000 588.626
67.99000 593.305
68.00000 597.487
68.01000 601.039
68.02000 601.130
68.03000 600.810
68.04000 600.357
68.05000 599.461
68.06000 598.530
68.07000 597.193
68.08000 594.952
68.09000 592.678
68.10000 591.312
68.11000 599.119
68.12000 604.732
68.13000 613.095
68.14000 624.120
68.15000 635.063
68.16000 639.456
68.17000 639.703
68.18000 639.943
68.19000 648.253
68.20000 659.420
68.21000 669.882
68.22000 672.064
68.23000 671.863
68.24000 671.037
68.25000 665.926
68.26000 660.002
68.27000 655.082
68.28000 673.485
68.29000 690.968
68.30000 704.213
68.31000 705.043
68.32000 705.072
68.33000 707.217
68.34000 713.552
68.35000 720.002
68.36000 723.682
68.37000 730.335
68.38000 734.991
68.39000 742.556
68.40000 752.599
68.41000 762.599
68.42000 770.421
68.43000 777.016
68.44000 783.369
68.45000 785.810
68.46000 786.702
68.47000 789.935
68.48000 816.335
68.49000 848.664
68.50000 876.668
68.51000 878.789
68.52000 876.608
68.53000 874.839
68.54000 895.396
68.55000 913.969
68.56000 936.649
68.57000 970.064
68.58000 1004.040
68.59000 1034.263
68.60000 1057.858
68.61000 1081.327
68.62000 1093.984
68.63000 1158.118
68.64000 1202.082
68.65000 1255.547
68.66000 1316.157
68.67000 1376.775
68.68000 1437.649
68.69000 1498.652
68.70000 1556.830
68.71000 1638.704
68.72000 1722.144
68.73000 1803.653
68.74000 1868.819
68.75000 1930.276
68.76000 1991.502
68.77000 2051.509
68.78000 2111.338
68.79000 2158.577
68.80000 2231.545
68.81000 2291.852
68.82000 2363.189
68.83000 2460.279
68.84000 2558.426
68.85000 2670.776
68.86000 2805.468
68.87000 2940.432
68.88000 3008.827
68.89000 3426.256
68.90000 3708.525
68.91000 4268.737
68.92000 5014.358
68.93000 5787.955
68.94000 7320.081
68.95000 9192.485
68.96000 10958.155
68.97000 14811.348
68.98000 18921.025
68.99000 23242.271
69.00000 29109.000
69.01000 35285.547
69.02000 41478.207
69.03000 47745.527
69.04000 54022.227
69.05000 58838.820
69.06000 64328.387
69.07000 68704.008
69.08000 72171.305
69.09000 73745.281
69.10000 75260.266
69.11000 76318.938
69.12000 76740.273
69.13000 77157.195
69.14000 77648.609
69.15000 78206.609
69.16000 78766.570
69.17000 79448.773
69.18000 80203.508
69.19000 80907.297
69.20000 80538.750
69.21000 79740.594
69.22000 78997.359
69.23000 76199.039
69.24000 73167.453
69.25000 70024.742
69.26000 66175.875
69.27000 62202.496
69.28000 58299.570
69.29000 54685.684
69.30000 51102.953
69.31000 48437.059
69.32000 45690.660
69.33000 43550.383
69.34000 41790.113
69.35000 40736.598
69.36000 39698.973
69.37000 38599.574
69.38000 37423.820
69.39000 36249.961
69.40000 34441.098
69.41000 32138.402
69.42000 29823.670
69.43000 27000.539
69.44000 23908.596
69.45000 20829.813
69.46000 17972.727
69.47000 15194.941
69.48000 12644.166
69.49000 10348.125
69.50000 8354.112
69.51000 6495.804
69.52000 5392.548
69.53000 4405.762
69.54000 3540.507
69.55000 3118.058
69.56000 2736.142
69.57000 2461.275
69.58000 2229.733
69.59000 2053.967
69.60000 1907.714
69.61000 1810.367
69.62000 1713.758
69.63000 1633.549
69.64000 1571.199
69.65000 1509.127
69.66000 1464.130
69.67000 1431.486
69.68000 1398.506
69.69000 1355.203
69.70000 1307.028
69.71000 1258.977
69.72000 1212.638
69.73000 1166.844
69.74000 1125.436
69.75000 1111.626
69.76000 1104.621
69.77000 1094.693
69.78000 1070.447
69.79000 1044.282
69.80000 1019.099
69.81000 997.099
69.82000 975.342
69.83000 960.239
69.84000 944.328
69.85000 932.321
69.86000 917.653
69.87000 899.064
69.88000 880.442
69.89000 872.097
69.90000 873.567
69.91000 875.025
69.92000 868.021
69.93000 855.948
69.94000 843.902
69.95000 832.501
69.96000 821.371
69.97000 809.975
69.98000 795.518
69.99000 780.191
70.00000 766.563
