20.00000 580.793
20.01000 577.641
20.02000 574.038
20.03000 571.328
20.04000 572.099
20.05000 573.220
20.06000 574.043
20.07000 573.757
20.08000 573.491
20.09000 571.789
20.10000 567.544
20.11000 563.250
20.12000 562.760
20.13000 566.730
20.14000 570.696
20.15000 572.064
20.16000 571.477
20.17000 570.810
20.18000 567.202
20.19000 562.112
20.20000 557.277
20.21000 556.364
20.22000 556.789
20.23000 557.176
20.24000 562.641
20.25000 568.513
20.26000 571.823
20.27000 561.636
20.28000 549.488
20.29000 540.142
20.30000 540.509
20.31000 541.703
20.32000 542.549
20.33000 559.348
20.34000 572.623
20.35000 581.499
20.36000 583.438
20.37000 585.292
20.38000 580.340
20.39000 568.378
20.40000 556.485
20.41000 556.775
20.42000 565.099
20.43000 573.112
20.44000 572.678
20.45000 568.446
20.46000 564.632
20.47000 566.143
20.48000 569.272
20.49000 572.082
20.50000 560.349
20.51000 547.529
20.52000 538.060
20.53000 544.158
20.54000 552.216
20.55000 555.488
20.56000 543.975
20.57000 531.417
20.58000 522.839
20.59000 542.543
20.60000 557.944
20.61000 571.207
20.62000 581.476
20.63000 591.716
20.64000 589.227
20.65000 575.239
20.66000 561.389
20.67000 557.192
20.68000 558.701
20.69000 560.234
20.70000 562.271
20.71000 564.509
20.72000 566.688
20.73000 568.230
20.74000 569.599
20.75000 570.807
20.76000 565.729
20.77000 560.391
20.78000 556.632
20.79000 559.369
20.80000 562.808
20.81000 563.779
20.82000 557.951
20.83000 551.729
20.84000 547.648
20.85000 545.630
20.86000 544.180
20.87000 545.237
20.88000 549.399
20.89000 553.562
20.90000 555.329
20.91000 555.189
20.92000 555.052
20.93000 552.199
20.94000 548.036
20.95000 543.970
20.96000 541.528
20.97000 539.668
20.98000 538.389
20.99000 542.383
21.00000 547.644
21.01000 552.198
21.02000 556.492
21.03000 560.109
21.04000 564.117
21.05000 569.551
21.06000 575.116
21.07000 578.519
21.08000 576.605
21.09000 574.445
21.10000 573.090
21.11000 565.819
21.12000 560.499
21.13000 558.832
21.14000 561.151
21.15000 563.432
21.16000 560.064
21.17000 552.715
21.18000 545.523
21.19000 550.162
21.20000 559.984
21.21000 568.832
21.22000 564.193
21.23000 555.240
21.24000 546.985
21.25000 544.184
21.26000 542.542
21.27000 541.150
21.28000 550.249
21.29000 559.057
21.30000 565.538
21.31000 564.453
21.32000 562.785
21.33000 561.096
21.34000 559.362
21.35000 557.626
21.36000 556.587
21.37000 549.190
21.38000 543.900
21.39000 545.605
21.40000 554.006
21.41000 562.343
21.42000 565.730
21.43000 566.015
21.44000 566.293
21.45000 563.200
21.46000 558.912
21.47000 554.793
21.48000 552.606
21.49000 550.971
21.50000 549.173
21.51000 546.275
21.52000 543.170
21.53000 540.597
21.54000 544.327
21.55000 548.010
21.56000 554.125
21.57000 567.287
21.58000 580.896
21.59000 586.785
21.60000 577.532
21.61000 567.880
21.62000 562.398
21.63000 561.569
21.64000 561.005
21.65000 559.587
21.66000 557.450
21.67000 555.381
21.68000 556.680
21.69000 559.857
21.70000 562.915
21.71000 562.101
21.72000 559.968
21.73000 558.147
21.74000 559.378
21.75000 561.382
21.76000 564.457
21.77000 573.870
21.78000 584.325
21.79000 592.781
21.80000 605.195
21.81000 615.615
21.82000 620.262
21.83000 609.975
21.84000 598.923
21.85000 595.252
21.86000 604.487
21.87000 613.960
21.88000 619.042
21.89000 636.296
21.90000 648.079
21.91000 658.395
21.92000 667.621
21.93000 676.732
21.94000 681.785
21.95000 684.820
21.96000 687.712
21.97000 695.992
21.98000 705.348
21.99000 714.982
22.00000 726.948
22.01000 739.438
22.02000 749.868
22.03000 749.597
22.04000 747.794
22.05000 746.374
22.06000 750.729
22.07000 754.605
22.08000 757.084
22.09000 756.335
22.10000 755.456
22.11000 750.236
22.12000 738.256
22.13000 726.198
22.14000 720.123
22.15000 705.473
22.16000 695.736
22.17000 691.211
22.18000 690.127
22.19000 688.877
22.20000 683.220
22.21000 675.606
22.22000 668.433
22.23000 653.976
22.24000 638.745
22.25000 624.825
22.26000 620.353
22.27000 617.755
22.28000 612.739
22.29000 596.645
22.30000 579.177
22.31000 565.807
22.32000 566.412
22.33000 567.654
22.34000 569.543
22.35000 572.770
22.36000 576.037
22.37000 574.957
22.38000 567.871
22.39000 560.749
22.40000 559.791
22.41000 564.318
22.42000 568.808
22.43000 571.152
22.44000 572.235
22.45000 572.969
22.46000 566.504
22.47000 557.183
22.48000 548.513
22.49000 549.017
22.50000 551.684
22.51000 553.829
22.52000 552.705
22.53000 551.011
22.54000 548.681
22.55000 543.771
22.56000 538.586
22.57000 534.740
22.58000 547.452
22.59000 558.055
22.60000 558.799
22.61000 541.394
22.62000 523.594
22.63000 516.095
22.64000 521.188
22.65000 526.302
22.66000 525.947
22.67000 521.317
22.68000 516.806
22.69000 517.192
22.70000 520.142
22.71000 523.480
22.72000 533.249
22.73000 545.294
22.74000 556.341
22.75000 549.039
22.76000 538.659
22.77000 529.336
22.78000 525.831
22.79000 523.212
22.80000 519.878
22.81000 513.967
22.82000 507.823
22.83000 503.414
22.84000 516.631
22.85000 527.341
22.86000 532.109
22.87000 527.131
22.88000 522.013
22.89000 522.136
22.90000 527.902
22.91000 533.643
22.92000 537.263
22.93000 539.381
22.94000 541.407
22.95000 540.639
22.96000 538.565
22.97000 536.649
22.98000 536.872
22.99000 537.769
23.00000 538.580
23.01000 528.065
23.02000 516.736
23.03000 507.822
23.04000 510.607
23.05000 514.940
23.06000 519.846
23.07000 526.592
23.08000 533.476
23.09000 538.239
23.10000 521.375
23.11000 508.127
23.12000 505.301
23.13000 517.670
23.14000 530.166
23.15000 533.310
23.16000 527.629
23.17000 521.995
23.18000 513.639
23.19000 503.782
23.20000 494.487
23.21000 498.064
23.22000 507.010
23.23000 515.201
23.24000 514.843
23.25000 512.081
23.26000 509.629
23.27000 507.075
23.28000 504.846
23.29000 503.738
23.30000 507.437
23.31000 511.684
23.32000 514.471
23.33000 513.078
23.34000 511.425
23.35000 510.325
23.36000 505.601
23.37000 502.038
23.38000 502.250
23.39000 507.337
23.40000 512.434
23.41000 513.135
23.42000 510.183
23.43000 507.271
23.44000 504.560
23.45000 502.031
23.46000 499.882
23.47000 504.630
23.48000 511.948
23.49000 518.478
23.50000 517.454
23.51000 514.541
23.52000 512.003
23.53000 505.784
23.54000 499.961
23.55000 495.530
23.56000 496.387
23.57000 497.758
23.58000 499.696
23.59000 503.088
23.60000 506.551
23.61000 508.759
23.62000 507.079
23.63000 505.807
23.64000 505.910
23.65000 507.580
23.66000 509.235
23.67000 508.098
23.68000 504.911
23.69000 501.785
23.70000 509.215
23.71000 521.367
23.72000 532.605
23.73000 530.322
23.74000 523.545
23.75000 516.776
23.76000 510.073
23.77000 503.386
23.78000 497.676
23.79000 496.667
23.80000 496.376
23.81000 496.867
23.82000 500.003
23.83000 503.355
23.84000 509.931
23.85000 523.864
23.86000 538.085
23.87000 546.738
23.88000 513.504
23.89000 489.439
23.90000 486.476
23.91000 504.637
23.92000 522.715
23.93000 533.194
23.94000 538.719
23.95000 544.100
23.96000 538.972
23.97000 529.691
23.98000 521.508
23.99000 526.762
24.00000 535.997
24.01000 544.592
24.02000 548.634
24.03000 551.787
24.04000 554.420
24.05000 545.463
24.06000 536.856
24.07000 530.851
24.08000 532.688
24.09000 535.057
24.10000 539.715
24.11000 549.039
24.12000 558.501
24.13000 563.973
24.14000 551.592
24.15000 542.837
24.16000 531.702
24.17000 518.474
24.18000 505.615
24.19000 513.829
24.20000 534.264
24.21000 553.994
24.22000 554.308
24.23000 547.436
24.24000 540.683
24.25000 535.159
24.26000 529.957
24.27000 524.499
24.28000 517.446
24.29000 510.119
24.30000 504.142
24.31000 512.597
24.32000 520.744
24.33000 527.466
24.34000 530.356
24.35000 533.033
24.36000 533.329
24.37000 529.293
24.38000 525.166
24.39000 522.907
24.40000 511.912
24.41000 504.365
24.42000 502.954
24.43000 506.301
24.44000 509.508
24.45000 507.188
24.46000 502.010
24.47000 497.059
24.48000 496.256
24.49000 496.860
24.50000 497.439
24.51000 497.806
24.52000 498.123
24.53000 499.027
24.54000 503.112
24.55000 507.675
24.56000 511.302
24.57000 507.701
24.58000 504.286
24.59000 502.033
24.60000 502.575
24.61000 503.238
24.62000 505.336
24.63000 509.756
24.64000 514.208
24.65000 516.501
24.66000 515.585
24.67000 514.913
24.68000 507.858
24.69000 496.416
24.70000 485.323
24.71000 484.370
24.72000 488.096
24.73000 491.621
24.74000 490.377
24.75000 487.867
24.76000 486.294
24.77000 491.814
24.78000 498.801
24.79000 504.414
24.80000 503.460
24.81000 501.649
24.82000 500.249
24.83000 500.669
24.84000 501.108
24.85000 498.808
24.86000 490.632
24.87000 482.260
24.88000 480.824
24.89000 489.371
24.90000 497.996
24.91000 496.813
24.92000 486.507
24.93000 476.355
24.94000 476.873
24.95000 483.907
24.96000 490.549
24.97000 488.420
24.98000 482.677
24.99000 477.311
25.00000 482.925
25.01000 490.785
25.02000 497.054
25.03000 492.860
25.04000 486.761
25.05000 482.968
25.06000 488.927
25.07000 495.978
25.08000 501.266
25.09000 489.712
25.10000 479.889
25.11000 474.438
25.12000 477.355
25.13000 480.477
25.14000 479.593
25.15000 473.600
25.16000 467.598
25.17000 469.281
25.18000 477.235
25.19000 485.074
25.20000 487.590
25.21000 487.210
25.22000 486.743
25.23000 484.746
25.24000 482.184
25.25000 479.823
25.26000 473.955
25.27000 467.926
25.28000 463.169
25.29000 465.718
25.30000 469.432
25.31000 472.260
25.32000 471.760
25.33000 470.943
25.34000 470.350
25.35000 479.796
25.36000 487.433
25.37000 490.012
25.38000 483.960
25.39000 477.764
25.40000 476.031
25.41000 479.318
25.42000 482.598
25.43000 480.235
25.44000 473.838
25.45000 467.564
25.46000 465.367
25.47000 465.148
25.48000 465.115
25.49000 467.775
25.50000 471.318
25.51000 474.536
25.52000 477.580
25.53000 480.234
25.54000 480.931
25.55000 471.732
25.56000 461.158
25.57000 453.820
25.58000 457.284
25.59000 461.616
25.60000 464.652
25.61000 459.785
25.62000 455.877
25.63000 453.003
25.64000 451.699
25.65000 450.411
25.66000 456.202
25.67000 468.978
25.68000 481.665
25.69000 480.068
25.70000 469.448
25.71000 459.091
25.72000 455.320
25.73000 454.402
25.74000 453.823
25.75000 457.294
25.76000 461.950
25.77000 466.109
25.78000 471.361
25.79000 476.118
25.80000 480.816
25.81000 485.246
25.82000 489.644
25.83000 490.385
25.84000 480.239
25.85000 469.369
25.86000 462.040
25.87000 474.889
25.88000 484.874
25.89000 487.494
25.90000 480.198
25.91000 472.855
25.92000 470.824
25.93000 473.396
25.94000 475.939
25.95000 473.741
25.96000 468.947
25.97000 464.258
25.98000 461.639
25.99000 459.821
26.00000 457.986
26.01000 455.980
26.02000 453.929
26.03000 452.131
26.04000 459.513
26.05000 467.188
26.06000 472.146
26.07000 466.360
26.08000 459.470
26.09000 455.201
26.10000 457.891
26.11000 460.955
26.12000 462.938
26.13000 471.461
26.14000 477.790
26.15000 478.217
26.16000 471.620
26.17000 465.021
26.18000 460.869
26.19000 458.589
26.20000 456.349
26.21000 459.197
26.22000 464.462
26.23000 469.300
26.24000 467.373
26.25000 463.110
26.26000 459.174
26.27000 458.079
26.28000 457.640
26.29000 457.262
26.30000 450.555
26.31000 444.086
26.32000 440.864
26.33000 449.060
26.34000 458.249
26.35000 466.990
26.36000 474.668
26.37000 482.301
26.38000 487.020
26.39000 474.095
26.40000 464.641
26.41000 458.088
26.42000 454.571
26.43000 451.071
26.44000 449.271
26.45000 448.626
26.46000 447.995
26.47000 451.453
26.48000 456.542
26.49000 461.061
26.50000 458.133
26.51000 452.911
26.52000 448.303
26.53000 448.269
26.54000 449.169
26.55000 449.927
26.56000 452.118
26.57000 454.100
26.58000 456.553
26.59000 460.480
26.60000 464.514
26.61000 464.401
26.62000 455.507
26.63000 446.327
26.64000 440.923
26.65000 437.183
26.66000 434.555
26.67000 437.027
26.68000 444.180
26.69000 451.252
26.70000 453.022
26.71000 451.594
26.72000 450.212
26.73000 447.261
26.74000 443.866
26.75000 441.318
26.76000 448.018
26.77000 457.255
26.78000 464.938
26.79000 462.560
26.80000 458.375
26.81000 454.933
26.82000 451.595
26.83000 448.862
26.84000 446.246
26.85000 443.962
26.86000 441.696
26.87000 441.883
26.88000 446.705
26.89000 451.637
26.90000 454.389
26.91000 458.332
26.92000 461.048
26.93000 458.026
26.94000 450.363
26.95000 442.841
26.96000 441.566
26.97000 443.649
26.98000 445.647
26.99000 442.925
27.00000 438.778
27.01000 435.226
27.02000 437.184
27.03000 440.486
27.04000 443.520
27.05000 445.039
27.06000 446.319
27.07000 447.346
27.08000 448.986
27.09000 450.360
27.10000 454.626
27.11000 466.107
27.12000 477.931
27.13000 482.178
27.14000 473.662
27.15000 464.940
27.16000 460.353
27.17000 453.977
27.18000 449.686
27.19000 450.325
27.20000 454.492
27.21000 458.513
27.22000 457.852
27.23000 454.945
27.24000 452.185
27.25000 444.023
27.26000 434.872
27.27000 427.734
27.28000 436.615
27.29000 448.950
27.30000 459.091
27.31000 458.285
27.32000 455.981
27.33000 454.183
27.34000 445.290
27.35000 437.752
27.36000 437.927
27.37000 455.284
27.38000 473.273
27.39000 479.791
27.40000 469.119
27.41000 458.280
27.42000 450.225
27.43000 444.879
27.44000 439.606
27.45000 440.383
27.46000 445.004
27.47000 449.454
27.48000 449.741
27.49000 448.244
27.50000 446.840
27.51000 439.816
27.52000 431.935
27.53000 425.436
27.54000 428.465
27.55000 433.305
27.56000 437.967
27.57000 441.842
27.58000 445.623
27.59000 448.489
27.60000 438.880
27.61000 430.697
27.62000 427.873
27.63000 435.705
27.64000 443.829
27.65000 450.266
27.66000 454.462
27.67000 458.644
27.68000 456.601
27.69000 449.252
27.70000 442.013
27.71000 440.548
27.72000 442.348
27.73000 444.017
27.74000 443.162
27.75000 441.343
27.76000 439.658
27.77000 440.522
27.78000 441.889
27.79000 442.294
27.80000 436.919
27.81000 430.580
27.82000 425.740
27.83000 426.757
27.84000 428.364
27.85000 429.544
27.86000 441.235
27.87000 450.698
27.88000 454.555
27.89000 448.466
27.90000 442.186
27.91000 438.651
27.92000 438.339
27.93000 438.033
27.94000 436.849
27.95000 435.014
27.96000 433.219
27.97000 432.843
27.98000 433.184
27.99000 433.371
28.00000 431.161
28.01000 428.134
28.02000 425.371
28.03000 428.691
28.04000 432.866
28.05000 435.986
28.06000 433.541
28.07000 430.284
28.08000 427.953
28.09000 428.840
28.10000 430.000
28.11000 430.823
28.12000 435.805
28.13000 439.725
28.14000 438.587
28.15000 429.461
28.16000 420.235
28.17000 421.006
28.18000 432.092
28.19000 443.116
28.20000 445.509
28.21000 442.167
28.22000 438.892
28.23000 437.477
28.24000 436.898
28.25000 436.262
28.26000 434.884
28.27000 433.281
28.28000 431.842
28.29000 438.907
28.30000 446.587
28.31000 451.937
28.32000 446.444
28.33000 439.583
28.34000 432.020
28.35000 422.285
28.36000 412.397
28.37000 405.640
28.38000 412.005
28.39000 417.076
28.40000 420.388
28.41000 421.233
28.42000 422.062
28.43000 423.826
28.44000 426.437
28.45000 429.022
28.46000 431.938
28.47000 434.984
28.48000 437.754
28.49000 434.661
28.50000 429.210
28.51000 424.143
28.52000 423.201
28.53000 423.376
28.54000 423.531
28.55000 424.267
28.56000 424.990
28.57000 425.414
28.58000 424.603
28.59000 423.658
28.60000 425.554
28.61000 435.289
28.62000 445.479
28.63000 452.167
28.64000 439.939
28.65000 430.627
28.66000 426.389
28.67000 428.451
28.68000 430.518
28.69000 428.193
28.70000 422.364
28.71000 416.622
28.72000 412.703
28.73000 409.839
28.74000 406.924
28.75000 403.137
28.76000 399.037
28.77000 396.132
28.78000 404.109
28.79000 414.703
28.80000 423.876
28.81000 427.299
28.82000 429.454
28.83000 430.022
28.84000 424.790
28.85000 419.024
28.86000 416.873
28.87000 423.632
28.88000 430.804
28.89000 435.309
28.90000 423.030
28.91000 413.967
28.92000 408.561
28.93000 407.156
28.94000 405.772
28.95000 407.021
28.96000 410.132
28.97000 413.176
28.98000 420.526
28.99000 429.542
29.00000 438.081
29.01000 440.011
29.02000 439.824
29.03000 438.592
29.04000 429.177
29.05000 418.020
29.06000 408.559
29.07000 408.687
29.08000 409.877
29.09000 411.551
29.10000 414.801
29.11000 418.173
29.12000 420.286
29.13000 419.629
29.14000 418.872
29.15000 418.419
29.16000 418.127
29.17000 417.920
29.18000 416.045
29.19000 412.570
29.20000 409.246
29.21000 417.699
29.22000 433.542
29.23000 448.927
29.24000 442.599
29.25000 427.870
29.26000 414.320
29.27000 414.418
29.28000 418.411
29.29000 421.592
29.30000 419.265
29.31000 415.905
29.32000 413.119
29.33000 417.067
29.34000 420.975
29.35000 422.948
29.36000 419.306
29.37000 415.307
29.38000 413.444
29.39000 415.777
29.40000 418.222
29.41000 419.611
29.42000 417.506
29.43000 416.028
29.44000 414.453
29.45000 412.796
29.46000 411.210
29.47000 413.201
29.48000 417.190
29.49000 421.030
29.50000 424.613
29.51000 427.884
29.52000 430.674
29.53000 428.758
29.54000 425.649
29.55000 422.916
29.56000 422.409
29.57000 422.268
29.58000 422.154
29.59000 413.601
29.60000 405.959
29.61000 402.795
29.62000 411.238
29.63000 420.277
29.64000 423.031
29.65000 414.775
29.66000 406.316
29.67000 401.773
29.68000 404.225
29.69000 405.926
29.70000 411.695
29.71000 420.496
29.72000 429.021
29.73000 427.731
29.74000 421.550
29.75000 415.660
29.76000 417.775
29.77000 422.238
29.78000 425.698
29.79000 420.774
29.80000 413.964
29.81000 409.549
29.82000 417.600
29.83000 427.440
29.84000 435.193
29.85000 433.491
29.86000 431.493
29.87000 431.900
29.88000 437.876
29.89000 444.076
29.90000 445.570
29.91000 439.727
29.92000 433.797
29.93000 430.807
29.94000 440.116
29.95000 446.262
29.96000 444.808
29.97000 438.327
29.98000 432.360
29.99000 440.046
30.00000 453.806
30.01000 466.769
30.02000 464.220
30.03000 457.619
30.04000 450.998
30.05000 444.221
30.06000 437.413
30.07000 434.166
30.08000 447.266
30.09000 462.396
30.10000 473.982
30.11000 465.174
30.12000 457.103
30.13000 452.418
30.14000 454.734
30.15000 457.262
30.16000 455.092
30.17000 446.416
30.18000 437.702
30.19000 433.350
30.20000 432.892
30.21000 432.449
30.22000 432.947
30.23000 434.000
30.24000 434.699
30.25000 428.104
30.26000 418.610
30.27000 409.779
30.28000 409.285
30.29000 410.854
30.30000 412.296
30.31000 412.948
30.32000 413.462
30.33000 414.861
30.34000 419.857
30.35000 425.236
30.36000 429.229
30.37000 433.981
30.38000 437.707
30.39000 434.995
30.40000 420.409
30.41000 405.564
30.42000 398.719
30.43000 401.674
30.44000 404.648
30.45000 408.650
30.46000 413.437
30.47000 418.178
30.48000 421.037
30.49000 422.910
30.50000 425.039
30.51000 431.412
30.52000 439.291
30.53000 446.518
30.54000 440.713
30.55000 432.781
30.56000 426.368
30.57000 428.322
30.58000 431.554
30.59000 433.828
30.60000 432.641
30.61000 431.142
30.62000 430.065
30.63000 423.200
30.64000 417.750
30.65000 415.576
30.66000 418.787
30.67000 422.076
30.68000 430.148
30.69000 443.379
30.70000 456.552
30.71000 459.878
30.72000 456.374
30.73000 453.032
30.74000 454.552
30.75000 458.346
30.76000 462.078
30.77000 464.974
30.78000 467.605
30.79000 469.982
30.80000 469.737
30.81000 469.038
30.82000 467.401
30.83000 461.207
30.84000 454.409
30.85000 451.498
30.86000 461.093
30.87000 471.632
30.88000 478.929
30.89000 492.578
30.90000 503.014
30.91000 507.927
30.92000 504.774
30.93000 501.553
30.94000 506.471
30.95000 519.084
30.96000 531.593
30.97000 541.456
30.98000 549.528
30.99000 557.560
31.00000 564.640
31.01000 571.322
31.02000 579.262
31.03000 601.473
31.04000 627.708
31.05000 651.002
31.06000 682.368
31.07000 710.854
31.08000 740.308
31.09000 773.917
31.10000 808.000
31.11000 848.088
31.12000 905.399
31.13000 963.781
31.14000 1002.640
31.15000 1115.613
31.16000 1200.605
31.17000 1285.939
31.18000 1371.712
31.19000 1457.526
31.20000 1561.758
31.21000 1681.318
31.22000 1799.304
31.23000 1948.376
31.24000 2110.125
31.25000 2270.684
31.26000 2409.545
31.27000 2540.311
31.28000 2669.917
31.29000 2788.379
31.30000 2904.051
31.31000 3004.874
31.32000 3149.169
31.33000 3278.524
31.34000 3389.442
31.35000 3430.171
31.36000 3464.063
31.37000 3498.920
31.38000 3536.252
31.39000 3573.707
31.40000 3597.596
31.41000 3533.582
31.42000 3485.896
31.43000 3416.778
31.44000 3323.177
31.45000 3229.425
31.46000 3113.779
31.47000 2982.023
31.48000 2852.787
31.49000 2720.934
31.50000 2592.662
31.51000 2462.970
31.52000 2312.232
31.53000 2154.486
31.54000 1998.191
31.55000 1853.842
31.56000 1712.145
31.57000 1591.108
31.58000 1469.002
31.59000 1366.009
31.60000 1264.671
31.61000 1168.942
31.62000 1073.674
31.63000 986.687
31.64000 918.639
31.65000 851.333
31.66000 810.352
31.67000 754.097
31.68000 713.788
31.69000 676.709
31.70000 642.868
31.71000 609.142
31.72000 586.038
31.73000 569.870
31.74000 554.124
31.75000 540.008
31.76000 527.236
31.77000 514.707
31.78000 505.172
31.79000 496.525
31.80000 488.081
31.81000 481.088
31.82000 474.378
31.83000 468.772
31.84000 452.389
31.85000 437.694
31.86000 430.549
31.87000 446.193
31.88000 463.388
31.89000 471.577
31.90000 461.380
31.91000 450.640
31.92000 444.424
31.93000 446.827
31.94000 448.540
31.95000 441.732
31.96000 427.421
31.97000 413.379
31.98000 414.766
31.99000 425.117
32.00000 435.113
32.01000 431.514
32.02000 423.097
32.03000 415.149
32.04000 412.055
32.05000 410.242
32.06000 408.845
32.07000 410.021
32.08000 411.640
32.09000 412.961
32.10000 405.886
32.11000 399.380
32.12000 395.823
32.13000 400.206
32.14000 405.030
32.15000 409.532
32.16000 413.449
32.17000 417.354
32.18000 419.493
32.19000 423.330
32.20000 425.963
32.21000 426.171
32.22000 424.497
32.23000 422.770
32.24000 418.961
32.25000 414.075
32.26000 409.402
32.27000 402.058
32.28000 394.351
32.29000 387.708
32.30000 390.452
32.31000 395.395
32.32000 399.141
32.33000 396.385
32.34000 392.650
32.35000 389.680
32.36000 388.751
32.37000 388.148
32.38000 387.861
32.39000 388.332
32.40000 388.837
32.41000 387.973
32.42000 384.889
32.43000 381.774
32.44000 380.168
32.45000 385.571
32.46000 389.162
32.47000 386.924
32.48000 380.674
32.49000 374.703
32.50000 376.897
32.51000 382.865
32.52000 388.511
32.53000 390.545
32.54000 391.377
32.55000 391.365
32.56000 384.944
32.57000 377.194
32.58000 371.327
32.59000 374.470
32.60000 378.790
32.61000 382.131
32.62000 378.956
32.63000 376.054
32.64000 374.365
32.65000 375.284
32.66000 376.290
32.67000 379.062
32.68000 384.379
32.69000 389.715
32.70000 389.528
32.71000 384.191
32.72000 378.861
32.73000 373.966
32.74000 369.338
32.75000 364.941
32.76000 365.727
32.77000 368.652
32.78000 371.386
32.79000 368.749
32.80000 365.000
32.81000 362.676
32.82000 369.735
32.83000 378.508
32.84000 385.845
32.85000 387.107
32.86000 387.686
32.87000 388.121
32.88000 394.809
32.89000 400.332
32.90000 404.240
32.91000 405.053
32.92000 405.789
32.93000 408.890
32.94000 415.012
32.95000 421.137
32.96000 425.197
32.97000 427.555
32.98000 429.886
32.99000 431.016
33.00000 431.489
33.01000 431.528
33.02000 423.813
33.03000 413.239
33.04000 403.493
33.05000 411.459
33.06000 422.513
33.07000 431.487
33.08000 428.479
33.09000 423.555
33.10000 417.462
33.11000 406.974
33.12000 396.066
33.13000 388.144
33.14000 390.152
33.15000 392.070
33.16000 389.986
33.17000 381.064
33.18000 372.028
33.19000 364.389
33.20000 358.327
33.21000 352.288
33.22000 351.725
33.23000 355.110
33.24000 358.415
33.25000 359.063
33.26000 358.418
33.27000 357.743
33.28000 356.614
33.29000 355.337
33.30000 354.177
33.31000 349.766
33.32000 345.242
33.33000 341.646
33.34000 342.754
33.35000 344.518
33.36000 346.498
33.37000 349.207
33.38000 351.973
33.39000 353.913
33.40000 354.906
33.41000 355.631
33.42000 353.731
33.43000 347.843
33.44000 341.914
33.45000 338.887
33.46000 338.729
33.47000 338.573
33.48000 341.645
33.49000 346.719
33.50000 351.586
33.51000 351.261
33.52000 348.682
33.53000 346.453
33.54000 348.442
33.55000 351.667
33.56000 354.548
33.57000 348.978
33.58000 342.704
33.59000 338.213
33.60000 341.695
33.61000 346.136
33.62000 349.227
33.63000 348.293
33.64000 347.091
33.65000 346.279
33.66000 351.385
33.67000 355.310
33.68000 354.390
33.69000 346.938
33.70000 339.460
33.71000 340.587
33.72000 349.187
33.73000 357.689
33.74000 357.025
33.75000 351.246
33.76000 345.884
33.77000 348.757
33.78000 354.823
33.79000 360.263
33.80000 359.352
33.81000 356.784
33.82000 354.532
33.83000 346.540
33.84000 338.840
33.85000 331.793
33.86000 327.334
33.87000 323.140
33.88000 322.968
33.89000 333.495
33.90000 344.600
33.91000 351.788
33.92000 354.476
33.93000 356.376
33.94000 351.681
33.95000 339.124
33.96000 326.598
33.97000 324.845
33.98000 331.351
33.99000 337.747
34.00000 336.016
34.01000 330.325
34.02000 325.054
34.03000 326.467
34.04000 330.194
34.05000 333.945
34.06000 337.918
34.07000 341.941
34.08000 345.402
34.09000 344.388
34.10000 342.969
34.11000 341.851
34.12000 341.791
34.13000 341.824
34.14000 341.603
34.15000 340.777
34.16000 339.926
34.17000 339.399
34.18000 334.812
34.19000 331.477
34.20000 330.309
34.21000 331.415
34.22000 332.510
34.23000 332.348
34.24000 331.333
34.25000 330.342
34.26000 335.900
34.27000 344.077
34.28000 351.617
34.29000 350.822
34.30000 347.456
34.31000 344.223
34.32000 341.990
34.33000 339.961
34.34000 338.253
34.35000 333.959
34.36000 330.099
34.37000 326.338
34.38000 322.891
34.39000 319.466
34.40000 320.690
34.41000 331.777
34.42000 343.186
34.43000 349.908
34.44000 339.776
34.45000 332.540
34.46000 330.722
34.47000 333.886
34.48000 337.015
34.49000 337.899
34.50000 337.425
34.51000 336.966
34.52000 335.197
34.53000 333.019
34.54000 331.456
34.55000 336.628
34.56000 343.650
34.57000 350.542
34.58000 356.579
34.59000 362.462
34.60000 367.303
34.61000 353.630
34.62000 340.707
34.63000 329.121
34.64000 321.274
34.65000 313.650
34.66000 311.893
34.67000 321.245
34.68000 330.862
34.69000 336.231
34.70000 336.175
34.71000 336.116
34.72000 333.209
34.73000 327.995
34.74000 322.912
34.75000 323.649
34.76000 327.520
34.77000 331.234
34.78000 333.061
34.79000 334.127
34.80000 335.090
34.81000 335.110
34.82000 334.900
34.83000 334.225
34.84000 330.910
34.85000 327.179
34.86000 324.186
34.87000 328.784
34.88000 333.087
34.89000 335.119
34.90000 331.479
34.91000 327.569
34.92000 324.704
34.93000 323.603
34.94000 322.531
34.95000 321.966
34.96000 328.978
34.97000 333.707
34.98000 333.868
34.99000 330.755
35.00000 327.461
35.01000 318.359
35.02000 306.466
35.03000 295.173
35.04000 300.380
35.05000 310.137
35.06000 319.100
35.07000 321.740
35.08000 323.013
35.09000 324.443
35.10000 326.651
35.11000 328.965
35.12000 330.773
35.13000 327.181
35.14000 323.976
35.15000 320.984
35.16000 318.464
35.17000 315.962
35.18000 314.506
35.19000 314.621
35.20000 314.752
35.21000 316.888
35.22000 320.979
35.23000 325.013
35.24000 324.333
35.25000 320.651
35.26000 317.092
35.27000 316.505
35.28000 317.193
35.29000 317.838
35.30000 318.451
35.31000 319.000
35.32000 319.599
35.33000 320.547
35.34000 321.562
35.35000 321.740
35.36000 318.230
35.37000 314.282
35.38000 311.290
35.39000 312.580
35.40000 313.812
35.41000 314.717
35.42000 314.970
35.43000 315.205
35.44000 316.193
35.45000 318.185
35.46000 320.180
35.47000 320.108
35.48000 318.271
35.49000 316.405
35.50000 313.006
35.51000 308.739
35.52000 304.816
35.53000 307.502
35.54000 312.718
35.55000 317.550
35.56000 317.206
35.57000 315.699
35.58000 314.755
35.59000 317.205
35.60000 320.223
35.61000 324.131
35.62000 331.518
35.63000 339.258
35.64000 344.943
35.65000 331.688
35.66000 320.669
35.67000 313.749
35.68000 314.115
35.69000 314.623
35.70000 317.886
35.71000 324.390
35.72000 330.882
35.73000 331.254
35.74000 327.023
35.75000 322.703
35.76000 315.110
35.77000 305.864
35.78000 297.388
35.79000 300.875
35.80000 308.452
35.81000 315.368
35.82000 315.987
35.83000 315.260
35.84000 314.459
35.85000 313.267
35.86000 312.018
35.87000 310.252
35.88000 306.690
35.89000 302.975
35.90000 300.338
35.91000 303.651
35.92000 306.359
35.93000 307.121
35.94000 304.803
35.95000 302.447
35.96000 302.342
35.97000 304.565
35.98000 306.776
35.99000 305.283
36.00000 301.358
36.01000 297.714
36.02000 301.796
36.03000 309.363
36.04000 316.253
36.05000 314.466
36.06000 310.034
36.07000 306.053
36.08000 301.863
36.09000 298.160
36.10000 294.713
36.11000 292.461
36.12000 290.360
36.13000 289.620
36.14000 293.095
36.15000 296.870
36.16000 299.452
36.17000 299.480
36.18000 299.442
36.19000 298.448
36.20000 296.113
36.21000 293.770
36.22000 293.820
36.23000 296.041
36.24000 298.240
36.25000 300.761
36.26000 303.418
36.27000 305.981
36.28000 306.551
36.29000 306.318
36.30000 306.360
36.31000 309.347
36.32000 313.134
36.33000 316.478
36.34000 306.760
36.35000 296.374
36.36000 288.078
36.37000 288.411
36.38000 289.680
36.39000 290.648
36.40000 290.782
36.41000 290.868
36.42000 290.924
36.43000 289.017
36.44000 287.581
36.45000 288.015
36.46000 290.776
36.47000 293.544
36.48000 296.365
36.49000 299.229
36.50000 302.050
36.51000 306.710
36.52000 312.179
36.53000 317.033
36.54000 311.409
36.55000 302.016
36.56000 293.881
36.57000 297.236
36.58000 303.358
36.59000 308.661
36.60000 308.077
36.61000 306.802
36.62000 306.179
36.63000 307.950
36.64000 309.942
36.65000 311.505
36.66000 312.010
36.67000 312.467
36.68000 312.754
36.69000 304.603
36.70000 298.615
36.71000 295.072
36.72000 294.206
36.73000 293.385
36.74000 298.430
36.75000 307.628
36.76000 316.629
36.77000 316.784
36.78000 312.903
36.79000 308.646
36.80000 299.158
36.81000 287.992
36.82000 278.917
36.83000 286.260
36.84000 297.103
36.85000 306.302
36.86000 300.499
36.87000 293.936
36.88000 290.121
36.89000 295.268
36.90000 301.108
36.91000 304.558
36.92000 302.739
36.93000 300.730
36.94000 299.527
36.95000 304.828
36.96000 308.635
36.97000 310.658
36.98000 310.967
36.99000 311.295
37.00000 313.159
37.01000 315.987
37.02000 318.734
37.03000 318.221
37.04000 316.421
37.05000 314.608
37.06000 312.639
37.07000 310.625
37.08000 308.415
37.09000 304.873
37.10000 301.080
37.11000 297.935
37.12000 311.735
37.13000 324.768
37.14000 332.957
37.15000 327.056
37.16000 320.256
37.17000 318.155
37.18000 325.300
37.19000 332.691
37.20000 336.895
37.21000 319.418
37.22000 307.179
37.23000 299.882
37.24000 296.761
37.25000 293.664
37.26000 291.807
37.27000 290.644
37.28000 289.525
37.29000 289.095
37.30000 288.937
37.31000 289.038
37.32000 291.683
37.33000 294.974
37.34000 297.476
37.35000 295.288
37.36000 292.327
37.37000 289.931
37.38000 290.886
37.39000 291.935
37.40000 294.803
37.41000 302.390
37.42000 310.221
37.43000 312.155
37.44000 303.742
37.45000 295.136
37.46000 290.511
37.47000 294.393
37.48000 297.045
37.49000 298.463
37.50000 298.957
37.51000 299.458
37.52000 300.155
37.53000 300.950
37.54000 301.709
37.55000 296.717
37.56000 290.289
37.57000 285.004
37.58000 289.304
37.59000 295.764
37.60000 300.686
37.61000 297.597
37.62000 293.356
37.63000 290.012
37.64000 290.360
37.65000 290.888
37.66000 290.360
37.67000 287.386
37.68000 284.312
37.69000 283.184
37.70000 285.095
37.71000 287.041
37.72000 288.024
37.73000 291.930
37.74000 294.552
37.75000 298.038
37.76000 302.097
37.77000 306.078
37.78000 307.981
37.79000 308.957
37.80000 309.877
37.81000 310.692
37.82000 311.410
37.83000 311.248
37.84000 304.711
37.85000 296.905
37.86000 290.372
37.87000 289.688
37.88000 289.733
37.89000 289.768
37.90000 290.369
37.91000 290.876
37.92000 292.666
37.93000 297.114
37.94000 301.644
37.95000 306.038
37.96000 310.242
37.97000 314.443
37.98000 313.672
37.99000 308.462
38.00000 303.294
38.01000 300.751
38.02000 299.755
38.03000 298.840
38.04000 299.625
38.05000 301.086
38.06000 302.446
38.07000 300.889
38.08000 298.777
38.09000 296.185
38.10000 290.571
38.11000 284.429
38.12000 281.602
38.13000 292.281
38.14000 304.403
38.15000 313.406
38.16000 319.650
38.17000 324.382
38.18000 324.736
38.19000 317.005
38.20000 309.096
38.21000 303.223
38.22000 299.848
38.23000 296.487
38.24000 298.160
38.25000 303.777
38.26000 309.312
38.27000 311.491
38.28000 311.907
38.29000 312.323
38.30000 312.745
38.31000 313.169
38.32000 313.559
38.33000 319.209
38.34000 325.361
38.35000 330.392
38.36000 329.235
38.37000 327.130
38.38000 327.808
38.39000 338.554
38.40000 350.211
38.41000 358.584
38.42000 364.993
38.43000 369.828
38.44000 374.474
38.45000 378.810
38.46000 383.140
38.47000 393.040
38.48000 408.957
38.49000 424.805
38.50000 440.950
38.51000 457.127
38.52000 473.431
38.53000 493.536
38.54000 515.424
38.55000 538.097
38.56000 571.478
38.57000 608.253
38.58000 641.475
38.59000 667.284
38.60000 688.606
38.61000 709.303
38.62000 726.959
38.63000 744.210
38.64000 764.040
38.65000 792.178
38.66000 820.946
38.67000 840.873
38.68000 845.583
38.69000 848.729
38.70000 853.179
38.71000 859.538
38.72000 865.912
38.73000 871.087
38.74000 875.126
38.75000 879.131
38.76000 870.464
38.77000 854.234
38.78000 838.262
38.79000 828.278
38.80000 820.800
38.81000 811.523
38.82000 781.765
38.83000 746.225
38.84000 714.659
38.85000 685.744
38.86000 661.097
38.87000 636.469
38.88000 611.923
38.89000 587.386
38.90000 564.839
38.91000 548.012
38.92000 531.541
38.93000 520.572
38.94000 486.270
38.95000 460.439
38.96000 437.763
38.97000 419.176
38.98000 400.614
38.99000 386.219
39.00000 375.297
39.01000 364.518
39.02000 356.326
39.03000 349.746
39.04000 342.961
39.05000 332.408
39.06000 320.447
39.07000 309.936
39.08000 313.405
39.09000 320.381
39.10000 326.463
39.11000 321.188
39.12000 315.101
39.13000 309.976
39.14000 308.518
39.15000 307.418
39.16000 305.850
39.17000 303.080
39.18000 300.249
39.19000 298.443
39.20000 283.659
39.21000 272.737
39.22000 268.830
39.23000 272.951
39.24000 277.077
39.25000 280.258
39.26000 282.744
39.27000 285.183
39.28000 287.860
39.29000 290.552
39.30000 292.820
39.31000 288.779
39.32000 282.635
39.33000 276.874
39.34000 274.286
39.35000 272.403
39.36000 270.794
39.37000 265.777
39.38000 261.142
39.39000 258.760
39.40000 264.015
39.41000 269.899
39.42000 274.501
39.43000 276.168
39.44000 277.720
39.45000 278.665
39.46000 287.022
39.47000 293.053
39.48000 292.262
39.49000 284.616
39.50000 277.026
39.51000 274.714
39.52000 275.854
39.53000 276.964
39.54000 277.524
39.55000 277.827
39.56000 277.976
39.57000 276.217
39.58000 273.890
39.59000 271.391
39.60000 267.657
39.61000 263.680
39.62000 260.356
39.63000 262.036
39.64000 263.940
39.65000 265.768
39.66000 267.362
39.67000 268.941
39.68000 268.307
39.69000 263.148
39.70000 257.854
39.71000 254.787
39.72000 263.948
39.73000 270.420
39.74000 272.416
39.75000 270.463
39.76000 268.471
39.77000 264.138
39.78000 258.444
39.79000 252.945
39.80000 257.421
39.81000 265.336
39.82000 272.366
39.83000 270.230
39.84000 265.670
39.85000 261.816
39.86000 262.353
39.87000 263.648
39.88000 264.705
39.89000 257.625
39.90000 251.134
39.91000 250.309
39.92000 264.773
39.93000 280.086
39.94000 286.316
39.95000 275.973
39.96000 265.280
39.97000 259.419
39.98000 256.525
39.99000 254.541
40.00000 252.888
40.01000 251.493
40.02000 250.151
40.03000 250.913
40.04000 252.766
40.05000 254.539
40.06000 260.938
40.07000 268.408
40.08000 274.782
40.09000 271.478
40.10000 265.903
40.11000 261.526
40.12000 263.667
40.13000 266.790
40.14000 269.275
40.15000 265.568
40.16000 262.137
40.17000 259.861
40.18000 260.369
40.19000 261.000
40.20000 260.287
40.21000 257.388
40.22000 254.459
40.23000 252.947
40.24000 250.111
40.25000 248.235
40.26000 250.558
40.27000 255.776
40.28000 260.825
40.29000 260.917
40.30000 258.714
40.31000 256.629
40.32000 259.617
40.33000 263.823
40.34000 267.205
40.35000 264.315
40.36000 260.124
40.37000 256.920
40.38000 258.453
40.39000 260.607
40.40000 262.273
40.41000 258.180
40.42000 254.592
40.43000 252.955
40.44000 255.516
40.45000 258.219
40.46000 258.485
40.47000 255.228
40.48000 251.944
40.49000 250.868
40.50000 251.854
40.51000 252.872
40.52000 256.071
40.53000 260.607
40.54000 264.922
40.55000 264.270
40.56000 261.565
40.57000 259.036
40.58000 256.970
40.59000 255.212
40.60000 253.361
40.61000 250.893
40.62000 248.312
40.63000 247.094
40.64000 251.661
40.65000 256.880
40.66000 260.797
40.67000 259.711
40.68000 258.623
40.69000 256.781
40.70000 253.490
40.71000 250.163
40.72000 249.179
40.73000 251.194
40.74000 253.217
40.75000 256.226
40.76000 260.033
40.77000 263.748
40.78000 263.180
40.79000 260.274
40.80000 257.424
40.81000 255.581
40.82000 254.109
40.83000 252.752
40.84000 250.855
40.85000 249.036
40.86000 248.228
40.87000 253.255
40.88000 259.217
40.89000 263.406
40.90000 260.919
40.91000 257.791
40.92000 255.519
40.93000 250.113
40.94000 245.837
40.95000 243.377
40.96000 244.027
40.97000 244.730
40.98000 245.669
40.99000 246.876
41.00000 248.078
41.01000 248.635
41.02000 248.721
41.03000 248.900
41.04000 252.180
41.05000 256.971
41.06000 261.228
41.07000 257.716
41.08000 251.646
41.09000 246.132
41.10000 246.178
41.11000 247.296
41.12000 248.911
41.13000 253.039
41.14000 257.519
41.15000 260.399
41.16000 257.922
41.17000 255.012
41.18000 252.972
41.19000 254.861
41.20000 256.404
41.21000 256.888
41.22000 255.760
41.23000 254.615
41.24000 253.875
41.25000 253.536
41.26000 253.200
41.27000 252.039
41.28000 250.372
41.29000 248.649
41.30000 245.515
41.31000 241.766
41.32000 238.636
41.33000 242.975
41.34000 249.507
41.35000 255.344
41.36000 257.626
41.37000 259.015
41.38000 258.735
41.39000 250.973
41.40000 242.310
41.41000 236.291
41.42000 238.167
41.43000 240.571
41.44000 242.193
41.45000 244.087
41.46000 245.502
41.47000 245.202
41.48000 242.585
41.49000 239.957
41.50000 238.470
41.51000 237.977
41.52000 237.489
41.53000 237.372
41.54000 237.465
41.55000 237.628
41.56000 239.159
41.57000 241.222
41.58000 243.134
41.59000 243.503
41.60000 243.469
41.61000 243.439
41.62000 243.463
41.63000 243.491
41.64000 244.019
41.65000 246.529
41.66000 249.245
41.67000 251.681
41.68000 253.372
41.69000 255.022
41.70000 256.091
41.71000 245.311
41.72000 237.246
41.73000 234.023
41.74000 236.584
41.75000 239.152
41.76000 240.668
41.77000 241.375
41.78000 242.070
41.79000 240.170
41.80000 237.047
41.81000 233.854
41.82000 229.562
41.83000 224.889
41.84000 221.451
41.85000 228.747
41.86000 238.530
41.87000 246.948
41.88000 240.220
41.89000 232.618
41.90000 226.905
41.91000 227.860
41.92000 229.397
41.93000 232.268
41.94000 238.315
41.95000 244.499
41.96000 248.328
41.97000 245.177
41.98000 242.846
41.99000 240.860
42.00000 239.238
42.01000 237.611
42.02000 235.523
42.03000 233.120
42.04000 230.774
42.05000 235.737
42.06000 243.684
42.07000 250.826
42.08000 247.416
42.09000 240.744
42.10000 235.091
42.11000 237.064
42.12000 240.600
42.13000 243.578
42.14000 240.306
42.15000 236.904
42.16000 234.312
42.17000 234.266
42.18000 234.405
42.19000 233.431
42.20000 230.091
42.21000 226.674
42.22000 224.659
42.23000 228.094
42.24000 230.547
42.25000 233.091
42.26000 235.719
42.27000 238.330
42.28000 239.839
42.29000 240.681
42.30000 241.496
42.31000 241.700
42.32000 241.658
42.33000 241.468
42.34000 239.668
42.35000 237.424
42.36000 236.122
42.37000 240.945
42.38000 246.872
42.39000 251.751
42.40000 250.682
42.41000 249.261
42.42000 247.826
42.43000 246.353
42.44000 244.877
42.45000 243.237
42.46000 241.286
42.47000 239.327
42.48000 238.233
42.49000 230.339
42.50000 224.874
42.51000 225.616
42.52000 231.396
42.53000 237.129
42.54000 240.766
42.55000 243.272
42.56000 245.678
42.57000 245.858
42.58000 245.266
42.59000 245.072
42.60000 248.581
42.61000 252.997
42.62000 255.907
42.63000 250.254
42.64000 243.249
42.65000 237.626
42.66000 242.709
42.67000 247.644
42.68000 250.428
42.69000 247.830
42.70000 244.974
42.71000 241.049
42.72000 235.315
42.73000 229.553
42.74000 226.516
42.75000 239.070
42.76000 247.529
42.77000 245.770
42.78000 236.674
42.79000 227.854
42.80000 227.942
42.81000 232.315
42.82000 236.469
42.83000 239.791
42.84000 242.609
42.85000 244.937
42.86000 243.357
42.87000 240.930
42.88000 238.734
42.89000 237.695
42.90000 236.815
42.91000 236.127
42.92000 232.278
42.93000 229.008
42.94000 226.481
42.95000 225.613
42.96000 224.807
42.97000 225.485
42.98000 228.392
42.99000 231.322
43.00000 232.771
43.01000 232.773
43.02000 232.747
43.03000 230.406
43.04000 226.588
43.05000 222.889
43.06000 222.111
43.07000 222.589
43.08000 223.037
43.09000 225.698
43.10000 228.709
43.11000 231.386
43.12000 231.752
43.13000 231.678
43.14000 232.282
43.15000 235.888
43.16000 239.850
43.17000 242.856
43.18000 244.209
43.19000 245.187
43.20000 242.328
43.21000 231.811
43.22000 221.081
43.23000 218.205
43.24000 225.799
43.25000 233.440
43.26000 235.762
43.27000 233.523
43.28000 231.313
43.29000 230.667
43.30000 230.910
43.31000 230.954
43.32000 227.163
43.33000 221.902
43.34000 217.027
43.35000 217.555
43.36000 219.283
43.37000 220.780
43.38000 220.878
43.39000 220.743
43.40000 221.871
43.41000 227.953
43.42000 234.537
43.43000 239.375
43.44000 231.978
43.45000 225.758
43.46000 222.369
43.47000 224.022
43.48000 225.774
43.49000 225.911
43.50000 224.147
43.51000 222.384
43.52000 221.014
43.53000 219.948
43.54000 218.952
43.55000 220.536
43.56000 223.427
43.57000 226.230
43.58000 227.664
43.59000 228.629
43.60000 229.510
43.61000 232.950
43.62000 236.523
43.63000 238.463
43.64000 231.756
43.65000 223.783
43.66000 218.020
43.67000 219.959
43.68000 222.558
43.69000 224.404
43.70000 226.701
43.71000 228.464
43.72000 227.538
43.73000 222.350
43.74000 217.108
43.75000 216.217
43.76000 219.833
43.77000 223.429
43.78000 220.959
43.79000 214.497
43.80000 208.386
43.81000 211.964
43.82000 219.918
43.83000 227.142
43.84000 224.969
43.85000 219.928
43.86000 215.398
43.87000 217.031
43.88000 219.550
43.89000 221.515
43.90000 220.892
43.91000 219.942
43.92000 220.753
43.93000 227.035
43.94000 233.707
43.95000 238.272
43.96000 235.299
43.97000 232.893
43.98000 231.568
43.99000 231.762
44.00000 231.965
44.01000 229.561
44.02000 224.788
44.03000 220.061
44.04000 216.904
44.05000 214.732
44.06000 212.768
44.07000 215.264
44.08000 219.559
44.09000 223.850
44.10000 228.101
44.11000 232.341
44.12000 236.085
44.13000 226.105
44.14000 215.384
44.15000 207.391
44.16000 210.674
44.17000 215.185
44.18000 219.101
44.19000 221.373
44.20000 223.548
44.21000 224.978
44.22000 218.734
44.23000 214.008
44.24000 214.572
44.25000 221.727
44.26000 228.881
44.27000 229.100
44.28000 223.765
44.29000 218.510
44.30000 219.085
44.31000 222.654
44.32000 226.178
44.33000 228.936
44.34000 231.418
44.35000 233.696
44.36000 234.111
44.37000 234.077
44.38000 234.047
44.39000 236.025
44.40000 237.974
44.41000 239.560
44.42000 239.814
44.43000 239.944
44.44000 236.796
44.45000 225.541
44.46000 213.907
44.47000 206.590
44.48000 226.117
44.49000 240.542
44.50000 246.134
44.51000 242.027
44.52000 237.917
44.53000 234.215
44.54000 230.803
44.55000 227.462
44.56000 230.005
44.57000 235.132
44.58000 239.906
44.59000 239.748
44.60000 238.005
44.61000 236.422
44.62000 236.102
44.63000 236.052
44.64000 236.010
44.65000 233.975
44.66000 232.042
44.67000 232.581
44.68000 241.198
44.69000 250.442
44.70000 256.371
44.71000 254.982
44.72000 253.328
44.73000 252.336
44.74000 248.019
44.75000 244.930
44.76000 246.658
44.77000 253.024
44.78000 259.362
44.79000 263.521
44.80000 266.308
44.81000 269.015
44.82000 274.697
44.83000 281.294
44.84000 287.713
44.85000 292.074
44.86000 295.846
44.87000 299.869
44.88000 305.600
44.89000 311.653
44.90000 316.675
44.91000 318.396
44.92000 319.499
44.93000 323.666
44.94000 336.756
44.95000 350.418
44.96000 358.541
44.97000 355.747
44.98000 352.660
44.99000 350.903
45.00000 369.778
45.01000 382.998
45.02000 394.189
45.03000 403.663
45.04000 412.958
45.05000 413.132
45.06000 408.194
45.07000 403.439
45.08000 402.389
45.09000 402.722
45.10000 403.190
45.11000 404.991
45.12000 407.132
45.13000 408.484
45.14000 405.145
45.15000 401.031
45.16000 397.700
45.17000 381.824
45.18000 367.881
45.19000 359.741
45.20000 366.694
45.21000 374.426
45.22000 377.068
45.23000 370.764
45.24000 364.292
45.25000 360.810
45.26000 348.042
45.27000 339.306
45.28000 330.147
45.29000 320.671
45.30000 311.309
45.31000 306.005
45.32000 302.729
45.33000 299.607
45.34000 299.137
45.35000 299.532
45.36000 298.850
45.37000 289.117
45.38000 277.341
45.39000 267.354
45.40000 266.711
45.41000 267.415
45.42000 267.970
45.43000 265.331
45.44000 263.000
45.45000 260.109
45.46000 255.916
45.47000 251.671
45.48000 248.243
45.49000 246.095
45.50000 243.962
45.51000 242.884
45.52000 239.027
45.53000 236.447
45.54000 234.015
45.55000 231.679
45.56000 229.370
45.57000 227.775
45.58000 226.499
45.59000 225.296
45.60000 222.657
45.61000 219.844
45.62000 217.446
45.63000 218.067
45.64000 219.289
45.65000 220.453
45.66000 221.351
45.67000 222.216
45.68000 222.878
45.69000 218.318
45.70000 214.429
45.71000 212.261
45.72000 213.665
45.73000 215.178
45.74000 216.469
45.75000 217.452
45.76000 218.432
45.77000 214.885
45.78000 207.289
45.79000 199.804
45.80000 199.113
45.81000 202.432
45.82000 205.671
45.83000 207.236
45.84000 208.132
45.85000 208.967
45.86000 207.643
45.87000 205.924
45.88000 204.308
45.89000 203.339
45.90000 202.483
45.91000 202.207
45.92000 204.296
45.93000 206.637
45.94000 208.377
45.95000 201.856
45.96000 196.421
45.97000 195.675
45.98000 203.606
45.99000 211.730
46.00000 216.041
46.01000 215.666
46.02000 215.280
46.03000 214.138
46.04000 212.409
46.05000 210.653
46.06000 207.787
46.07000 204.337
46.08000 201.225
46.09000 203.757
46.10000 208.298
46.11000 212.466
46.12000 207.154
46.13000 200.404
46.14000 194.901
46.15000 196.298
46.16000 198.753
46.17000 200.686
46.18000 200.729
46.19000 200.600
46.20000 200.507
46.21000 201.048
46.22000 201.483
46.23000 202.576
46.24000 204.752
46.25000 206.944
46.26000 206.827
46.27000 204.210
46.28000 201.603
46.29000 198.761
46.30000 195.785
46.31000 192.960
46.32000 194.705
46.33000 198.595
46.34000 202.093
46.35000 200.228
46.36000 196.660
46.37000 193.436
46.38000 202.018
46.39000 211.755
46.40000 219.103
46.41000 214.820
46.42000 208.988
46.43000 205.751
46.44000 210.891
46.45000 216.668
46.46000 220.672
46.47000 215.659
46.48000 211.648
46.49000 208.320
46.50000 205.992
46.51000 203.672
46.52000 199.404
46.53000 193.286
46.54000 187.218
46.55000 186.724
46.56000 189.642
46.57000 192.739
46.58000 200.003
46.59000 209.015
46.60000 217.130
46.61000 215.014
46.62000 210.006
46.63000 205.556
46.64000 205.370
46.65000 205.896
46.66000 206.795
46.67000 209.302
46.68000 211.993
46.69000 213.468
46.70000 211.440
46.71000 209.193
46.72000 207.696
46.73000 202.200
46.74000 198.055
46.75000 197.302
46.76000 200.955
46.77000 204.622
46.78000 205.806
46.79000 204.917
46.80000 204.039
46.81000 202.637
46.82000 200.990
46.83000 199.375
46.84000 198.364
46.85000 197.579
46.86000 197.024
46.87000 198.688
46.88000 200.910
46.89000 202.848
46.90000 200.938
46.91000 198.769
46.92000 196.128
46.93000 191.684
46.94000 187.063
46.95000 184.648
46.96000 187.900
46.97000 191.439
46.98000 193.698
46.99000 196.796
47.00000 199.061
47.01000 200.012
47.02000 199.455
47.03000 198.892
47.04000 197.422
47.05000 195.282
47.06000 193.183
47.07000 195.410
47.08000 199.617
47.09000 203.478
47.10000 202.206
47.11000 199.218
47.12000 197.042
47.13000 201.583
47.14000 207.621
47.15000 212.781
47.16000 204.734
47.17000 196.372
47.18000 190.196
47.19000 191.449
47.20000 193.315
47.21000 193.773
47.22000 191.001
47.23000 188.101
47.24000 186.333
47.25000 187.791
47.26000 188.860
47.27000 189.760
47.28000 190.492
47.29000 191.237
47.30000 193.320
47.31000 196.279
47.32000 199.161
47.33000 199.491
47.34000 198.733
47.35000 198.256
47.36000 201.250
47.37000 205.278
47.38000 208.190
47.39000 203.117
47.40000 196.474
47.41000 190.919
47.42000 189.556
47.43000 188.852
47.44000 189.440
47.45000 193.942
47.46000 198.713
47.47000 200.456
47.48000 196.000
47.49000 191.360
47.50000 188.670
47.51000 187.202
47.52000 186.177
47.53000 185.021
47.54000 183.748
47.55000 182.489
47.56000 182.076
47.57000 182.156
47.58000 182.234
47.59000 186.133
47.60000 191.225
47.61000 196.103
47.62000 198.738
47.63000 200.780
47.64000 202.039
47.65000 198.426
47.66000 193.972
47.67000 190.335
47.68000 189.871
47.69000 189.765
47.70000 188.870
47.71000 185.844
47.72000 182.699
47.73000 183.667
47.74000 192.153
47.75000 200.798
47.76000 205.542
47.77000 198.696
47.78000 193.972
47.79000 190.536
47.80000 188.104
47.81000 185.732
47.82000 185.758
47.83000 187.030
47.84000 188.247
47.85000 192.070
47.86000 196.484
47.87000 200.316
47.88000 199.002
47.89000 196.478
47.90000 193.846
47.91000 190.627
47.92000 187.319
47.93000 184.687
47.94000 183.519
47.95000 182.683
47.96000 183.467
47.97000 188.160
47.98000 193.027
47.99000 193.370
48.00000 186.351
48.01000 179.228
48.02000 175.550
48.03000 179.312
48.04000 181.833
48.05000 182.479
48.06000 181.831
48.07000 181.321
48.08000 184.901
48.09000 190.378
48.10000 195.561
48.11000 196.617
48.12000 196.398
48.13000 195.680
48.14000 191.159
48.15000 185.846
48.16000 181.504
48.17000 181.822
48.18000 182.751
48.19000 183.471
48.20000 181.773
48.21000 180.282
48.22000 178.496
48.23000 176.077
48.24000 173.636
48.25000 175.098
48.26000 182.205
48.27000 189.358
48.28000 192.273
48.29000 191.224
48.30000 190.143
48.31000 186.875
48.32000 182.262
48.33000 177.826
48.34000 177.364
48.35000 178.548
48.36000 179.655
48.37000 182.697
48.38000 185.948
48.39000 188.755
48.40000 188.617
48.41000 187.939
48.42000 187.877
48.43000 190.432
48.44000 193.283
48.45000 195.424
48.46000 192.517
48.47000 190.002
48.48000 188.836
48.49000 190.264
48.50000 191.756
48.51000 190.814
48.52000 186.750
48.53000 182.680
48.54000 181.536
48.55000 182.798
48.56000 184.066
48.57000 185.626
48.58000 187.345
48.59000 188.886
48.60000 187.227
48.61000 184.384
48.62000 181.763
48.63000 181.455
48.64000 181.693
48.65000 182.678
48.66000 187.982
48.67000 193.980
48.68000 197.695
48.69000 192.798
48.70000 187.073
48.71000 182.911
48.72000 183.203
48.73000 183.597
48.74000 184.713
48.75000 187.068
48.76000 189.445
48.77000 189.223
48.78000 186.061
48.79000 182.908
48.80000 178.231
48.81000 172.494
48.82000 167.024
48.83000 170.499
48.84000 178.340
48.85000 185.780
48.86000 187.383
48.87000 187.059
48.88000 186.765
48.89000 187.323
48.90000 187.981
48.91000 188.488
48.92000 188.227
48.93000 187.859
48.94000 187.228
48.95000 185.716
48.96000 184.131
48.97000 183.020
48.98000 179.770
48.99000 177.248
49.00000 176.106
49.01000 177.070
49.02000 178.056
49.03000 180.044
49.04000 183.028
49.05000 185.991
49.06000 187.149
49.07000 187.138
49.08000 187.052
49.09000 185.045
49.10000 182.202
49.11000 179.710
49.12000 181.481
49.13000 184.506
49.14000 187.209
49.15000 187.984
49.16000 188.333
49.17000 187.316
49.18000 180.166
49.19000 172.276
49.20000 167.958
49.21000 174.326
49.22000 181.410
49.23000 186.195
49.24000 188.457
49.25000 190.087
49.26000 189.185
49.27000 184.856
49.28000 180.509
49.29000 176.544
49.30000 172.913
49.31000 169.323
49.32000 171.116
49.33000 175.894
49.34000 180.457
49.35000 180.782
49.36000 179.458
49.37000 178.392
49.38000 179.966
49.39000 182.230
49.40000 184.217
49.41000 183.444
49.42000 182.375
49.43000 181.849
49.44000 183.483
49.45000 185.340
49.46000 186.793
49.47000 187.167
49.48000 187.481
49.49000 187.685
49.50000 185.576
49.51000 183.998
49.52000 181.223
49.53000 177.015
49.54000 172.814
49.55000 170.801
49.56000 170.470
49.57000 170.145
49.58000 172.355
49.59000 175.750
49.60000 179.145
49.61000 182.529
49.62000 185.909
49.63000 188.799
49.64000 187.419
49.65000 185.047
49.66000 183.005
49.67000 178.039
49.68000 173.464
49.69000 170.087
49.70000 170.946
49.71000 172.176
49.72000 174.056
49.73000 177.489
49.74000 180.988
49.75000 183.156
49.76000 183.424
49.77000 183.598
49.78000 183.770
49.79000 183.940
49.80000 184.089
49.81000 181.720
49.82000 177.634
49.83000 173.645
49.84000 172.411
49.85000 172.439
49.86000 172.350
49.87000 170.724
49.88000 168.623
49.89000 167.597
49.90000 174.637
49.91000 183.333
49.92000 190.659
49.93000 186.762
49.94000 182.300
49.95000 179.163
49.96000 180.199
49.97000 181.539
49.98000 182.140
49.99000 181.170
50.00000 180.147
50.01000 179.544
50.02000 179.919
50.03000 180.188
50.04000 178.321
50.05000 174.483
50.06000 170.668
50.07000 168.382
50.08000 167.024
50.09000 165.709
50.10000 168.856
50.11000 173.561
50.12000 177.914
50.13000 178.388
50.14000 177.793
50.15000 177.943
50.16000 182.951
50.17000 188.838
50.18000 193.685
50.19000 187.706
50.20000 181.801
50.21000 177.666
50.22000 178.503
50.23000 179.638
50.24000 180.773
50.25000 181.908
50.26000 183.042
50.27000 183.677
50.28000 188.275
50.29000 191.462
50.30000 191.759
50.31000 189.707
50.32000 187.610
50.33000 183.465
50.34000 178.216
50.35000 173.176
50.36000 175.699
50.37000 180.640
50.38000 185.281
50.39000 187.113
50.40000 188.258
50.41000 189.739
50.42000 193.137
50.43000 196.838
50.44000 199.809
50.45000 206.758
50.46000 212.692
50.47000 216.548
50.48000 215.191
50.49000 213.585
50.50000 214.756
50.51000 220.630
50.52000 226.581
50.53000 229.720
50.54000 233.972
50.55000 236.862
50.56000 240.359
50.57000 244.294
50.58000 248.270
50.59000 253.597
50.60000 259.575
50.61000 265.254
50.62000 265.578
50.63000 264.266
50.64000 263.367
50.65000 265.773
50.66000 268.896
50.67000 270.735
50.68000 266.134
50.69000 260.646
50.70000 256.357
50.71000 263.770
50.72000 270.426
50.73000 274.946
50.74000 274.681
50.75000 274.238
50.76000 272.822
50.77000 269.940
50.78000 267.044
50.79000 264.854
50.80000 263.354
50.81000 261.802
50.82000 255.823
50.83000 247.015
50.84000 238.559
50.85000 238.739
50.86000 242.636
50.87000 246.294
50.88000 240.875
50.89000 233.530
50.90000 226.860
50.91000 224.873
50.92000 223.781
50.93000 220.987
50.94000 210.653
50.95000 199.423
50.96000 190.900
50.97000 204.403
50.98000 216.147
50.99000 222.883
51.00000 219.605
51.01000 216.048
51.02000 211.730
51.03000 206.393
51.04000 201.056
51.05000 195.527
51.06000 189.845
51.07000 184.204
51.08000 180.686
51.09000 178.376
51.10000 176.206
51.11000 176.736
51.12000 178.304
51.13000 179.757
51.14000 181.595
51.15000 183.338
51.16000 184.598
51.17000 182.936
51.18000 180.782
51.19000 179.488
51.20000 181.568
51.21000 183.992
51.22000 185.773
51.23000 185.978
51.24000 186.071
51.25000 184.650
51.26000 180.530
51.27000 176.357
51.28000 173.101
51.29000 170.927
51.30000 168.761
51.31000 167.687
51.32000 167.444
51.33000 167.208
51.34000 167.263
51.35000 167.465
51.36000 167.732
51.37000 169.020
51.38000 170.657
51.39000 172.153
51.40000 174.376
51.41000 176.497
51.42000 177.603
51.43000 173.323
51.44000 168.254
51.45000 164.513
51.46000 165.409
51.47000 166.703
51.48000 167.622
51.49000 164.713
51.50000 162.377
51.51000 160.916
51.52000 160.845
51.53000 160.791
51.54000 161.649
51.55000 163.452
51.56000 165.245
51.57000 164.615
51.58000 162.383
51.59000 160.309
51.60000 162.592
51.61000 166.848
51.62000 170.791
51.63000 170.711
51.64000 169.401
51.65000 168.223
51.66000 167.275
51.67000 166.485
51.68000 165.062
51.69000 160.679
51.70000 155.921
51.71000 153.179
51.72000 156.712
51.73000 160.694
51.74000 163.420
51.75000 162.831
51.76000 162.312
51.77000 162.802
51.78000 164.715
51.79000 166.637
51.80000 165.650
51.81000 162.014
51.82000 158.413
51.83000 158.147
51.84000 159.842
51.85000 161.499
51.86000 162.365
51.87000 162.911
51.88000 163.127
51.89000 159.788
51.90000 155.480
51.91000 151.676
51.92000 154.795
51.93000 158.553
51.94000 161.782
51.95000 162.816
51.96000 163.612
51.97000 164.194
51.98000 164.186
51.99000 164.143
52.00000 164.114
52.01000 163.428
52.02000 162.912
52.03000 164.450
52.04000 168.550
52.05000 172.642
52.06000 171.189
52.07000 165.287
52.08000 159.473
52.09000 159.413
52.10000 162.332
52.11000 165.140
52.12000 166.035
52.13000 166.239
52.14000 166.225
52.15000 164.211
52.16000 161.714
52.17000 159.550
52.18000 161.156
52.19000 163.023
52.20000 164.052
52.21000 162.000
52.22000 159.663
52.23000 159.278
52.24000 163.728
52.25000 168.405
52.26000 171.349
52.27000 165.990
52.28000 162.019
52.29000 159.350
52.30000 158.113
52.31000 156.873
52.32000 155.154
52.33000 153.094
52.34000 151.078
52.35000 154.283
52.36000 159.748
52.37000 164.714
52.38000 162.679
52.39000 158.391
52.40000 154.588
52.41000 154.607
52.42000 155.444
52.43000 156.154
52.44000 157.675
52.45000 159.043
52.46000 159.530
52.47000 157.136
52.48000 154.517
52.49000 153.016
52.50000 153.991
52.51000 155.054
52.52000 155.693
52.53000 155.683
52.54000 155.672
52.55000 155.462
52.56000 155.060
52.57000 154.677
52.58000 155.798
52.59000 157.867
52.60000 159.878
52.61000 158.903
52.62000 156.772
52.63000 154.815
52.64000 154.881
52.65000 155.528
52.66000 155.959
52.67000 154.923
52.68000 153.610
52.69000 152.519
52.70000 158.039
52.71000 163.240
52.72000 165.537
52.73000 159.356
52.74000 152.631
52.75000 149.732
52.76000 154.388
52.77000 159.248
52.78000 162.017
52.79000 164.406
52.80000 166.071
52.81000 167.705
52.82000 169.312
52.83000 170.811
52.84000 166.754
52.85000 159.578
52.86000 152.667
52.87000 152.121
52.88000 153.878
52.89000 155.757
52.90000 158.842
52.91000 162.235
52.92000 164.201
52.93000 157.661
52.94000 149.713
52.95000 143.276
52.96000 150.597
52.97000 157.679
52.98000 164.045
52.99000 168.546
53.00000 172.950
53.01000 174.760
53.02000 172.003
53.03000 169.161
53.04000 167.630
53.05000 162.529
53.06000 159.038
53.07000 155.518
53.08000 151.974
53.09000 148.586
53.10000 150.797
53.11000 155.812
53.12000 160.593
53.13000 163.002
53.14000 164.490
53.15000 165.622
53.16000 163.753
53.17000 161.205
53.18000 158.925
53.19000 158.049
53.20000 157.375
53.21000 156.844
53.22000 161.269
53.23000 165.153
53.24000 167.075
53.25000 164.429
53.26000 161.597
53.27000 161.975
53.28000 167.384
53.29000 172.853
53.30000 175.620
53.31000 171.918
53.32000 169.451
53.33000 167.920
53.34000 167.013
53.35000 166.066
53.36000 164.051
53.37000 161.560
53.38000 159.211
53.39000 163.395
53.40000 169.033
53.41000 173.741
53.42000 171.685
53.43000 168.277
53.44000 165.085
53.45000 162.886
53.46000 160.811
53.47000 159.220
53.48000 157.473
53.49000 156.084
53.50000 155.715
53.51000 157.461
53.52000 159.273
53.53000 161.719
53.54000 165.048
53.55000 168.382
53.56000 168.947
53.57000 167.030
53.58000 165.129
53.59000 164.223
53.60000 163.905
53.61000 163.615
53.62000 163.900
53.63000 164.414
53.64000 164.893
53.65000 160.257
53.66000 154.824
53.67000 150.114
53.68000 149.982
53.69000 150.655
53.70000 151.919
53.71000 155.598
53.72000 159.536
53.73000 162.463
53.74000 156.939
53.75000 152.267
53.76000 149.359
53.77000 149.723
53.78000 150.159
53.79000 150.629
53.80000 151.139
53.81000 151.649
53.82000 154.675
53.83000 159.668
53.84000 164.587
53.85000 166.374
53.86000 166.512
53.87000 166.400
53.88000 162.113
53.89000 156.338
53.90000 151.037
53.91000 153.748
53.92000 157.871
53.93000 161.378
53.94000 161.473
53.95000 161.044
53.96000 160.947
53.97000 162.053
53.98000 163.270
53.99000 164.144
54.00000 162.727
54.01000 161.563
54.02000 160.182
54.03000 158.442
54.04000 156.698
54.05000 156.093
54.06000 156.726
54.07000 157.356
54.08000 154.860
54.09000 150.223
54.10000 145.769
54.11000 146.921
54.12000 150.710
54.13000 154.252
54.14000 154.397
54.15000 153.462
54.16000 152.617
54.17000 155.057
54.18000 157.813
54.19000 160.135
54.20000 160.337
54.21000 160.256
54.22000 160.735
54.23000 163.027
54.24000 165.457
54.25000 167.142
54.26000 154.402
54.27000 144.428
54.28000 141.556
54.29000 149.110
54.30000 156.756
54.31000 160.722
54.32000 161.189
54.33000 161.652
54.34000 162.003
54.35000 162.279
54.36000 162.431
54.37000 159.685
54.38000 155.722
54.39000 152.352
54.40000 155.754
54.41000 161.075
54.42000 165.803
54.43000 163.750
54.44000 160.875
54.45000 158.406
54.46000 157.691
54.47000 157.179
54.48000 156.813
54.49000 156.869
54.50000 156.952
54.51000 157.007
54.52000 155.685
54.53000 154.680
54.54000 156.148
54.55000 160.835
54.56000 165.525
54.57000 165.081
54.58000 160.342
54.59000 155.664
54.60000 151.539
54.61000 147.821
54.62000 144.530
54.63000 149.089
54.64000 156.591
54.65000 163.139
54.66000 160.448
54.67000 155.430
54.68000 151.053
54.69000 151.423
54.70000 152.403
54.71000 153.010
54.72000 152.188
54.73000 151.226
54.74000 150.818
54.75000 151.835
54.76000 152.925
54.77000 153.621
54.78000 149.225
54.79000 145.959
54.80000 147.321
54.81000 154.000
54.82000 160.665
54.83000 163.923
54.84000 164.661
54.85000 165.384
54.86000 164.639
54.87000 163.222
54.88000 161.819
54.89000 160.631
54.90000 159.516
54.91000 158.874
54.92000 162.159
54.93000 166.320
54.94000 169.878
54.95000 164.124
54.96000 158.156
54.97000 153.907
54.98000 155.506
54.99000 157.589
55.00000 159.310
55.01000 160.197
55.02000 161.052
55.03000 161.573
55.04000 163.248
55.05000 164.454
55.06000 167.073
55.07000 171.116
55.08000 175.116
55.09000 175.100
55.10000 172.446
55.11000 169.861
55.12000 168.418
55.13000 167.524
55.14000 166.471
55.15000 163.463
55.16000 159.872
55.17000 156.938
55.18000 158.713
55.19000 161.415
55.20000 163.675
55.21000 167.396
55.22000 170.636
55.23000 172.511
55.24000 170.245
55.25000 167.695
55.26000 166.222
55.27000 166.960
55.28000 167.763
55.29000 168.230
55.30000 173.946
55.31000 177.977
55.32000 179.089
55.33000 177.618
55.34000 176.126
55.35000 173.444
55.36000 170.066
55.37000 166.803
55.38000 170.922
55.39000 177.549
55.40000 183.216
55.41000 178.878
55.42000 171.883
55.43000 166.792
55.44000 173.578
55.45000 182.420
55.46000 189.644
55.47000 190.840
55.48000 191.300
55.49000 190.906
55.50000 188.205
55.51000 185.374
55.52000 185.747
55.53000 191.986
55.54000 198.351
55.55000 201.846
55.56000 211.437
55.57000 218.049
55.58000 224.959
55.59000 232.104
55.60000 239.148
55.61000 242.171
55.62000 243.101
55.63000 243.990
55.64000 254.837
55.65000 268.207
55.66000 280.863
55.67000 287.194
55.68000 292.035
55.69000 297.926
55.70000 309.559
55.71000 322.060
55.72000 332.014
55.73000 356.266
55.74000 376.851
55.75000 395.375
55.76000 408.919
55.77000 422.242
55.78000 438.054
55.79000 457.924
55.80000 477.851
55.81000 488.152
55.82000 513.050
55.83000 529.824
55.84000 544.917
55.85000 558.847
55.86000 572.895
55.87000 590.442
55.88000 609.614
55.89000 627.758
55.90000 632.090
55.91000 632.082
55.92000 632.482
55.93000 635.986
55.94000 640.137
55.95000 643.305
55.96000 641.736
55.97000 639.544
55.98000 637.847
55.99000 632.601
56.00000 628.225
56.01000 623.306
56.02000 617.213
56.03000 611.080
56.04000 598.409
56.05000 576.261
56.06000 554.038
56.07000 536.055
56.08000 522.052
56.09000 508.001
56.10000 490.504
56.11000 470.887
56.12000 451.326
56.13000 433.008
56.14000 415.206
56.15000 398.562
56.16000 388.616
56.17000 381.286
56.18000 372.470
56.19000 353.801
56.20000 333.323
56.21000 314.927
56.22000 305.392
56.23000 296.859
56.24000 290.447
56.25000 278.374
56.26000 268.664
56.27000 259.739
56.28000 252.327
56.29000 244.952
56.30000 239.056
56.31000 235.060
56.32000 231.075
56.33000 224.374
56.34000 215.461
56.35000 206.611
56.36000 200.774
56.37000 196.586
56.38000 192.653
56.39000 193.299
56.40000 195.640
56.41000 197.800
56.42000 194.920
56.43000 191.218
56.44000 188.146
56.45000 188.731
56.46000 189.903
56.47000 189.336
56.48000 182.195
56.49000 174.422
56.50000 168.767
56.51000 170.259
56.52000 171.678
56.53000 169.990
56.54000 162.966
56.55000 155.850
56.56000 154.682
56.57000 160.252
56.58000 165.809
56.59000 166.687
56.60000 164.171
56.61000 161.685
56.62000 160.206
56.63000 159.218
56.64000 158.456
56.65000 161.005
56.66000 164.649
56.67000 167.960
56.68000 165.995
56.69000 163.231
56.70000 160.843
56.71000 160.375
56.72000 160.175
56.73000 159.494
56.74000 157.191
56.75000 154.757
56.76000 153.048
56.77000 148.677
56.78000 145.290
56.79000 143.947
56.80000 145.729
56.81000 147.544
56.82000 149.638
56.83000 152.010
56.84000 154.366
56.85000 154.904
56.86000 154.273
56.87000 153.670
56.88000 153.790
56.89000 154.224
56.90000 154.939
56.91000 159.064
56.92000 164.193
56.93000 168.778
56.94000 164.140
56.95000 158.536
56.96000 153.984
56.97000 154.168
56.98000 154.925
56.99000 154.924
57.00000 152.652
57.01000 150.228
57.02000 148.589
57.03000 143.420
57.04000 139.495
57.05000 140.778
57.06000 149.125
57.07000 157.504
57.08000 158.981
57.09000 154.431
57.10000 149.931
57.11000 146.930
57.12000 144.842
57.13000 142.804
57.14000 141.748
57.15000 141.075
57.16000 140.505
57.17000 140.983
57.18000 141.735
57.19000 142.395
57.20000 147.514
57.21000 152.566
57.22000 156.231
57.23000 154.367
57.24000 151.930
57.25000 149.705
57.26000 148.048
57.27000 146.422
57.28000 145.368
57.29000 150.073
57.30000 153.605
57.31000 152.470
57.32000 145.740
57.33000 139.027
57.34000 139.152
57.35000 144.548
57.36000 149.854
57.37000 148.972
57.38000 145.040
57.39000 141.266
57.40000 140.006
57.41000 139.621
57.42000 139.065
57.43000 137.021
57.44000 134.631
57.45000 132.573
57.46000 135.334
57.47000 138.282
57.48000 140.352
57.49000 139.316
57.50000 138.007
57.51000 136.790
57.52000 135.792
57.53000 134.804
57.54000 134.191
57.55000 141.485
57.56000 146.808
57.57000 150.707
57.58000 153.104
57.59000 155.462
57.60000 153.391
57.61000 148.295
57.62000 143.317
57.63000 144.260
57.64000 147.763
57.65000 151.039
57.66000 151.332
57.67000 150.699
57.68000 149.953
57.69000 148.357
57.70000 146.585
57.71000 145.092
57.72000 142.468
57.73000 140.155
57.74000 138.579
57.75000 139.326
57.76000 140.242
57.77000 140.650
57.78000 139.973
57.79000 139.260
57.80000 138.839
57.81000 142.019
57.82000 144.286
57.83000 147.498
57.84000 151.586
57.85000 155.589
57.86000 153.874
57.87000 148.686
57.88000 143.660
57.89000 142.045
57.90000 141.839
57.91000 141.747
57.92000 142.906
57.93000 144.410
57.94000 145.386
57.95000 142.911
57.96000 139.812
57.97000 137.260
57.98000 138.408
57.99000 139.692
58.00000 141.516
58.01000 144.861
58.02000 148.298
58.03000 148.413
58.04000 142.209
58.05000 135.852
58.06000 132.294
58.07000 144.266
58.08000 152.580
58.09000 154.016
58.10000 149.849
58.11000 145.754
58.12000 144.908
58.13000 145.821
58.14000 146.697
58.15000 147.031
58.16000 147.159
58.17000 146.763
58.18000 141.479
58.19000 134.995
58.20000 130.343
58.21000 136.152
58.22000 143.619
58.23000 149.618
58.24000 143.902
58.25000 138.371
58.26000 135.574
58.27000 139.646
58.28000 144.049
58.29000 145.769
58.30000 142.940
58.31000 140.035
58.32000 138.502
58.33000 137.730
58.34000 137.196
58.35000 135.093
58.36000 131.861
58.37000 128.790
58.38000 130.993
58.39000 135.743
58.40000 140.255
58.41000 142.814
58.42000 144.587
58.43000 146.266
58.44000 147.182
58.45000 147.932
58.46000 147.901
58.47000 143.947
58.48000 139.453
58.49000 135.938
58.50000 136.598
58.51000 137.389
58.52000 139.244
58.53000 143.483
58.54000 147.811
58.55000 148.708
58.56000 144.430
58.57000 140.100
58.58000 136.404
58.59000 133.328
58.60000 130.292
58.61000 130.538
58.62000 132.885
58.63000 135.111
58.64000 134.370
58.65000 132.348
58.66000 130.451
58.67000 130.354
58.68000 130.744
58.69000 130.948
58.70000 129.859
58.71000 128.524
58.72000 128.443
58.73000 133.929
58.74000 140.078
58.75000 144.748
58.76000 144.015
58.77000 143.161
58.78000 141.591
58.79000 138.590
58.80000 135.550
58.81000 133.942
58.82000 134.253
58.83000 134.573
58.84000 135.021
58.85000 135.578
58.86000 136.149
58.87000 137.525
58.88000 139.359
58.89000 141.145
58.90000 142.013
58.91000 142.527
58.92000 143.004
58.93000 134.697
58.94000 125.176
58.95000 117.476
58.96000 120.807
58.97000 125.995
58.98000 130.700
58.99000 133.502
59.00000 136.111
59.01000 138.030
59.02000 136.308
59.03000 134.825
59.04000 134.148
59.05000 134.911
59.06000 135.701
59.07000 135.970
59.08000 135.620
59.09000 135.270
59.10000 137.369
59.11000 141.304
59.12000 145.080
59.13000 142.868
59.14000 137.614
59.15000 132.785
59.16000 134.599
59.17000 138.696
59.18000 142.439
59.19000 139.505
59.20000 135.540
59.21000 132.722
59.22000 135.998
59.23000 140.170
59.24000 142.134
59.25000 136.379
59.26000 129.959
59.27000 125.396
59.28000 137.274
59.29000 146.844
59.30000 150.681
59.31000 145.402
59.32000 140.007
59.33000 135.529
59.34000 132.004
59.35000 128.499
59.36000 128.722
59.37000 131.425
59.38000 134.136
59.39000 137.067
59.40000 140.098
59.41000 142.754
59.42000 140.559
59.43000 136.878
59.44000 133.569
59.45000 134.249
59.46000 135.552
59.47000 136.376
59.48000 134.949
59.49000 133.236
59.50000 132.198
59.51000 133.260
59.52000 134.473
59.53000 135.304
59.54000 135.288
59.55000 135.256
59.56000 134.784
59.57000 133.693
59.58000 132.597
59.59000 132.708
59.60000 133.917
59.61000 135.115
59.62000 136.858
59.63000 138.885
59.64000 140.722
59.65000 138.469
59.66000 134.561
59.67000 131.196
59.68000 133.706
59.69000 137.819
59.70000 141.453
59.71000 142.915
59.72000 143.843
59.73000 143.738
59.74000 139.347
59.75000 134.487
59.76000 130.360
59.77000 128.267
59.78000 126.294
59.79000 124.996
59.80000 128.261
59.81000 130.744
59.82000 134.442
59.83000 139.661
59.84000 144.869
59.85000 145.059
59.86000 141.216
59.87000 137.429
59.88000 137.057
59.89000 138.466
59.90000 139.854
59.91000 140.895
59.92000 141.810
59.93000 142.473
59.94000 140.815
59.95000 138.595
59.96000 136.670
59.97000 135.154
59.98000 133.917
59.99000 132.038
60.00000 127.793
60.01000 123.327
60.02000 121.902
60.03000 128.019
60.04000 134.490
60.05000 138.566
60.06000 137.251
60.07000 136.238
60.08000 138.601
60.09000 144.687
60.10000 150.714
60.11000 148.084
60.12000 139.296
60.13000 130.692
60.14000 131.279
60.15000 136.053
60.16000 140.392
60.17000 138.623
60.18000 134.885
60.19000 131.936
60.20000 135.222
60.21000 139.846
60.22000 143.772
60.23000 138.689
60.24000 133.398
60.25000 128.622
60.26000 125.536
60.27000 122.582
60.28000 121.322
60.29000 123.815
60.30000 126.445
60.31000 128.025
60.32000 127.094
60.33000 126.416
60.34000 125.971
60.35000 125.752
60.36000 125.539
60.37000 125.829
60.38000 126.438
60.39000 127.030
60.40000 127.225
60.41000 127.249
60.42000 127.662
60.43000 132.608
60.44000 138.858
60.45000 144.210
60.46000 143.418
60.47000 141.464
60.48000 139.841
60.49000 135.537
60.50000 131.719
60.51000 130.060
60.52000 134.714
60.53000 139.774
60.54000 142.543
60.55000 140.782
60.56000 138.898
60.57000 137.824
60.58000 140.337
60.59000 142.099
60.60000 141.883
60.61000 139.987
60.62000 138.068
60.63000 134.950
60.64000 131.158
60.65000 127.506
60.66000 127.669
60.67000 129.184
60.68000 130.650
60.69000 131.635
60.70000 132.497
60.71000 133.665
60.72000 136.658
60.73000 139.954
60.74000 142.624
60.75000 142.017
60.76000 141.254
60.77000 140.719
60.78000 140.776
60.79000 140.864
60.80000 140.407
60.81000 138.986
60.82000 137.547
60.83000 136.772
60.84000 134.343
60.85000 132.686
60.86000 131.898
60.87000 131.764
60.88000 131.762
60.89000 136.559
60.90000 143.764
60.91000 150.634
60.92000 149.524
60.93000 145.981
60.94000 142.386
60.95000 138.347
60.96000 134.209
60.97000 131.250
60.98000 134.479
60.99000 138.602
61.00000 141.857
61.01000 139.557
61.02000 137.336
61.03000 135.766
61.04000 135.715
61.05000 135.727
61.06000 135.535
61.07000 135.022
61.08000 134.507
61.09000 134.245
61.10000 136.250
61.11000 137.584
61.12000 138.004
61.13000 137.817
61.14000 137.629
61.15000 137.440
61.16000 137.251
61.17000 137.072
61.18000 135.100
61.19000 132.798
61.20000 131.163
61.21000 134.385
61.22000 138.580
61.23000 142.020
61.24000 141.967
61.25000 141.476
61.26000 141.099
61.27000 141.519
61.28000 141.894
61.29000 141.130
61.30000 137.994
61.31000 134.784
61.32000 135.257
61.33000 140.865
61.34000 146.505
61.35000 147.345
61.36000 143.872
61.37000 140.439
61.38000 139.526
61.39000 140.104
61.40000 140.638
61.41000 140.254
61.42000 139.503
61.43000 138.803
61.44000 142.907
61.45000 147.786
61.46000 151.500
61.47000 147.823
61.48000 142.846
61.49000 140.589
61.50000 149.470
61.51000 159.550
61.52000 167.046
61.53000 173.587
61.54000 178.632
61.55000 183.653
61.56000 188.630
61.57000 193.605
61.58000 203.153
61.59000 218.341
61.60000 233.517
61.61000 246.535
61.62000 257.789
61.63000 268.875
61.64000 272.888
61.65000 273.167
61.66000 273.739
61.67000 279.229
61.68000 286.475
61.69000 293.128
61.70000 293.764
61.71000 293.049
61.72000 292.280
61.73000 291.211
61.74000 290.095
61.75000 288.276
61.76000 283.898
61.77000 279.287
61.78000 275.970
61.79000 257.128
61.80000 242.162
61.81000 226.942
61.82000 211.303
61.83000 195.658
61.84000 185.344
61.85000 180.825
61.86000 176.329
61.87000 169.286
61.88000 160.548
61.89000 151.981
61.90000 148.680
61.91000 147.859
61.92000 147.007
61.93000 145.737
61.94000 144.333
61.95000 143.064
61.96000 138.936
61.97000 134.773
61.98000 131.622
61.99000 133.422
62.00000 135.884
62.01000 137.460
62.02000 136.167
62.03000 134.654
62.04000 133.604
62.05000 135.047
62.06000 136.199
62.07000 139.432
62.08000 145.725
62.09000 152.044
62.10000 152.912
62.11000 148.585
62.12000 144.292
62.13000 142.604
62.14000 142.541
62.15000 142.466
62.16000 142.114
62.17000 141.645
62.18000 141.282
62.19000 142.130
62.20000 143.322
62.21000 144.381
62.22000 141.914
62.23000 139.202
62.24000 137.732
62.25000 141.629
62.26000 146.144
62.27000 148.861
62.28000 146.386
62.29000 143.584
62.30000 141.715
62.31000 140.117
62.32000 138.939
62.33000 139.401
62.34000 142.001
62.35000 144.606
62.36000 145.303
62.37000 144.400
62.38000 143.509
62.39000 142.616
62.40000 141.746
62.41000 140.834
62.42000 139.159
62.43000 137.196
62.44000 135.699
62.45000 138.716
62.46000 142.873
62.47000 146.500
62.48000 148.980
62.49000 150.941
62.50000 151.981
62.51000 149.492
62.52000 146.655
62.53000 144.442
62.54000 143.835
62.55000 143.309
62.56000 142.973
62.57000 142.755
62.58000 142.598
62.59000 141.540
62.60000 139.447
62.61000 137.360
62.62000 136.710
62.63000 137.124
62.64000 137.531
62.65000 138.438
62.66000 139.550
62.67000 140.696
62.68000 142.346
62.69000 144.166
62.70000 145.734
62.71000 145.210
62.72000 144.220
62.73000 143.372
62.74000 142.772
62.75000 142.296
62.76000 141.937
62.77000 141.975
62.78000 142.045
62.79000 141.422
62.80000 139.201
62.81000 136.917
62.82000 135.522
62.83000 131.961
62.84000 129.396
62.85000 130.938
62.86000 136.632
62.87000 142.279
62.88000 143.355
62.89000 141.427
62.90000 139.549
62.91000 140.003
62.92000 141.421
62.93000 142.726
62.94000 142.620
62.95000 142.094
62.96000 141.723
62.97000 142.470
62.98000 143.439
62.99000 144.249
63.00000 147.270
63.01000 150.006
63.02000 151.094
63.03000 147.174
63.04000 142.908
63.05000 142.049
63.06000 148.193
63.07000 154.547
63.08000 158.237
63.09000 154.032
63.10000 151.049
63.11000 150.613
63.12000 152.436
63.13000 154.181
63.14000 151.299
63.15000 145.711
63.16000 140.313
63.17000 141.029
63.18000 143.982
63.19000 146.707
63.20000 147.038
63.21000 146.733
63.22000 146.569
63.23000 147.285
63.24000 148.153
63.25000 148.863
63.26000 146.125
63.27000 143.586
63.28000 143.057
63.29000 147.977
63.30000 153.203
63.31000 155.431
63.32000 152.161
63.33000 148.773
63.34000 146.911
63.35000 151.681
63.36000 154.968
63.37000 155.982
63.38000 155.219
63.39000 154.428
63.40000 152.555
63.41000 150.117
63.42000 147.784
63.43000 149.245
63.44000 151.853
63.45000 153.999
63.46000 152.047
63.47000 149.126
63.48000 146.928
63.49000 148.685
63.50000 151.041
63.51000 152.918
63.52000 153.253
63.53000 153.412
63.54000 151.629
63.55000 145.145
63.56000 138.451
63.57000 136.874
63.58000 143.657
63.59000 150.559
63.60000 154.130
63.61000 156.192
63.62000 157.564
63.63000 156.718
63.64000 154.334
63.65000 151.965
63.66000 150.037
63.67000 148.316
63.68000 146.686
63.69000 149.837
63.70000 154.120
63.71000 157.634
63.72000 155.267
63.73000 151.671
63.74000 148.839
63.75000 149.690
63.76000 151.025
63.77000 152.059
63.78000 152.086
63.79000 152.048
63.80000 151.425
63.81000 149.536
63.82000 147.604
63.83000 148.206
63.84000 152.486
63.85000 156.797
63.86000 153.464
63.87000 142.952
63.88000 132.590
63.89000 132.925
63.90000 139.851
63.91000 146.621
63.92000 149.815
63.93000 151.523
63.94000 153.121
63.95000 150.329
63.96000 146.678
63.97000 143.924
63.98000 147.131
63.99000 151.435
64.00000 154.710
64.01000 153.600
64.02000 151.994
64.03000 150.786
64.04000 152.839
64.05000 154.602
64.06000 155.206
64.07000 153.573
64.08000 151.883
64.09000 151.867
64.10000 154.005
64.11000 156.149
64.12000 158.154
64.13000 160.038
64.14000 161.887
64.15000 162.072
64.16000 161.344
64.17000 160.684
64.18000 161.263
64.19000 162.302
64.20000 163.260
64.21000 163.133
64.22000 162.776
64.23000 162.171
64.24000 160.119
64.25000 157.835
64.26000 156.675
64.27000 159.767
64.28000 163.270
64.29000 165.820
64.30000 165.601
64.31000 165.326
64.32000 165.260
64.33000 165.553
64.34000 165.852
64.35000 166.554
64.36000 167.713
64.37000 168.870
64.38000 168.336
64.39000 166.580
64.40000 164.789
64.41000 161.797
64.42000 158.219
64.43000 155.102
64.44000 158.766
64.45000 164.677
64.46000 170.048
64.47000 169.428
64.48000 167.710
64.49000 165.586
64.50000 161.386
64.51000 156.895
64.52000 155.263
64.53000 163.259
64.54000 172.038
64.55000 178.207
64.56000 178.720
64.57000 178.943
64.58000 178.201
64.59000 175.981
64.60000 173.745
64.61000 172.319
64.62000 171.702
64.63000 171.088
64.64000 169.486
64.65000 167.276
64.66000 165.247
64.67000 167.850
64.68000 172.478
64.69000 176.693
64.70000 175.873
64.71000 173.568
64.72000 171.507
64.73000 170.738
64.74000 170.288
64.75000 170.056
64.76000 170.808
64.77000 171.680
64.78000 172.346
64.79000 172.395
64.80000 172.403
64.81000 172.408
64.82000 178.506
64.83000 183.180
64.84000 187.279
64.85000 190.597
64.86000 193.908
64.87000 194.848
64.88000 193.713
64.89000 192.590
64.90000 189.562
64.91000 185.529
64.92000 181.651
64.93000 180.869
64.94000 181.295
64.95000 181.748
64.96000 182.481
64.97000 183.287
64.98000 183.994
64.99000 184.886
65.00000 185.680
65.01000 187.205
65.02000 191.651
65.03000 196.400
65.04000 200.760
65.05000 204.075
65.06000 207.334
65.07000 209.448
65.08000 204.001
65.09000 199.898
65.10000 198.338
65.11000 199.834
65.12000 201.346
65.13000 205.412
65.14000 211.449
65.15000 217.386
65.16000 218.775
65.17000 217.854
65.18000 217.282
65.19000 222.312
65.20000 229.295
65.21000 235.975
65.22000 240.013
65.23000 243.435
65.24000 246.382
65.25000 246.297
65.26000 245.841
65.27000 246.382
65.28000 250.462
65.29000 254.853
65.30000 260.311
65.31000 268.323
65.32000 276.446
65.33000 281.486
65.34000 288.705
65.35000 293.921
65.36000 299.317
65.37000 304.902
65.38000 310.480
65.39000 315.121
65.40000 319.122
65.41000 323.029
65.42000 332.088
65.43000 343.026
65.44000 353.879
65.45000 363.604
65.46000 372.979
65.47000 381.562
65.48000 384.174
65.49000 385.557
65.50000 386.723
65.51000 395.978
65.52000 404.583
65.53000 412.380
65.54000 417.626
65.55000 422.684
65.56000 428.145
65.57000 434.463
65.58000 440.810
65.59000 444.560
65.60000 447.461
65.61000 449.507
65.62000 453.825
65.63000 460.247
65.64000 466.730
65.65000 477.413
65.66000 490.652
65.67000 503.480
65.68000 518.969
65.69000 534.663
65.70000 551.790
65.71000 584.739
65.72000 622.067
65.73000 661.024
65.74000 710.640
65.75000 762.189
65.76000 804.661
65.77000 869.945
65.78000 925.754
65.79000 976.139
65.80000 1011.241
65.81000 1045.422
65.82000 1072.696
65.83000 1086.806
65.84000 1100.597
65.85000 1108.323
65.86000 1123.297
65.87000 1133.668
65.88000 1134.362
65.89000 1127.159
65.90000 1119.922
65.91000 1111.110
65.92000 1101.446
65.93000 1092.167
65.94000 1052.385
65.95000 1004.713
65.96000 955.726
65.97000 894.409
65.98000 830.061
65.99000 766.764
66.00000 709.477
66.01000 653.145
66.02000 607.876
66.03000 533.407
66.04000 470.796
66.05000 418.820
66.06000 393.594
66.07000 369.660
66.08000 350.202
66.09000 338.349
66.10000 326.623
66.11000 320.426
66.12000 311.492
66.13000 305.438
66.14000 301.731
66.15000 299.720
66.16000 297.655
66.17000 293.813
66.18000 289.113
66.19000 284.647
66.20000 287.263
66.21000 291.819
66.22000 296.059
66.23000 297.749
66.24000 298.885
66.25000 301.912
66.26000 314.464
66.27000 328.332
66.28000 339.179
66.29000 344.770
66.30000 348.899
66.31000 358.519
66.32000 380.477
66.33000 402.898
66.34000 414.671
66.35000 410.350
66.36000 405.866
66.37000 410.941
66.38000 425.406
66.39000 439.793
66.40000 447.554
66.41000 451.070
66.42000 454.506
66.43000 455.962
66.44000 456.564
66.45000 457.129
66.46000 454.398
66.47000 451.030
66.48000 447.734
66.49000 444.940
66.50000 442.241
66.51000 437.451
66.52000 423.367
66.53000 408.172
66.54000 396.631
66.55000 380.237
66.56000 367.099
66.57000 355.105
66.58000 345.409
66.59000 335.777
66.60000 327.628
66.61000 321.470
66.62000 315.326
66.63000 314.718
66.64000 318.880
66.65000 322.940
66.66000 321.443
66.67000 316.776
66.68000 312.630
66.69000 318.621
66.70000 328.521
66.71000 337.698
66.72000 332.053
66.73000 323.512
66.74000 316.492
66.75000 318.699
66.76000 322.462
66.77000 324.145
66.78000 317.634
66.79000 310.286
66.80000 304.878
66.81000 313.945
66.82000 321.560
66.83000 327.019
66.84000 328.619
66.85000 330.142
66.86000 331.817
66.87000 333.672
66.88000 335.522
66.89000 334.244
66.90000 330.606
66.91000 327.137
66.92000 330.040
66.93000 336.183
66.94000 342.029
66.95000 343.196
66.96000 342.753
66.97000 342.348
66.98000 344.025
66.99000 345.939
67.00000 347.396
67.01000 346.418
67.02000 345.083
67.03000 342.872
67.04000 337.594
67.05000 332.051
67.06000 328.109
67.07000 340.833
67.08000 351.059
67.09000 357.372
67.10000 357.454
67.11000 357.455
67.12000 356.351
67.13000 354.095
67.14000 351.850
67.15000 355.637
67.16000 363.399
67.17000 370.767
67.18000 367.118
67.19000 358.467
67.20000 350.870
67.21000 356.924
67.22000 367.169
67.23000 376.382
67.24000 375.700
67.25000 373.342
67.26000 371.841
67.27000 374.360
67.28000 377.393
67.29000 380.381
67.30000 383.226
67.31000 386.061
67.32000 388.004
67.33000 389.852
67.34000 391.234
67.35000 389.782
67.36000 384.321
67.37000 378.837
67.38000 383.340
67.39000 396.969
67.40000 410.468
67.41000 417.615
67.42000 420.878
67.43000 423.723
67.44000 417.560
67.45000 407.744
67.46000 399.136
67.47000 403.642
67.48000 411.730
67.49000 418.879
67.50000 422.417
67.51000 424.914
67.52000 426.834
67.53000 426.349
67.54000 425.601
67.55000 426.462
67.56000 431.805
67.57000 437.412
67.58000 441.103
67.59000 444.093
67.60000 446.283
67.61000 448.055
67.62000 449.302
67.63000 450.546
67.64000 451.135
67.65000 451.196
67.66000 451.257
67.67000 459.893
67.68000 472.731
67.69000 484.666
67.70000 481.045
67.71000 471.791
67.72000 463.130
67.73000 459.938
67.74000 458.072
67.75000 456.454
67.76000 457.396
67.77000 458.539
67.78000 460.327
67.79000 464.495
67.80000 468.884
67.81000 473.035
67.82000 476.591
67.83000 480.120
67.84000 482.343
67.85000 495.157
67.86000 504.554
67.87000 507.952
67.88000 504.725
67.89000 501.532
67.90000 503.952
67.91000 510.370
67.92000 516.655
67.93000 524.155
67.94000 531.917
67.95000 539.375
67.96000 542.549
67.97000 544.338
67.98000 546.511
67.99000 551.725
68.00000 557.591
68.01000 562.575
68.02000 558.139
68.03000 553.341
68.04000 550.139
68.05000 552.180
68.06000 554.630
68.07000 557.145
68.08000 559.801
68.09000 562.463
68.10000 564.063
68.11000 561.061
68.12000 558.896
68.13000 561.817
68.14000 569.664
68.15000 577.472
68.16000 582.144
68.17000 584.829
68.18000 587.439
68.19000 594.435
68.20000 602.861
68.21000 610.924
68.22000 614.744
68.23000 617.343
68.24000 620.583
68.25000 628.223
68.26000 636.696
68.27000 643.733
68.28000 649.905
68.29000 654.925
68.30000 661.040
68.31000 670.364
68.32000 679.894
68.33000 685.263
68.34000 682.388
68.35000 679.290
68.36000 677.521
68.37000 699.448
68.38000 714.800
68.39000 714.517
68.40000 700.923
68.41000 687.773
68.42000 697.577
68.43000 720.315
68.44000 742.217
68.45000 752.968
68.46000 759.077
68.47000 765.068
68.48000 769.893
68.49000 774.420
68.50000 779.606
68.51000 788.745
68.52000 798.539
68.53000 806.479
68.54000 833.583
68.55000 857.232
68.56000 881.057
68.57000 905.341
68.58000 929.648
68.59000 952.450
68.60000 972.591
68.61000 992.681
68.62000 1003.516
68.63000 1051.660
68.64000 1084.674
68.65000 1127.433
68.66000 1177.521
68.67000 1227.963
68.68000 1291.283
68.69000 1361.075
68.70000 1427.634
68.71000 1492.422
68.72000 1551.974
68.73000 1610.620
68.74000 1661.595
68.75000 1710.830
68.76000 1762.182
68.77000 1824.654
68.78000 1888.739
68.79000 1939.337
68.80000 1987.498
68.81000 2025.982
68.82000 2077.736
68.83000 2160.467
68.84000 2244.469
68.85000 2351.677
68.86000 2495.382
68.87000 2639.533
68.88000 2712.583
68.89000 3034.613
68.90000 3252.888
68.91000 3738.444
68.92000 4402.294
68.93000 5098.247
68.94000 6664.631
68.95000 8621.492
68.96000 10466.805
68.97000 14219.684
68.98000 18187.490
68.99000 22299.676
69.00000 27466.553
69.01000 32844.859
69.02000 38151.563
69.03000 43126.523
69.04000 48059.816
69.05000 51845.512
69.06000 55393.504
69.07000 58184.066
69.08000 60323.664
69.09000 61106.387
69.10000 61846.828
69.11000 62326.383
69.12000 62441.559
69.13000 62554.250
69.14000 62975.699
69.15000 63674.688
69.16000 64373.594
69.17000 65067.156
69.18000 65757.555
69.19000 66384.547
69.20000 65677.023
69.21000 64434.855
69.22000 63278.156
69.23000 60110.781
69.24000 56756.328
69.25000 53414.773
69.26000 50155.188
69.27000 46910.059
69.28000 43800.180
69.29000 41245.168
69.30000 38749.973
69.31000 36893.309
69.32000 35135.898
69.33000 33773.098
69.34000 32686.898
69.35000 32115.133
69.36000 31554.934
69.37000 30747.201
69.38000 29633.506
69.39000 28520.969
69.40000 26825.350
69.41000 24676.443
69.42000 22517.990
69.43000 19956.266
69.44000 17181.316
69.45000 14435.133
69.46000 12173.463
69.47000 10085.106
69.48000 8167.417
69.49000 6631.682
69.50000 5343.170
69.51000 4151.789
69.52000 3500.831
69.53000 2933.236
69.54000 2440.294
69.55000 2219.356
69.56000 2023.317
69.57000 1882.226
69.58000 1748.258
69.59000 1645.931
69.60000 1555.000
69.61000 1482.956
69.62000 1411.196
69.63000 1352.832
69.64000 1309.056
69.65000 1265.476
69.66000 1223.511
69.67000 1183.104
69.68000 1143.185
69.69000 1118.281
69.70000 1100.461
69.71000 1082.330
69.72000 1059.913
69.73000 1036.128
69.74000 1014.621
69.75000 981.884
69.76000 950.981
69.77000 923.313
69.78000 911.487
69.79000 901.784
69.80000 891.970
69.81000 881.792
69.82000 871.587
69.83000 864.503
69.84000 837.760
69.85000 817.089
69.86000 799.315
69.87000 785.808
69.88000 772.340
69.89000 767.182
69.90000 769.956
69.91000 772.709
69.92000 773.073
69.93000 771.964
69.94000 770.412
69.95000 758.479
69.96000 742.171
69.97000 726.847
69.98000 722.837
69.99000 722.044
70.00000 721.338
