20.00000 565.073
20.01000 571.603
20.02000 579.066
20.03000 583.045
20.04000 573.443
20.05000 562.472
20.06000 554.422
20.07000 565.663
20.08000 575.131
20.09000 582.829
20.10000 587.395
20.11000 591.901
20.12000 588.153
20.13000 574.734
20.14000 561.337
20.15000 556.850
20.16000 559.066
20.17000 561.378
20.18000 567.211
20.19000 574.819
20.20000 581.824
20.21000 579.535
20.22000 574.079
20.23000 569.101
20.24000 562.011
20.25000 555.296
20.26000 550.338
20.27000 554.628
20.28000 560.263
20.29000 562.842
20.30000 554.828
20.31000 545.912
20.32000 539.591
20.33000 555.461
20.34000 568.225
20.35000 572.348
20.36000 562.849
20.37000 553.182
20.38000 552.388
20.39000 560.731
20.40000 569.027
20.41000 569.843
20.42000 565.714
20.43000 561.790
20.44000 563.426
20.45000 567.562
20.46000 571.185
20.47000 568.266
20.48000 563.359
20.49000 558.953
20.50000 557.922
20.51000 557.613
20.52000 558.485
20.53000 564.845
20.54000 571.895
20.55000 576.711
20.56000 574.627
20.57000 572.055
20.58000 570.297
20.59000 576.118
20.60000 580.650
20.61000 579.357
20.62000 569.911
20.63000 560.412
20.64000 553.765
20.65000 549.694
20.66000 545.664
20.67000 550.138
20.68000 559.466
20.69000 568.535
20.70000 572.114
20.71000 573.489
20.72000 574.212
20.73000 567.972
20.74000 559.849
20.75000 552.682
20.76000 555.661
20.77000 559.778
20.78000 562.698
20.79000 560.699
20.80000 558.169
20.81000 558.557
20.82000 566.988
20.83000 575.884
20.84000 581.718
20.85000 572.268
20.86000 565.063
20.87000 557.845
20.88000 550.612
20.89000 543.399
20.90000 542.937
20.91000 547.852
20.92000 552.692
20.93000 553.352
20.94000 551.842
20.95000 550.733
20.96000 556.384
20.97000 564.459
20.98000 570.911
20.99000 562.615
21.00000 550.779
21.01000 540.533
21.02000 547.800
21.03000 556.283
21.04000 561.914
21.05000 557.130
21.06000 551.391
21.07000 549.813
21.08000 558.478
21.09000 567.615
21.10000 573.350
21.11000 560.298
21.12000 550.659
21.13000 546.443
21.14000 548.150
21.15000 549.907
21.16000 558.181
21.17000 571.049
21.18000 583.640
21.19000 585.951
21.20000 583.501
21.21000 580.592
21.22000 571.318
21.23000 560.008
21.24000 549.808
21.25000 548.282
21.26000 548.600
21.27000 548.869
21.28000 554.621
21.29000 560.060
21.30000 563.964
21.31000 562.877
21.32000 561.406
21.33000 559.108
21.34000 554.994
21.35000 550.815
21.36000 548.315
21.37000 554.843
21.38000 559.534
21.39000 561.302
21.40000 560.272
21.41000 559.219
21.42000 556.420
21.43000 552.527
21.44000 548.747
21.45000 549.575
21.46000 552.208
21.47000 555.006
21.48000 559.722
21.49000 564.983
21.50000 569.945
21.51000 572.879
21.52000 575.433
21.53000 577.549
21.54000 573.733
21.55000 570.013
21.56000 564.859
21.57000 555.545
21.58000 545.967
21.59000 542.157
21.60000 549.662
21.61000 557.465
21.62000 561.897
21.63000 556.867
21.64000 553.348
21.65000 557.910
21.66000 569.273
21.67000 580.541
21.68000 587.045
21.69000 590.892
21.70000 594.594
21.71000 601.194
21.72000 608.412
21.73000 614.811
21.74000 613.210
21.75000 609.583
21.76000 608.310
21.77000 620.952
21.78000 635.880
21.79000 647.954
21.80000 661.358
21.81000 672.371
21.82000 681.244
21.83000 684.578
21.84000 687.628
21.85000 692.998
21.86000 702.426
21.87000 711.928
21.88000 717.025
21.89000 756.067
21.90000 782.683
21.91000 796.126
21.92000 799.768
21.93000 803.842
21.94000 823.179
21.95000 850.109
21.96000 875.767
21.97000 886.248
21.98000 891.228
21.99000 895.423
22.00000 893.065
22.01000 889.236
22.02000 888.074
22.03000 900.763
22.04000 915.437
22.05000 926.994
22.06000 899.116
22.07000 874.137
22.08000 855.877
22.09000 853.141
22.10000 851.028
22.11000 846.822
22.12000 839.356
22.13000 831.852
22.14000 828.071
22.15000 788.253
22.16000 761.772
22.17000 748.120
22.18000 742.936
22.19000 737.537
22.20000 726.442
22.21000 712.818
22.22000 699.985
22.23000 678.331
22.24000 656.096
22.25000 636.057
22.26000 631.864
22.27000 630.813
22.28000 628.373
22.29000 619.572
22.30000 609.982
22.31000 602.642
22.32000 591.447
22.33000 582.402
22.34000 575.131
22.35000 571.521
22.36000 568.023
22.37000 568.195
22.38000 573.437
22.39000 578.709
22.40000 580.319
22.41000 578.668
22.42000 576.993
22.43000 573.864
22.44000 569.881
22.45000 565.760
22.46000 558.788
22.47000 550.685
22.48000 543.149
22.49000 541.535
22.50000 541.504
22.51000 542.278
22.52000 548.101
22.53000 554.803
22.54000 559.482
22.55000 555.944
22.56000 551.534
22.57000 548.261
22.58000 550.093
22.59000 551.741
22.60000 550.999
22.61000 545.858
22.62000 540.622
22.63000 532.188
22.64000 519.846
22.65000 507.519
22.66000 510.834
22.67000 526.363
22.68000 541.571
22.69000 543.594
22.70000 538.715
22.71000 534.273
22.72000 537.053
22.73000 542.389
22.74000 547.283
22.75000 548.350
22.76000 548.492
22.77000 547.192
22.78000 537.960
22.79000 527.519
22.80000 519.882
22.81000 522.358
22.82000 525.746
22.83000 528.177
22.84000 523.769
22.85000 520.163
22.86000 518.326
22.87000 519.387
22.88000 520.490
22.89000 522.919
22.90000 526.778
22.91000 530.619
22.92000 528.227
22.93000 521.571
22.94000 515.088
22.95000 513.825
22.96000 514.999
22.97000 516.313
22.98000 519.518
22.99000 523.320
23.00000 526.752
23.01000 523.519
23.02000 519.448
23.03000 516.057
23.04000 515.962
23.05000 516.302
23.06000 515.902
23.07000 513.122
23.08000 510.163
23.09000 508.115
23.10000 506.893
23.11000 505.994
23.12000 507.405
23.13000 512.180
23.14000 516.984
23.15000 522.134
23.16000 527.610
23.17000 533.041
23.18000 528.154
23.19000 517.092
23.20000 506.395
23.21000 504.066
23.22000 505.228
23.23000 506.463
23.24000 508.534
23.25000 510.839
23.26000 512.885
23.27000 516.942
23.28000 520.781
23.29000 523.531
23.30000 521.623
23.31000 519.184
23.32000 517.750
23.33000 519.194
23.34000 520.816
23.35000 521.895
23.36000 517.900
23.37000 514.850
23.38000 513.113
23.39000 513.074
23.40000 513.044
23.41000 513.939
23.42000 515.604
23.43000 517.247
23.44000 513.020
23.45000 505.763
23.46000 499.308
23.47000 507.449
23.48000 521.027
23.49000 532.238
23.50000 520.741
23.51000 503.568
23.52000 488.603
23.53000 491.986
23.54000 497.416
23.55000 503.035
23.56000 509.375
23.57000 515.785
23.58000 519.651
23.59000 517.012
23.60000 514.048
23.61000 512.160
23.62000 517.454
23.63000 521.395
23.64000 523.950
23.65000 524.926
23.66000 525.864
23.67000 520.578
23.68000 510.722
23.69000 501.056
23.70000 497.905
23.71000 497.954
23.72000 498.066
23.73000 499.105
23.74000 500.453
23.75000 502.202
23.76000 507.251
23.77000 513.031
23.78000 517.967
23.79000 516.342
23.80000 514.194
23.81000 512.901
23.82000 514.493
23.83000 516.321
23.84000 518.196
23.85000 520.176
23.86000 522.161
23.87000 523.368
23.88000 509.548
23.89000 499.559
23.90000 498.532
23.91000 506.476
23.92000 514.295
23.93000 510.698
23.94000 499.659
23.95000 488.911
23.96000 490.845
23.97000 497.990
23.98000 504.792
23.99000 507.399
24.00000 508.762
24.01000 510.299
24.02000 513.072
24.03000 516.086
24.04000 518.605
24.05000 518.999
24.06000 519.111
24.07000 515.831
24.08000 502.331
24.09000 488.138
24.10000 480.838
24.11000 487.587
24.12000 494.748
24.13000 498.890
24.14000 506.016
24.15000 511.015
24.16000 508.231
24.17000 498.608
24.18000 489.114
24.19000 486.931
24.20000 488.990
24.21000 490.978
24.22000 491.624
24.23000 491.736
24.24000 491.987
24.25000 493.666
24.26000 495.722
24.27000 497.881
24.28000 500.683
24.29000 503.596
24.30000 505.972
24.31000 508.043
24.32000 509.711
24.33000 510.320
24.34000 508.081
24.35000 505.684
24.36000 505.843
24.37000 510.649
24.38000 515.553
24.39000 518.236
24.40000 506.738
24.41000 498.836
24.42000 496.727
24.43000 499.111
24.44000 501.501
24.45000 504.155
24.46000 506.945
24.47000 509.614
24.48000 502.111
24.49000 491.817
24.50000 482.956
24.51000 486.696
24.52000 493.384
24.53000 498.960
24.54000 498.505
24.55000 497.146
24.56000 496.065
24.57000 480.604
24.58000 467.125
24.59000 461.102
24.60000 472.981
24.61000 485.644
24.62000 494.990
24.63000 498.965
24.64000 502.866
24.65000 504.875
24.66000 499.290
24.67000 495.561
24.68000 495.619
24.69000 498.279
24.70000 500.812
24.71000 499.629
24.72000 496.732
24.73000 493.992
24.74000 492.745
24.75000 492.026
24.76000 491.993
24.77000 497.156
24.78000 503.394
24.79000 507.810
24.80000 503.522
24.81000 498.099
24.82000 493.908
24.83000 499.500
24.84000 504.510
24.85000 506.530
24.86000 502.136
24.87000 497.527
24.88000 496.422
24.89000 500.362
24.90000 504.341
24.91000 506.237
24.92000 506.193
24.93000 506.109
24.94000 503.197
24.95000 498.559
24.96000 493.842
24.97000 487.356
24.98000 480.142
24.99000 473.401
25.00000 474.555
25.01000 477.591
25.02000 480.087
25.03000 479.030
25.04000 477.327
25.05000 476.357
25.06000 478.491
25.07000 480.972
25.08000 482.832
25.09000 484.899
25.10000 486.524
25.11000 490.550
25.12000 499.175
25.13000 507.912
25.14000 506.801
25.15000 493.136
25.16000 479.445
25.17000 475.431
25.18000 479.335
25.19000 483.131
25.20000 481.947
25.21000 478.052
25.22000 474.376
25.23000 474.596
25.24000 476.248
25.25000 477.771
25.26000 476.422
25.27000 474.580
25.28000 473.959
25.29000 480.354
25.30000 487.870
25.31000 492.881
25.32000 488.494
25.33000 483.209
25.34000 479.373
25.35000 488.415
25.36000 495.849
25.37000 497.190
25.38000 488.139
25.39000 478.913
25.40000 474.950
25.41000 476.904
25.42000 478.856
25.43000 476.412
25.44000 470.831
25.45000 465.477
25.46000 467.678
25.47000 473.545
25.48000 479.208
25.49000 481.925
25.50000 483.674
25.51000 485.261
25.52000 481.693
25.53000 477.547
25.54000 473.755
25.55000 471.748
25.56000 469.989
25.57000 470.748
25.58000 479.911
25.59000 489.749
25.60000 496.642
25.61000 487.617
25.62000 480.334
25.63000 474.999
25.64000 472.622
25.65000 470.275
25.66000 470.745
25.67000 473.994
25.68000 477.221
25.69000 475.402
25.70000 470.415
25.71000 465.750
25.72000 469.146
25.73000 476.036
25.74000 482.434
25.75000 482.918
25.76000 481.671
25.77000 480.558
25.78000 483.570
25.79000 486.886
25.80000 487.086
25.81000 473.380
25.82000 458.005
25.83000 448.051
25.84000 454.232
25.85000 461.484
25.86000 466.374
25.87000 464.774
25.88000 463.447
25.89000 465.332
25.90000 471.543
25.91000 477.772
25.92000 480.366
25.93000 479.810
25.94000 479.259
25.95000 478.155
25.96000 476.768
25.97000 475.591
25.98000 478.525
25.99000 483.050
26.00000 487.079
26.01000 486.081
26.02000 483.774
26.03000 481.750
26.04000 474.760
26.05000 468.036
26.06000 462.058
26.07000 459.029
26.08000 456.304
26.09000 453.610
26.10000 450.996
26.11000 448.386
26.12000 446.698
26.13000 456.625
26.14000 464.056
26.15000 469.718
26.16000 473.274
26.17000 476.817
26.18000 478.102
26.19000 477.660
26.20000 477.225
26.21000 478.384
26.22000 480.290
26.23000 481.841
26.24000 477.781
26.25000 471.781
26.26000 466.276
26.27000 465.055
26.28000 464.822
26.29000 464.622
26.30000 466.386
26.31000 468.126
26.32000 469.357
26.33000 468.805
26.34000 468.096
26.35000 469.422
26.36000 475.571
26.37000 481.926
26.38000 485.855
26.39000 478.368
26.40000 472.880
26.41000 468.549
26.42000 465.427
26.43000 462.318
26.44000 460.577
26.45000 459.763
26.46000 458.970
26.47000 462.547
26.48000 467.875
26.49000 472.466
26.50000 467.460
26.51000 459.496
26.52000 452.421
26.53000 451.973
26.54000 452.877
26.55000 453.638
26.56000 458.028
26.57000 462.079
26.58000 466.368
26.59000 471.405
26.60000 476.496
26.61000 478.063
26.62000 472.166
26.63000 466.027
26.64000 462.412
26.65000 449.866
26.66000 440.973
26.67000 442.581
26.68000 453.825
26.69000 464.948
26.70000 468.058
26.71000 466.335
26.72000 464.667
26.73000 458.932
26.74000 451.943
26.75000 445.914
26.76000 450.366
26.77000 457.695
26.78000 463.628
26.79000 460.521
26.80000 455.791
26.81000 451.900
26.82000 454.228
26.83000 456.704
26.84000 459.072
26.85000 461.141
26.86000 463.192
26.87000 463.442
26.88000 460.288
26.89000 457.054
26.90000 455.249
26.91000 442.324
26.92000 433.389
26.93000 437.421
26.94000 451.936
26.95000 466.148
26.96000 466.927
26.97000 460.486
26.98000 454.307
26.99000 451.978
27.00000 451.110
27.01000 450.545
27.02000 452.799
27.03000 455.740
27.04000 458.447
27.05000 459.835
27.06000 461.016
27.07000 461.963
27.08000 463.682
27.09000 465.131
27.10000 464.651
27.11000 459.353
27.12000 453.826
27.13000 452.990
27.14000 460.056
27.15000 467.248
27.16000 471.031
27.17000 468.491
27.18000 466.765
27.19000 464.972
27.20000 463.132
27.21000 461.296
27.22000 459.634
27.23000 458.055
27.24000 456.555
27.25000 449.400
27.26000 441.104
27.27000 434.199
27.28000 438.370
27.29000 444.930
27.30000 450.401
27.31000 450.446
27.32000 449.749
27.33000 449.205
27.34000 451.850
27.35000 454.159
27.36000 454.399
27.37000 450.030
27.38000 445.491
27.39000 447.586
27.40000 459.621
27.41000 471.753
27.42000 470.138
27.43000 455.149
27.44000 440.274
27.45000 434.681
27.46000 434.985
27.47000 435.413
27.48000 438.838
27.49000 443.547
27.50000 447.965
27.51000 452.108
27.52000 455.812
27.53000 458.075
27.54000 450.407
27.55000 440.849
27.56000 433.938
27.57000 438.683
27.58000 444.805
27.59000 449.445
27.60000 453.207
27.61000 456.117
27.62000 454.524
27.63000 443.977
27.64000 433.185
27.65000 433.874
27.66000 449.818
27.67000 465.824
27.68000 467.153
27.69000 455.958
27.70000 444.840
27.71000 437.811
27.72000 433.094
27.73000 428.633
27.74000 429.086
27.75000 431.417
27.76000 433.576
27.77000 441.236
27.78000 449.396
27.79000 455.601
27.80000 450.054
27.81000 442.545
27.82000 435.276
27.83000 428.946
27.84000 422.711
27.85000 418.133
27.86000 435.445
27.87000 449.715
27.88000 456.881
27.89000 451.445
27.90000 445.766
27.91000 444.675
27.92000 448.972
27.93000 453.265
27.94000 451.394
27.95000 444.913
27.96000 438.527
27.97000 435.671
27.98000 434.597
27.99000 433.936
28.00000 439.685
28.01000 447.622
28.02000 454.866
28.03000 455.174
28.04000 454.046
28.05000 452.061
28.06000 445.559
28.07000 438.399
28.08000 434.037
28.09000 439.392
28.10000 445.576
28.11000 449.962
28.12000 443.400
28.13000 438.064
28.14000 435.465
28.15000 437.187
28.16000 438.964
28.17000 441.233
28.18000 444.010
28.19000 446.772
28.20000 448.918
28.21000 450.630
28.22000 452.413
28.23000 456.144
28.24000 460.752
28.25000 464.520
28.26000 457.555
28.27000 447.325
28.28000 438.137
28.29000 436.020
28.30000 435.414
28.31000 435.105
28.32000 436.182
28.33000 437.434
28.34000 438.529
28.35000 439.138
28.36000 439.713
28.37000 440.106
28.38000 439.981
28.39000 439.875
28.40000 437.844
28.41000 433.112
28.42000 428.366
28.43000 430.344
28.44000 438.407
28.45000 446.391
28.46000 443.060
28.47000 433.202
28.48000 423.651
28.49000 420.638
28.50000 420.255
28.51000 420.624
28.52000 429.068
28.53000 439.698
28.54000 449.080
28.55000 441.563
28.56000 432.496
28.57000 425.771
28.58000 428.696
28.59000 432.667
28.60000 435.088
28.61000 433.230
28.62000 431.124
28.63000 429.742
28.64000 433.244
28.65000 435.903
28.66000 435.444
28.67000 431.117
28.68000 426.787
28.69000 424.949
28.70000 425.101
28.71000 425.251
28.72000 422.994
28.73000 419.566
28.74000 416.693
28.75000 423.226
28.76000 433.137
28.77000 441.652
28.78000 437.451
28.79000 430.191
28.80000 423.906
28.81000 426.679
28.82000 430.232
28.83000 432.055
28.84000 427.552
28.85000 422.466
28.86000 422.564
28.87000 435.438
28.88000 448.903
28.89000 457.361
28.90000 438.171
28.91000 423.991
28.92000 419.917
28.93000 426.896
28.94000 433.865
28.95000 438.635
28.96000 441.852
28.97000 445.001
28.98000 440.358
28.99000 432.358
29.00000 425.097
29.01000 428.089
29.02000 434.364
29.03000 439.735
29.04000 438.017
29.05000 434.790
29.06000 432.053
29.07000 430.544
29.08000 429.417
29.09000 427.672
29.10000 423.912
29.11000 419.997
29.12000 417.885
29.13000 419.745
29.14000 421.746
29.15000 422.945
29.16000 426.203
29.17000 428.529
29.18000 427.862
29.19000 424.324
29.20000 420.823
29.21000 420.113
29.22000 421.154
29.23000 422.166
29.24000 417.598
29.25000 411.020
29.26000 405.267
29.27000 409.058
29.28000 415.574
29.29000 421.111
29.30000 420.002
29.31000 417.647
29.32000 415.694
29.33000 415.267
29.34000 415.061
29.35000 415.832
29.36000 419.440
29.37000 423.228
29.38000 424.354
29.39000 420.247
29.40000 416.002
29.41000 413.589
29.42000 415.746
29.43000 417.258
29.44000 415.872
29.45000 412.041
29.46000 408.432
29.47000 415.943
29.48000 429.668
29.49000 442.880
29.50000 440.185
29.51000 432.018
29.52000 424.139
29.53000 419.088
29.54000 414.755
29.55000 412.100
29.56000 419.393
29.57000 428.324
29.58000 435.550
29.59000 427.648
29.60000 419.995
29.61000 414.811
29.62000 416.022
29.63000 417.561
29.64000 415.842
29.65000 408.414
29.66000 400.881
29.67000 396.836
29.68000 415.558
29.69000 428.327
29.70000 434.113
29.71000 434.694
29.72000 435.069
29.73000 428.158
29.74000 417.617
29.75000 407.571
29.76000 410.542
29.77000 417.363
29.78000 424.351
29.79000 432.734
29.80000 441.431
29.81000 448.635
29.82000 448.075
29.83000 446.400
29.84000 445.081
29.85000 450.754
29.86000 455.771
29.87000 457.993
29.88000 453.749
29.89000 449.244
29.90000 448.850
29.91000 454.866
29.92000 460.958
29.93000 464.030
29.94000 465.975
29.95000 467.285
29.96000 469.564
29.97000 472.482
29.98000 475.258
29.99000 474.250
30.00000 471.558
30.01000 469.022
30.02000 463.060
30.03000 456.661
30.04000 451.210
30.05000 452.616
30.06000 455.384
30.07000 456.928
30.08000 452.856
30.09000 448.087
30.10000 444.436
30.11000 448.144
30.12000 451.474
30.13000 456.038
30.14000 463.151
30.15000 470.341
30.16000 469.796
30.17000 458.544
30.18000 447.228
30.19000 441.282
30.20000 440.132
30.21000 439.004
30.22000 439.257
30.23000 440.320
30.24000 441.481
30.25000 444.642
30.26000 448.599
30.27000 452.279
30.28000 448.498
30.29000 443.279
30.30000 439.698
30.31000 446.416
30.32000 454.933
30.33000 462.059
30.34000 463.532
30.35000 464.401
30.36000 465.047
30.37000 450.311
30.38000 438.182
30.39000 428.430
30.40000 423.058
30.41000 417.782
30.42000 420.916
30.43000 434.350
30.44000 447.783
30.45000 454.888
30.46000 456.999
30.47000 459.100
30.48000 460.757
30.49000 462.182
30.50000 463.505
30.51000 463.158
30.52000 462.219
30.53000 461.357
30.54000 460.272
30.55000 459.257
30.56000 457.906
30.57000 454.704
30.58000 451.220
30.59000 448.656
30.60000 449.421
30.61000 450.486
30.62000 451.251
30.63000 452.209
30.64000 452.949
30.65000 455.653
30.66000 461.587
30.67000 467.567
30.68000 467.175
30.69000 459.908
30.70000 452.671
30.71000 443.677
30.72000 433.569
30.73000 424.012
30.74000 431.038
30.75000 445.825
30.76000 460.070
30.77000 466.953
30.78000 471.507
30.79000 475.621
30.80000 480.661
30.81000 485.264
30.82000 489.024
30.83000 488.689
30.84000 487.810
30.85000 489.498
30.86000 499.435
30.87000 509.996
30.88000 517.308
30.89000 532.343
30.90000 543.857
30.91000 552.450
30.92000 556.776
30.93000 561.065
30.94000 563.637
30.95000 564.585
30.96000 565.526
30.97000 573.635
30.98000 585.957
30.99000 598.547
31.00000 617.321
31.01000 638.679
31.02000 660.563
31.03000 688.422
31.04000 717.964
31.05000 744.196
31.06000 790.561
31.07000 833.986
31.08000 880.918
31.09000 942.897
31.10000 1006.594
31.11000 1071.655
31.12000 1140.627
31.13000 1209.842
31.14000 1255.911
31.15000 1412.208
31.16000 1529.940
31.17000 1659.193
31.18000 1803.357
31.19000 1947.578
31.20000 2090.122
31.21000 2231.269
31.22000 2370.559
31.23000 2533.140
31.24000 2703.847
31.25000 2873.606
31.26000 3026.088
31.27000 3172.121
31.28000 3317.636
31.29000 3458.162
31.30000 3597.438
31.31000 3718.835
31.32000 3829.368
31.33000 3922.332
31.34000 3998.587
31.35000 4011.237
31.36000 4017.689
31.37000 4013.581
31.38000 3982.428
31.39000 3949.921
31.40000 3929.189
31.41000 3862.447
31.42000 3813.317
31.43000 3711.773
31.44000 3550.359
31.45000 3388.843
31.46000 3220.843
31.47000 3048.073
31.48000 2878.608
31.49000 2705.841
31.50000 2537.826
31.51000 2369.968
31.52000 2204.450
31.53000 2039.712
31.54000 1877.703
31.55000 1738.170
31.56000 1603.625
31.57000 1488.697
31.58000 1360.672
31.59000 1251.260
31.60000 1148.651
31.61000 1069.087
31.62000 991.413
31.63000 919.946
31.64000 862.672
31.65000 805.954
31.66000 771.420
31.67000 722.021
31.68000 686.613
31.69000 659.492
31.70000 640.683
31.71000 621.821
31.72000 598.092
31.73000 571.185
31.74000 544.982
31.75000 534.163
31.76000 530.294
31.77000 526.501
31.78000 523.637
31.79000 521.048
31.80000 517.530
31.81000 507.394
31.82000 495.962
31.83000 486.409
31.84000 480.283
31.85000 475.546
31.86000 468.961
31.87000 456.801
31.88000 444.262
31.89000 435.979
31.90000 436.390
31.91000 437.056
31.92000 437.442
31.93000 437.577
31.94000 437.673
31.95000 439.890
31.96000 443.974
31.97000 447.948
31.98000 445.584
31.99000 439.538
32.00000 433.699
32.01000 433.673
32.02000 435.799
32.03000 437.740
32.04000 437.779
32.05000 437.316
32.06000 437.002
32.07000 437.612
32.08000 438.381
32.09000 439.009
32.10000 432.382
32.11000 426.340
32.12000 420.260
32.13000 414.082
32.14000 407.899
32.15000 404.729
32.16000 407.049
32.17000 409.485
32.18000 410.819
32.19000 417.108
32.20000 421.457
32.21000 429.923
32.22000 441.589
32.23000 452.978
32.24000 453.358
32.25000 448.037
32.26000 442.948
32.27000 434.531
32.28000 425.610
32.29000 417.001
32.30000 411.144
32.31000 405.930
32.32000 401.501
32.33000 401.331
32.34000 401.802
32.35000 402.176
32.36000 393.725
32.37000 386.285
32.38000 381.836
32.39000 384.581
32.40000 387.641
32.41000 391.585
32.42000 396.961
32.43000 402.358
32.44000 405.139
32.45000 404.322
32.46000 403.766
32.47000 402.645
32.48000 401.135
32.49000 399.651
32.50000 398.934
32.51000 398.572
32.52000 398.229
32.53000 392.713
32.54000 386.156
32.55000 380.513
32.56000 381.804
32.57000 384.532
32.58000 387.795
32.59000 393.617
32.60000 399.774
32.61000 404.535
32.62000 390.845
32.63000 378.897
32.64000 374.314
32.65000 385.548
32.66000 397.314
32.67000 399.153
32.68000 386.680
32.69000 374.094
32.70000 368.405
32.71000 369.149
32.72000 369.953
32.73000 375.006
32.74000 382.658
32.75000 390.086
32.76000 392.498
32.77000 392.840
32.78000 393.158
32.79000 396.480
32.80000 400.253
32.81000 402.284
32.82000 392.840
32.83000 381.301
32.84000 374.123
32.85000 385.412
32.86000 398.775
32.87000 408.802
32.88000 419.004
32.89000 426.983
32.90000 433.875
32.91000 438.685
32.92000 443.443
32.93000 450.051
32.94000 459.021
32.95000 467.987
32.96000 470.525
32.97000 467.793
32.98000 465.221
32.99000 470.072
33.00000 478.970
33.01000 487.277
33.02000 485.069
33.03000 478.984
33.04000 473.376
33.05000 468.720
33.06000 464.762
33.07000 461.343
33.08000 461.033
33.09000 461.220
33.10000 458.853
33.11000 446.889
33.12000 434.006
33.13000 424.650
33.14000 418.602
33.15000 414.075
33.16000 410.208
33.17000 407.468
33.18000 404.747
33.19000 400.377
33.20000 394.148
33.21000 387.940
33.22000 382.017
33.23000 376.351
33.24000 370.582
33.25000 361.360
33.26000 350.458
33.27000 340.531
33.28000 344.732
33.29000 353.580
33.30000 361.615
33.31000 356.407
33.32000 349.245
33.33000 343.803
33.34000 347.067
33.35000 351.544
33.36000 354.844
33.37000 354.210
33.38000 353.260
33.39000 352.593
33.40000 353.733
33.41000 354.648
33.42000 353.596
33.43000 349.556
33.44000 345.485
33.45000 345.767
33.46000 350.353
33.47000 354.908
33.48000 359.939
33.49000 365.194
33.50000 370.128
33.51000 366.980
33.52000 360.324
33.53000 354.132
33.54000 353.519
33.55000 354.541
33.56000 355.455
33.57000 355.908
33.58000 356.225
33.59000 354.765
33.60000 345.361
33.61000 335.001
33.62000 329.295
33.63000 337.466
33.64000 346.561
33.65000 352.698
33.66000 358.017
33.67000 361.958
33.68000 362.436
33.69000 358.242
33.70000 354.026
33.71000 352.621
33.72000 353.658
33.73000 354.683
33.74000 353.587
33.75000 351.331
33.76000 349.098
33.77000 347.329
33.78000 345.738
33.79000 344.147
33.80000 342.548
33.81000 340.948
33.82000 339.543
33.83000 342.450
33.84000 345.574
33.85000 347.789
33.86000 346.401
33.87000 344.643
33.88000 342.631
33.89000 339.946
33.90000 337.225
33.91000 335.464
33.92000 334.110
33.93000 333.126
33.94000 335.214
33.95000 340.964
33.96000 346.705
33.97000 348.587
33.98000 347.509
33.99000 346.451
34.00000 345.518
34.01000 344.679
34.02000 343.755
34.03000 341.481
34.04000 338.739
34.05000 336.311
34.06000 336.610
34.07000 337.539
34.08000 338.338
34.09000 330.421
34.10000 322.624
34.11000 318.764
34.12000 328.768
34.13000 339.980
34.14000 347.997
34.15000 348.421
34.16000 348.521
34.17000 348.583
34.18000 347.020
34.19000 345.881
34.20000 345.386
34.21000 345.567
34.22000 345.728
34.23000 343.681
34.24000 340.132
34.25000 336.667
34.26000 340.299
34.27000 346.873
34.28000 352.550
34.29000 346.517
34.30000 336.869
34.31000 328.195
34.32000 326.801
34.33000 326.894
34.34000 326.972
34.35000 324.759
34.36000 322.667
34.37000 323.295
34.38000 332.457
34.39000 342.240
34.40000 349.075
34.41000 349.655
34.42000 350.032
34.43000 350.254
34.44000 337.073
34.45000 327.704
34.46000 327.155
34.47000 334.714
34.48000 342.178
34.49000 343.207
34.50000 340.349
34.51000 337.581
34.52000 334.534
34.53000 331.543
34.54000 328.988
34.55000 331.193
34.56000 334.706
34.57000 337.356
34.58000 334.404
34.59000 330.444
34.60000 327.185
34.61000 330.522
34.62000 333.865
34.63000 335.344
34.64000 331.606
34.65000 327.558
34.66000 325.620
34.67000 327.677
34.68000 329.828
34.69000 331.029
34.70000 336.227
34.71000 339.821
34.72000 338.291
34.73000 332.610
34.74000 327.003
34.75000 324.714
34.76000 324.211
34.77000 323.728
34.78000 326.210
34.79000 329.538
34.80000 332.401
34.81000 330.936
34.82000 328.415
34.83000 325.723
34.84000 322.064
34.85000 318.252
34.86000 315.193
34.87000 318.857
34.88000 322.336
34.89000 323.960
34.90000 320.947
34.91000 317.715
34.92000 317.817
34.93000 323.549
34.94000 329.372
34.95000 332.438
34.96000 340.152
34.97000 345.331
34.98000 341.979
34.99000 332.514
35.00000 323.343
35.01000 323.654
35.02000 328.520
35.03000 333.141
35.04000 324.751
35.05000 313.102
35.06000 303.648
35.07000 311.694
35.08000 323.522
35.09000 332.186
35.10000 325.046
35.11000 315.739
35.12000 308.472
35.13000 314.227
35.14000 319.637
35.15000 323.633
35.16000 324.471
35.17000 325.193
35.18000 323.177
35.19000 317.052
35.20000 310.886
35.21000 308.844
35.22000 310.820
35.23000 312.779
35.24000 313.326
35.25000 312.974
35.26000 312.643
35.27000 312.816
35.28000 313.204
35.29000 313.569
35.30000 316.180
35.31000 319.151
35.32000 321.533
35.33000 319.845
35.34000 317.380
35.35000 315.587
35.36000 316.755
35.37000 318.274
35.38000 319.425
35.39000 307.977
35.40000 298.341
35.41000 295.747
35.42000 307.181
35.43000 319.002
35.44000 325.244
35.45000 324.058
35.46000 322.837
35.47000 320.523
35.48000 317.279
35.49000 314.103
35.50000 314.470
35.51000 316.845
35.52000 319.352
35.53000 324.414
35.54000 330.455
35.55000 336.050
35.56000 328.508
35.57000 318.683
35.58000 311.266
35.59000 318.353
35.60000 327.866
35.61000 332.609
35.62000 318.690
35.63000 302.884
35.64000 291.273
35.65000 294.503
35.66000 297.606
35.67000 300.683
35.68000 303.715
35.69000 306.747
35.70000 306.473
35.71000 302.312
35.72000 298.156
35.73000 299.031
35.74000 303.683
35.75000 308.227
35.76000 308.822
35.77000 307.422
35.78000 306.196
35.79000 307.675
35.80000 310.078
35.81000 312.272
35.82000 314.433
35.83000 316.345
35.84000 317.411
35.85000 314.010
35.86000 309.956
35.87000 307.923
35.88000 312.920
35.89000 318.518
35.90000 322.490
35.91000 318.855
35.92000 315.848
35.93000 312.254
35.94000 307.728
35.95000 303.191
35.96000 301.426
35.97000 302.527
35.98000 303.622
35.99000 302.356
36.00000 299.541
36.01000 296.896
36.02000 298.901
36.03000 303.003
36.04000 307.075
36.05000 310.759
36.06000 314.324
36.07000 317.526
36.08000 312.328
36.09000 306.295
36.10000 301.218
36.11000 300.600
36.12000 300.547
36.13000 300.887
36.14000 302.449
36.15000 304.098
36.16000 305.225
36.17000 307.612
36.18000 309.429
36.19000 311.355
36.20000 313.437
36.21000 315.520
36.22000 317.749
36.23000 320.110
36.24000 322.448
36.25000 316.564
36.26000 306.000
36.27000 295.858
36.28000 294.722
36.29000 297.214
36.30000 299.589
36.31000 300.699
36.32000 301.467
36.33000 302.145
36.34000 303.411
36.35000 304.594
36.36000 304.916
36.37000 301.684
36.38000 298.066
36.39000 296.178
36.40000 299.069
36.41000 302.238
36.42000 304.320
36.43000 309.630
36.44000 313.591
36.45000 314.296
36.46000 310.952
36.47000 307.600
36.48000 305.495
36.49000 304.386
36.50000 303.295
36.51000 309.438
36.52000 319.129
36.53000 328.143
36.54000 325.641
36.55000 318.996
36.56000 312.847
36.57000 311.217
36.58000 310.676
36.59000 310.208
36.60000 303.460
36.61000 296.889
36.62000 292.817
36.63000 297.903
36.64000 303.833
36.65000 306.191
36.66000 299.729
36.67000 292.858
36.68000 288.539
36.69000 291.942
36.70000 294.488
36.71000 297.146
36.72000 299.928
36.73000 302.737
36.74000 309.379
36.75000 318.733
36.76000 327.888
36.77000 327.625
36.78000 323.084
36.79000 318.177
36.80000 308.197
36.81000 296.589
36.82000 286.804
36.83000 291.337
36.84000 298.922
36.85000 305.357
36.86000 311.039
36.87000 315.718
36.88000 318.285
36.89000 313.962
36.90000 309.105
36.91000 306.306
36.92000 308.045
36.93000 309.946
36.94000 311.086
36.95000 313.333
36.96000 314.936
36.97000 313.845
36.98000 310.167
36.99000 306.522
37.00000 305.507
37.01000 306.143
37.02000 306.762
37.03000 311.277
37.04000 317.132
37.05000 322.094
37.06000 316.692
37.07000 308.327
37.08000 301.099
37.09000 301.599
37.10000 303.554
37.11000 305.174
37.12000 304.787
37.13000 304.274
37.14000 305.491
37.15000 311.743
37.16000 318.315
37.17000 319.723
37.18000 310.967
37.19000 301.939
37.20000 296.804
37.21000 300.184
37.22000 302.561
37.23000 302.515
37.24000 300.419
37.25000 298.365
37.26000 298.350
37.27000 299.478
37.28000 300.564
37.29000 305.928
37.30000 312.481
37.31000 317.768
37.32000 310.631
37.33000 300.336
37.34000 292.225
37.35000 297.078
37.36000 304.069
37.37000 309.727
37.38000 308.761
37.39000 307.439
37.40000 305.706
37.41000 302.907
37.42000 300.054
37.43000 297.831
37.44000 296.717
37.45000 295.624
37.46000 295.036
37.47000 294.774
37.48000 294.591
37.49000 293.476
37.50000 291.667
37.51000 289.825
37.52000 286.828
37.53000 283.254
37.54000 279.848
37.55000 284.882
37.56000 292.191
37.57000 298.997
37.58000 301.587
37.59000 303.228
37.60000 304.608
37.61000 304.630
37.62000 304.456
37.63000 304.320
37.64000 303.466
37.65000 302.733
37.66000 303.105
37.67000 306.037
37.68000 309.073
37.69000 308.753
37.70000 303.190
37.71000 297.564
37.72000 294.724
37.73000 303.416
37.74000 309.160
37.75000 308.104
37.76000 302.544
37.77000 297.056
37.78000 293.510
37.79000 290.830
37.80000 288.304
37.81000 289.792
37.82000 292.260
37.83000 294.623
37.84000 296.224
37.85000 297.673
37.86000 298.832
37.87000 298.657
37.88000 298.315
37.89000 298.054
37.90000 298.377
37.91000 298.664
37.92000 298.600
37.93000 297.813
37.94000 297.003
37.95000 299.252
37.96000 305.741
37.97000 312.254
37.98000 312.890
37.99000 308.275
38.00000 303.699
38.01000 301.473
38.02000 300.634
38.03000 299.832
38.04000 299.822
38.05000 300.127
38.06000 300.411
38.07000 296.617
38.08000 292.203
38.09000 289.257
38.10000 295.560
38.11000 303.482
38.12000 310.516
38.13000 313.929
38.14000 316.955
38.15000 319.203
38.16000 318.387
38.17000 317.617
38.18000 316.561
38.19000 314.977
38.20000 313.382
38.21000 315.829
38.22000 323.236
38.23000 330.642
38.24000 329.463
38.25000 321.552
38.26000 313.882
38.27000 316.221
38.28000 323.816
38.29000 330.912
38.30000 329.691
38.31000 325.515
38.32000 321.683
38.33000 328.822
38.34000 337.513
38.35000 345.338
38.36000 348.392
38.37000 350.715
38.38000 354.329
38.39000 362.613
38.40000 371.321
38.41000 377.575
38.42000 378.031
38.43000 378.180
38.44000 379.718
38.45000 383.544
38.46000 387.404
38.47000 394.606
38.48000 405.419
38.49000 416.184
38.50000 428.185
38.51000 440.911
38.52000 453.727
38.53000 469.270
38.54000 486.089
38.55000 502.931
38.56000 520.075
38.57000 537.313
38.58000 552.887
38.59000 563.887
38.60000 572.714
38.61000 585.129
38.62000 614.992
38.63000 647.173
38.64000 671.814
38.65000 672.162
38.66000 670.668
38.67000 669.633
38.68000 677.742
38.69000 684.084
38.70000 683.934
38.71000 674.286
38.72000 664.556
38.73000 660.000
38.74000 660.346
38.75000 660.689
38.76000 654.415
38.77000 644.224
38.78000 633.665
38.79000 614.592
38.80000 591.956
38.81000 570.110
38.82000 557.256
38.83000 546.941
38.84000 537.779
38.85000 519.459
38.86000 502.102
38.87000 483.527
38.88000 459.718
38.89000 435.309
38.90000 412.473
38.91000 394.157
38.92000 376.123
38.93000 364.113
38.94000 360.626
38.95000 358.207
38.96000 354.120
38.97000 347.870
38.98000 341.614
38.99000 336.778
39.00000 333.125
39.01000 329.520
39.02000 326.823
39.03000 324.687
39.04000 322.451
39.05000 318.396
39.06000 313.661
39.07000 308.579
39.08000 300.143
39.09000 290.866
39.10000 282.777
39.11000 287.551
39.12000 293.419
39.13000 297.763
39.14000 296.294
39.15000 294.257
39.16000 291.222
39.17000 285.627
39.18000 279.904
39.19000 276.251
39.20000 283.925
39.21000 289.654
39.22000 292.086
39.23000 290.745
39.24000 289.401
39.25000 288.126
39.26000 286.903
39.27000 285.703
39.28000 284.946
39.29000 284.427
39.30000 283.577
39.31000 277.820
39.32000 270.426
39.33000 264.740
39.34000 273.154
39.35000 284.702
39.36000 294.569
39.37000 287.973
39.38000 280.450
39.39000 275.394
39.40000 278.709
39.41000 282.713
39.42000 284.268
39.43000 280.215
39.44000 275.941
39.45000 273.337
39.46000 271.470
39.47000 270.142
39.48000 271.029
39.49000 274.143
39.50000 277.176
39.51000 272.701
39.52000 263.317
39.53000 254.178
39.54000 258.356
39.55000 267.926
39.56000 276.799
39.57000 277.081
39.58000 274.807
39.59000 272.484
39.60000 269.806
39.61000 267.057
39.62000 264.760
39.63000 267.541
39.64000 270.366
39.65000 272.063
39.66000 270.349
39.67000 268.402
39.68000 266.225
39.69000 263.576
39.70000 260.914
39.71000 259.371
39.72000 259.989
39.73000 260.432
39.74000 261.404
39.75000 262.842
39.76000 264.314
39.77000 267.776
39.78000 272.396
39.79000 276.858
39.80000 272.602
39.81000 265.361
39.82000 258.961
39.83000 261.267
39.84000 265.877
39.85000 269.550
39.86000 267.404
39.87000 264.255
39.88000 261.685
39.89000 261.877
39.90000 262.272
39.91000 264.857
39.92000 273.351
39.93000 282.173
39.94000 286.895
39.95000 284.136
39.96000 281.218
39.97000 279.619
39.98000 272.125
39.99000 266.985
40.00000 268.016
40.01000 273.850
40.02000 279.475
40.03000 276.766
40.04000 269.733
40.05000 263.007
40.06000 263.245
40.07000 265.744
40.08000 267.872
40.09000 266.727
40.10000 264.814
40.11000 263.027
40.12000 261.928
40.13000 260.933
40.14000 260.141
40.15000 260.600
40.16000 261.060
40.17000 260.271
40.18000 256.475
40.19000 252.546
40.20000 250.947
40.21000 253.133
40.22000 255.372
40.23000 256.527
40.24000 257.791
40.25000 258.646
40.26000 260.073
40.27000 261.894
40.28000 263.682
40.29000 264.507
40.30000 264.886
40.31000 265.245
40.32000 268.090
40.33000 271.420
40.34000 273.740
40.35000 268.374
40.36000 261.413
40.37000 255.809
40.38000 256.721
40.39000 258.486
40.40000 259.851
40.41000 256.134
40.42000 252.884
40.43000 252.798
40.44000 259.523
40.45000 266.478
40.46000 269.359
40.47000 266.357
40.48000 263.308
40.49000 260.017
40.50000 256.501
40.51000 253.033
40.52000 252.968
40.53000 254.989
40.54000 256.856
40.55000 255.250
40.56000 252.207
40.57000 249.363
40.58000 247.630
40.59000 246.339
40.60000 246.302
40.61000 254.545
40.62000 264.301
40.63000 271.948
40.64000 270.644
40.65000 268.332
40.66000 266.596
40.67000 266.333
40.68000 266.197
40.69000 266.097
40.70000 266.065
40.71000 266.035
40.72000 262.790
40.73000 255.434
40.74000 248.072
40.75000 248.109
40.76000 254.211
40.77000 260.161
40.78000 259.035
40.79000 254.046
40.80000 249.286
40.81000 248.640
40.82000 249.512
40.83000 250.316
40.84000 254.094
40.85000 258.135
40.86000 260.897
40.87000 256.270
40.88000 250.459
40.89000 246.877
40.90000 251.691
40.91000 257.311
40.92000 261.394
40.93000 256.687
40.94000 252.736
40.95000 252.350
40.96000 258.066
40.97000 263.886
40.98000 264.741
40.99000 259.992
41.00000 255.255
41.01000 250.025
41.02000 244.485
41.03000 239.124
41.04000 239.740
41.05000 243.268
41.06000 246.364
41.07000 243.164
41.08000 237.890
41.09000 233.100
41.10000 239.332
41.11000 246.975
41.12000 253.549
41.13000 254.703
41.14000 255.101
41.15000 254.910
41.16000 252.748
41.17000 250.427
41.18000 248.799
41.19000 247.459
41.20000 246.453
41.21000 244.432
41.22000 240.864
41.23000 237.281
41.24000 237.445
41.25000 241.323
41.26000 245.174
41.27000 246.803
41.28000 246.995
41.29000 247.417
41.30000 253.668
41.31000 262.454
41.32000 270.136
41.33000 264.486
41.34000 254.922
41.35000 246.377
41.36000 246.635
41.37000 248.346
41.38000 249.000
41.39000 244.919
41.40000 240.268
41.41000 237.591
41.42000 240.808
41.43000 244.419
41.44000 246.856
41.45000 249.676
41.46000 251.783
41.47000 252.636
41.48000 251.794
41.49000 250.942
41.50000 248.258
41.51000 243.981
41.52000 239.752
41.53000 238.131
41.54000 238.012
41.55000 238.031
41.56000 240.773
41.57000 244.572
41.58000 248.400
41.59000 252.517
41.60000 256.710
41.61000 260.390
41.62000 257.275
41.63000 253.607
41.64000 249.781
41.65000 245.327
41.66000 240.810
41.67000 239.914
41.68000 248.672
41.69000 257.954
41.70000 263.965
41.71000 256.160
41.72000 250.243
41.73000 251.931
41.74000 262.702
41.75000 273.424
41.76000 268.338
41.77000 251.109
41.78000 234.171
41.79000 230.851
41.80000 234.388
41.81000 237.663
41.82000 236.785
41.83000 234.466
41.84000 232.544
41.85000 234.070
41.86000 236.395
41.87000 238.395
41.88000 246.112
41.89000 253.364
41.90000 257.550
41.91000 250.912
41.92000 243.329
41.93000 239.167
41.94000 243.145
41.95000 247.471
41.96000 250.151
41.97000 244.314
41.98000 240.036
41.99000 240.765
42.00000 246.754
42.01000 252.700
42.02000 253.759
42.03000 251.492
42.04000 249.277
42.05000 250.045
42.06000 252.084
42.07000 253.912
42.08000 252.973
42.09000 251.180
42.10000 249.291
42.11000 246.689
42.12000 243.941
42.13000 241.627
42.14000 232.520
42.15000 224.189
42.16000 218.991
42.17000 223.636
42.18000 228.998
42.19000 232.472
42.20000 231.933
42.21000 231.263
42.22000 230.868
42.23000 235.133
42.24000 238.168
42.25000 238.676
42.26000 236.857
42.27000 235.092
42.28000 236.972
42.29000 241.058
42.30000 245.016
42.31000 241.987
42.32000 236.421
42.33000 231.098
42.34000 228.432
42.35000 226.498
42.36000 225.296
42.37000 228.850
42.38000 233.263
42.39000 236.894
42.40000 240.708
42.41000 243.861
42.42000 246.302
42.43000 246.749
42.44000 247.077
42.45000 246.241
42.46000 243.201
42.47000 240.108
42.48000 238.379
42.49000 237.522
42.50000 236.932
42.51000 236.728
42.52000 236.838
42.53000 236.944
42.54000 236.870
42.55000 236.698
42.56000 236.533
42.57000 228.481
42.58000 218.264
42.59000 209.242
42.60000 211.350
42.61000 216.179
42.62000 221.264
42.63000 227.802
42.64000 234.569
42.65000 240.001
42.66000 238.092
42.67000 235.985
42.68000 236.351
42.69000 242.909
42.70000 249.763
42.71000 250.541
42.72000 241.049
42.73000 231.391
42.74000 226.301
42.75000 229.673
42.76000 231.941
42.77000 230.618
42.78000 226.714
42.79000 223.041
42.80000 226.797
42.81000 234.127
42.82000 241.089
42.83000 242.881
42.84000 242.983
42.85000 242.321
42.86000 235.551
42.87000 227.458
42.88000 221.694
42.89000 227.590
42.90000 235.087
42.91000 240.943
42.92000 237.760
42.93000 234.649
42.94000 234.287
42.95000 240.071
42.96000 246.083
42.97000 248.537
42.98000 245.641
42.99000 242.692
43.00000 240.673
43.01000 239.562
43.02000 238.466
43.03000 238.546
43.04000 239.377
43.05000 240.162
43.06000 239.813
43.07000 238.976
43.08000 238.190
43.09000 234.062
43.10000 229.414
43.11000 225.629
43.12000 227.807
43.13000 231.124
43.14000 234.516
43.15000 238.244
43.16000 242.012
43.17000 244.870
43.18000 235.493
43.19000 227.498
43.20000 222.635
43.21000 224.024
43.22000 225.585
43.23000 227.868
43.24000 231.111
43.25000 234.357
43.26000 234.359
43.27000 231.583
43.28000 228.844
43.29000 228.126
43.30000 228.554
43.31000 229.152
43.32000 233.028
43.33000 238.160
43.34000 242.915
43.35000 244.883
43.36000 246.007
43.37000 246.115
43.38000 240.095
43.39000 233.047
43.40000 227.547
43.41000 228.111
43.42000 229.289
43.43000 230.156
43.44000 234.027
43.45000 237.143
43.46000 240.052
43.47000 242.591
43.48000 245.124
43.49000 243.708
43.50000 237.640
43.51000 231.581
43.52000 227.549
43.53000 225.071
43.54000 222.597
43.55000 220.302
43.56000 218.097
43.57000 216.199
43.58000 219.062
43.59000 223.555
43.60000 227.658
43.61000 230.917
43.62000 233.639
43.63000 235.934
43.64000 235.968
43.65000 235.671
43.66000 234.962
43.67000 232.818
43.68000 230.550
43.69000 228.940
43.70000 227.566
43.71000 226.527
43.72000 224.984
43.73000 222.640
43.74000 220.285
43.75000 220.502
43.76000 223.383
43.77000 226.248
43.78000 230.881
43.79000 236.627
43.80000 242.123
43.81000 240.728
43.82000 236.218
43.83000 231.967
43.84000 231.053
43.85000 231.157
43.86000 231.251
43.87000 231.869
43.88000 232.503
43.89000 232.493
43.90000 229.475
43.91000 226.077
43.92000 223.145
43.93000 221.665
43.94000 220.289
43.95000 219.347
43.96000 231.440
43.97000 240.802
43.98000 243.437
43.99000 236.604
44.00000 229.708
44.01000 226.795
44.02000 227.502
44.03000 228.202
44.04000 227.780
44.05000 226.709
44.06000 225.714
44.07000 226.325
44.08000 227.584
44.09000 228.700
44.10000 228.271
44.11000 227.423
44.12000 226.674
44.13000 231.696
44.14000 236.916
44.15000 240.786
44.16000 239.076
44.17000 236.759
44.18000 236.469
44.19000 241.795
44.20000 247.448
44.21000 251.163
44.22000 243.429
44.23000 237.543
44.24000 231.788
44.25000 226.197
44.26000 220.621
44.27000 220.164
44.28000 223.806
44.29000 227.394
44.30000 229.549
44.31000 230.900
44.32000 232.165
44.33000 231.989
44.34000 231.292
44.35000 230.737
44.36000 231.479
44.37000 232.533
44.38000 233.447
44.39000 234.186
44.40000 234.792
44.41000 235.275
44.42000 235.310
44.43000 235.304
44.44000 234.676
44.45000 232.512
44.46000 230.277
44.47000 228.871
44.48000 227.247
44.49000 226.069
44.50000 226.974
44.51000 230.165
44.52000 233.375
44.53000 239.030
44.54000 246.420
44.55000 253.653
44.56000 250.805
44.57000 243.468
44.58000 236.675
44.59000 237.459
44.60000 240.680
44.61000 243.934
44.62000 247.459
44.63000 251.041
44.64000 254.080
44.65000 256.851
44.66000 259.143
44.67000 261.063
44.68000 261.762
44.69000 262.366
44.70000 263.269
44.71000 264.830
44.72000 266.415
44.73000 267.365
44.74000 282.702
44.75000 293.692
44.76000 301.742
44.77000 306.964
44.78000 312.273
44.79000 324.549
44.80000 341.210
44.81000 357.394
44.82000 370.940
44.83000 382.742
44.84000 394.348
44.85000 403.678
44.86000 412.356
44.87000 421.750
44.88000 436.024
44.89000 451.218
44.90000 463.825
44.91000 467.989
44.92000 470.617
44.93000 475.167
44.94000 485.318
44.95000 495.828
44.96000 508.730
44.97000 526.350
44.98000 544.095
44.99000 554.199
45.00000 560.379
45.01000 564.662
45.02000 561.624
45.03000 552.387
45.04000 543.272
45.05000 540.404
45.06000 541.036
45.07000 541.645
45.08000 535.452
45.09000 527.219
45.10000 519.128
45.11000 512.438
45.12000 506.105
45.13000 498.598
45.14000 484.103
45.15000 468.454
45.16000 455.783
45.17000 439.217
45.18000 425.414
45.19000 414.287
45.20000 410.120
45.21000 406.313
45.22000 399.644
45.23000 387.942
45.24000 376.146
45.25000 369.801
45.26000 355.657
45.27000 345.998
45.28000 339.094
45.29000 334.253
45.30000 329.246
45.31000 318.347
45.32000 304.500
45.33000 291.301
45.34000 287.619
45.35000 287.189
45.36000 286.159
45.37000 280.076
45.38000 272.853
45.39000 266.291
45.40000 263.182
45.41000 260.572
45.42000 258.513
45.43000 256.097
45.44000 254.135
45.45000 252.512
45.46000 251.676
45.47000 250.873
45.48000 247.932
45.49000 241.646
45.50000 235.320
45.51000 232.123
45.52000 238.596
45.53000 242.890
45.54000 243.577
45.55000 241.872
45.56000 240.182
45.57000 238.913
45.58000 237.831
45.59000 236.812
45.60000 234.733
45.61000 232.537
45.62000 230.613
45.63000 230.662
45.64000 231.105
45.65000 230.895
45.66000 227.679
45.67000 224.087
45.68000 221.335
45.69000 221.707
45.70000 222.174
45.71000 222.482
45.72000 222.461
45.73000 222.431
45.74000 222.527
45.75000 222.799
45.76000 223.072
45.77000 222.966
45.78000 222.519
45.79000 222.124
45.80000 224.859
45.81000 229.441
45.82000 233.760
45.83000 232.607
45.84000 229.273
45.85000 226.171
45.86000 224.369
45.87000 223.057
45.88000 221.871
45.89000 221.483
45.90000 221.235
45.91000 221.002
45.92000 220.835
45.93000 220.675
45.94000 220.556
45.95000 210.302
45.96000 201.881
45.97000 197.213
45.98000 199.491
45.99000 201.923
46.00000 206.106
46.01000 212.444
46.02000 218.775
46.03000 221.603
46.04000 221.661
46.05000 221.691
46.06000 220.513
46.07000 218.699
46.08000 216.830
46.09000 214.034
46.10000 210.908
46.11000 208.040
46.12000 207.668
46.13000 207.866
46.14000 208.371
46.15000 210.575
46.16000 213.039
46.17000 214.594
46.18000 212.856
46.19000 210.819
46.20000 209.355
46.21000 210.857
46.22000 212.109
46.23000 211.979
46.24000 209.572
46.25000 207.131
46.26000 206.923
46.27000 209.132
46.28000 211.333
46.29000 212.531
46.30000 213.023
46.31000 213.500
46.32000 213.555
46.33000 213.412
46.34000 212.830
46.35000 206.253
46.36000 197.772
46.37000 190.109
46.38000 196.671
46.39000 205.080
46.40000 212.576
46.41000 215.628
46.42000 218.089
46.43000 219.396
46.44000 216.980
46.45000 214.282
46.46000 212.411
46.47000 217.564
46.48000 221.628
46.49000 222.369
46.50000 218.243
46.51000 214.074
46.52000 211.826
46.53000 211.403
46.54000 210.983
46.55000 208.430
46.56000 204.621
46.57000 201.016
46.58000 202.151
46.59000 205.272
46.60000 207.934
46.61000 205.350
46.62000 201.282
46.63000 197.667
46.64000 201.934
46.65000 206.904
46.66000 211.395
46.67000 213.823
46.68000 216.014
46.69000 214.463
46.70000 202.142
46.71000 189.146
46.72000 180.486
46.73000 188.388
46.74000 194.554
46.75000 199.444
46.76000 202.676
46.77000 205.894
46.78000 205.240
46.79000 201.353
46.80000 197.517
46.81000 199.341
46.82000 204.167
46.83000 208.630
46.84000 206.431
46.85000 201.739
46.86000 197.452
46.87000 197.087
46.88000 197.707
46.89000 198.248
46.90000 200.285
46.91000 202.235
46.92000 203.840
46.93000 204.125
46.94000 204.282
46.95000 202.614
46.96000 196.261
46.97000 189.672
46.98000 185.465
46.99000 191.326
47.00000 195.722
47.01000 198.046
47.02000 197.993
47.03000 197.926
47.04000 196.011
47.05000 192.729
47.06000 189.510
47.07000 190.762
47.08000 194.097
47.09000 197.347
47.10000 199.323
47.11000 200.874
47.12000 202.038
47.13000 200.000
47.14000 197.248
47.15000 194.897
47.16000 195.793
47.17000 196.937
47.18000 196.767
47.19000 192.135
47.20000 187.135
47.21000 184.217
47.22000 186.077
47.23000 188.125
47.24000 189.374
47.25000 183.448
47.26000 179.153
47.27000 179.850
47.28000 185.572
47.29000 191.250
47.30000 192.769
47.31000 191.564
47.32000 190.389
47.33000 189.846
47.34000 189.593
47.35000 189.443
47.36000 190.570
47.37000 192.077
47.38000 193.708
47.39000 196.227
47.40000 198.921
47.41000 201.174
47.42000 199.155
47.43000 197.043
47.44000 195.598
47.45000 196.172
47.46000 196.884
47.47000 196.671
47.48000 194.563
47.49000 192.399
47.50000 191.144
47.51000 193.965
47.52000 195.960
47.53000 196.728
47.54000 196.413
47.55000 196.163
47.56000 199.768
47.57000 205.619
47.58000 211.270
47.59000 208.669
47.60000 203.153
47.61000 197.942
47.62000 195.890
47.63000 194.675
47.64000 194.256
47.65000 198.792
47.66000 204.185
47.67000 208.588
47.68000 204.672
47.69000 200.750
47.70000 196.235
47.71000 190.116
47.72000 183.907
47.73000 180.060
47.74000 180.532
47.75000 181.095
47.76000 181.404
47.77000 179.425
47.78000 178.069
47.79000 179.061
47.80000 181.884
47.81000 184.668
47.82000 185.870
47.83000 186.250
47.84000 186.614
47.85000 188.614
47.86000 191.012
47.87000 193.117
47.88000 192.631
47.89000 191.535
47.90000 189.949
47.91000 185.694
47.92000 181.035
47.93000 177.327
47.94000 181.133
47.95000 184.742
47.96000 186.883
47.97000 185.480
47.98000 183.921
47.99000 184.314
48.00000 187.885
48.01000 191.501
48.02000 193.369
48.03000 191.351
48.04000 189.987
48.05000 188.211
48.06000 186.150
48.07000 184.186
48.08000 185.078
48.09000 187.293
48.10000 189.390
48.11000 188.025
48.12000 185.771
48.13000 183.949
48.14000 185.416
48.15000 187.566
48.16000 189.249
48.17000 188.688
48.18000 187.832
48.19000 187.170
48.20000 190.740
48.21000 193.825
48.22000 196.081
48.23000 196.553
48.24000 196.964
48.25000 195.693
48.26000 191.988
48.27000 188.264
48.28000 190.311
48.29000 197.758
48.30000 205.108
48.31000 205.599
48.32000 201.878
48.33000 198.216
48.34000 195.869
48.35000 194.068
48.36000 192.384
48.37000 185.503
48.38000 177.939
48.39000 171.729
48.40000 174.466
48.41000 178.842
48.42000 183.096
48.43000 186.828
48.44000 190.501
48.45000 193.260
48.46000 191.706
48.47000 190.286
48.48000 188.676
48.49000 186.704
48.50000 184.723
48.51000 183.083
48.52000 181.880
48.53000 180.681
48.54000 179.204
48.55000 177.507
48.56000 175.888
48.57000 177.982
48.58000 182.108
48.59000 186.090
48.60000 187.496
48.61000 187.948
48.62000 188.366
48.63000 187.569
48.64000 186.585
48.65000 186.380
48.66000 190.686
48.67000 195.715
48.68000 198.566
48.69000 193.197
48.70000 187.039
48.71000 182.561
48.72000 183.012
48.73000 183.545
48.74000 182.340
48.75000 178.154
48.76000 173.917
48.77000 171.964
48.78000 172.593
48.79000 173.223
48.80000 175.318
48.81000 178.453
48.82000 181.597
48.83000 185.045
48.84000 188.641
48.85000 192.210
48.86000 195.405
48.87000 198.477
48.88000 201.267
48.89000 195.932
48.90000 189.640
48.91000 184.086
48.92000 182.282
48.93000 181.003
48.94000 180.458
48.95000 182.375
48.96000 184.491
48.97000 185.976
48.98000 192.758
48.99000 198.046
49.00000 198.697
49.01000 192.275
49.02000 185.779
49.03000 184.604
49.04000 188.712
49.05000 192.792
49.06000 192.923
49.07000 190.536
49.08000 188.068
49.09000 183.553
49.10000 178.147
49.11000 173.290
49.12000 175.098
49.13000 178.867
49.14000 182.235
49.15000 181.478
49.16000 180.121
49.17000 179.163
49.18000 180.000
49.19000 181.053
49.20000 180.822
49.21000 176.749
49.22000 172.419
49.23000 169.493
49.24000 172.969
49.25000 175.693
49.26000 178.253
49.27000 180.589
49.28000 182.922
49.29000 182.587
49.30000 179.929
49.31000 177.300
49.32000 177.011
49.33000 178.043
49.34000 179.099
49.35000 180.627
49.36000 182.339
49.37000 183.445
49.38000 178.377
49.39000 171.693
49.40000 165.827
49.41000 166.905
49.42000 168.847
49.43000 172.054
49.44000 180.283
49.45000 189.033
49.46000 195.133
49.47000 194.158
49.48000 192.799
49.49000 191.918
49.50000 183.478
49.51000 177.187
49.52000 175.966
49.53000 180.810
49.54000 185.644
49.55000 185.107
49.56000 180.437
49.57000 175.846
49.58000 177.455
49.59000 182.089
49.60000 186.205
49.61000 182.057
49.62000 175.038
49.63000 169.437
49.64000 176.177
49.65000 185.782
49.66000 194.050
49.67000 188.358
49.68000 181.777
49.69000 177.767
49.70000 182.842
49.71000 188.712
49.72000 191.442
49.73000 186.687
49.74000 181.610
49.75000 178.464
49.76000 182.889
49.77000 186.143
49.78000 185.707
49.79000 181.385
49.80000 177.095
49.81000 176.614
49.82000 178.729
49.83000 180.795
49.84000 183.013
49.85000 185.202
49.86000 186.979
49.87000 183.352
49.88000 178.051
49.89000 173.289
49.90000 172.567
49.91000 172.674
49.92000 172.765
49.93000 178.928
49.94000 184.726
49.95000 188.940
49.96000 188.165
49.97000 187.026
49.98000 185.700
49.99000 183.974
50.00000 182.236
50.01000 181.210
50.02000 184.861
50.03000 187.463
50.04000 188.384
50.05000 187.754
50.06000 187.112
50.07000 185.693
50.08000 183.804
50.09000 181.974
50.10000 180.868
50.11000 180.102
50.12000 179.467
50.13000 180.276
50.14000 181.484
50.15000 182.619
50.16000 183.279
50.17000 183.854
50.18000 184.328
50.19000 185.435
50.20000 186.403
50.21000 186.841
50.22000 185.790
50.23000 184.649
50.24000 183.595
50.25000 182.703
50.26000 181.815
50.27000 181.319
50.28000 185.821
50.29000 188.949
50.30000 191.474
50.31000 193.509
50.32000 195.480
50.33000 194.574
50.34000 192.114
50.35000 189.753
50.36000 198.327
50.37000 210.081
50.38000 220.575
50.39000 219.313
50.40000 215.170
50.41000 211.785
50.42000 212.717
50.43000 214.333
50.44000 215.629
50.45000 220.851
50.46000 225.383
50.47000 230.245
50.48000 235.937
50.49000 241.669
50.50000 247.207
50.51000 252.414
50.52000 257.616
50.53000 260.360
50.54000 270.430
50.55000 277.263
50.56000 283.068
50.57000 288.133
50.58000 292.965
50.59000 290.228
50.60000 283.844
50.61000 277.780
50.62000 279.072
50.63000 282.479
50.64000 286.009
50.65000 290.519
50.66000 295.240
50.67000 300.309
50.68000 307.119
50.69000 314.169
50.70000 319.679
50.71000 307.001
50.72000 295.733
50.73000 287.968
50.74000 288.046
50.75000 288.416
50.76000 287.466
50.77000 284.525
50.78000 281.565
50.79000 276.456
50.80000 269.244
50.81000 262.076
50.82000 258.535
50.83000 257.311
50.84000 256.004
50.85000 252.642
50.86000 248.395
50.87000 244.409
50.88000 240.550
50.89000 237.064
50.90000 233.511
50.91000 229.483
50.92000 225.365
50.93000 221.665
50.94000 219.815
50.95000 218.184
50.96000 216.947
50.97000 203.034
50.98000 191.448
50.99000 186.329
51.00000 194.136
51.01000 202.303
51.02000 204.963
51.03000 200.267
51.04000 195.538
51.05000 194.169
51.06000 195.688
51.07000 197.147
51.08000 195.409
51.09000 191.853
51.10000 188.298
51.11000 184.746
51.12000 181.195
51.13000 177.904
51.14000 176.240
51.15000 175.120
51.16000 174.050
51.17000 173.283
51.18000 172.567
51.19000 172.432
51.20000 174.576
51.21000 176.953
51.22000 178.700
51.23000 177.814
51.24000 177.020
51.25000 176.454
51.26000 176.291
51.27000 176.137
51.28000 175.364
51.29000 173.860
51.30000 172.360
51.31000 172.961
51.32000 175.145
51.33000 177.343
51.34000 180.057
51.35000 183.033
51.36000 185.617
51.37000 182.076
51.38000 176.433
51.39000 171.280
51.40000 174.357
51.41000 178.763
51.42000 182.761
51.43000 184.603
51.44000 186.129
51.45000 186.951
51.46000 185.316
51.47000 183.470
51.48000 182.159
51.49000 177.807
51.50000 174.398
51.51000 172.716
51.52000 173.773
51.53000 174.865
51.54000 175.123
51.55000 174.514
51.56000 173.909
51.57000 172.652
51.58000 170.977
51.59000 169.350
51.60000 169.030
51.61000 169.303
51.62000 169.546
51.63000 169.397
51.64000 169.128
51.65000 168.886
51.66000 172.176
51.67000 175.682
51.68000 177.530
51.69000 171.624
51.70000 164.733
51.71000 159.905
51.72000 161.495
51.73000 163.544
51.74000 164.947
51.75000 166.017
51.76000 166.811
51.77000 167.624
51.78000 168.465
51.79000 169.304
51.80000 168.719
51.81000 166.837
51.82000 164.972
51.83000 169.143
51.84000 176.766
51.85000 183.962
51.86000 182.030
51.87000 176.407
51.88000 170.995
51.89000 167.858
51.90000 165.341
51.91000 163.118
51.92000 162.780
51.93000 162.778
51.94000 163.078
51.95000 164.624
51.96000 166.306
51.97000 167.484
51.98000 167.263
51.99000 166.961
52.00000 166.762
52.01000 170.554
52.02000 173.414
52.03000 173.063
52.04000 168.707
52.05000 164.352
52.06000 164.671
52.07000 168.738
52.08000 172.745
52.09000 172.153
52.10000 169.197
52.11000 166.532
52.12000 168.838
52.13000 172.938
52.14000 176.393
52.15000 173.934
52.16000 170.046
52.17000 166.676
52.18000 168.066
52.19000 169.880
52.20000 171.423
52.21000 171.964
52.22000 172.413
52.23000 170.106
52.24000 160.977
52.25000 151.529
52.26000 145.582
52.27000 160.301
52.28000 171.184
52.29000 172.604
52.30000 163.614
52.31000 154.665
52.32000 152.171
52.33000 154.262
52.34000 156.310
52.35000 159.655
52.36000 163.461
52.37000 166.872
52.38000 164.752
52.39000 160.852
52.40000 157.572
52.41000 159.185
52.42000 161.845
52.43000 164.104
52.44000 162.110
52.45000 159.953
52.46000 158.575
52.47000 159.744
52.48000 161.111
52.49000 160.645
52.50000 156.128
52.51000 151.463
52.52000 148.664
52.53000 157.632
52.54000 164.084
52.55000 166.549
52.56000 165.169
52.57000 163.814
52.58000 164.458
52.59000 166.362
52.60000 168.212
52.61000 168.084
52.62000 167.162
52.63000 165.993
52.64000 161.931
52.65000 157.038
52.66000 152.954
52.67000 154.394
52.68000 156.877
52.69000 158.937
52.70000 154.996
52.71000 151.159
52.72000 149.519
52.73000 154.294
52.74000 159.481
52.75000 163.769
52.76000 166.280
52.77000 168.744
52.78000 170.147
52.79000 165.543
52.80000 162.318
52.81000 161.549
52.82000 162.864
52.83000 164.112
52.84000 161.931
52.85000 157.824
52.86000 153.869
52.87000 153.385
52.88000 154.167
52.89000 155.097
52.90000 157.476
52.91000 160.224
52.92000 162.403
52.93000 161.189
52.94000 159.412
52.95000 157.972
52.96000 163.123
52.97000 167.853
52.98000 172.474
52.99000 176.809
53.00000 181.129
53.01000 182.003
53.02000 176.807
53.03000 171.496
53.04000 168.637
53.05000 169.916
53.06000 170.776
53.07000 168.232
53.08000 163.136
53.09000 158.198
53.10000 158.938
53.11000 162.522
53.12000 165.939
53.13000 168.337
53.14000 170.240
53.15000 171.842
53.16000 170.906
53.17000 169.396
53.18000 168.133
53.19000 168.165
53.20000 168.383
53.21000 168.555
53.22000 170.391
53.23000 171.976
53.24000 172.429
53.25000 170.248
53.26000 167.959
53.27000 165.348
53.28000 162.231
53.29000 159.108
53.30000 157.529
53.31000 155.544
53.32000 154.227
53.33000 154.029
53.34000 154.576
53.35000 155.324
53.36000 161.486
53.37000 170.069
53.38000 178.159
53.39000 176.671
53.40000 172.659
53.41000 169.201
53.42000 169.780
53.43000 171.166
53.44000 171.725
53.45000 168.472
53.46000 164.742
53.47000 161.882
53.48000 165.831
53.49000 169.328
53.50000 171.032
53.51000 169.013
53.52000 166.879
53.53000 166.562
53.54000 168.774
53.55000 171.002
53.56000 171.136
53.57000 169.391
53.58000 167.590
53.59000 162.323
53.60000 155.006
53.61000 148.040
53.62000 148.392
53.63000 151.666
53.64000 154.714
53.65000 152.773
53.66000 149.807
53.67000 147.908
53.68000 152.758
53.69000 158.795
53.70000 163.709
53.71000 164.040
53.72000 163.878
53.73000 163.757
53.74000 168.441
53.75000 172.297
53.76000 173.353
53.77000 169.219
53.78000 164.970
53.79000 163.477
53.80000 165.379
53.81000 167.286
53.82000 165.012
53.83000 159.454
53.84000 154.069
53.85000 155.905
53.86000 161.546
53.87000 166.814
53.88000 165.842
53.89000 162.645
53.90000 159.711
53.91000 155.139
53.92000 150.713
53.93000 147.960
53.94000 154.473
53.95000 162.411
53.96000 167.719
53.97000 163.481
53.98000 158.373
53.99000 154.701
54.00000 158.881
54.01000 162.354
54.02000 160.878
54.03000 151.228
54.04000 141.456
54.05000 139.336
54.06000 145.515
54.07000 151.671
54.08000 152.180
54.09000 148.766
54.10000 145.555
54.11000 148.527
54.12000 154.405
54.13000 159.781
54.14000 158.261
54.15000 154.549
54.16000 151.194
54.17000 153.878
54.18000 157.362
54.19000 160.221
54.20000 160.037
54.21000 159.447
54.22000 159.104
54.23000 159.555
54.24000 160.068
54.25000 160.423
54.26000 157.190
54.27000 154.660
54.28000 153.391
54.29000 153.971
54.30000 154.568
54.31000 155.928
54.32000 158.014
54.33000 160.082
54.34000 158.526
54.35000 154.780
54.36000 151.266
54.37000 153.177
54.38000 157.365
54.39000 161.269
54.40000 161.917
54.41000 161.643
54.42000 161.399
54.43000 159.391
54.44000 157.363
54.45000 156.197
54.46000 158.743
54.47000 161.716
54.48000 162.524
54.49000 157.090
54.50000 151.265
54.51000 147.380
54.52000 152.810
54.53000 157.009
54.54000 159.259
54.55000 158.971
54.56000 158.673
54.57000 158.099
54.58000 157.296
54.59000 156.503
54.60000 158.901
54.61000 162.957
54.62000 166.805
54.63000 166.812
54.64000 165.379
54.65000 163.746
54.66000 160.180
54.67000 156.126
54.68000 152.590
54.69000 156.887
54.70000 161.654
54.71000 165.118
54.72000 163.593
54.73000 161.578
54.74000 159.617
54.75000 157.792
54.76000 155.974
54.77000 154.813
54.78000 162.269
54.79000 167.809
54.80000 169.229
54.81000 165.916
54.82000 162.608
54.83000 161.076
54.84000 160.860
54.85000 160.648
54.86000 161.680
54.87000 163.269
54.88000 164.741
54.89000 164.480
54.90000 163.639
54.91000 162.784
54.92000 161.816
54.93000 160.823
54.94000 159.974
54.95000 163.683
54.96000 167.356
54.97000 170.402
54.98000 171.313
54.99000 172.048
55.00000 170.969
55.01000 165.721
55.02000 160.308
55.03000 157.006
55.04000 155.939
55.05000 155.195
55.06000 153.500
55.07000 150.844
55.08000 148.228
55.09000 149.285
55.10000 152.754
55.11000 156.133
55.12000 161.490
55.13000 167.432
55.14000 172.629
55.15000 168.598
55.16000 161.816
55.17000 156.707
55.18000 163.595
55.19000 172.846
55.20000 180.584
55.21000 174.009
55.22000 167.085
55.23000 162.884
55.24000 166.947
55.25000 171.577
55.26000 173.976
55.27000 171.794
55.28000 169.475
55.29000 168.130
55.30000 171.384
55.31000 173.687
55.32000 174.149
55.33000 172.982
55.34000 171.788
55.35000 169.033
55.36000 165.366
55.37000 161.823
55.38000 168.385
55.39000 178.328
55.40000 187.291
55.41000 186.049
55.42000 182.099
55.43000 178.972
55.44000 180.978
55.45000 183.873
55.46000 186.237
55.47000 197.168
55.48000 206.855
55.49000 214.246
55.50000 215.425
55.51000 216.257
55.52000 218.025
55.53000 221.506
55.54000 225.025
55.55000 226.957
55.56000 238.856
55.57000 247.060
55.58000 254.643
55.59000 261.742
55.60000 268.932
55.61000 279.804
55.62000 292.593
55.63000 304.829
55.64000 311.347
55.65000 315.542
55.66000 320.842
55.67000 335.942
55.68000 353.351
55.69000 371.005
55.70000 390.003
55.71000 409.205
55.72000 424.493
55.73000 445.189
55.74000 462.266
55.75000 480.868
55.76000 503.158
55.77000 525.611
55.78000 543.698
55.79000 554.667
55.80000 565.534
55.81000 571.152
55.82000 595.917
55.83000 612.586
55.84000 625.431
55.85000 635.630
55.86000 645.594
55.87000 648.631
55.88000 648.449
55.89000 648.277
55.90000 647.323
55.91000 646.218
55.92000 645.278
55.93000 645.589
55.94000 646.161
55.95000 644.341
55.96000 631.007
55.97000 616.161
55.98000 604.665
55.99000 588.872
56.00000 576.078
56.01000 562.856
56.02000 548.712
56.03000 534.536
56.04000 519.586
56.05000 503.513
56.06000 487.434
56.07000 471.456
56.08000 455.579
56.09000 439.664
56.10000 421.061
56.11000 400.805
56.12000 380.650
56.13000 362.787
56.14000 345.875
56.15000 330.064
56.16000 322.555
56.17000 317.847
56.18000 311.682
56.19000 295.859
56.20000 278.264
56.21000 263.043
56.22000 257.935
56.23000 253.971
56.24000 250.993
56.25000 238.242
56.26000 227.805
56.27000 218.921
56.28000 213.030
56.29000 207.214
56.30000 203.826
56.31000 203.554
56.32000 203.294
56.33000 201.412
56.34000 198.201
56.35000 194.978
56.36000 191.147
56.37000 186.984
56.38000 182.979
56.39000 181.824
56.40000 181.724
56.41000 181.632
56.42000 179.991
56.43000 178.176
56.44000 176.549
56.45000 176.011
56.46000 175.648
56.47000 174.459
56.48000 170.148
56.49000 165.535
56.50000 162.180
56.51000 159.318
56.52000 157.133
56.53000 157.714
56.54000 163.044
56.55000 168.456
56.56000 168.247
56.57000 161.668
56.58000 155.105
56.59000 153.662
56.60000 155.939
56.61000 158.130
56.62000 157.420
56.63000 155.292
56.64000 153.349
56.65000 154.116
56.66000 155.780
56.67000 157.291
56.68000 160.769
56.69000 164.225
56.70000 166.180
56.71000 160.493
56.72000 153.736
56.73000 148.081
56.74000 146.128
56.75000 144.477
56.76000 143.317
56.77000 144.820
56.78000 146.035
56.79000 145.699
56.80000 142.990
56.81000 140.255
56.82000 143.260
56.83000 151.970
56.84000 160.623
56.85000 159.849
56.86000 153.074
56.87000 146.542
56.88000 146.224
56.89000 148.617
56.90000 150.813
56.91000 150.617
56.92000 149.717
56.93000 148.913
56.94000 146.227
56.95000 143.567
56.96000 141.877
56.97000 144.552
56.98000 147.755
56.99000 149.520
57.00000 146.975
57.01000 144.141
57.02000 142.226
57.03000 152.767
57.04000 160.886
57.05000 163.493
57.06000 158.626
57.07000 153.720
57.08000 151.436
57.09000 151.442
57.10000 151.447
57.11000 150.293
57.12000 148.513
57.13000 146.789
57.14000 146.195
57.15000 146.042
57.16000 145.669
57.17000 143.041
57.18000 139.823
57.19000 136.997
57.20000 143.574
57.21000 150.606
57.22000 155.527
57.23000 152.042
57.24000 147.685
57.25000 144.637
57.26000 145.091
57.27000 145.737
57.28000 146.155
57.29000 147.252
57.30000 148.065
57.31000 146.758
57.32000 142.909
57.33000 139.083
57.34000 141.810
57.35000 149.591
57.36000 157.242
57.37000 158.298
57.38000 156.040
57.39000 154.013
57.40000 155.674
57.41000 158.617
57.42000 160.909
57.43000 157.507
57.44000 152.781
57.45000 148.713
57.46000 144.940
57.47000 141.782
57.48000 139.584
57.49000 140.785
57.50000 142.285
57.51000 143.395
57.52000 143.574
57.53000 143.713
57.54000 143.799
57.55000 140.372
57.56000 137.872
57.57000 139.093
57.58000 144.240
57.59000 149.348
57.60000 149.999
57.61000 147.605
57.62000 145.266
57.63000 148.668
57.64000 154.445
57.65000 159.828
57.66000 160.014
57.67000 158.588
57.68000 156.867
57.69000 152.930
57.70000 148.538
57.71000 144.836
57.72000 142.984
57.73000 141.638
57.74000 141.087
57.75000 143.046
57.76000 145.189
57.77000 147.042
57.78000 148.275
57.79000 149.488
57.80000 150.204
57.81000 143.078
57.82000 138.003
57.83000 134.106
57.84000 131.299
57.85000 128.585
57.86000 132.152
57.87000 139.534
57.88000 146.686
57.89000 144.316
57.90000 138.380
57.91000 133.187
57.92000 136.186
57.93000 141.447
57.94000 145.911
57.95000 145.163
57.96000 143.471
57.97000 142.078
57.98000 142.895
57.99000 143.769
58.00000 144.042
58.01000 142.624
58.02000 141.105
58.03000 140.981
58.04000 143.514
58.05000 146.112
58.06000 147.566
58.07000 146.607
58.08000 145.935
58.09000 144.805
58.10000 143.300
58.11000 141.800
58.12000 140.499
58.13000 139.307
58.14000 138.162
58.15000 141.073
58.16000 145.184
58.17000 148.606
58.18000 145.581
58.19000 140.975
58.20000 137.078
58.21000 137.231
58.22000 138.025
58.23000 138.663
58.24000 142.885
58.25000 146.582
58.26000 148.976
58.27000 148.098
58.28000 147.062
58.29000 145.245
58.30000 142.103
58.31000 138.939
58.32000 137.268
58.33000 143.947
58.34000 148.460
58.35000 148.963
58.36000 146.577
58.37000 144.140
58.38000 140.067
58.39000 135.204
58.40000 130.584
58.41000 134.128
58.42000 139.866
58.43000 144.521
58.44000 140.493
58.45000 134.577
58.46000 129.794
58.47000 130.701
58.48000 132.393
58.49000 133.716
58.50000 137.300
58.51000 140.304
58.52000 143.049
58.53000 145.215
58.54000 147.359
58.55000 148.228
58.56000 147.173
58.57000 146.099
58.58000 143.378
58.59000 139.044
58.60000 134.780
58.61000 136.511
58.62000 142.077
58.63000 147.385
58.64000 146.340
58.65000 142.556
58.66000 139.004
58.67000 136.865
58.68000 135.291
58.69000 133.835
58.70000 133.205
58.71000 132.733
58.72000 132.397
58.73000 132.662
58.74000 132.998
58.75000 133.254
58.76000 132.659
58.77000 132.147
58.78000 134.001
58.79000 140.591
58.80000 147.314
58.81000 149.952
58.82000 147.123
58.83000 144.269
58.84000 141.191
58.85000 137.929
58.86000 134.745
58.87000 135.790
58.88000 139.242
58.89000 142.411
58.90000 140.082
58.91000 135.636
58.92000 131.516
58.93000 133.364
58.94000 136.416
58.95000 138.861
58.96000 137.619
58.97000 135.757
58.98000 134.963
58.99000 138.366
59.00000 142.197
59.01000 145.015
59.02000 145.152
59.03000 145.147
59.04000 143.325
59.05000 138.256
59.06000 133.124
59.07000 133.050
59.08000 138.960
59.09000 144.864
59.10000 143.929
59.11000 137.829
59.12000 131.921
59.13000 133.188
59.14000 138.099
59.15000 142.750
59.16000 143.333
59.17000 142.518
59.18000 141.773
59.19000 141.317
59.20000 140.972
59.21000 140.528
59.22000 139.560
59.23000 138.515
59.24000 136.456
59.25000 130.848
59.26000 124.935
59.27000 120.732
59.28000 126.841
59.29000 131.821
59.30000 133.432
59.31000 129.686
59.32000 125.870
59.33000 127.398
59.34000 134.482
59.35000 141.527
59.36000 142.191
59.37000 138.597
59.38000 135.003
59.39000 131.418
59.40000 127.836
59.41000 124.604
59.42000 125.896
59.43000 128.574
59.44000 130.982
59.45000 129.178
59.46000 126.850
59.47000 125.259
59.48000 127.117
59.49000 129.415
59.50000 132.219
59.51000 136.599
59.52000 141.093
59.53000 144.170
59.54000 137.161
59.55000 131.669
59.56000 128.583
59.57000 128.893
59.58000 129.228
59.59000 128.790
59.60000 127.647
59.61000 126.516
59.62000 130.323
59.63000 136.954
59.64000 143.270
59.65000 142.829
59.66000 139.653
59.67000 136.617
59.68000 135.107
59.69000 134.014
59.70000 133.047
59.71000 129.824
59.72000 126.693
59.73000 124.318
59.74000 125.081
59.75000 126.188
59.76000 126.942
59.77000 126.718
59.78000 126.437
59.79000 126.252
59.80000 130.210
59.81000 133.195
59.82000 135.095
59.83000 135.639
59.84000 136.176
59.85000 135.582
59.86000 134.080
59.87000 132.599
59.88000 135.322
59.89000 140.143
59.90000 144.545
59.91000 141.740
59.92000 136.329
59.93000 131.803
59.94000 135.408
59.95000 140.983
59.96000 145.815
59.97000 143.451
59.98000 140.481
59.99000 137.424
60.00000 134.048
60.01000 130.642
60.02000 129.057
60.03000 131.993
60.04000 135.141
60.05000 137.123
60.06000 129.298
60.07000 123.523
60.08000 122.037
60.09000 125.278
60.10000 128.506
60.11000 129.631
60.12000 129.259
60.13000 128.895
60.14000 132.210
60.15000 137.078
60.16000 141.618
60.17000 141.552
60.18000 140.000
60.19000 138.671
60.20000 139.105
60.21000 139.916
60.22000 140.605
60.23000 141.836
60.24000 142.930
60.25000 142.814
60.26000 138.732
60.27000 134.340
60.28000 132.370
60.29000 135.767
60.30000 139.359
60.31000 141.517
60.32000 138.475
60.33000 136.278
60.34000 135.747
60.35000 136.825
60.36000 137.862
60.37000 135.585
60.38000 131.216
60.39000 126.970
60.40000 129.731
60.41000 135.190
60.42000 140.178
60.43000 139.675
60.44000 137.593
60.45000 136.233
60.46000 139.819
60.47000 144.340
60.48000 148.093
60.49000 144.440
60.50000 140.703
60.51000 139.182
60.52000 144.145
60.53000 149.526
60.54000 151.510
60.55000 146.779
60.56000 141.866
60.57000 139.064
60.58000 130.117
60.59000 123.863
60.60000 122.363
60.61000 124.900
60.62000 127.427
60.63000 129.391
60.64000 131.037
60.65000 132.624
60.66000 131.466
60.67000 129.399
60.68000 127.822
60.69000 131.086
60.70000 135.586
60.71000 139.949
60.72000 143.496
60.73000 146.908
60.74000 149.672
60.75000 143.874
60.76000 138.453
60.77000 134.242
60.78000 133.192
60.79000 132.307
60.80000 130.538
60.81000 127.212
60.82000 123.856
60.83000 122.048
60.84000 130.044
60.85000 135.503
60.86000 137.249
60.87000 136.207
60.88000 135.163
60.89000 134.051
60.90000 132.903
60.91000 131.809
60.92000 130.594
60.93000 129.428
60.94000 128.256
60.95000 127.039
60.96000 125.812
60.97000 124.870
60.98000 125.428
60.99000 126.202
61.00000 126.813
61.01000 132.368
61.02000 137.160
61.03000 139.601
61.04000 136.562
61.05000 133.300
61.06000 134.223
61.07000 141.719
61.08000 149.294
61.09000 153.129
61.10000 146.798
61.11000 142.567
61.12000 139.186
61.13000 136.370
61.14000 133.783
61.15000 137.375
61.16000 143.736
61.17000 149.732
61.18000 147.609
61.19000 143.413
61.20000 140.096
61.21000 143.186
61.22000 147.557
61.23000 149.699
61.24000 141.536
61.25000 132.080
61.26000 124.828
61.27000 131.015
61.28000 136.649
61.29000 141.181
61.30000 143.417
61.31000 145.583
61.32000 144.619
61.33000 139.292
61.34000 133.938
61.35000 132.060
61.36000 133.307
61.37000 134.585
61.38000 137.806
61.39000 142.177
61.40000 146.275
61.41000 144.639
61.42000 140.709
61.43000 137.051
61.44000 136.047
61.45000 135.786
61.46000 135.945
61.47000 138.769
61.48000 142.063
61.49000 145.569
61.50000 149.948
61.51000 154.421
61.52000 157.747
61.53000 185.501
61.54000 208.177
61.55000 223.342
61.56000 224.559
61.57000 225.464
61.58000 234.971
61.59000 255.091
61.60000 275.202
61.61000 283.617
61.62000 282.760
61.63000 282.140
61.64000 291.510
61.65000 306.153
61.66000 320.391
61.67000 327.831
61.68000 332.844
61.69000 337.445
61.70000 335.533
61.71000 332.438
61.72000 329.669
61.73000 328.717
61.74000 328.044
61.75000 325.440
61.76000 315.811
61.77000 305.540
61.78000 298.152
61.79000 277.338
61.80000 260.935
61.81000 245.549
61.82000 231.846
61.83000 218.169
61.84000 204.594
61.85000 191.131
61.86000 177.727
61.87000 165.899
61.88000 155.290
61.89000 145.040
61.90000 145.789
61.91000 151.719
61.92000 157.063
61.93000 154.341
61.94000 149.051
61.95000 144.268
61.96000 143.142
61.97000 142.833
61.98000 142.871
61.99000 144.608
62.00000 146.573
62.01000 147.992
62.02000 147.646
62.03000 147.164
62.04000 146.829
62.05000 145.220
62.06000 143.973
62.07000 144.998
62.08000 149.362
62.09000 153.756
62.10000 156.131
62.11000 156.584
62.12000 157.032
62.13000 154.883
62.14000 151.180
62.15000 147.510
62.16000 144.602
62.17000 142.014
62.18000 139.806
62.19000 141.945
62.20000 145.318
62.21000 148.316
62.22000 147.107
62.23000 145.377
62.24000 143.906
62.25000 143.552
62.26000 143.327
62.27000 143.839
62.28000 146.482
62.29000 149.258
62.30000 151.110
62.31000 143.948
62.32000 138.468
62.33000 135.860
62.34000 136.992
62.35000 138.145
62.36000 141.224
62.37000 145.918
62.38000 150.552
62.39000 151.836
62.40000 151.273
62.41000 150.651
62.42000 148.929
62.43000 146.793
62.44000 144.958
62.45000 146.036
62.46000 147.849
62.47000 149.431
62.48000 147.783
62.49000 145.921
62.50000 143.861
62.51000 141.041
62.52000 138.146
62.53000 137.381
62.54000 142.105
62.55000 147.107
62.56000 150.306
62.57000 144.561
62.58000 140.260
62.59000 138.765
62.60000 140.500
62.61000 142.242
62.62000 144.676
62.63000 147.621
62.64000 150.511
62.65000 150.237
62.66000 148.462
62.67000 146.903
62.68000 148.580
62.69000 151.343
62.70000 153.915
62.71000 154.901
62.72000 155.531
62.73000 156.071
62.74000 152.070
62.75000 148.150
62.76000 145.717
62.77000 148.350
62.78000 151.402
62.79000 152.534
62.80000 149.244
62.81000 145.778
62.82000 143.662
62.83000 145.853
62.84000 147.455
62.85000 146.549
62.86000 143.109
62.87000 139.714
62.88000 140.687
62.89000 144.530
62.90000 148.274
62.91000 147.123
62.92000 143.959
62.93000 141.092
62.94000 141.918
62.95000 143.848
62.96000 145.990
62.97000 149.664
62.98000 153.640
62.99000 156.967
63.00000 151.259
63.01000 145.590
63.02000 142.236
63.03000 145.920
63.04000 150.089
63.05000 152.586
63.06000 151.648
63.07000 150.607
63.08000 150.002
63.09000 153.515
63.10000 155.998
63.11000 157.061
63.12000 156.866
63.13000 156.663
63.14000 155.940
63.15000 154.915
63.16000 153.924
63.17000 151.775
63.18000 149.317
63.19000 147.195
63.20000 148.579
63.21000 150.897
63.22000 153.092
63.23000 154.528
63.24000 155.832
63.25000 156.898
63.26000 156.464
63.27000 155.979
63.28000 153.962
63.29000 147.791
63.30000 141.387
63.31000 138.208
63.32000 140.947
63.33000 143.813
63.34000 145.388
63.35000 141.148
63.36000 138.240
63.37000 141.059
63.38000 148.358
63.39000 155.452
63.40000 154.206
63.41000 148.612
63.42000 143.258
63.43000 142.505
63.44000 143.315
63.45000 144.439
63.46000 148.350
63.47000 152.919
63.48000 156.793
63.49000 156.861
63.50000 156.352
63.51000 155.947
63.52000 155.028
63.53000 154.250
63.54000 153.398
63.55000 152.368
63.56000 151.329
63.57000 150.182
63.58000 148.861
63.59000 147.537
63.60000 146.852
63.61000 151.003
63.62000 153.793
63.63000 155.380
63.64000 156.133
63.65000 156.824
63.66000 155.685
63.67000 153.693
63.68000 151.808
63.69000 152.364
63.70000 153.582
63.71000 154.630
63.72000 154.381
63.73000 153.862
63.74000 153.080
63.75000 151.035
63.76000 148.824
63.77000 147.111
63.78000 145.529
63.79000 144.281
63.80000 144.094
63.81000 146.201
63.82000 148.386
63.83000 150.464
63.84000 152.385
63.85000 154.305
63.86000 152.384
63.87000 146.857
63.88000 141.439
63.89000 143.865
63.90000 151.123
63.91000 158.047
63.92000 157.359
63.93000 153.508
63.94000 149.907
63.95000 152.100
63.96000 155.567
63.97000 158.977
63.98000 162.019
63.99000 164.993
64.00000 167.359
64.01000 167.137
64.02000 166.620
64.03000 166.232
64.04000 160.941
64.05000 156.568
64.06000 154.489
64.07000 156.840
64.08000 159.302
64.09000 161.724
64.10000 164.092
64.11000 166.457
64.12000 166.928
64.13000 165.837
64.14000 164.798
64.15000 166.300
64.16000 169.196
64.17000 171.672
64.18000 166.567
64.19000 158.649
64.20000 151.343
64.21000 154.372
64.22000 159.390
64.23000 164.068
64.24000 166.766
64.25000 169.144
64.26000 170.784
64.27000 169.631
64.28000 168.207
64.29000 167.172
64.30000 162.872
64.31000 159.438
64.32000 156.711
64.33000 155.203
64.34000 153.715
64.35000 152.637
64.36000 152.024
64.37000 151.413
64.38000 158.090
64.39000 169.998
64.40000 181.539
64.41000 180.660
64.42000 173.701
64.43000 167.290
64.44000 168.915
64.45000 173.201
64.46000 177.097
64.47000 174.046
64.48000 169.994
64.49000 167.081
64.50000 169.970
64.51000 173.674
64.52000 176.712
64.53000 177.506
64.54000 178.118
64.55000 178.548
64.56000 172.518
64.57000 167.762
64.58000 165.622
64.59000 167.486
64.60000 169.393
64.61000 171.010
64.62000 172.339
64.63000 173.659
64.64000 174.930
64.65000 176.151
64.66000 177.244
64.67000 175.075
64.68000 171.480
64.69000 168.403
64.70000 171.627
64.71000 176.710
64.72000 181.255
64.73000 183.623
64.74000 185.316
64.75000 186.061
64.76000 182.532
64.77000 178.484
64.78000 174.876
64.79000 172.592
64.80000 170.396
64.81000 168.911
64.82000 173.461
64.83000 176.980
64.84000 179.561
64.85000 180.867
64.86000 182.170
64.87000 186.418
64.88000 193.244
64.89000 199.993
64.90000 203.164
64.91000 204.242
64.92000 205.210
64.93000 203.980
64.94000 201.893
64.95000 199.972
64.96000 199.759
64.97000 199.994
64.98000 200.200
64.99000 197.805
65.00000 195.365
65.01000 193.917
65.02000 196.430
65.03000 199.356
65.04000 202.388
65.05000 205.708
65.06000 209.044
65.07000 211.208
65.08000 214.435
65.09000 216.814
65.10000 216.447
65.11000 212.783
65.12000 209.143
65.13000 212.958
65.14000 222.530
65.15000 231.943
65.16000 237.939
65.17000 242.037
65.18000 246.054
65.19000 248.776
65.20000 251.047
65.21000 253.827
65.22000 261.065
65.23000 269.341
65.24000 276.469
65.25000 282.302
65.26000 287.080
65.27000 292.423
65.28000 299.770
65.29000 307.293
65.30000 314.428
65.31000 320.633
65.32000 326.797
65.33000 330.622
65.34000 341.956
65.35000 350.185
65.36000 360.200
65.37000 372.102
65.38000 383.966
65.39000 391.498
65.40000 396.065
65.41000 400.525
65.42000 402.112
65.43000 402.366
65.44000 403.192
65.45000 411.584
65.46000 422.327
65.47000 433.334
65.48000 446.328
65.49000 459.731
65.50000 471.032
65.51000 473.512
65.52000 474.628
65.53000 474.623
65.54000 471.078
65.55000 467.272
65.56000 466.319
65.57000 471.462
65.58000 476.806
65.59000 479.965
65.60000 478.634
65.61000 477.670
65.62000 478.154
65.63000 479.980
65.64000 481.924
65.65000 491.959
65.66000 506.917
65.67000 521.412
65.68000 545.891
65.69000 572.942
65.70000 601.189
65.71000 642.660
65.72000 687.789
65.73000 736.210
65.74000 806.170
65.75000 880.036
65.76000 940.896
65.77000 1026.945
65.78000 1100.059
65.79000 1164.049
65.80000 1202.331
65.81000 1239.065
65.82000 1273.209
65.83000 1302.418
65.84000 1331.508
65.85000 1347.804
65.86000 1362.236
65.87000 1372.225
65.88000 1379.041
65.89000 1383.266
65.90000 1386.862
65.91000 1361.768
65.92000 1321.125
65.93000 1282.102
65.94000 1240.065
65.95000 1199.710
65.96000 1155.259
65.97000 1072.397
65.98000 980.094
65.99000 890.012
66.00000 812.644
66.01000 737.295
66.02000 676.745
66.03000 611.265
66.04000 557.809
66.05000 511.101
66.06000 481.369
66.07000 452.457
66.08000 425.739
66.09000 402.749
66.10000 379.821
66.11000 367.705
66.12000 358.679
66.13000 352.528
66.14000 342.813
66.15000 330.524
66.16000 318.605
66.17000 318.759
66.18000 324.752
66.19000 330.446
66.20000 330.324
66.21000 328.454
66.22000 327.040
66.23000 329.287
66.24000 332.330
66.25000 336.765
66.26000 348.198
66.27000 360.599
66.28000 370.298
66.29000 387.950
66.30000 402.550
66.31000 418.471
66.32000 437.362
66.33000 456.364
66.34000 469.501
66.35000 473.772
66.36000 477.952
66.37000 486.584
66.38000 499.587
66.39000 512.451
66.40000 513.475
66.41000 506.911
66.42000 501.009
66.43000 511.517
66.44000 529.111
66.45000 545.634
66.46000 542.755
66.47000 534.972
66.48000 526.257
66.49000 511.063
66.50000 494.624
66.51000 478.869
66.52000 466.153
66.53000 453.799
66.54000 444.415
66.55000 426.186
66.56000 411.396
66.57000 398.201
66.58000 388.202
66.59000 378.294
66.60000 367.464
66.61000 355.400
66.62000 343.338
66.63000 335.712
66.64000 331.923
66.65000 328.215
66.66000 328.900
66.67000 332.091
66.68000 335.241
66.69000 337.573
66.70000 339.591
66.71000 341.462
66.72000 343.605
66.73000 345.599
66.74000 346.537
66.75000 341.071
66.76000 334.524
66.77000 330.477
66.78000 336.279
66.79000 343.086
66.80000 348.096
66.81000 351.359
66.82000 353.812
66.83000 352.900
66.84000 345.969
66.85000 338.918
66.86000 337.682
66.87000 343.335
66.88000 348.985
66.89000 351.439
66.90000 351.455
66.91000 351.458
66.92000 350.962
66.93000 350.212
66.94000 349.785
66.95000 354.448
66.96000 360.862
66.97000 366.722
66.98000 366.733
66.99000 365.550
67.00000 365.629
67.01000 372.434
67.02000 380.229
67.03000 385.867
67.04000 383.952
67.05000 381.385
67.06000 379.559
67.07000 378.323
67.08000 377.401
67.09000 376.425
67.10000 375.365
67.11000 374.304
67.12000 375.365
67.13000 378.637
67.14000 381.891
67.15000 388.660
67.16000 397.687
67.17000 406.571
67.18000 411.425
67.19000 414.449
67.20000 417.254
67.21000 417.227
67.22000 416.331
67.23000 415.524
67.24000 417.076
67.25000 418.856
67.26000 419.471
67.27000 414.621
67.28000 409.074
67.29000 404.724
67.30000 404.110
67.31000 403.764
67.32000 403.528
67.33000 419.195
67.34000 431.315
67.35000 434.169
67.36000 423.913
67.37000 413.565
67.38000 410.158
67.39000 413.093
67.40000 415.999
67.41000 419.426
67.42000 423.090
67.43000 426.978
67.44000 435.724
67.45000 446.440
67.46000 456.796
67.47000 463.229
67.48000 468.591
67.49000 473.330
67.50000 472.629
67.51000 471.184
67.52000 471.231
67.53000 477.476
67.54000 484.401
67.55000 487.439
67.56000 479.658
67.57000 471.240
67.58000 465.697
67.59000 475.671
67.60000 483.285
67.61000 487.975
67.62000 489.005
67.63000 490.014
67.64000 487.492
67.65000 482.127
67.66000 476.841
67.67000 479.716
67.68000 486.746
67.69000 493.728
67.70000 499.865
67.71000 505.696
67.72000 511.073
67.73000 512.259
67.74000 512.428
67.75000 512.574
67.76000 520.923
67.77000 529.125
67.78000 534.608
67.79000 530.062
67.80000 524.580
67.81000 521.684
67.82000 525.215
67.83000 529.048
67.84000 531.463
67.85000 536.441
67.86000 540.073
67.87000 543.254
67.88000 545.934
67.89000 548.602
67.90000 549.370
67.91000 548.784
67.92000 548.211
67.93000 554.096
67.94000 562.714
67.95000 571.246
67.96000 578.570
67.97000 585.504
67.98000 591.305
67.99000 588.144
68.00000 583.058
68.01000 578.738
68.02000 582.301
68.03000 586.192
68.04000 592.285
68.05000 605.607
68.06000 619.494
68.07000 629.627
68.08000 631.429
68.09000 632.927
68.10000 633.827
68.11000 636.990
68.12000 639.254
68.13000 639.742
68.14000 638.511
68.15000 637.354
68.16000 642.173
68.17000 650.774
68.18000 659.132
68.19000 666.388
68.20000 672.836
68.21000 678.333
68.22000 672.685
68.23000 663.828
68.24000 657.012
68.25000 664.190
68.26000 674.019
68.27000 682.182
68.28000 692.302
68.29000 700.861
68.30000 708.506
68.31000 713.473
68.32000 718.268
68.33000 723.193
68.34000 728.376
68.35000 733.565
68.36000 736.527
68.37000 750.434
68.38000 760.160
68.39000 762.547
68.40000 758.683
68.41000 754.950
68.42000 757.954
68.43000 764.755
68.44000 771.305
68.45000 791.574
68.46000 815.520
68.47000 838.395
68.48000 850.677
68.49000 860.247
68.50000 872.025
68.51000 897.016
68.52000 924.202
68.53000 946.240
68.54000 965.908
68.55000 981.738
68.56000 998.714
68.57000 1018.682
68.58000 1038.806
68.59000 1064.833
68.60000 1101.290
68.61000 1137.945
68.62000 1157.713
68.63000 1235.971
68.64000 1289.592
68.65000 1350.512
68.66000 1416.920
68.67000 1483.678
68.68000 1563.126
68.69000 1648.952
68.70000 1730.803
68.71000 1790.393
68.72000 1838.660
68.73000 1888.343
68.74000 1950.011
68.75000 2014.399
68.76000 2079.104
68.77000 2145.481
68.78000 2212.100
68.79000 2264.698
68.80000 2369.502
68.81000 2457.156
68.82000 2551.193
68.83000 2660.132
68.84000 2769.683
68.85000 2910.280
68.86000 3099.710
68.87000 3289.734
68.88000 3386.032
68.89000 3954.719
68.90000 4339.730
68.91000 5150.513
68.92000 6245.314
68.93000 7380.590
68.94000 9613.285
68.95000 12338.286
68.96000 14907.951
68.97000 19685.057
68.98000 24674.447
68.99000 29818.701
69.00000 36094.207
69.01000 42596.492
69.02000 48991.777
69.03000 54891.313
69.04000 60728.590
69.05000 65207.980
69.06000 69655.648
69.07000 73168.648
69.08000 75919.883
69.09000 77083.281
69.10000 78197.203
69.11000 78969.883
69.12000 79265.961
69.13000 79558.734
69.14000 80164.023
69.15000 81050.039
69.16000 81931.109
69.17000 82504.766
69.18000 82896.023
69.19000 83219.367
69.20000 82113.109
69.21000 80434.109
69.22000 78870.633
69.23000 75145.070
69.24000 71248.961
69.25000 67355.242
69.26000 63476.734
69.27000 59600.910
69.28000 55861.738
69.29000 52683.172
69.30000 49565.039
69.31000 47244.848
69.32000 45015.480
69.33000 43285.121
69.34000 41796.629
69.35000 40757.961
69.36000 39729.406
69.37000 38476.586
69.38000 36946.563
69.39000 35418.523
69.40000 33215.578
69.41000 30489.072
69.42000 27755.463
69.43000 24721.857
69.44000 21529.631
69.45000 18361.666
69.46000 15602.369
69.47000 12989.254
69.48000 10589.691
69.49000 8621.525
69.50000 6957.781
69.51000 5416.626
69.52000 4557.555
69.53000 3803.697
69.54000 3143.071
69.55000 2822.142
69.56000 2532.307
69.57000 2323.711
69.58000 2144.796
69.59000 2008.845
69.60000 1888.327
69.61000 1793.383
69.62000 1698.825
69.63000 1620.468
69.64000 1559.753
69.65000 1499.310
69.66000 1438.780
69.67000 1378.815
69.68000 1319.670
69.69000 1285.691
69.70000 1263.588
69.71000 1241.136
69.72000 1213.880
69.73000 1185.091
69.74000 1159.059
69.75000 1130.631
69.76000 1105.167
69.77000 1078.859
69.78000 1048.415
69.79000 1017.417
69.80000 989.562
69.81000 971.901
69.82000 955.022
69.83000 943.305
69.84000 934.045
69.85000 927.135
69.86000 911.342
69.87000 882.460
69.88000 853.464
69.89000 844.741
69.90000 855.373
69.91000 865.920
69.92000 859.210
69.93000 842.023
69.94000 825.221
69.95000 817.458
69.96000 813.503
69.97000 809.466
69.98000 804.482
69.99000 799.228
70.00000 794.557
