30.00000 17.449
30.01000 17.544
30.02000 17.032
30.03000 12.167
30.04000 18.171
30.05000 20.330
30.06000 17.554
30.07000 12.730
30.08000 10.451
30.09000 12.583
30.10000 14.555
30.11000 13.734
30.12000 16.276
30.13000 14.866
30.14000 14.193
30.15000 18.765
30.16000 15.950
30.17000 17.705
30.18000 22.311
30.19000 17.198
30.20000 16.370
30.21000 15.925
30.22000 14.334
30.23000 16.979
30.24000 7.503
30.25000 15.528
30.26000 19.695
30.27000 17.779
30.28000 16.678
30.29000 15.162
30.30000 18.379
30.31000 20.606
30.32000 23.668
30.33000 16.208
30.34000 16.714
30.35000 9.724
30.36000 15.683
30.37000 18.171
30.38000 13.440
30.39000 16.208
30.40000 24.273
30.41000 10.846
30.42000 13.482
30.43000 11.167
30.44000 20.859
30.45000 16.541
30.46000 15.186
30.47000 15.628
30.48000 17.520
30.49000 12.455
30.50000 9.816
30.51000 16.263
30.52000 13.767
30.53000 17.654
30.54000 18.589
30.55000 13.130
30.56000 13.186
30.57000 19.683
30.58000 21.087
30.59000 13.226
30.60000 16.937
30.61000 23.850
30.62000 16.681
30.63000 20.065
30.64000 11.059
30.65000 22.465
30.66000 14.224
30.67000 10.534
30.68000 20.404
30.69000 19.360
30.70000 21.947
30.71000 26.739
30.72000 19.300
30.73000 32.050
30.74000 23.191
30.75000 15.180
30.76000 26.613
30.77000 27.178
30.78000 19.028
30.79000 23.500
30.80000 19.588
30.81000 24.468
30.82000 17.022
30.83000 17.523
30.84000 23.847
30.85000 19.501
30.86000 29.161
30.87000 18.514
30.88000 27.950
30.89000 22.302
30.90000 24.092
30.91000 34.033
30.92000 22.418
30.93000 31.110
30.94000 28.212
30.95000 25.380
30.96000 29.663
30.97000 25.719
30.98000 35.057
30.99000 24.579
31.00000 29.695
31.01000 37.520
31.02000 36.167
31.03000 38.038
31.04000 42.295
31.05000 44.260
31.06000 56.358
31.07000 54.125
31.08000 42.318
31.09000 45.650
31.10000 66.532
31.11000 58.858
31.12000 68.749
31.13000 76.101
31.14000 69.586
31.15000 77.312
31.16000 110.095
31.17000 90.615
31.18000 115.297
31.19000 107.801
31.20000 98.366
31.21000 128.666
31.22000 154.425
31.23000 154.029
31.24000 160.361
31.25000 183.681
31.26000 199.795
31.27000 237.220
31.28000 240.182
31.29000 233.485
31.30000 259.662
31.31000 274.478
31.32000 287.649
31.33000 279.553
31.34000 304.486
31.35000 357.314
31.36000 370.060
31.37000 376.246
31.38000 359.721
31.39000 394.960
31.40000 430.753
31.41000 431.230
31.42000 429.906
31.43000 434.772
31.44000 415.786
31.45000 471.786
31.46000 441.205
31.47000 441.075
31.48000 462.324
31.49000 437.814
31.50000 462.850
31.51000 441.805
31.52000 406.275
31.53000 420.798
31.54000 423.078
31.55000 385.446
31.56000 364.025
31.57000 361.676
31.58000 321.222
31.59000 315.042
31.60000 313.437
31.61000 290.714
31.62000 295.562
31.63000 261.052
31.64000 257.758
31.65000 224.061
31.66000 231.245
31.67000 206.801
31.68000 179.801
31.69000 164.628
31.70000 149.607
31.71000 145.866
31.72000 114.350
31.73000 107.880
31.74000 104.785
31.75000 85.431
31.76000 94.747
31.77000 94.696
31.78000 78.060
31.79000 58.892
31.80000 48.469
31.81000 57.121
31.82000 48.413
31.83000 56.963
31.84000 35.092
31.85000 48.597
31.86000 37.900
31.87000 34.569
31.88000 43.159
31.89000 36.874
31.90000 22.933
31.91000 42.884
31.92000 25.122
31.93000 22.724
31.94000 21.334
31.95000 28.923
31.96000 24.329
31.97000 24.222
31.98000 12.684
31.99000 18.396
32.00000 30.330
32.01000 22.241
32.02000 23.483
32.03000 19.638
32.04000 21.417
32.05000 27.767
32.06000 15.173
32.07000 20.121
32.08000 19.713
32.09000 15.350
32.10000 14.910
32.11000 8.104
32.12000 19.593
32.13000 23.838
32.14000 11.900
32.15000 15.816
32.16000 14.894
32.17000 13.367
32.18000 17.894
32.19000 10.516
32.20000 17.742
32.21000 17.732
32.22000 12.303
32.23000 15.118
32.24000 18.745
32.25000 16.315
32.26000 13.537
32.27000 12.456
32.28000 13.239
32.29000 16.305
32.30000 12.607
32.31000 12.058
32.32000 18.750
32.33000 5.382
32.34000 10.474
32.35000 19.745
32.36000 14.966
32.37000 11.285
32.38000 20.594
32.39000 10.735
32.40000 11.193
32.41000 15.222
32.42000 16.370
32.43000 11.402
32.44000 6.749
32.45000 8.987
32.46000 12.579
32.47000 10.752
32.48000 12.440
32.49000 17.812
32.50000 11.828
32.51000 20.838
32.52000 7.146
32.53000 14.927
32.54000 8.487
32.55000 19.280
32.56000 15.083
32.57000 9.508
32.58000 11.538
32.59000 15.218
32.60000 10.407
32.61000 9.137
32.62000 9.505
32.63000 7.155
32.64000 10.092
32.65000 5.721
32.66000 7.136
32.67000 10.136
32.68000 7.756
32.69000 11.763
32.70000 8.802
32.71000 7.886
32.72000 6.389
32.73000 6.530
32.74000 7.426
32.75000 5.001
32.76000 13.185
32.77000 11.940
32.78000 16.298
32.79000 8.515
32.80000 11.184
32.81000 6.040
32.82000 11.914
32.83000 9.502
32.84000 12.390
32.85000 10.491
32.86000 8.212
32.87000 13.810
32.88000 6.092
32.89000 15.626
32.90000 8.092
32.91000 6.076
32.92000 11.165
32.93000 5.379
32.94000 11.283
32.95000 7.829
32.96000 7.411
32.97000 7.078
32.98000 5.369
32.99000 6.384
33.00000 7.745
33.01000 12.498
33.02000 4.509
33.03000 10.682
33.04000 11.279
33.05000 5.354
33.06000 9.172
33.07000 14.632
33.08000 7.134
33.09000 7.823
33.10000 10.585
33.11000 10.241
33.12000 4.376
33.13000 7.075
33.14000 8.240
33.15000 10.061
33.16000 5.004
33.17000 6.540
33.18000 11.707
33.19000 7.142
33.20000 7.183
33.21000 6.735
33.22000 8.876
33.23000 8.252
33.24000 8.080
33.25000 9.085
33.26000 3.356
33.27000 13.354
33.28000 5.211
33.29000 8.128
33.30000 7.446
33.31000 10.146
33.32000 7.513
33.33000 6.437
33.34000 7.127
33.35000 7.076
33.36000 12.231
33.37000 9.044
33.38000 1.983
33.39000 8.132
33.40000 11.345
33.41000 7.252
33.42000 8.420
33.43000 2.405
33.44000 4.385
33.45000 7.202
33.46000 10.112
33.47000 5.071
33.48000 9.306
33.49000 5.050
33.50000 8.109
33.51000 8.098
33.52000 6.715
33.53000 7.776
33.54000 9.354
33.55000 4.021
33.56000 11.255
33.57000 10.210
33.58000 4.143
33.59000 10.591
33.60000 10.862
33.61000 10.238
33.62000 7.189
33.63000 4.020
33.64000 7.743
33.65000 6.417
33.66000 4.124
33.67000 6.123
33.68000 13.489
33.69000 5.697
33.70000 6.039
33.71000 6.114
33.72000 3.813
33.73000 6.795
33.74000 3.659
33.75000 11.570
33.76000 7.215
33.77000 6.728
33.78000 5.107
33.79000 7.106
33.80000 7.449
33.81000 8.739
33.82000 7.106
33.83000 3.400
33.84000 6.109
33.85000 6.402
33.86000 10.209
33.87000 5.076
33.88000 7.193
33.89000 6.453
33.90000 8.140
33.91000 7.008
33.92000 12.591
33.93000 6.089
33.94000 7.161
33.95000 7.524
33.96000 8.387
33.97000 8.454
33.98000 8.984
33.99000 5.173
34.00000 10.163
34.01000 6.512
34.02000 5.406
34.03000 6.870
34.04000 7.042
34.05000 3.071
34.06000 2.079
34.07000 10.089
34.08000 7.155
34.09000 8.466
34.10000 5.054
34.11000 10.528
34.12000 13.105
34.13000 9.378
34.14000 10.083
34.15000 1.357
34.16000 8.121
34.17000 6.157
34.18000 3.380
34.19000 8.527
34.20000 5.450
34.21000 8.188
34.22000 6.492
34.23000 6.051
34.24000 6.118
34.25000 8.307
34.26000 8.153
34.27000 5.044
34.28000 4.035
34.29000 4.024
34.30000 2.973
34.31000 8.115
34.32000 16.036
34.33000 12.535
34.34000 5.511
34.35000 7.401
34.36000 5.173
34.37000 8.198
34.38000 3.372
34.39000 8.545
34.40000 7.213
34.41000 9.105
34.42000 7.469
34.43000 3.000
34.44000 8.156
34.45000 10.417
34.46000 7.837
34.47000 7.045
34.48000 6.023
34.49000 6.084
34.50000 6.077
34.51000 12.496
34.52000 9.082
34.53000 6.458
34.54000 5.419
34.55000 5.008
34.56000 11.262
34.57000 2.344
34.58000 5.557
34.59000 6.112
34.60000 7.350
34.61000 7.162
34.62000 7.541
34.63000 7.411
34.64000 4.151
34.65000 2.036
34.66000 6.826
34.67000 4.664
34.68000 6.209
34.69000 9.202
34.70000 7.079
34.71000 10.159
34.72000 10.148
34.73000 8.833
34.74000 11.542
34.75000 6.732
34.76000 6.477
34.77000 4.048
34.78000 9.503
34.79000 3.034
34.80000 6.333
34.81000 8.025
34.82000 4.008
34.83000 2.048
34.84000 7.338
34.85000 3.349
34.86000 8.163
34.87000 2.331
34.88000 8.433
34.89000 9.393
34.90000 6.092
34.91000 5.057
34.92000 7.420
34.93000 11.081
34.94000 14.304
34.95000 7.419
34.96000 6.129
34.97000 6.956
34.98000 10.995
34.99000 3.444
35.00000 6.166
35.01000 7.185
35.02000 12.414
35.03000 6.159
35.04000 7.143
35.05000 5.422
35.06000 5.029
35.07000 6.115
35.08000 5.090
35.09000 7.455
35.10000 3.363
35.11000 7.067
35.12000 12.144
35.13000 8.213
35.14000 6.780
35.15000 7.498
35.16000 6.209
35.17000 5.493
35.18000 5.086
35.19000 6.799
35.20000 2.078
35.21000 5.047
35.22000 8.778
35.23000 6.205
35.24000 3.154
35.25000 4.016
35.26000 5.056
35.27000 8.092
35.28000 5.742
35.29000 9.189
35.30000 3.083
35.31000 5.169
35.32000 2.402
35.33000 5.132
35.34000 4.036
35.35000 4.054
35.36000 4.031
35.37000 4.183
35.38000 8.453
35.39000 7.117
35.40000 7.168
35.41000 3.044
35.42000 3.076
35.43000 7.201
35.44000 5.066
35.45000 2.680
35.46000 10.151
35.47000 4.338
35.48000 7.199
35.49000 2.007
35.50000 5.444
35.51000 5.041
35.52000 6.803
35.53000 4.184
35.54000 6.038
35.55000 6.053
35.56000 5.044
35.57000 6.877
35.58000 8.054
35.59000 6.089
35.60000 1.340
35.61000 3.058
35.62000 4.383
35.63000 10.685
35.64000 5.333
35.65000 6.043
35.66000 8.535
35.67000 8.181
35.68000 6.390
35.69000 5.048
35.70000 8.098
35.71000 10.285
35.72000 2.056
35.73000 6.069
35.74000 4.124
35.75000 4.743
35.76000 5.432
35.77000 8.354
35.78000 5.058
35.79000 8.073
35.80000 5.536
35.81000 7.162
35.82000 9.476
35.83000 8.490
35.84000 3.125
35.85000 5.156
35.86000 7.441
35.87000 8.090
35.88000 9.060
35.89000 8.189
35.90000 2.060
35.91000 5.005
35.92000 6.076
35.93000 6.136
35.94000 8.452
35.95000 4.087
35.96000 7.054
35.97000 2.044
35.98000 5.068
35.99000 5.509
36.00000 12.217
36.01000 7.403
36.02000 6.024
36.03000 6.146
36.04000 6.298
36.05000 4.085
36.06000 6.121
36.07000 2.375
36.08000 5.632
36.09000 5.095
36.10000 5.410
36.11000 3.688
36.12000 6.165
36.13000 6.405
36.14000 6.009
36.15000 5.436
36.16000 9.046
36.17000 2.024
36.18000 8.206
36.19000 8.500
36.20000 8.412
36.21000 2.395
36.22000 9.198
36.23000 6.000
36.24000 4.087
36.25000 9.083
36.26000 9.109
36.27000 6.016
36.28000 5.118
36.29000 8.169
36.30000 3.065
36.31000 6.746
36.32000 9.392
36.33000 5.034
36.34000 0.975
36.35000 10.125
36.36000 5.407
36.37000 7.413
36.38000 5.035
36.39000 5.007
36.40000 8.351
36.41000 1.343
36.42000 7.701
36.43000 6.440
36.44000 8.116
36.45000 4.678
36.46000 8.065
36.47000 5.652
36.48000 5.063
36.49000 2.994
36.50000 3.400
36.51000 7.103
36.52000 7.052
36.53000 8.357
36.54000 8.149
36.55000 4.414
36.56000 4.046
36.57000 7.439
36.58000 1.756
36.59000 10.958
36.60000 5.402
36.61000 11.177
36.62000 6.102
36.63000 3.021
36.64000 1.358
36.65000 0.329
36.66000 8.533
36.67000 7.799
36.68000 5.501
36.69000 6.034
36.70000 7.478
36.71000 9.226
36.72000 4.100
36.73000 6.135
36.74000 3.091
36.75000 4.085
36.76000 5.478
36.77000 9.099
36.78000 5.107
36.79000 4.433
36.80000 6.069
36.81000 5.048
36.82000 8.508
36.83000 3.058
36.84000 8.220
36.85000 5.108
36.86000 7.011
36.87000 9.273
36.88000 6.426
36.89000 8.173
36.90000 2.069
36.91000 6.093
36.92000 6.504
36.93000 5.429
36.94000 5.370
36.95000 7.080
36.96000 9.206
36.97000 3.368
36.98000 3.035
36.99000 10.097
37.00000 8.154
37.01000 6.226
37.02000 9.588
37.03000 5.100
37.04000 9.625
37.05000 3.020
37.06000 5.406
37.07000 5.197
37.08000 6.199
37.09000 11.199
37.10000 6.065
37.11000 8.156
37.12000 12.517
37.13000 8.165
37.14000 7.401
37.15000 11.428
37.16000 5.099
37.17000 10.095
37.18000 7.663
37.19000 8.193
37.20000 2.020
37.21000 8.125
37.22000 9.037
37.23000 5.026
37.24000 11.216
37.25000 6.386
37.26000 6.206
37.27000 7.934
37.28000 5.110
37.29000 9.152
37.30000 11.233
37.31000 4.050
37.32000 11.136
37.33000 4.014
37.34000 8.057
37.35000 4.107
37.36000 9.430
37.37000 8.873
37.38000 8.288
37.39000 7.048
37.40000 6.474
37.41000 6.058
37.42000 5.763
37.43000 3.492
37.44000 7.573
37.45000 4.110
37.46000 8.161
37.47000 9.467
37.48000 7.671
37.49000 9.145
37.50000 11.224
37.51000 7.162
37.52000 7.091
37.53000 4.466
37.54000 8.120
37.55000 10.114
37.56000 9.133
37.57000 4.007
37.58000 11.225
37.59000 4.043
37.60000 10.062
37.61000 7.445
37.62000 4.813
37.63000 10.524
37.64000 10.899
37.65000 3.322
37.66000 7.069
37.67000 5.958
37.68000 5.081
37.69000 6.366
37.70000 4.113
37.71000 8.096
37.72000 9.416
37.73000 4.379
37.74000 7.365
37.75000 5.075
37.76000 4.733
37.77000 8.571
37.78000 12.512
37.79000 4.124
37.80000 8.187
37.81000 8.152
37.82000 9.413
37.83000 6.179
37.84000 2.052
37.85000 6.771
37.86000 9.845
37.87000 8.171
37.88000 8.037
37.89000 7.153
37.90000 3.754
37.91000 5.086
37.92000 7.396
37.93000 8.462
37.94000 10.823
37.95000 5.398
37.96000 10.204
37.97000 7.075
37.98000 1.024
37.99000 6.514
38.00000 10.234
38.01000 8.135
38.02000 6.154
38.03000 11.680
38.04000 9.160
38.05000 7.183
38.06000 6.559
38.07000 5.485
38.08000 7.221
38.09000 6.481
38.10000 5.101
38.11000 5.341
38.12000 6.463
38.13000 6.481
38.14000 7.155
38.15000 6.324
38.16000 6.370
38.17000 9.770
38.18000 6.120
38.19000 7.536
38.20000 9.445
38.21000 9.470
38.22000 10.133
38.23000 7.776
38.24000 5.042
38.25000 22.691
38.26000 7.088
38.27000 9.507
38.28000 12.101
38.29000 10.274
38.30000 10.400
38.31000 15.884
38.32000 12.512
38.33000 14.926
38.34000 9.153
38.35000 15.510
38.36000 13.612
38.37000 12.546
38.38000 15.196
38.39000 9.213
38.40000 9.160
38.41000 9.187
38.42000 13.218
38.43000 18.271
38.44000 14.213
38.45000 20.310
38.46000 25.026
38.47000 31.184
38.48000 20.024
38.49000 20.360
38.50000 17.222
38.51000 18.548
38.52000 32.360
38.53000 23.286
38.54000 26.516
38.55000 37.529
38.56000 38.446
38.57000 41.515
38.58000 45.702
38.59000 47.042
38.60000 62.532
38.61000 74.674
38.62000 60.874
38.63000 65.151
38.64000 88.707
38.65000 94.875
38.66000 94.287
38.67000 69.772
38.68000 107.894
38.69000 104.010
38.70000 110.127
38.71000 103.689
38.72000 113.142
38.73000 122.703
38.74000 104.024
38.75000 149.483
38.76000 123.886
38.77000 165.830
38.78000 139.912
38.79000 144.590
38.80000 158.837
38.81000 143.024
38.82000 159.862
38.83000 152.659
38.84000 176.626
38.85000 142.951
38.86000 149.021
38.87000 169.763
38.88000 112.526
38.89000 147.894
38.90000 131.715
38.91000 142.764
38.92000 118.192
38.93000 126.924
38.94000 127.246
38.95000 114.781
38.96000 107.977
38.97000 102.422
38.98000 96.692
38.99000 88.149
39.00000 82.590
39.01000 84.738
39.02000 84.893
39.03000 59.968
39.04000 50.423
39.05000 59.250
39.06000 73.795
39.07000 53.240
39.08000 42.735
39.09000 46.322
39.10000 29.073
39.11000 35.671
39.12000 23.153
39.13000 31.815
39.14000 21.230
39.15000 31.872
39.16000 19.928
39.17000 17.004
39.18000 19.644
39.19000 7.830
39.20000 25.374
39.21000 16.419
39.22000 7.421
39.23000 10.302
39.24000 15.190
39.25000 7.114
39.26000 7.847
39.27000 12.404
39.28000 12.868
39.29000 16.549
39.30000 11.538
39.31000 6.024
39.32000 6.012
39.33000 9.784
39.34000 14.196
39.35000 6.427
39.36000 9.181
39.37000 6.676
39.38000 8.566
39.39000 11.209
39.40000 9.591
39.41000 7.765
39.42000 5.351
39.43000 5.440
39.44000 10.717
39.45000 9.160
39.46000 7.057
39.47000 11.431
39.48000 4.657
39.49000 5.400
39.50000 3.105
39.51000 11.189
39.52000 4.057
39.53000 7.483
39.54000 8.469
39.55000 11.545
39.56000 4.015
39.57000 5.059
39.58000 8.446
39.59000 6.082
39.60000 7.195
39.61000 6.091
39.62000 5.085
39.63000 12.564
39.64000 8.215
39.65000 2.024
39.66000 6.053
39.67000 8.389
39.68000 7.183
39.69000 11.517
39.70000 9.086
39.71000 4.015
39.72000 6.117
39.73000 5.081
39.74000 6.149
39.75000 5.434
39.76000 5.329
39.77000 4.005
39.78000 11.186
39.79000 2.066
39.80000 5.010
39.81000 3.054
39.82000 1.036
39.83000 8.392
39.84000 4.969
39.85000 5.426
39.86000 6.392
39.87000 2.046
39.88000 4.525
39.89000 5.440
39.90000 7.286
39.91000 6.425
39.92000 7.104
39.93000 8.123
39.94000 8.204
39.95000 4.432
39.96000 7.187
39.97000 1.031
39.98000 4.769
39.99000 8.081
40.00000 7.007
40.01000 6.568
40.02000 7.079
40.03000 2.018
40.04000 7.047
40.05000 2.082
40.06000 6.436
40.07000 3.128
40.08000 8.219
40.09000 2.379
40.10000 5.367
40.11000 10.163
40.12000 6.397
40.13000 4.029
40.14000 4.076
40.15000 6.077
40.16000 3.982
40.17000 4.010
40.18000 7.185
40.19000 4.469
40.20000 10.520
40.21000 4.074
40.22000 3.065
40.23000 5.141
40.24000 7.739
40.25000 7.252
40.26000 5.381
40.27000 8.151
40.28000 2.041
40.29000 8.109
40.30000 11.193
40.31000 2.378
40.32000 5.350
40.33000 4.144
40.34000 2.984
40.35000 2.335
40.36000 8.146
40.37000 3.063
40.38000 2.022
40.39000 7.213
40.40000 8.063
40.41000 7.087
40.42000 2.039
40.43000 8.036
40.44000 8.170
40.45000 6.469
40.46000 3.073
40.47000 6.105
40.48000 3.116
40.49000 10.329
40.50000 6.126
40.51000 3.079
40.52000 4.054
40.53000 7.208
40.54000 3.040
40.55000 2.982
40.56000 6.086
40.57000 11.600
40.58000 5.093
40.59000 3.355
40.60000 6.104
40.61000 10.448
40.62000 4.102
40.63000 5.121
40.64000 6.142
40.65000 3.039
40.66000 2.067
40.67000 3.109
40.68000 6.108
40.69000 4.397
40.70000 2.041
40.71000 3.039
40.72000 3.398
40.73000 8.453
40.74000 3.012
40.75000 3.991
40.76000 6.476
40.77000 6.126
40.78000 7.034
40.79000 4.350
40.80000 6.129
40.81000 4.042
40.82000 5.000
40.83000 4.189
40.84000 6.395
40.85000 4.106
40.86000 4.025
40.87000 4.399
40.88000 5.102
40.89000 7.092
40.90000 7.131
40.91000 7.196
40.92000 6.124
40.93000 2.057
40.94000 5.470
40.95000 2.036
40.96000 5.967
40.97000 3.357
40.98000 3.413
40.99000 6.027
41.00000 3.129
41.01000 5.098
41.02000 3.106
41.03000 2.097
41.04000 2.377
41.05000 4.374
41.06000 4.370
41.07000 4.702
41.08000 5.055
41.09000 3.298
41.10000 9.263
41.11000 7.136
41.12000 4.055
41.13000 8.959
41.14000 3.476
41.15000 4.378
41.16000 0.000
41.17000 5.710
41.18000 5.119
41.19000 9.192
41.20000 9.143
41.21000 4.360
41.22000 4.102
41.23000 10.119
41.24000 4.749
41.25000 5.118
41.26000 2.020
41.27000 6.110
41.28000 5.081
41.29000 10.028
41.30000 6.083
41.31000 3.077
41.32000 4.361
41.33000 4.046
41.34000 3.052
41.35000 5.089
41.36000 0.000
41.37000 5.492
41.38000 6.124
41.39000 1.027
41.40000 7.146
41.41000 5.079
41.42000 7.434
41.43000 2.985
41.44000 8.154
41.45000 3.373
41.46000 3.071
41.47000 2.035
41.48000 6.158
41.49000 7.111
41.50000 8.068
41.51000 3.354
41.52000 2.357
41.53000 7.429
41.54000 5.138
41.55000 4.423
41.56000 7.397
41.57000 6.121
41.58000 3.076
41.59000 4.449
41.60000 5.488
41.61000 1.039
41.62000 2.369
41.63000 2.004
41.64000 6.471
41.65000 5.156
41.66000 1.319
41.67000 6.787
41.68000 3.028
41.69000 2.067
41.70000 3.080
41.71000 6.054
41.72000 6.456
41.73000 5.445
41.74000 5.110
41.75000 7.242
41.76000 5.993
41.77000 4.031
41.78000 5.128
41.79000 4.342
41.80000 1.338
41.81000 8.122
41.82000 4.968
41.83000 3.102
41.84000 9.125
41.85000 6.754
41.86000 2.003
41.87000 3.983
41.88000 3.043
41.89000 7.018
41.90000 3.074
41.91000 3.393
41.92000 4.053
41.93000 5.423
41.94000 1.048
41.95000 5.993
41.96000 5.058
41.97000 7.508
41.98000 2.359
41.99000 5.035
42.00000 5.030
42.01000 4.050
42.02000 7.079
42.03000 4.183
42.04000 4.392
42.05000 3.042
42.06000 4.057
42.07000 8.173
42.08000 4.117
42.09000 1.988
42.10000 1.381
42.11000 6.116
42.12000 5.420
42.13000 8.137
42.14000 9.493
42.15000 6.060
42.16000 4.043
42.17000 3.359
42.18000 5.445
42.19000 4.031
42.20000 5.080
42.21000 4.029
42.22000 6.105
42.23000 3.105
42.24000 5.717
42.25000 1.028
42.26000 4.050
42.27000 3.075
42.28000 7.177
42.29000 5.417
42.30000 6.459
42.31000 5.103
42.32000 5.279
42.33000 3.739
42.34000 0.995
42.35000 9.046
42.36000 4.084
42.37000 3.079
42.38000 6.073
42.39000 3.066
42.40000 6.041
42.41000 5.148
42.42000 6.131
42.43000 3.419
42.44000 3.028
42.45000 4.078
42.46000 5.003
42.47000 1.358
42.48000 5.444
42.49000 4.093
42.50000 4.064
42.51000 7.133
42.52000 4.391
42.53000 2.368
42.54000 7.538
42.55000 6.535
42.56000 4.425
42.57000 5.193
42.58000 1.665
42.59000 3.104
42.60000 5.149
42.61000 10.147
42.62000 9.146
42.63000 6.218
42.64000 6.067
42.65000 8.024
42.66000 8.108
42.67000 5.104
42.68000 4.059
42.69000 6.153
42.70000 1.339
42.71000 5.140
42.72000 4.379
42.73000 5.104
42.74000 7.109
42.75000 5.021
42.76000 4.769
42.77000 5.159
42.78000 2.040
42.79000 4.001
42.80000 3.078
42.81000 3.005
42.82000 6.102
42.83000 4.023
42.84000 10.091
42.85000 6.145
42.86000 7.524
42.87000 4.451
42.88000 8.150
42.89000 4.144
42.90000 6.175
42.91000 7.756
42.92000 7.486
42.93000 3.001
42.94000 6.055
42.95000 2.356
42.96000 3.087
42.97000 5.369
42.98000 8.157
42.99000 4.035
43.00000 2.066
43.01000 9.470
43.02000 6.389
43.03000 5.351
43.04000 10.125
43.05000 7.145
43.06000 8.228
43.07000 5.121
43.08000 5.344
43.09000 6.433
43.10000 3.387
43.11000 3.395
43.12000 6.117
43.13000 5.344
43.14000 7.157
43.15000 2.397
43.16000 6.162
43.17000 2.316
43.18000 8.128
43.19000 8.512
43.20000 3.370
43.21000 3.061
43.22000 6.039
43.23000 3.376
43.24000 3.043
43.25000 8.068
43.26000 1.019
43.27000 5.380
43.28000 0.985
43.29000 7.107
43.30000 3.065
43.31000 3.068
43.32000 4.058
43.33000 5.019
43.34000 2.018
43.35000 2.027
43.36000 4.004
43.37000 6.140
43.38000 5.465
43.39000 5.433
43.40000 5.094
43.41000 4.435
43.42000 5.013
43.43000 3.394
43.44000 8.155
43.45000 6.132
43.46000 3.095
43.47000 7.001
43.48000 5.368
43.49000 5.054
43.50000 5.025
43.51000 4.085
43.52000 5.995
43.53000 3.999
43.54000 3.028
43.55000 5.094
43.56000 9.869
43.57000 11.622
43.58000 5.683
43.59000 4.087
43.60000 7.162
43.61000 3.022
43.62000 7.991
43.63000 5.113
43.64000 5.782
43.65000 1.047
43.66000 0.999
43.67000 9.436
43.68000 8.137
43.69000 8.120
43.70000 3.007
43.71000 4.082
43.72000 5.035
43.73000 3.359
43.74000 7.155
43.75000 7.077
43.76000 6.399
43.77000 7.100
43.78000 2.093
43.79000 9.125
43.80000 4.372
43.81000 9.310
43.82000 3.059
43.83000 3.306
43.84000 7.115
43.85000 5.757
43.86000 2.038
43.87000 5.136
43.88000 3.117
43.89000 7.514
43.90000 2.390
43.91000 4.024
43.92000 7.180
43.93000 4.964
43.94000 3.998
43.95000 3.086
43.96000 6.017
43.97000 8.556
43.98000 9.117
43.99000 3.326
44.00000 4.373
44.01000 7.451
44.02000 3.370
44.03000 6.695
44.04000 4.015
44.05000 6.432
44.06000 9.178
44.07000 10.104
44.08000 4.048
44.09000 6.205
44.10000 4.474
44.11000 4.150
44.12000 3.401
44.13000 5.024
44.14000 4.088
44.15000 8.190
44.16000 7.393
44.17000 6.121
44.18000 11.629
44.19000 7.154
44.20000 6.136
44.21000 9.306
44.22000 7.542
44.23000 6.146
44.24000 6.990
44.25000 5.144
44.26000 5.112
44.27000 4.338
44.28000 9.227
44.29000 9.820
44.30000 6.128
44.31000 5.741
44.32000 7.076
44.33000 7.505
44.34000 7.178
44.35000 5.106
44.36000 9.509
44.37000 10.078
44.38000 5.126
44.39000 3.091
44.40000 7.447
44.41000 8.203
44.42000 10.459
44.43000 12.858
44.44000 5.809
44.45000 9.237
44.46000 16.329
44.47000 8.070
44.48000 7.748
44.49000 9.194
44.50000 2.401
44.51000 8.149
44.52000 10.480
44.53000 12.877
44.54000 8.560
44.55000 14.485
44.56000 11.103
44.57000 8.108
44.58000 17.160
44.59000 16.050
44.60000 10.396
44.61000 10.213
44.62000 14.666
44.63000 12.136
44.64000 18.191
44.65000 11.578
44.66000 23.525
44.67000 20.540
44.68000 11.900
44.69000 24.859
44.70000 15.588
44.71000 21.292
44.72000 22.032
44.73000 18.456
44.74000 14.192
44.75000 12.863
44.76000 19.995
44.77000 26.616
44.78000 28.130
44.79000 18.880
44.80000 27.434
44.81000 24.190
44.82000 38.467
44.83000 39.152
44.84000 35.398
44.85000 35.184
44.86000 35.520
44.87000 46.265
44.88000 45.958
44.89000 31.424
44.90000 38.559
44.91000 41.265
44.92000 43.035
44.93000 61.304
44.94000 66.989
44.95000 63.066
44.96000 67.573
44.97000 53.829
44.98000 81.429
44.99000 65.019
45.00000 77.021
45.01000 62.396
45.02000 78.838
45.03000 83.147
45.04000 77.809
45.05000 82.858
45.06000 102.206
45.07000 93.596
45.08000 91.451
45.09000 76.121
45.10000 121.167
45.11000 87.531
45.12000 93.937
45.13000 78.248
45.14000 81.763
45.15000 92.298
45.16000 72.910
45.17000 64.973
45.18000 79.630
45.19000 73.894
45.20000 48.659
45.21000 71.265
45.22000 78.924
45.23000 68.089
45.24000 77.286
45.25000 57.418
45.26000 55.567
45.27000 56.571
45.28000 50.963
45.29000 48.608
45.30000 42.335
45.31000 38.276
45.32000 34.575
45.33000 27.894
45.34000 52.357
45.35000 37.345
45.36000 20.968
45.37000 25.966
45.38000 32.689
45.39000 21.260
45.40000 28.328
45.41000 22.096
45.42000 20.029
45.43000 27.875
45.44000 25.298
45.45000 21.451
45.46000 22.185
45.47000 20.925
45.48000 13.911
45.49000 16.684
45.50000 17.451
45.51000 8.796
45.52000 16.372
45.53000 11.148
45.54000 11.528
45.55000 7.187
45.56000 11.197
45.57000 12.519
45.58000 10.168
45.59000 13.587
45.60000 8.195
45.61000 11.213
45.62000 16.344
45.63000 10.837
45.64000 4.038
45.65000 12.001
45.66000 8.448
45.67000 5.159
45.68000 7.077
45.69000 7.450
45.70000 7.383
45.71000 6.107
45.72000 8.112
45.73000 7.075
45.74000 7.135
45.75000 3.455
45.76000 3.312
45.77000 8.223
45.78000 10.349
45.79000 12.250
45.80000 5.120
45.81000 8.186
45.82000 5.397
45.83000 7.468
45.84000 3.745
45.85000 3.110
45.86000 2.367
45.87000 11.622
45.88000 9.315
45.89000 5.129
45.90000 5.162
45.91000 6.118
45.92000 3.315
45.93000 10.055
45.94000 6.070
45.95000 4.126
45.96000 3.052
45.97000 5.994
45.98000 5.134
45.99000 5.741
46.00000 8.520
46.01000 8.242
46.02000 6.399
46.03000 4.081
46.04000 4.041
46.05000 6.021
46.06000 10.086
46.07000 5.096
46.08000 4.402
46.09000 6.135
46.10000 6.225
46.11000 10.690
46.12000 5.111
46.13000 1.359
46.14000 0.000
46.15000 3.093
46.16000 8.117
46.17000 4.125
46.18000 6.133
46.19000 5.031
46.20000 1.979
46.21000 3.483
46.22000 4.091
46.23000 3.040
46.24000 3.390
46.25000 3.343
46.26000 5.487
46.27000 4.037
46.28000 5.405
46.29000 6.166
46.30000 3.996
46.31000 7.406
46.32000 5.064
46.33000 6.039
46.34000 3.019
46.35000 4.073
46.36000 5.038
46.37000 3.028
46.38000 3.079
46.39000 2.015
46.40000 1.036
46.41000 7.530
46.42000 0.000
46.43000 6.503
46.44000 4.378
46.45000 10.806
46.46000 2.060
46.47000 1.995
46.48000 6.411
46.49000 4.129
46.50000 3.038
46.51000 4.051
46.52000 5.113
46.53000 4.057
46.54000 0.971
46.55000 0.989
46.56000 2.317
46.57000 2.344
46.58000 1.003
46.59000 4.100
46.60000 3.392
46.61000 5.006
46.62000 6.424
46.63000 2.633
46.64000 2.010
46.65000 2.042
46.66000 4.078
46.67000 7.054
46.68000 5.428
46.69000 3.001
46.70000 3.958
46.71000 6.359
46.72000 6.073
46.73000 3.024
46.74000 2.366
46.75000 5.065
46.76000 5.154
46.77000 4.397
46.78000 5.142
46.79000 3.053
46.80000 8.086
46.81000 2.035
46.82000 4.020
46.83000 4.077
46.84000 4.043
46.85000 2.041
46.86000 5.066
46.87000 8.041
46.88000 2.286
46.89000 5.006
46.90000 4.108
46.91000 4.153
46.92000 4.088
46.93000 4.017
46.94000 7.413
46.95000 4.437
46.96000 7.395
46.97000 4.992
46.98000 6.103
46.99000 6.173
47.00000 4.056
