20.00000 13.460
20.01000 10.096
20.02000 14.297
20.03000 15.243
20.04000 9.256
20.05000 8.171
20.06000 17.413
20.07000 11.207
20.08000 12.209
20.09000 8.159
20.10000 13.329
20.11000 10.378
20.12000 13.343
20.13000 12.342
20.14000 8.177
20.15000 6.197
20.16000 16.204
20.17000 13.377
20.18000 11.133
20.19000 16.234
20.20000 11.249
20.21000 10.260
20.22000 11.324
20.23000 14.322
20.24000 12.304
20.25000 16.303
20.26000 9.173
20.27000 12.326
20.28000 7.110
20.29000 13.239
20.30000 12.186
20.31000 11.396
20.32000 7.138
20.33000 12.201
20.34000 11.282
20.35000 10.208
20.36000 11.318
20.37000 12.209
20.38000 15.218
20.39000 11.313
20.40000 8.146
20.41000 12.176
20.42000 16.297
20.43000 9.172
20.44000 13.173
20.45000 8.184
20.46000 19.323
20.47000 13.321
20.48000 9.275
20.49000 15.309
20.50000 12.166
20.51000 8.133
20.52000 11.172
20.53000 8.156
20.54000 18.366
20.55000 16.299
20.56000 9.153
20.57000 8.185
20.58000 16.380
20.59000 7.150
20.60000 11.197
20.61000 9.166
20.62000 10.174
20.63000 15.294
20.64000 10.204
20.65000 8.102
20.66000 19.334
20.67000 8.284
20.68000 5.084
20.69000 14.199
20.70000 6.162
20.71000 8.166
20.72000 12.346
20.73000 10.312
20.74000 10.179
20.75000 11.180
20.76000 12.223
20.77000 9.127
20.78000 13.222
20.79000 14.385
20.80000 10.279
20.81000 17.577
20.82000 15.246
20.83000 6.239
20.84000 8.079
20.85000 16.297
20.86000 11.261
20.87000 14.380
20.88000 12.216
20.89000 13.242
20.90000 12.223
20.91000 10.173
20.92000 11.266
20.93000 13.284
20.94000 11.167
20.95000 15.343
20.96000 8.110
20.97000 10.111
20.98000 11.287
20.99000 7.160
21.00000 12.094
21.01000 12.235
21.02000 11.263
21.03000 4.058
21.04000 16.542
21.05000 9.301
21.06000 16.532
21.07000 11.248
21.08000 5.179
21.09000 11.291
21.10000 4.086
21.11000 4.050
21.12000 8.095
21.13000 10.296
21.14000 8.280
21.15000 12.187
21.16000 7.193
21.17000 10.240
21.18000 12.279
21.19000 6.089
21.20000 12.259
21.21000 15.239
21.22000 17.460
21.23000 9.248
21.24000 7.187
21.25000 11.223
21.26000 9.188
21.27000 12.164
21.28000 9.088
21.29000 9.247
21.30000 10.363
21.31000 15.120
21.32000 8.136
21.33000 4.111
21.34000 13.112
21.35000 7.176
21.36000 13.340
21.37000 11.278
21.38000 12.096
21.39000 12.246
21.40000 11.259
21.41000 13.285
21.42000 9.179
21.43000 9.094
21.44000 12.224
21.45000 8.176
21.46000 13.230
21.47000 12.240
21.48000 9.096
21.49000 9.225
21.50000 5.188
21.51000 11.275
21.52000 9.201
21.53000 9.179
21.54000 15.543
21.55000 8.011
21.56000 18.399
21.57000 5.179
21.58000 15.351
21.59000 11.259
21.60000 5.073
21.61000 14.223
21.62000 12.203
21.63000 7.179
21.64000 8.412
21.65000 8.178
21.66000 5.128
21.67000 12.269
21.68000 11.228
21.69000 6.176
21.70000 8.098
21.71000 8.147
21.72000 8.158
21.73000 11.142
21.74000 13.249
21.75000 10.199
21.76000 8.062
21.77000 6.108
21.78000 15.308
21.79000 11.272
21.80000 13.237
21.81000 10.197
21.82000 14.330
21.83000 8.200
21.84000 9.268
21.85000 16.270
21.86000 8.146
21.87000 16.523
21.88000 6.078
21.89000 14.302
21.90000 12.232
21.91000 11.317
21.92000 10.339
21.93000 8.200
21.94000 7.120
21.95000 8.168
21.96000 15.174
21.97000 12.331
21.98000 7.228
21.99000 14.303
22.00000 10.257
22.01000 2.057
22.02000 15.152
22.03000 12.322
22.04000 13.291
22.05000 12.388
22.06000 11.120
22.07000 7.245
22.08000 11.256
22.09000 16.281
22.10000 10.234
22.11000 12.287
22.12000 12.235
22.13000 12.253
22.14000 12.378
22.15000 11.091
22.16000 11.209
22.17000 12.294
22.18000 6.063
22.19000 8.211
22.20000 11.251
22.21000 11.160
22.22000 8.151
22.23000 2.034
22.24000 12.178
22.25000 14.332
22.26000 10.234
22.27000 7.128
22.28000 11.233
22.29000 9.122
22.30000 7.098
22.31000 8.253
22.32000 17.243
22.33000 14.186
22.34000 15.283
22.35000 10.148
22.36000 9.135
22.37000 11.207
22.38000 6.244
22.39000 7.070
22.40000 6.110
22.41000 6.191
22.42000 19.454
22.43000 8.091
22.44000 13.214
22.45000 16.309
22.46000 14.268
22.47000 8.178
22.48000 14.406
22.49000 7.177
22.50000 9.175
22.51000 11.335
22.52000 9.161
22.53000 12.255
22.54000 9.227
22.55000 11.292
22.56000 4.128
22.57000 10.185
22.58000 11.308
22.59000 11.424
22.60000 16.269
22.61000 10.315
22.62000 16.225
22.63000 11.240
22.64000 12.247
22.65000 5.073
22.66000 5.096
22.67000 10.257
22.68000 8.103
22.69000 7.174
22.70000 8.253
22.71000 6.078
22.72000 8.242
22.73000 8.099
22.74000 13.285
22.75000 12.269
22.76000 11.299
22.77000 14.198
22.78000 15.275
22.79000 6.216
22.80000 10.164
22.81000 10.302
22.82000 8.180
22.83000 8.205
22.84000 12.126
22.85000 11.109
22.86000 10.254
22.87000 9.238
22.88000 5.144
22.89000 9.038
22.90000 14.224
22.91000 9.218
22.92000 4.966
22.93000 10.178
22.94000 9.278
22.95000 9.141
22.96000 15.171
22.97000 13.246
22.98000 12.244
22.99000 13.286
23.00000 6.187
23.01000 7.150
23.02000 9.172
23.03000 7.187
23.04000 13.182
23.05000 11.085
23.06000 11.239
23.07000 5.082
23.08000 2.072
23.09000 8.060
23.10000 12.245
23.11000 9.105
23.12000 5.090
23.13000 12.244
23.14000 4.054
23.15000 12.354
23.16000 11.210
23.17000 8.191
23.18000 6.063
23.19000 5.086
23.20000 7.261
23.21000 12.273
23.22000 11.240
23.23000 15.218
23.24000 8.143
23.25000 14.222
23.26000 14.262
23.27000 9.074
23.28000 10.186
23.29000 10.187
23.30000 9.158
23.31000 10.300
23.32000 13.243
23.33000 12.192
23.34000 10.249
23.35000 5.092
23.36000 13.231
23.37000 10.142
23.38000 9.204
23.39000 11.198
23.40000 12.214
23.41000 6.132
23.42000 8.069
23.43000 7.161
23.44000 9.082
23.45000 11.131
23.46000 4.069
23.47000 7.115
23.48000 9.061
23.49000 11.173
23.50000 3.101
23.51000 13.268
23.52000 10.141
23.53000 7.177
23.54000 10.024
23.55000 6.133
23.56000 5.148
23.57000 13.286
23.58000 6.096
23.59000 10.271
23.60000 11.197
23.61000 11.185
23.62000 13.172
23.63000 14.266
23.64000 8.209
23.65000 5.089
23.66000 13.347
23.67000 6.114
23.68000 9.156
23.69000 11.365
23.70000 7.151
23.71000 12.228
23.72000 3.078
23.73000 7.086
23.74000 7.226
23.75000 13.241
23.76000 12.284
23.77000 14.289
23.78000 8.202
23.79000 5.075
23.80000 17.364
23.81000 7.181
23.82000 11.131
23.83000 9.114
23.84000 9.129
23.85000 9.288
23.86000 9.993
23.87000 8.094
23.88000 6.192
23.89000 5.106
23.90000 9.147
23.91000 10.218
23.92000 10.220
23.93000 16.188
23.94000 9.350
23.95000 9.234
23.96000 10.139
23.97000 7.170
23.98000 6.110
23.99000 6.100
24.00000 11.221
24.01000 8.217
24.02000 9.108
24.03000 10.249
24.04000 10.227
24.05000 15.252
24.06000 8.185
24.07000 12.217
24.08000 13.404
24.09000 10.337
24.10000 10.094
24.11000 5.050
24.12000 3.083
24.13000 7.124
24.14000 6.167
24.15000 12.154
24.16000 10.207
24.17000 11.259
24.18000 5.137
24.19000 7.176
24.20000 4.087
24.21000 7.189
24.22000 11.155
24.23000 9.112
24.24000 5.091
24.25000 9.304
24.26000 12.147
24.27000 10.235
24.28000 9.124
24.29000 8.043
24.30000 13.181
24.31000 6.182
24.32000 16.180
24.33000 5.049
24.34000 10.010
24.35000 6.121
24.36000 3.063
24.37000 9.206
24.38000 8.098
24.39000 6.092
24.40000 8.184
24.41000 7.020
24.42000 1.038
24.43000 11.295
24.44000 6.119
24.45000 5.121
24.46000 11.291
24.47000 6.104
24.48000 10.290
24.49000 9.203
24.50000 9.271
24.51000 11.227
24.52000 6.205
24.53000 9.238
24.54000 12.241
24.55000 7.109
24.56000 12.153
24.57000 10.082
24.58000 14.335
24.59000 6.110
24.60000 10.029
24.61000 11.287
24.62000 8.115
24.63000 7.103
24.64000 12.262
24.65000 6.185
24.66000 8.142
24.67000 13.093
24.68000 6.291
24.69000 9.040
24.70000 9.247
24.71000 6.146
24.72000 13.320
24.73000 18.250
24.74000 5.104
24.75000 11.170
24.76000 7.167
24.77000 9.163
24.78000 13.226
24.79000 10.250
24.80000 6.166
24.81000 15.300
24.82000 10.200
24.83000 13.425
24.84000 12.241
24.85000 11.239
24.86000 2.017
24.87000 11.142
24.88000 7.160
24.89000 9.273
24.90000 14.273
24.91000 9.048
24.92000 13.354
24.93000 9.226
24.94000 12.374
24.95000 12.276
24.96000 10.041
24.97000 8.128
24.98000 12.105
24.99000 11.150
25.00000 8.186
25.01000 11.262
25.02000 16.244
25.03000 5.124
25.04000 6.091
25.05000 5.137
25.06000 5.011
25.07000 10.215
25.08000 15.106
25.09000 6.061
25.10000 11.369
25.11000 8.133
25.12000 12.292
25.13000 4.067
25.14000 14.209
25.15000 11.180
25.16000 8.155
25.17000 10.195
25.18000 12.248
25.19000 12.143
25.20000 13.181
25.21000 10.274
25.22000 7.133
25.23000 8.070
25.24000 9.317
25.25000 5.098
25.26000 17.519
25.27000 15.279
25.28000 9.170
25.29000 6.147
25.30000 9.158
25.31000 13.283
25.32000 9.066
25.33000 7.074
25.34000 14.291
25.35000 7.069
25.36000 12.227
25.37000 7.200
25.38000 9.178
25.39000 9.192
25.40000 5.130
25.41000 6.247
25.42000 11.236
25.43000 7.161
25.44000 12.331
25.45000 8.984
25.46000 11.141
25.47000 8.172
25.48000 7.197
25.49000 7.162
25.50000 7.119
25.51000 9.290
25.52000 5.109
25.53000 7.097
25.54000 5.135
25.55000 9.199
25.56000 7.199
25.57000 12.326
25.58000 7.148
25.59000 10.118
25.60000 8.227
25.61000 5.206
25.62000 6.118
25.63000 10.079
25.64000 6.153
25.65000 13.133
25.66000 7.147
25.67000 12.326
25.68000 5.138
25.69000 8.049
25.70000 6.974
25.71000 15.250
25.72000 8.131
25.73000 9.114
25.74000 14.220
25.75000 13.227
25.76000 12.151
25.77000 10.235
25.78000 6.230
25.79000 13.311
25.80000 5.249
25.81000 10.097
25.82000 11.366
25.83000 8.201
25.84000 12.296
25.85000 11.199
25.86000 8.241
25.87000 5.156
25.88000 9.130
25.89000 5.116
25.90000 6.179
25.91000 10.261
25.92000 7.123
25.93000 5.070
25.94000 8.137
25.95000 5.082
25.96000 9.275
25.97000 6.140
25.98000 5.061
25.99000 11.275
26.00000 8.129
26.01000 6.178
26.02000 8.160
26.03000 10.080
26.04000 9.241
26.05000 4.210
26.06000 10.097
26.07000 14.280
26.08000 8.213
26.09000 8.043
26.10000 8.190
26.11000 6.132
26.12000 13.165
26.13000 6.156
26.14000 11.221
26.15000 6.085
26.16000 12.182
26.17000 8.079
26.18000 9.172
26.19000 9.199
26.20000 9.221
26.21000 5.061
26.22000 6.090
26.23000 10.221
26.24000 7.180
26.25000 16.485
26.26000 11.132
26.27000 7.192
26.28000 5.098
26.29000 9.307
26.30000 14.134
26.31000 11.201
26.32000 11.221
26.33000 7.070
26.34000 7.126
26.35000 7.134
26.36000 5.091
26.37000 3.088
26.38000 6.022
26.39000 11.108
26.40000 9.101
26.41000 9.179
26.42000 10.183
26.43000 13.204
26.44000 7.008
26.45000 11.292
26.46000 8.230
26.47000 10.288
26.48000 10.207
26.49000 11.284
26.50000 12.011
26.51000 10.190
26.52000 8.136
26.53000 5.937
26.54000 7.084
26.55000 5.083
26.56000 6.154
26.57000 12.170
26.58000 10.201
26.59000 11.254
26.60000 7.181
26.61000 8.244
26.62000 4.075
26.63000 10.211
26.64000 5.149
26.65000 5.192
26.66000 8.176
26.67000 10.233
26.68000 6.049
26.69000 7.063
26.70000 6.210
26.71000 6.154
26.72000 8.150
26.73000 12.309
26.74000 8.205
26.75000 12.308
26.76000 6.020
26.77000 8.130
26.78000 14.301
26.79000 12.216
26.80000 5.081
26.81000 9.079
26.82000 3.042
26.83000 5.055
26.84000 10.150
26.85000 6.186
26.86000 6.098
26.87000 8.293
26.88000 9.242
26.89000 9.107
26.90000 7.077
26.91000 6.141
26.92000 12.249
26.93000 7.126
26.94000 2.033
26.95000 9.133
26.96000 9.318
26.97000 10.200
26.98000 6.146
26.99000 5.011
27.00000 8.148
27.01000 3.090
27.02000 9.169
27.03000 7.196
27.04000 8.283
27.05000 10.113
27.06000 4.064
27.07000 10.304
27.08000 4.207
27.09000 7.209
27.10000 7.089
27.11000 8.243
27.12000 9.219
27.13000 9.146
27.14000 9.282
27.15000 8.326
27.16000 9.199
27.17000 8.218
27.18000 4.154
27.19000 2.067
27.20000 4.107
27.21000 13.255
27.22000 11.227
27.23000 6.193
27.24000 9.212
27.25000 11.181
27.26000 7.025
27.27000 5.108
27.28000 8.236
27.29000 5.194
27.30000 6.195
27.31000 8.224
27.32000 12.260
27.33000 10.133
27.34000 10.185
27.35000 6.243
27.36000 8.064
27.37000 5.142
27.38000 6.097
27.39000 6.170
27.40000 5.057
27.41000 8.157
27.42000 5.006
27.43000 9.137
27.44000 14.255
27.45000 9.199
27.46000 5.073
27.47000 14.406
27.48000 10.233
27.49000 6.163
27.50000 10.128
27.51000 4.134
27.52000 13.389
27.53000 4.143
27.54000 12.256
27.55000 4.114
27.56000 9.120
27.57000 7.104
27.58000 7.028
27.59000 8.145
27.60000 7.108
27.61000 10.201
27.62000 12.073
27.63000 6.193
27.64000 7.206
27.65000 6.054
27.66000 4.071
27.67000 5.184
27.68000 10.201
27.69000 8.035
27.70000 11.229
27.71000 13.235
27.72000 9.153
27.73000 11.135
27.74000 8.189
27.75000 7.117
27.76000 11.177
27.77000 8.204
27.78000 7.172
27.79000 6.083
27.80000 6.145
27.81000 9.094
27.82000 10.122
27.83000 9.163
27.84000 12.263
27.85000 7.012
27.86000 5.093
27.87000 11.399
27.88000 6.082
27.89000 10.186
27.90000 5.040
27.91000 10.152
27.92000 7.103
27.93000 7.207
27.94000 9.212
27.95000 9.250
27.96000 9.161
27.97000 9.183
27.98000 10.262
27.99000 7.226
28.00000 5.145
28.01000 7.295
28.02000 11.137
28.03000 5.077
28.04000 9.074
28.05000 9.295
28.06000 7.050
28.07000 5.054
28.08000 8.175
28.09000 7.181
28.10000 10.172
28.11000 8.166
28.12000 5.160
28.13000 8.146
28.14000 10.242
28.15000 8.082
28.16000 5.088
28.17000 8.086
28.18000 11.183
28.19000 5.033
28.20000 9.263
28.21000 8.131
28.22000 10.234
28.23000 3.049
28.24000 7.175
28.25000 11.273
28.26000 10.075
28.27000 10.285
28.28000 9.201
28.29000 5.113
28.30000 5.151
28.31000 7.078
28.32000 13.301
28.33000 7.216
28.34000 4.139
28.35000 8.083
28.36000 8.230
28.37000 13.227
28.38000 8.130
28.39000 6.044
28.40000 6.089
28.41000 11.210
28.42000 9.252
28.43000 6.180
28.44000 9.295
28.45000 7.164
28.46000 6.140
28.47000 9.198
28.48000 4.019
28.49000 5.036
28.50000 8.175
28.51000 9.237
28.52000 13.497
28.53000 12.169
28.54000 8.324
28.55000 7.196
28.56000 6.133
28.57000 4.129
28.58000 14.180
28.59000 8.117
28.60000 4.094
28.61000 7.163
28.62000 6.080
28.63000 3.027
28.64000 8.219
28.65000 13.219
28.66000 4.126
28.67000 3.012
28.68000 7.158
28.69000 6.073
28.70000 10.225
28.71000 11.418
28.72000 8.157
28.73000 13.285
28.74000 5.027
28.75000 3.028
28.76000 4.077
28.77000 11.159
28.78000 11.222
28.79000 8.101
28.80000 1.999
28.81000 3.107
28.82000 7.121
28.83000 10.058
28.84000 10.107
28.85000 10.180
28.86000 7.062
28.87000 7.207
28.88000 5.054
28.89000 11.109
28.90000 8.126
28.91000 3.018
28.92000 8.190
28.93000 8.249
28.94000 5.194
28.95000 10.091
28.96000 3.100
28.97000 9.119
28.98000 7.166
28.99000 4.071
29.00000 5.067
29.01000 5.188
29.02000 6.116
29.03000 6.095
29.04000 7.174
29.05000 5.076
29.06000 8.277
29.07000 9.231
29.08000 8.080
29.09000 10.302
29.10000 8.164
29.11000 4.043
29.12000 5.121
29.13000 8.092
29.14000 10.124
29.15000 2.005
29.16000 10.273
29.17000 13.198
29.18000 8.204
29.19000 5.168
29.20000 10.261
29.21000 3.077
29.22000 4.115
29.23000 10.227
29.24000 4.077
29.25000 5.949
29.26000 7.172
29.27000 6.130
29.28000 9.090
29.29000 11.302
29.30000 9.227
29.31000 7.159
29.32000 10.167
29.33000 12.261
29.34000 10.207
29.35000 5.192
29.36000 10.270
29.37000 10.239
29.38000 8.124
29.39000 10.068
29.40000 6.209
29.41000 12.186
29.42000 6.146
29.43000 8.135
29.44000 8.064
29.45000 7.085
29.46000 8.113
29.47000 8.084
29.48000 8.097
29.49000 7.245
29.50000 5.055
29.51000 10.132
29.52000 6.174
29.53000 8.077
29.54000 5.214
29.55000 8.193
29.56000 7.178
29.57000 9.089
29.58000 13.272
29.59000 11.257
29.60000 9.285
29.61000 9.192
29.62000 6.149
29.63000 9.201
29.64000 6.975
29.65000 4.045
29.66000 5.083
29.67000 6.144
29.68000 7.158
29.69000 6.059
29.70000 9.087
29.71000 2.045
29.72000 3.058
29.73000 7.178
29.74000 6.074
29.75000 2.099
29.76000 4.113
29.77000 9.139
29.78000 6.029
29.79000 7.020
29.80000 9.085
29.81000 12.223
29.82000 6.142
29.83000 2.079
29.84000 4.102
29.85000 10.144
29.86000 3.997
29.87000 9.278
29.88000 8.200
29.89000 8.199
29.90000 6.008
29.91000 6.100
29.92000 13.241
29.93000 5.054
29.94000 5.135
29.95000 1.012
29.96000 9.144
29.97000 7.143
29.98000 5.045
29.99000 5.090
30.00000 6.129
30.01000 9.172
30.02000 9.453
30.03000 8.134
30.04000 5.010
30.05000 4.138
30.06000 5.065
30.07000 12.273
30.08000 3.029
30.09000 8.229
30.10000 7.161
30.11000 4.024
30.12000 5.021
30.13000 7.115
30.14000 8.109
30.15000 8.187
30.16000 5.064
30.17000 2.007
30.18000 4.093
30.19000 7.084
30.20000 5.969
30.21000 6.079
30.22000 7.235
30.23000 5.097
30.24000 7.178
30.25000 4.092
30.26000 6.128
30.27000 6.198
30.28000 8.128
30.29000 6.094
30.30000 6.153
30.31000 7.127
30.32000 7.090
30.33000 5.081
30.34000 9.187
30.35000 10.198
30.36000 8.187
30.37000 7.188
30.38000 7.222
30.39000 4.047
30.40000 6.095
30.41000 9.237
30.42000 6.217
30.43000 5.073
30.44000 7.065
30.45000 8.239
30.46000 1.041
30.47000 6.107
30.48000 2.995
30.49000 1.011
30.50000 7.198
30.51000 7.172
30.52000 4.089
30.53000 7.248
30.54000 10.153
30.55000 7.115
30.56000 6.184
30.57000 6.090
30.58000 11.102
30.59000 6.153
30.60000 9.247
30.61000 4.140
30.62000 3.055
30.63000 6.102
30.64000 9.232
30.65000 7.131
30.66000 5.169
30.67000 8.258
30.68000 5.182
30.69000 6.241
30.70000 3.112
30.71000 9.091
30.72000 5.136
30.73000 3.084
30.74000 7.161
30.75000 8.100
30.76000 8.116
30.77000 8.188
30.78000 6.038
30.79000 10.198
30.80000 8.253
30.81000 6.205
30.82000 4.089
30.83000 9.152
30.84000 4.040
30.85000 7.086
30.86000 5.046
30.87000 9.206
30.88000 5.150
30.89000 9.074
30.90000 12.258
30.91000 5.080
30.92000 4.138
30.93000 7.195
30.94000 5.053
30.95000 4.047
30.96000 9.308
30.97000 9.157
30.98000 8.177
30.99000 6.115
31.00000 4.971
31.01000 2.072
31.02000 8.014
31.03000 8.149
31.04000 4.052
31.05000 12.418
31.06000 9.265
31.07000 12.190
31.08000 7.150
31.09000 6.151
31.10000 9.285
31.11000 12.244
31.12000 8.187
31.13000 12.224
31.14000 4.142
31.15000 5.129
31.16000 9.164
31.17000 14.221
31.18000 4.039
31.19000 7.137
31.20000 7.145
31.21000 5.058
31.22000 8.188
31.23000 8.174
31.24000 8.203
31.25000 7.158
31.26000 7.187
31.27000 5.224
31.28000 6.175
31.29000 11.112
31.30000 4.199
31.31000 10.253
31.32000 6.076
31.33000 7.117
31.34000 10.202
31.35000 9.089
31.36000 11.268
31.37000 5.049
31.38000 3.078
31.39000 6.168
31.40000 10.152
31.41000 6.007
31.42000 8.148
31.43000 10.102
31.44000 7.240
31.45000 8.125
31.46000 9.102
31.47000 8.209
31.48000 9.051
31.49000 7.125
31.50000 7.118
31.51000 5.102
31.52000 7.247
31.53000 10.128
31.54000 5.081
31.55000 9.135
31.56000 5.121
31.57000 5.072
31.58000 14.209
31.59000 9.171
31.60000 6.105
31.61000 9.322
31.62000 8.241
31.63000 9.277
31.64000 2.023
31.65000 7.096
31.66000 5.095
31.67000 11.255
31.68000 5.131
31.69000 5.028
31.70000 4.047
31.71000 0.000
31.72000 3.094
31.73000 4.060
31.74000 9.422
31.75000 5.082
31.76000 6.113
31.77000 5.133
31.78000 8.150
31.79000 7.152
31.80000 6.062
31.81000 3.047
31.82000 5.116
31.83000 5.115
31.84000 4.051
31.85000 7.181
31.86000 5.154
31.87000 4.088
31.88000 1.038
31.89000 11.182
31.90000 3.012
31.91000 7.249
31.92000 3.087
31.93000 6.096
31.94000 7.198
31.95000 8.194
31.96000 6.043
31.97000 4.034
31.98000 8.122
31.99000 8.059
32.00000 4.086
32.01000 7.178
32.02000 5.074
32.03000 7.033
32.04000 0.000
32.05000 6.103
32.06000 8.227
32.07000 6.183
32.08000 9.107
32.09000 4.012
32.10000 4.142
32.11000 9.255
32.12000 5.117
32.13000 7.141
32.14000 4.090
32.15000 6.127
32.16000 5.117
32.17000 13.387
32.18000 6.140
32.19000 7.170
32.20000 6.060
32.21000 7.079
32.22000 6.168
32.23000 5.193
32.24000 9.093
32.25000 4.034
32.26000 5.093
32.27000 7.213
32.28000 4.145
32.29000 4.123
32.30000 6.219
32.31000 8.161
32.32000 9.224
32.33000 6.057
32.34000 12.140
32.35000 4.148
32.36000 5.204
32.37000 11.119
32.38000 10.170
32.39000 7.222
32.40000 6.145
32.41000 4.113
32.42000 7.251
32.43000 0.984
32.44000 2.082
32.45000 5.136
32.46000 8.082
32.47000 2.033
32.48000 3.022
32.49000 7.047
32.50000 6.133
32.51000 5.034
32.52000 7.053
32.53000 7.010
32.54000 10.124
32.55000 5.059
32.56000 5.202
32.57000 4.038
32.58000 7.306
32.59000 4.052
32.60000 5.020
32.61000 5.101
32.62000 4.145
32.63000 3.056
32.64000 7.265
32.65000 3.022
32.66000 8.188
32.67000 6.110
32.68000 8.115
32.69000 9.092
32.70000 9.071
32.71000 6.047
32.72000 8.106
32.73000 5.203
32.74000 7.138
32.75000 3.049
32.76000 5.067
32.77000 10.067
32.78000 11.135
32.79000 11.107
32.80000 3.024
32.81000 5.137
32.82000 3.006
32.83000 5.185
32.84000 3.066
32.85000 5.047
32.86000 9.182
32.87000 4.137
32.88000 7.176
32.89000 11.128
32.90000 7.069
32.91000 8.044
32.92000 7.154
32.93000 4.078
32.94000 5.170
32.95000 2.005
32.96000 9.221
32.97000 5.071
32.98000 3.034
32.99000 8.097
33.00000 2.035
33.01000 8.142
33.02000 4.078
33.03000 9.162
33.04000 7.089
33.05000 8.033
33.06000 5.163
33.07000 5.044
33.08000 8.153
33.09000 5.149
33.10000 4.089
33.11000 5.144
33.12000 8.241
33.13000 3.070
33.14000 3.118
33.15000 7.079
33.16000 4.068
33.17000 2.998
33.18000 5.103
33.19000 1.013
33.20000 8.142
33.21000 2.025
33.22000 4.090
33.23000 4.145
33.24000 6.158
33.25000 3.112
33.26000 6.179
33.27000 10.236
33.28000 7.245
33.29000 5.094
33.30000 7.076
33.31000 6.039
33.32000 3.048
33.33000 6.145
33.34000 4.131
33.35000 6.092
33.36000 5.002
33.37000 6.058
33.38000 2.019
33.39000 7.074
33.40000 6.227
33.41000 3.096
33.42000 5.151
33.43000 7.205
33.44000 11.214
33.45000 4.138
33.46000 7.041
33.47000 8.125
33.48000 2.047
33.49000 5.090
33.50000 8.241
33.51000 5.114
33.52000 3.034
33.53000 6.180
33.54000 7.143
33.55000 5.133
33.56000 7.229
33.57000 5.112
33.58000 9.240
33.59000 4.085
33.60000 8.195
33.61000 7.194
33.62000 5.115
33.63000 5.094
33.64000 2.061
33.65000 4.082
33.66000 3.083
33.67000 6.010
33.68000 4.150
33.69000 5.105
33.70000 8.131
33.71000 5.124
33.72000 6.153
33.73000 9.241
33.74000 7.107
33.75000 9.087
33.76000 10.134
33.77000 3.063
33.78000 7.109
33.79000 5.105
33.80000 5.112
33.81000 3.027
33.82000 6.096
33.83000 8.163
33.84000 6.098
33.85000 5.033
33.86000 7.160
33.87000 5.136
33.88000 7.109
33.89000 5.081
33.90000 6.117
33.91000 5.128
33.92000 5.082
33.93000 6.094
33.94000 3.017
33.95000 4.051
33.96000 4.078
33.97000 10.062
33.98000 5.188
33.99000 7.102
34.00000 5.044
34.01000 6.136
34.02000 6.275
34.03000 11.241
34.04000 8.086
34.05000 6.137
34.06000 9.113
34.07000 4.105
34.08000 8.083
34.09000 6.086
34.10000 6.080
34.11000 9.094
34.12000 3.042
34.13000 8.254
34.14000 4.120
34.15000 7.076
34.16000 5.094
34.17000 3.045
34.18000 8.282
34.19000 4.035
34.20000 3.064
34.21000 7.222
34.22000 9.159
34.23000 6.129
34.24000 0.000
34.25000 6.184
34.26000 4.065
34.27000 4.100
34.28000 8.189
34.29000 6.141
34.30000 9.129
34.31000 3.075
34.32000 4.075
34.33000 4.029
34.34000 9.275
34.35000 6.175
34.36000 5.191
34.37000 4.062
34.38000 7.101
34.39000 4.022
34.40000 6.176
34.41000 4.049
34.42000 7.159
34.43000 13.309
34.44000 8.218
34.45000 5.083
34.46000 5.079
34.47000 5.055
34.48000 3.053
34.49000 5.163
34.50000 8.110
34.51000 1.023
34.52000 4.060
34.53000 3.022
34.54000 6.165
34.55000 5.052
34.56000 4.039
34.57000 6.114
34.58000 5.087
34.59000 9.206
34.60000 7.063
34.61000 3.062
34.62000 5.115
34.63000 6.084
34.64000 6.272
34.65000 6.071
34.66000 6.036
34.67000 5.055
34.68000 8.156
34.69000 8.185
34.70000 8.153
34.71000 9.129
34.72000 2.053
34.73000 5.104
34.74000 6.228
34.75000 5.076
34.76000 2.095
34.77000 5.056
34.78000 4.087
34.79000 6.121
34.80000 3.059
34.81000 7.057
34.82000 5.029
34.83000 1.061
34.84000 9.169
34.85000 5.179
34.86000 7.083
34.87000 6.212
34.88000 4.022
34.89000 7.247
34.90000 8.308
34.91000 6.066
34.92000 11.380
34.93000 7.102
34.94000 1.026
34.95000 5.109
34.96000 6.103
34.97000 1.079
34.98000 8.190
34.99000 4.125
35.00000 7.994
35.01000 5.119
35.02000 8.064
35.03000 3.170
35.04000 4.120
35.05000 1.069
35.06000 8.196
35.07000 6.069
35.08000 6.012
35.09000 7.134
35.10000 6.125
35.11000 2.003
35.12000 6.130
35.13000 8.165
35.14000 7.130
35.15000 3.066
35.16000 3.151
35.17000 8.015
35.18000 6.045
35.19000 7.187
35.20000 5.090
35.21000 8.280
35.22000 9.041
35.23000 2.000
35.24000 1.006
35.25000 6.156
35.26000 7.103
35.27000 10.144
35.28000 6.199
35.29000 7.193
35.30000 3.016
35.31000 4.087
35.32000 3.039
35.33000 7.146
35.34000 3.085
35.35000 6.181
35.36000 7.064
35.37000 2.021
35.38000 10.226
35.39000 5.133
35.40000 5.160
35.41000 6.124
35.42000 4.088
35.43000 7.085
35.44000 1.000
35.45000 4.146
35.46000 3.097
35.47000 3.036
35.48000 5.107
35.49000 3.053
35.50000 7.167
35.51000 6.129
35.52000 4.154
35.53000 8.083
35.54000 7.172
35.55000 7.128
35.56000 6.083
35.57000 5.096
35.58000 5.069
35.59000 10.109
35.60000 6.134
35.61000 5.062
35.62000 6.073
35.63000 5.099
35.64000 13.061
35.65000 0.000
35.66000 5.002
35.67000 9.118
35.68000 8.209
35.69000 7.139
35.70000 3.050
35.71000 3.999
35.72000 3.040
35.73000 8.071
35.74000 9.207
35.75000 4.160
35.76000 4.084
35.77000 5.171
35.78000 3.035
35.79000 2.068
35.80000 5.131
35.81000 5.112
35.82000 7.118
35.83000 1.007
35.84000 8.134
35.85000 4.195
35.86000 5.030
35.87000 7.064
35.88000 9.284
35.89000 9.328
35.90000 8.161
35.91000 6.047
35.92000 4.038
35.93000 9.070
35.94000 5.070
35.95000 4.061
35.96000 4.014
35.97000 8.078
35.98000 3.088
35.99000 3.114
36.00000 5.170
36.01000 5.082
36.02000 4.052
36.03000 4.127
36.04000 4.146
36.05000 10.136
36.06000 5.110
36.07000 6.178
36.08000 5.068
36.09000 6.096
36.10000 7.169
36.11000 0.987
36.12000 3.020
36.13000 8.185
36.14000 5.106
36.15000 2.099
36.16000 4.059
36.17000 6.142
36.18000 3.040
36.19000 2.037
36.20000 2.017
36.21000 5.055
36.22000 3.144
36.23000 7.118
36.24000 9.298
36.25000 4.103
36.26000 5.130
36.27000 4.118
36.28000 4.130
36.29000 5.124
36.30000 5.221
36.31000 2.032
36.32000 3.042
36.33000 6.061
36.34000 2.998
36.35000 3.054
36.36000 6.063
36.37000 6.167
36.38000 2.017
36.39000 5.164
36.40000 4.084
36.41000 2.004
36.42000 2.045
36.43000 6.038
36.44000 3.025
36.45000 6.059
36.46000 7.147
36.47000 6.210
36.48000 10.128
36.49000 4.115
36.50000 4.985
36.51000 1.012
36.52000 4.028
36.53000 8.172
36.54000 5.051
36.55000 2.016
36.56000 2.984
36.57000 4.074
36.58000 7.154
36.59000 5.108
36.60000 6.158
36.61000 6.085
36.62000 5.137
36.63000 5.124
36.64000 3.127
36.65000 7.119
36.66000 1.023
36.67000 0.000
36.68000 7.113
36.69000 7.083
36.70000 3.116
36.71000 2.109
36.72000 5.185
36.73000 4.177
36.74000 7.173
36.75000 6.040
36.76000 5.070
36.77000 5.076
36.78000 5.039
36.79000 4.043
36.80000 2.079
36.81000 5.137
36.82000 6.151
36.83000 2.077
36.84000 2.039
36.85000 5.217
36.86000 8.082
36.87000 7.060
36.88000 8.238
36.89000 5.068
36.90000 4.038
36.91000 6.092
36.92000 0.984
36.93000 5.161
36.94000 5.055
36.95000 7.140
36.96000 4.059
36.97000 4.006
36.98000 2.032
36.99000 4.118
37.00000 6.223
37.01000 8.259
37.02000 6.096
37.03000 5.153
37.04000 3.066
37.05000 8.189
37.06000 1.042
37.07000 9.025
37.08000 3.082
37.09000 4.111
37.10000 4.148
37.11000 10.071
37.12000 9.190
37.13000 4.103
37.14000 4.031
37.15000 5.066
37.16000 7.281
37.17000 9.052
37.18000 4.111
37.19000 5.118
37.20000 11.159
37.21000 4.078
37.22000 2.021
37.23000 12.181
37.24000 1.001
37.25000 1.034
37.26000 2.043
37.27000 3.049
37.28000 4.114
37.29000 5.206
37.30000 6.111
37.31000 8.228
37.32000 9.295
37.33000 2.014
37.34000 4.141
37.35000 7.174
37.36000 10.192
37.37000 7.272
37.38000 5.129
37.39000 4.062
37.40000 4.088
37.41000 4.134
37.42000 5.164
37.43000 3.049
37.44000 7.117
37.45000 8.251
37.46000 6.101
37.47000 6.059
37.48000 7.219
37.49000 3.102
37.50000 10.163
37.51000 4.060
37.52000 3.046
37.53000 8.125
37.54000 4.021
37.55000 3.032
37.56000 3.006
37.57000 7.116
37.58000 5.113
37.59000 5.132
37.60000 4.076
37.61000 4.122
37.62000 6.068
37.63000 4.193
37.64000 4.055
37.65000 7.159
37.66000 7.104
37.67000 4.028
37.68000 9.369
37.69000 4.042
37.70000 4.084
37.71000 6.152
37.72000 6.163
37.73000 5.155
37.74000 7.173
37.75000 7.200
37.76000 0.000
37.77000 2.005
37.78000 5.172
37.79000 4.243
37.80000 4.091
37.81000 6.114
37.82000 9.075
37.83000 7.067
37.84000 8.110
37.85000 6.088
37.86000 3.072
37.87000 4.050
37.88000 6.179
37.89000 6.077
37.90000 3.032
37.91000 6.108
37.92000 8.055
37.93000 13.337
37.94000 3.053
37.95000 5.165
37.96000 4.002
37.97000 6.155
37.98000 7.071
37.99000 3.056
38.00000 6.152
38.01000 11.344
38.02000 6.189
38.03000 5.054
38.04000 12.243
38.05000 5.062
38.06000 6.141
38.07000 10.362
38.08000 4.028
38.09000 6.093
38.10000 7.074
38.11000 5.116
38.12000 6.009
38.13000 8.120
38.14000 10.184
38.15000 7.094
38.16000 8.149
38.17000 8.173
38.18000 4.016
38.19000 13.352
38.20000 8.250
38.21000 6.045
38.22000 10.093
38.23000 3.107
38.24000 10.258
38.25000 9.265
38.26000 10.292
38.27000 9.202
38.28000 4.182
38.29000 5.053
38.30000 10.164
38.31000 9.128
38.32000 6.122
38.33000 4.071
38.34000 8.141
38.35000 9.218
38.36000 7.148
38.37000 7.142
38.38000 1.997
38.39000 5.034
38.40000 9.232
38.41000 2.994
38.42000 3.003
38.43000 8.149
38.44000 3.046
38.45000 8.023
38.46000 3.128
38.47000 6.093
38.48000 5.168
38.49000 7.094
38.50000 5.110
38.51000 2.049
38.52000 6.151
38.53000 8.233
38.54000 6.201
38.55000 5.198
38.56000 5.032
38.57000 8.196
38.58000 2.118
38.59000 4.035
38.60000 4.124
38.61000 7.169
38.62000 4.044
38.63000 5.142
38.64000 2.041
38.65000 4.083
38.66000 3.042
38.67000 10.178
38.68000 5.089
38.69000 7.084
38.70000 3.102
38.71000 8.118
38.72000 3.017
38.73000 8.238
38.74000 4.043
38.75000 5.146
38.76000 4.167
38.77000 2.084
38.78000 4.049
38.79000 4.138
38.80000 6.135
38.81000 6.084
38.82000 1.997
38.83000 4.006
38.84000 5.022
38.85000 1.976
38.86000 4.086
38.87000 6.202
38.88000 6.196
38.89000 4.067
38.90000 2.034
38.91000 6.152
38.92000 8.212
38.93000 4.079
38.94000 3.988
38.95000 6.141
38.96000 8.187
38.97000 3.965
38.98000 0.000
38.99000 2.012
39.00000 8.090
39.01000 5.108
39.02000 5.163
39.03000 3.054
39.04000 4.031
39.05000 8.089
39.06000 2.062
39.07000 2.029
39.08000 6.130
39.09000 5.038
39.10000 1.003
39.11000 3.063
39.12000 4.025
39.13000 2.039
39.14000 3.087
39.15000 5.185
39.16000 3.118
39.17000 5.065
39.18000 4.100
39.19000 8.152
39.20000 2.065
39.21000 4.130
39.22000 4.117
39.23000 5.090
39.24000 3.071
39.25000 2.020
39.26000 7.085
39.27000 10.246
39.28000 1.031
39.29000 7.262
39.30000 4.114
39.31000 0.981
39.32000 8.231
39.33000 3.037
39.34000 6.111
39.35000 4.071
39.36000 6.062
39.37000 9.149
39.38000 2.046
39.39000 5.065
39.40000 4.057
39.41000 10.079
39.42000 1.065
39.43000 7.166
39.44000 5.141
39.45000 9.033
39.46000 6.092
39.47000 4.079
39.48000 4.050
39.49000 3.019
39.50000 5.102
39.51000 5.000
39.52000 6.089
39.53000 4.142
39.54000 3.047
39.55000 3.074
39.56000 5.111
39.57000 4.071
39.58000 6.114
39.59000 3.050
39.60000 6.109
39.61000 9.155
39.62000 1.030
39.63000 5.158
39.64000 5.056
39.65000 2.004
39.66000 6.050
39.67000 4.016
39.68000 3.069
39.69000 9.105
39.70000 7.111
39.71000 9.183
39.72000 4.110
39.73000 4.115
39.74000 3.049
39.75000 7.074
39.76000 5.002
39.77000 4.133
39.78000 2.045
39.79000 9.133
39.80000 1.007
39.81000 5.119
39.82000 10.199
39.83000 6.095
39.84000 4.160
39.85000 6.156
39.86000 5.091
39.87000 4.031
39.88000 3.051
39.89000 4.023
39.90000 1.991
39.91000 6.136
39.92000 7.154
39.93000 8.133
39.94000 5.138
39.95000 4.059
39.96000 0.984
39.97000 9.198
39.98000 7.032
39.99000 9.114
40.00000 6.141
40.01000 5.027
40.02000 7.055
40.03000 7.235
40.04000 10.227
40.05000 9.166
40.06000 5.057
40.07000 2.014
40.08000 2.058
40.09000 5.050
40.10000 7.123
40.11000 4.063
40.12000 3.045
40.13000 6.078
40.14000 4.058
40.15000 3.127
40.16000 2.018
40.17000 6.075
40.18000 6.143
40.19000 3.084
40.20000 4.086
40.21000 5.128
40.22000 3.010
40.23000 4.127
40.24000 3.991
40.25000 4.013
40.26000 8.045
40.27000 6.153
40.28000 4.139
40.29000 6.219
40.30000 4.097
40.31000 4.060
40.32000 5.049
40.33000 4.112
40.34000 3.024
40.35000 6.118
40.36000 3.076
40.37000 2.098
40.38000 3.047
40.39000 2.046
40.40000 7.084
40.41000 0.985
40.42000 7.197
40.43000 6.158
40.44000 5.063
40.45000 3.045
40.46000 4.092
40.47000 4.109
40.48000 5.146
40.49000 5.038
40.50000 2.016
40.51000 4.005
40.52000 3.024
40.53000 6.090
40.54000 7.071
40.55000 4.108
40.56000 2.127
40.57000 6.120
40.58000 2.005
40.59000 5.078
40.60000 9.268
40.61000 3.070
40.62000 5.044
40.63000 3.122
40.64000 6.103
40.65000 2.054
40.66000 2.069
40.67000 3.108
40.68000 1.003
40.69000 3.062
40.70000 4.110
40.71000 6.073
40.72000 3.050
40.73000 4.074
40.74000 5.012
40.75000 3.083
40.76000 2.047
40.77000 1.962
40.78000 4.034
40.79000 3.150
40.80000 2.114
40.81000 5.092
40.82000 5.064
40.83000 6.179
40.84000 3.069
40.85000 1.002
40.86000 6.100
40.87000 7.178
40.88000 2.032
40.89000 4.068
40.90000 8.131
40.91000 8.184
40.92000 6.071
40.93000 10.243
40.94000 6.123
40.95000 2.056
40.96000 2.981
40.97000 3.050
40.98000 1.036
40.99000 5.161
41.00000 6.157
41.01000 6.019
41.02000 6.089
41.03000 5.143
41.04000 7.146
41.05000 2.993
41.06000 4.132
41.07000 7.093
41.08000 4.046
41.09000 3.015
41.10000 6.087
41.11000 6.120
41.12000 4.072
41.13000 4.038
41.14000 2.042
41.15000 5.005
41.16000 1.002
41.17000 4.070
41.18000 5.095
41.19000 9.136
41.20000 2.049
41.21000 3.075
41.22000 6.305
41.23000 0.989
41.24000 6.207
41.25000 1.996
41.26000 5.250
41.27000 4.081
41.28000 4.026
41.29000 4.120
41.30000 5.102
41.31000 3.043
41.32000 7.212
41.33000 4.038
41.34000 4.058
41.35000 7.182
41.36000 5.038
41.37000 6.100
41.38000 5.085
41.39000 2.018
41.40000 7.035
41.41000 3.105
41.42000 4.181
41.43000 4.083
41.44000 2.014
41.45000 4.068
41.46000 7.057
41.47000 2.025
41.48000 6.080
41.49000 9.295
41.50000 4.008
41.51000 2.061
41.52000 5.184
41.53000 8.112
41.54000 4.120
41.55000 13.231
41.56000 5.088
41.57000 5.194
41.58000 4.034
41.59000 1.001
41.60000 3.033
41.61000 3.091
41.62000 7.138
41.63000 13.226
41.64000 3.023
41.65000 5.088
41.66000 3.064
41.67000 2.004
41.68000 9.267
41.69000 5.029
41.70000 6.092
41.71000 3.044
41.72000 3.003
41.73000 8.184
41.74000 4.138
41.75000 5.102
41.76000 1.988
41.77000 2.060
41.78000 7.139
41.79000 4.002
41.80000 4.057
41.81000 7.214
41.82000 8.148
41.83000 5.153
41.84000 2.991
41.85000 5.197
41.86000 5.055
41.87000 1.018
41.88000 7.112
41.89000 12.218
41.90000 3.043
41.91000 6.144
41.92000 1.015
41.93000 4.142
41.94000 3.159
41.95000 2.066
41.96000 5.097
41.97000 4.075
41.98000 8.251
41.99000 3.032
42.00000 2.994
42.01000 2.023
42.02000 10.135
42.03000 5.122
42.04000 5.154
42.05000 2.006
42.06000 3.071
42.07000 3.092
42.08000 7.095
42.09000 6.039
42.10000 0.000
42.11000 4.182
42.12000 8.201
42.13000 8.276
42.14000 4.038
42.15000 2.081
42.16000 8.151
42.17000 2.057
42.18000 2.077
42.19000 4.203
42.20000 7.122
42.21000 6.053
42.22000 7.225
42.23000 9.178
42.24000 3.048
42.25000 3.053
42.26000 9.052
42.27000 3.111
42.28000 3.155
42.29000 8.150
42.30000 7.131
42.31000 5.145
42.32000 4.067
42.33000 2.056
42.34000 3.093
42.35000 7.216
42.36000 8.113
42.37000 5.034
42.38000 9.068
42.39000 5.123
42.40000 6.135
42.41000 10.184
42.42000 2.095
42.43000 4.013
42.44000 5.057
42.45000 5.178
42.46000 9.102
42.47000 6.034
42.48000 6.241
42.49000 5.133
42.50000 11.195
42.51000 10.105
42.52000 8.169
42.53000 6.152
42.54000 6.080
42.55000 8.032
42.56000 5.151
42.57000 5.089
42.58000 7.063
42.59000 10.240
42.60000 2.076
42.61000 9.166
42.62000 7.068
42.63000 10.142
42.64000 11.190
42.65000 12.104
42.66000 11.147
42.67000 5.022
42.68000 6.078
42.69000 19.403
42.70000 17.407
42.71000 11.278
42.72000 16.467
42.73000 19.613
42.74000 18.441
42.75000 16.407
42.76000 12.082
42.77000 11.096
42.78000 18.332
42.79000 9.155
42.80000 18.449
42.81000 14.258
42.82000 30.610
42.83000 13.395
42.84000 14.270
42.85000 19.488
42.86000 15.245
42.87000 16.226
42.88000 16.476
42.89000 20.371
42.90000 25.569
42.91000 17.417
42.92000 21.297
42.93000 14.363
42.94000 16.291
42.95000 23.477
42.96000 25.494
42.97000 16.201
42.98000 15.619
42.99000 26.505
43.00000 20.390
43.01000 20.364
43.02000 21.592
43.03000 16.368
43.04000 19.467
43.05000 13.264
43.06000 14.280
43.07000 21.460
43.08000 17.363
43.09000 15.409
43.10000 15.270
43.11000 19.437
43.12000 12.236
43.13000 17.405
43.14000 20.418
43.15000 15.324
43.16000 14.315
43.17000 10.230
43.18000 15.336
43.19000 7.240
43.20000 4.116
43.21000 4.162
43.22000 10.170
43.23000 9.222
43.24000 10.217
43.25000 10.232
43.26000 7.152
43.27000 11.156
43.28000 10.195
43.29000 8.007
43.30000 7.266
43.31000 6.122
43.32000 9.117
43.33000 5.039
43.34000 4.085
43.35000 3.146
43.36000 5.079
43.37000 5.119
43.38000 7.169
43.39000 3.054
43.40000 4.094
43.41000 9.302
43.42000 10.131
43.43000 3.103
43.44000 6.121
43.45000 5.167
43.46000 5.029
43.47000 4.092
43.48000 3.084
43.49000 4.053
43.50000 9.203
43.51000 10.326
43.52000 8.227
43.53000 6.266
43.54000 4.015
43.55000 7.092
43.56000 6.073
43.57000 9.230
43.58000 3.086
43.59000 6.135
43.60000 4.110
43.61000 8.086
43.62000 3.031
43.63000 2.003
43.64000 1.022
43.65000 8.112
43.66000 8.121
43.67000 7.183
43.68000 1.027
43.69000 6.090
43.70000 5.061
43.71000 10.152
43.72000 8.204
43.73000 6.063
43.74000 1.046
43.75000 3.133
43.76000 3.997
43.77000 7.185
43.78000 7.142
43.79000 3.040
43.80000 9.174
43.81000 3.044
43.82000 6.227
43.83000 2.005
43.84000 4.110
43.85000 4.047
43.86000 5.167
43.87000 4.066
43.88000 9.180
43.89000 3.051
43.90000 3.038
43.91000 5.007
43.92000 5.069
43.93000 1.000
43.94000 3.057
43.95000 6.078
43.96000 1.998
43.97000 8.200
43.98000 5.109
43.99000 8.070
44.00000 5.033
44.01000 7.086
44.02000 4.048
44.03000 5.080
44.04000 7.085
44.05000 8.087
44.06000 7.065
44.07000 5.079
44.08000 9.206
44.09000 4.106
44.10000 5.231
44.11000 12.261
44.12000 1.058
44.13000 2.063
44.14000 8.157
44.15000 7.145
44.16000 6.151
44.17000 8.200
44.18000 2.037
44.19000 10.309
44.20000 4.014
44.21000 10.225
44.22000 5.045
44.23000 6.110
44.24000 10.170
44.25000 6.172
44.26000 9.152
44.27000 9.166
44.28000 4.082
44.29000 2.026
44.30000 6.069
44.31000 9.280
44.32000 5.119
44.33000 2.032
44.34000 5.982
44.35000 7.185
44.36000 4.068
44.37000 8.132
44.38000 6.141
44.39000 2.071
44.40000 8.146
44.41000 5.111
44.42000 5.243
44.43000 6.098
44.44000 7.033
44.45000 6.049
44.46000 4.116
44.47000 2.132
44.48000 8.175
44.49000 3.058
44.50000 7.152
44.51000 4.144
44.52000 5.056
44.53000 7.137
44.54000 7.122
44.55000 8.103
44.56000 3.094
44.57000 9.239
44.58000 4.053
44.59000 6.080
44.60000 5.083
44.61000 5.108
44.62000 8.136
44.63000 6.064
44.64000 6.173
44.65000 4.019
44.66000 4.112
44.67000 5.093
44.68000 7.114
44.69000 5.200
44.70000 6.104
44.71000 10.104
44.72000 6.085
44.73000 3.137
44.74000 3.105
44.75000 6.175
44.76000 7.163
44.77000 4.135
44.78000 1.023
44.79000 7.189
44.80000 7.095
44.81000 6.087
44.82000 3.024
44.83000 5.157
44.84000 2.019
44.85000 2.003
44.86000 3.095
44.87000 3.027
44.88000 7.130
44.89000 5.139
44.90000 4.101
44.91000 8.138
44.92000 4.104
44.93000 6.165
44.94000 6.193
44.95000 5.076
44.96000 4.058
44.97000 5.121
44.98000 5.122
44.99000 11.095
45.00000 9.143
45.01000 4.117
45.02000 6.210
45.03000 1.994
45.04000 6.142
45.05000 4.099
45.06000 3.013
45.07000 3.991
45.08000 4.114
45.09000 3.045
45.10000 5.068
45.11000 0.981
45.12000 5.090
45.13000 7.121
45.14000 4.084
45.15000 8.120
45.16000 4.134
45.17000 3.048
45.18000 4.123
45.19000 5.086
45.20000 2.055
45.21000 3.037
45.22000 6.135
45.23000 4.046
45.24000 4.072
45.25000 6.093
45.26000 7.278
45.27000 3.018
45.28000 5.074
45.29000 2.056
45.30000 6.047
45.31000 11.206
45.32000 4.061
45.33000 2.032
45.34000 5.132
45.35000 3.993
45.36000 5.067
45.37000 3.992
45.38000 3.011
45.39000 3.981
45.40000 2.063
45.41000 6.065
45.42000 3.083
45.43000 4.009
45.44000 5.146
45.45000 2.028
45.46000 5.095
45.47000 5.152
45.48000 5.156
45.49000 1.029
45.50000 3.075
45.51000 2.009
45.52000 2.047
45.53000 3.140
45.54000 7.052
45.55000 1.010
45.56000 9.180
45.57000 4.049
45.58000 2.000
45.59000 6.149
45.60000 5.130
45.61000 6.073
45.62000 5.078
45.63000 3.998
45.64000 3.028
45.65000 3.092
45.66000 7.116
45.67000 3.040
45.68000 4.116
45.69000 4.084
45.70000 3.021
45.71000 4.039
45.72000 5.011
45.73000 2.090
45.74000 4.051
45.75000 2.043
45.76000 3.173
45.77000 8.128
45.78000 2.100
45.79000 2.009
45.80000 2.056
45.81000 2.986
45.82000 1.017
45.83000 3.058
45.84000 3.054
45.85000 0.000
45.86000 5.145
45.87000 3.013
45.88000 3.000
45.89000 3.145
45.90000 2.031
45.91000 3.119
45.92000 8.195
45.93000 2.011
45.94000 9.177
45.95000 4.046
45.96000 6.088
45.97000 4.094
45.98000 4.047
45.99000 4.072
46.00000 4.060
46.01000 5.992
46.02000 6.092
46.03000 8.151
46.04000 5.133
46.05000 11.153
46.06000 9.024
46.07000 6.104
46.08000 4.047
46.09000 1.995
46.10000 4.992
46.11000 3.075
46.12000 2.031
46.13000 3.075
46.14000 2.019
46.15000 1.007
46.16000 5.196
46.17000 8.083
46.18000 3.098
46.19000 0.000
46.20000 2.024
46.21000 5.071
46.22000 3.068
46.23000 5.045
46.24000 1.008
46.25000 4.064
46.26000 6.110
46.27000 6.021
46.28000 3.029
46.29000 6.032
46.30000 6.230
46.31000 4.095
46.32000 3.044
46.33000 3.037
46.34000 1.010
46.35000 3.091
46.36000 1.000
46.37000 6.081
46.38000 3.074
46.39000 3.090
46.40000 3.060
46.41000 0.000
46.42000 6.128
46.43000 5.102
46.44000 4.026
46.45000 5.147
46.46000 3.043
46.47000 5.116
46.48000 6.068
46.49000 4.031
46.50000 3.073
46.51000 2.083
46.52000 6.114
46.53000 7.116
46.54000 4.037
46.55000 6.207
46.56000 1.055
46.57000 7.138
46.58000 1.006
46.59000 3.051
46.60000 4.069
46.61000 5.136
46.62000 6.075
46.63000 3.063
46.64000 8.137
46.65000 7.087
46.66000 4.014
46.67000 2.032
46.68000 7.146
46.69000 5.029
46.70000 1.013
46.71000 3.037
46.72000 4.088
46.73000 3.069
46.74000 0.000
46.75000 6.155
46.76000 3.068
46.77000 2.045
46.78000 6.085
46.79000 6.173
46.80000 5.046
46.81000 4.108
46.82000 2.067
46.83000 5.137
46.84000 1.991
46.85000 5.068
46.86000 6.172
46.87000 2.027
46.88000 2.058
46.89000 2.982
46.90000 2.102
46.91000 5.035
46.92000 4.122
46.93000 4.049
46.94000 2.073
46.95000 4.056
46.96000 3.109
46.97000 5.079
46.98000 1.002
46.99000 4.079
47.00000 6.268
47.01000 4.079
47.02000 2.103
47.03000 6.162
47.04000 1.016
47.05000 5.011
47.06000 4.002
47.07000 6.140
47.08000 6.165
47.09000 2.044
47.10000 6.133
47.11000 3.095
47.12000 6.129
47.13000 3.058
47.14000 4.070
47.15000 0.982
47.16000 6.227
47.17000 5.123
47.18000 6.058
47.19000 6.078
47.20000 6.174
47.21000 3.005
47.22000 10.236
47.23000 4.045
47.24000 5.202
47.25000 5.152
47.26000 2.100
47.27000 3.039
47.28000 2.995
47.29000 3.074
47.30000 6.236
47.31000 3.076
47.32000 6.073
47.33000 4.118
47.34000 2.007
47.35000 7.038
47.36000 9.163
47.37000 0.999
47.38000 2.116
47.39000 4.970
47.40000 5.186
47.41000 3.061
47.42000 3.109
47.43000 2.050
47.44000 4.037
47.45000 0.000
47.46000 5.137
47.47000 3.041
47.48000 8.168
47.49000 3.004
47.50000 3.030
47.51000 2.114
47.52000 2.026
47.53000 5.086
47.54000 3.026
47.55000 1.004
47.56000 0.989
47.57000 6.163
47.58000 3.133
47.59000 4.051
47.60000 3.059
47.61000 6.156
47.62000 5.092
47.63000 4.159
47.64000 2.112
47.65000 2.077
47.66000 6.165
47.67000 3.125
47.68000 4.114
47.69000 5.172
47.70000 5.061
47.71000 7.128
47.72000 4.111
47.73000 1.063
47.74000 3.067
47.75000 4.104
47.76000 2.048
47.77000 6.124
47.78000 4.079
47.79000 6.100
47.80000 4.092
47.81000 3.088
47.82000 8.144
47.83000 3.095
47.84000 4.107
47.85000 0.985
47.86000 3.994
47.87000 4.036
47.88000 5.127
47.89000 1.070
47.90000 2.036
47.91000 8.020
47.92000 5.130
47.93000 2.020
47.94000 9.219
47.95000 3.032
47.96000 3.023
47.97000 3.067
47.98000 2.038
47.99000 5.110
48.00000 4.036
48.01000 5.090
48.02000 8.107
48.03000 2.082
48.04000 7.082
48.05000 3.052
48.06000 4.162
48.07000 4.065
48.08000 6.113
48.09000 8.148
48.10000 7.096
48.11000 6.061
48.12000 5.118
48.13000 3.143
48.14000 3.039
48.15000 2.036
48.16000 1.019
48.17000 4.200
48.18000 3.027
48.19000 4.035
48.20000 2.023
48.21000 5.174
48.22000 2.086
48.23000 2.024
48.24000 7.161
48.25000 3.073
48.26000 4.116
48.27000 5.088
48.28000 6.131
48.29000 4.163
48.30000 8.187
48.31000 4.106
48.32000 2.007
48.33000 2.080
48.34000 1.049
48.35000 4.102
48.36000 5.096
48.37000 1.026
48.38000 2.010
48.39000 4.199
48.40000 1.012
48.41000 5.080
48.42000 4.168
48.43000 3.075
48.44000 3.035
48.45000 5.060
48.46000 3.052
48.47000 3.067
48.48000 5.187
48.49000 5.084
48.50000 3.091
48.51000 3.057
48.52000 4.215
48.53000 3.098
48.54000 5.122
48.55000 4.096
48.56000 8.129
48.57000 3.098
48.58000 3.973
48.59000 3.015
48.60000 2.027
48.61000 1.001
48.62000 5.083
48.63000 3.056
48.64000 8.211
48.65000 3.165
48.66000 1.036
48.67000 1.084
48.68000 4.171
48.69000 6.062
48.70000 4.169
48.71000 6.194
48.72000 2.049
48.73000 1.011
48.74000 6.145
48.75000 3.090
48.76000 7.052
48.77000 2.080
48.78000 0.000
48.79000 5.059
48.80000 1.005
48.81000 3.093
48.82000 4.044
48.83000 8.188
48.84000 2.977
48.85000 2.039
48.86000 9.114
48.87000 5.175
48.88000 2.029
48.89000 4.110
48.90000 1.011
48.91000 5.126
48.92000 5.159
48.93000 10.109
48.94000 3.096
48.95000 7.140
48.96000 3.009
48.97000 4.025
48.98000 0.000
48.99000 2.040
49.00000 4.115
49.01000 5.088
49.02000 6.104
49.03000 1.009
49.04000 5.156
49.05000 5.029
49.06000 1.987
49.07000 4.024
49.08000 2.054
49.09000 4.144
49.10000 1.043
49.11000 4.103
49.12000 0.000
49.13000 4.046
49.14000 2.015
49.15000 2.057
49.16000 3.072
49.17000 4.161
49.18000 2.022
49.19000 3.052
49.20000 2.030
49.21000 4.070
49.22000 2.050
49.23000 1.070
49.24000 5.088
49.25000 3.040
49.26000 4.024
49.27000 4.064
49.28000 6.097
49.29000 4.088
49.30000 6.074
49.31000 6.206
49.32000 5.031
49.33000 6.058
49.34000 2.989
49.35000 1.012
49.36000 5.035
49.37000 5.165
49.38000 9.174
49.39000 3.145
49.40000 0.000
49.41000 5.140
49.42000 8.071
49.43000 2.018
49.44000 1.002
49.45000 4.064
49.46000 7.141
49.47000 6.084
49.48000 1.040
49.49000 4.107
49.50000 4.048
49.51000 5.001
49.52000 4.046
49.53000 7.057
49.54000 4.184
49.55000 2.029
49.56000 7.171
49.57000 3.169
49.58000 2.047
49.59000 5.079
49.60000 4.071
49.61000 5.040
49.62000 6.042
49.63000 11.137
49.64000 4.081
49.65000 3.181
49.66000 2.054
49.67000 4.157
49.68000 6.051
49.69000 5.128
49.70000 5.194
49.71000 7.173
49.72000 2.053
49.73000 3.033
49.74000 4.979
49.75000 1.992
49.76000 4.070
49.77000 1.075
49.78000 5.088
49.79000 5.108
49.80000 9.161
49.81000 2.009
49.82000 2.994
49.83000 4.190
49.84000 7.178
49.85000 5.115
49.86000 5.154
49.87000 4.997
49.88000 1.051
49.89000 7.158
49.90000 5.093
49.91000 3.072
49.92000 2.049
49.93000 3.057
49.94000 3.071
49.95000 7.047
49.96000 4.074
49.97000 4.083
49.98000 2.007
49.99000 6.048
50.00000 3.104
50.01000 4.102
50.02000 3.084
50.03000 5.097
50.04000 2.040
50.05000 4.089
50.06000 1.040
50.07000 0.000
50.08000 2.095
50.09000 1.978
50.10000 9.259
50.11000 1.021
50.12000 3.072
50.13000 7.164
50.14000 7.240
50.15000 0.000
50.16000 4.073
50.17000 1.044
50.18000 5.129
50.19000 3.063
50.20000 2.056
50.21000 7.247
50.22000 3.091
50.23000 5.032
50.24000 2.062
50.25000 6.055
50.26000 4.007
50.27000 3.005
50.28000 7.071
50.29000 3.086
50.30000 0.998
50.31000 6.169
50.32000 4.000
50.33000 5.092
50.34000 0.984
50.35000 1.005
50.36000 4.084
50.37000 1.007
50.38000 4.077
50.39000 4.081
50.40000 4.112
50.41000 0.000
50.42000 2.984
50.43000 2.019
50.44000 6.103
50.45000 3.019
50.46000 5.084
50.47000 4.068
50.48000 2.023
50.49000 7.093
50.50000 6.057
50.51000 1.007
50.52000 4.005
50.53000 4.076
50.54000 5.115
50.55000 1.005
50.56000 1.004
50.57000 5.188
50.58000 1.981
50.59000 5.059
50.60000 4.090
50.61000 3.037
50.62000 7.256
50.63000 3.028
50.64000 6.088
50.65000 4.063
50.66000 5.088
50.67000 1.999
50.68000 4.109
50.69000 6.114
50.70000 8.202
50.71000 3.067
50.72000 5.996
50.73000 3.032
50.74000 6.135
50.75000 4.144
50.76000 2.984
50.77000 4.038
50.78000 3.093
50.79000 4.178
50.80000 4.143
50.81000 1.009
50.82000 2.054
50.83000 4.144
50.84000 1.021
50.85000 7.030
50.86000 1.993
50.87000 9.120
50.88000 5.143
50.89000 0.000
50.90000 2.068
50.91000 3.000
50.92000 2.958
50.93000 2.003
50.94000 3.064
50.95000 5.030
50.96000 1.076
50.97000 1.991
50.98000 4.065
50.99000 2.044
51.00000 4.013
51.01000 5.070
51.02000 6.079
51.03000 4.073
51.04000 3.038
51.05000 2.030
51.06000 4.095
51.07000 6.073
51.08000 5.160
51.09000 2.037
51.10000 1.041
51.11000 5.241
51.12000 1.997
51.13000 3.990
51.14000 3.117
51.15000 4.001
51.16000 4.080
51.17000 4.093
51.18000 6.200
51.19000 4.029
51.20000 7.164
51.21000 6.036
51.22000 3.100
51.23000 8.065
51.24000 2.059
51.25000 0.000
51.26000 7.041
51.27000 0.990
51.28000 4.033
51.29000 8.256
51.30000 6.134
51.31000 1.026
51.32000 1.000
51.33000 1.023
51.34000 4.052
51.35000 6.179
51.36000 2.999
51.37000 0.987
51.38000 5.026
51.39000 6.061
51.40000 3.077
51.41000 3.077
51.42000 3.050
51.43000 1.991
51.44000 2.036
51.45000 3.076
51.46000 4.116
51.47000 3.135
51.48000 5.020
51.49000 4.202
51.50000 6.058
51.51000 1.033
51.52000 2.039
51.53000 3.022
51.54000 3.009
51.55000 0.000
51.56000 4.061
51.57000 4.051
51.58000 4.032
51.59000 3.016
51.60000 4.070
51.61000 0.997
51.62000 4.057
51.63000 3.118
51.64000 2.014
51.65000 6.140
51.66000 4.103
51.67000 2.068
51.68000 4.999
51.69000 5.078
51.70000 6.132
51.71000 7.231
51.72000 8.098
51.73000 2.004
51.74000 6.096
51.75000 2.064
51.76000 2.060
51.77000 7.126
51.78000 4.076
51.79000 7.131
51.80000 5.022
51.81000 5.051
51.82000 3.054
51.83000 3.056
51.84000 4.066
51.85000 5.109
51.86000 3.023
51.87000 4.027
51.88000 5.089
51.89000 3.027
51.90000 4.043
51.91000 9.200
51.92000 3.083
51.93000 3.111
51.94000 3.009
51.95000 2.068
51.96000 7.160
51.97000 4.046
51.98000 8.079
51.99000 6.141
52.00000 5.057
52.01000 4.099
52.02000 5.999
52.03000 3.077
52.04000 5.180
52.05000 3.078
52.06000 5.056
52.07000 1.071
52.08000 1.995
52.09000 4.116
52.10000 6.117
52.11000 3.038
52.12000 5.205
52.13000 9.139
52.14000 2.036
52.15000 4.068
52.16000 3.998
52.17000 6.231
52.18000 6.176
52.19000 5.148
52.20000 5.092
52.21000 4.102
52.22000 2.058
52.23000 3.030
52.24000 5.110
52.25000 2.028
52.26000 4.005
52.27000 7.108
52.28000 6.205
52.29000 3.071
52.30000 3.096
52.31000 4.067
52.32000 4.143
52.33000 5.996
52.34000 0.969
52.35000 2.020
52.36000 2.018
52.37000 5.088
52.38000 5.134
52.39000 4.130
52.40000 9.137
52.41000 8.242
52.42000 3.119
52.43000 3.030
52.44000 2.022
52.45000 4.063
52.46000 5.024
52.47000 4.129
52.48000 0.986
52.49000 7.121
52.50000 3.030
52.51000 2.049
52.52000 4.087
52.53000 3.123
52.54000 3.141
52.55000 3.077
52.56000 4.054
52.57000 6.055
52.58000 5.068
52.59000 5.149
52.60000 2.055
52.61000 8.103
52.62000 6.226
52.63000 5.155
52.64000 3.110
52.65000 3.011
52.66000 5.061
52.67000 4.020
52.68000 1.033
52.69000 3.018
52.70000 4.999
52.71000 3.050
52.72000 3.105
52.73000 3.077
52.74000 5.121
52.75000 2.054
52.76000 2.082
52.77000 2.064
52.78000 7.037
52.79000 5.024
52.80000 1.033
52.81000 4.034
52.82000 4.152
52.83000 2.032
52.84000 2.054
52.85000 6.094
52.86000 4.109
52.87000 3.097
52.88000 2.044
52.89000 6.147
52.90000 5.139
52.91000 2.998
52.92000 5.144
52.93000 2.008
52.94000 3.073
52.95000 4.096
52.96000 5.142
52.97000 4.137
52.98000 1.085
52.99000 6.105
53.00000 1.994
53.01000 5.129
53.02000 3.068
53.03000 4.030
53.04000 2.042
53.05000 2.050
53.06000 2.126
53.07000 7.186
53.08000 9.228
53.09000 2.017
53.10000 5.089
53.11000 5.095
53.12000 4.010
53.13000 2.011
53.14000 4.132
53.15000 4.002
53.16000 1.033
53.17000 2.095
53.18000 5.021
53.19000 4.056
53.20000 2.036
53.21000 1.123
53.22000 2.976
53.23000 8.114
53.24000 3.036
53.25000 3.057
53.26000 1.987
53.27000 4.058
53.28000 4.071
53.29000 7.148
53.30000 6.119
53.31000 2.994
53.32000 3.047
53.33000 4.086
53.34000 1.972
53.35000 3.127
53.36000 6.066
53.37000 3.033
53.38000 1.014
53.39000 3.115
53.40000 3.031
53.41000 2.096
53.42000 4.089
53.43000 7.177
53.44000 2.017
53.45000 3.072
53.46000 2.012
53.47000 2.047
53.48000 2.089
53.49000 3.041
53.50000 1.025
53.51000 2.029
53.52000 6.238
53.53000 1.000
53.54000 5.193
53.55000 2.056
53.56000 5.032
53.57000 1.006
53.58000 6.251
53.59000 2.018
53.60000 3.004
53.61000 8.206
53.62000 8.243
53.63000 4.114
53.64000 3.025
53.65000 1.004
53.66000 3.047
53.67000 4.174
53.68000 3.105
53.69000 5.142
53.70000 5.059
53.71000 4.065
53.72000 3.092
53.73000 3.097
53.74000 0.000
53.75000 1.004
53.76000 3.134
53.77000 4.142
53.78000 2.981
53.79000 0.000
53.80000 5.122
53.81000 3.079
53.82000 2.031
53.83000 5.167
53.84000 4.102
53.85000 4.111
53.86000 2.057
53.87000 2.003
53.88000 3.088
53.89000 6.130
53.90000 6.034
53.91000 0.990
53.92000 5.131
53.93000 3.060
53.94000 6.215
53.95000 5.089
53.96000 2.059
53.97000 1.991
53.98000 8.227
53.99000 3.062
54.00000 2.029
54.01000 5.124
54.02000 3.048
54.03000 2.044
54.04000 2.052
54.05000 7.107
54.06000 3.069
54.07000 1.986
54.08000 2.019
54.09000 2.014
54.10000 4.030
54.11000 2.036
54.12000 2.188
54.13000 5.088
54.14000 6.112
54.15000 5.124
54.16000 4.105
54.17000 2.068
54.18000 7.156
54.19000 5.045
54.20000 3.141
54.21000 6.062
54.22000 5.149
54.23000 4.045
54.24000 4.075
54.25000 4.074
54.26000 3.013
54.27000 5.096
54.28000 2.021
54.29000 1.009
54.30000 0.997
54.31000 2.053
54.32000 1.043
54.33000 3.147
54.34000 1.998
54.35000 3.062
54.36000 8.141
54.37000 6.120
54.38000 0.000
54.39000 3.065
54.40000 1.020
54.41000 4.180
54.42000 3.027
54.43000 5.177
54.44000 3.021
54.45000 5.084
54.46000 4.030
54.47000 3.055
54.48000 6.141
54.49000 3.025
54.50000 5.098
54.51000 4.037
54.52000 4.015
54.53000 2.015
54.54000 1.005
54.55000 3.028
54.56000 4.033
54.57000 7.120
54.58000 0.000
54.59000 8.125
54.60000 2.007
54.61000 8.155
54.62000 3.107
54.63000 3.020
54.64000 5.099
54.65000 3.099
54.66000 1.026
54.67000 3.040
54.68000 4.028
54.69000 2.068
54.70000 6.048
54.71000 4.109
54.72000 4.143
54.73000 3.090
54.74000 5.078
54.75000 6.115
54.76000 2.039
54.77000 2.012
54.78000 0.998
54.79000 4.056
54.80000 2.083
54.81000 3.065
54.82000 0.000
54.83000 6.100
54.84000 4.090
54.85000 1.979
54.86000 2.073
54.87000 3.075
54.88000 6.118
54.89000 4.040
54.90000 3.094
54.91000 4.128
54.92000 6.258
54.93000 4.092
54.94000 5.137
54.95000 2.074
54.96000 3.063
54.97000 2.046
54.98000 4.045
54.99000 0.996
55.00000 2.039
55.01000 4.037
55.02000 4.099
55.03000 6.146
55.04000 3.059
55.05000 4.030
55.06000 3.002
55.07000 2.038
55.08000 3.045
55.09000 5.138
55.10000 2.997
55.11000 0.000
55.12000 2.019
55.13000 7.147
55.14000 4.066
55.15000 4.028
55.16000 5.115
55.17000 6.059
55.18000 2.059
55.19000 2.107
55.20000 7.100
55.21000 3.123
55.22000 7.121
55.23000 4.164
55.24000 7.034
55.25000 3.144
55.26000 7.117
55.27000 2.116
55.28000 3.055
55.29000 6.106
55.30000 6.094
55.31000 7.082
55.32000 4.081
55.33000 1.990
55.34000 5.217
55.35000 1.013
55.36000 6.016
55.37000 0.998
55.38000 7.039
55.39000 3.121
55.40000 5.075
55.41000 4.089
55.42000 2.097
55.43000 3.997
55.44000 4.068
55.45000 4.048
55.46000 3.104
55.47000 3.081
55.48000 5.092
55.49000 7.083
55.50000 4.153
55.51000 5.062
55.52000 4.088
55.53000 4.064
55.54000 6.165
55.55000 1.031
55.56000 3.071
55.57000 5.166
55.58000 5.160
55.59000 1.012
55.60000 6.164
55.61000 3.111
55.62000 1.046
55.63000 6.037
55.64000 6.054
55.65000 3.045
55.66000 6.086
55.67000 3.117
55.68000 5.128
55.69000 1.998
55.70000 3.029
55.71000 0.997
55.72000 4.079
55.73000 5.196
55.74000 4.103
55.75000 6.135
55.76000 2.058
55.77000 2.084
55.78000 4.074
55.79000 5.096
55.80000 5.090
55.81000 8.093
55.82000 5.223
55.83000 4.064
55.84000 4.076
55.85000 1.045
55.86000 6.075
55.87000 6.094
55.88000 3.054
55.89000 4.071
55.90000 2.033
55.91000 0.982
55.92000 3.084
55.93000 3.023
55.94000 4.073
55.95000 3.056
55.96000 3.051
55.97000 2.042
55.98000 4.046
55.99000 6.117
56.00000 3.032
56.01000 4.114
56.02000 9.173
56.03000 6.125
56.04000 6.102
56.05000 1.015
56.06000 2.095
56.07000 6.109
56.08000 3.006
56.09000 6.108
56.10000 5.244
56.11000 1.999
56.12000 4.151
56.13000 3.029
56.14000 4.078
56.15000 5.140
56.16000 5.090
56.17000 3.039
56.18000 8.093
56.19000 5.071
56.20000 5.032
56.21000 2.072
56.22000 2.102
56.23000 3.082
56.24000 5.155
56.25000 3.181
56.26000 0.000
56.27000 5.072
56.28000 4.106
56.29000 4.103
56.30000 5.175
56.31000 0.998
56.32000 3.033
56.33000 4.103
56.34000 5.091
56.35000 3.137
56.36000 3.054
56.37000 7.110
56.38000 3.965
56.39000 2.102
56.40000 2.058
56.41000 1.086
56.42000 6.129
56.43000 5.053
56.44000 0.000
56.45000 2.049
56.46000 5.158
56.47000 2.046
56.48000 6.043
56.49000 6.040
56.50000 2.047
56.51000 9.146
56.52000 2.088
56.53000 4.070
56.54000 5.085
56.55000 1.035
56.56000 4.073
56.57000 4.031
56.58000 5.079
56.59000 5.039
56.60000 3.032
56.61000 1.011
56.62000 11.233
56.63000 0.000
56.64000 6.044
56.65000 5.122
56.66000 2.108
56.67000 7.016
56.68000 6.165
56.69000 0.000
56.70000 5.167
56.71000 3.051
56.72000 4.083
56.73000 5.061
56.74000 2.091
56.75000 5.073
56.76000 5.093
56.77000 6.057
56.78000 2.011
56.79000 4.014
56.80000 2.011
56.81000 3.081
56.82000 3.024
56.83000 0.000
56.84000 5.021
56.85000 3.075
56.86000 3.046
56.87000 5.124
56.88000 8.242
56.89000 3.039
56.90000 3.075
56.91000 4.079
56.92000 7.017
56.93000 5.075
56.94000 2.068
56.95000 2.007
56.96000 4.115
56.97000 2.042
56.98000 2.002
56.99000 6.097
57.00000 4.024
57.01000 1.000
57.02000 6.114
57.03000 4.079
57.04000 7.187
57.05000 5.042
57.06000 3.095
57.07000 2.001
57.08000 3.078
57.09000 4.068
57.10000 3.044
57.11000 2.005
57.12000 4.086
57.13000 6.120
57.14000 2.039
57.15000 5.087
57.16000 2.058
57.17000 2.020
57.18000 2.017
57.19000 3.031
57.20000 4.048
57.21000 6.059
57.22000 3.081
57.23000 1.055
57.24000 2.972
57.25000 4.032
57.26000 6.183
57.27000 8.209
57.28000 3.037
57.29000 2.002
57.30000 4.998
57.31000 6.116
57.32000 3.131
57.33000 3.023
57.34000 8.251
57.35000 5.074
57.36000 4.018
57.37000 4.066
57.38000 5.098
57.39000 4.057
57.40000 6.164
57.41000 5.122
57.42000 4.025
57.43000 4.106
57.44000 3.090
57.45000 1.993
57.46000 3.000
57.47000 0.989
57.48000 2.066
57.49000 5.153
57.50000 5.106
57.51000 4.102
57.52000 6.041
57.53000 2.100
57.54000 4.021
57.55000 2.016
57.56000 5.246
57.57000 4.050
57.58000 0.000
57.59000 4.207
57.60000 4.117
57.61000 5.072
57.62000 1.987
57.63000 5.096
57.64000 6.261
57.65000 2.043
57.66000 2.059
57.67000 2.087
57.68000 5.073
57.69000 4.087
57.70000 5.094
57.71000 3.057
57.72000 5.123
57.73000 1.003
57.74000 0.997
57.75000 5.056
57.76000 2.079
57.77000 5.114
57.78000 3.114
57.79000 4.111
57.80000 0.000
57.81000 2.008
57.82000 2.022
57.83000 2.002
57.84000 3.011
57.85000 5.094
57.86000 3.060
57.87000 2.066
57.88000 2.014
57.89000 6.090
57.90000 4.072
57.91000 3.019
57.92000 7.112
57.93000 5.104
57.94000 5.195
57.95000 4.072
57.96000 2.009
57.97000 3.016
57.98000 5.080
57.99000 5.137
58.00000 4.109
58.01000 6.193
58.02000 1.031
58.03000 6.034
58.04000 1.003
58.05000 4.132
58.06000 4.085
58.07000 4.075
58.08000 6.023
58.09000 4.121
58.10000 3.098
58.11000 6.103
58.12000 0.000
58.13000 2.064
58.14000 3.039
58.15000 7.175
58.16000 3.022
58.17000 6.110
58.18000 3.071
58.19000 3.083
58.20000 3.047
58.21000 5.139
58.22000 4.055
58.23000 4.115
58.24000 9.304
58.25000 3.112
58.26000 5.153
58.27000 1.972
58.28000 4.073
58.29000 3.078
58.30000 6.101
58.31000 1.998
58.32000 4.094
58.33000 1.996
58.34000 4.129
58.35000 2.024
58.36000 1.025
58.37000 4.108
58.38000 3.020
58.39000 6.157
58.40000 0.000
58.41000 2.098
58.42000 3.007
58.43000 7.072
58.44000 5.032
58.45000 5.123
58.46000 4.203
58.47000 4.113
58.48000 2.071
58.49000 4.084
58.50000 1.007
58.51000 4.048
58.52000 3.095
58.53000 3.058
58.54000 5.124
58.55000 4.020
58.56000 2.054
58.57000 5.104
58.58000 1.023
58.59000 5.026
58.60000 2.091
58.61000 4.078
58.62000 1.087
58.63000 8.117
58.64000 2.002
58.65000 3.112
58.66000 5.096
58.67000 7.109
58.68000 2.031
58.69000 3.057
58.70000 9.139
58.71000 5.133
58.72000 4.073
58.73000 0.000
58.74000 5.148
58.75000 3.009
58.76000 5.085
58.77000 5.282
58.78000 0.000
58.79000 2.021
58.80000 5.119
58.81000 4.058
58.82000 2.971
58.83000 3.045
58.84000 2.005
58.85000 4.031
58.86000 7.189
58.87000 3.078
58.88000 3.015
58.89000 6.048
58.90000 2.105
58.91000 2.992
58.92000 2.088
58.93000 3.071
58.94000 3.107
58.95000 3.074
58.96000 5.037
58.97000 4.120
58.98000 4.108
58.99000 4.016
59.00000 5.070
59.01000 3.069
59.02000 6.152
59.03000 2.049
59.04000 3.017
59.05000 3.066
59.06000 6.224
59.07000 7.132
59.08000 1.035
59.09000 3.989
59.10000 5.057
59.11000 7.139
59.12000 6.085
59.13000 1.026
59.14000 4.162
59.15000 4.233
59.16000 0.000
59.17000 3.072
59.18000 6.091
59.19000 3.016
59.20000 5.033
59.21000 6.158
59.22000 4.142
59.23000 1.064
59.24000 4.185
59.25000 5.086
59.26000 2.026
59.27000 4.102
59.28000 1.037
59.29000 2.023
59.30000 4.126
59.31000 2.048
59.32000 6.036
59.33000 2.061
59.34000 0.000
59.35000 4.025
59.36000 3.123
59.37000 4.083
59.38000 4.119
59.39000 6.083
59.40000 7.195
59.41000 3.158
59.42000 4.092
59.43000 2.048
59.44000 3.025
59.45000 5.025
59.46000 4.113
59.47000 6.189
59.48000 4.075
59.49000 4.060
59.50000 0.000
59.51000 2.018
59.52000 0.983
59.53000 4.019
59.54000 6.193
59.55000 2.994
59.56000 4.080
59.57000 4.089
59.58000 4.983
59.59000 3.042
59.60000 3.049
59.61000 3.069
59.62000 5.119
59.63000 4.097
59.64000 5.042
59.65000 7.255
59.66000 4.036
59.67000 5.094
59.68000 3.098
59.69000 2.083
59.70000 2.100
59.71000 5.105
59.72000 6.068
59.73000 2.058
59.74000 3.127
59.75000 2.033
59.76000 1.006
59.77000 1.010
59.78000 4.011
59.79000 1.968
59.80000 4.181
59.81000 4.109
59.82000 2.046
59.83000 3.076
59.84000 7.147
59.85000 9.065
59.86000 5.166
59.87000 3.040
59.88000 4.063
59.89000 2.106
59.90000 0.992
59.91000 2.018
59.92000 3.048
59.93000 0.000
59.94000 7.092
59.95000 2.004
59.96000 4.165
59.97000 5.098
59.98000 3.123
59.99000 4.091
60.00000 5.134
60.01000 5.073
60.02000 3.125
60.03000 4.130
60.04000 6.232
60.05000 6.109
60.06000 4.145
60.07000 3.209
60.08000 4.025
60.09000 3.017
60.10000 1.025
60.11000 2.038
60.12000 1.012
60.13000 3.077
60.14000 5.039
60.15000 4.125
60.16000 5.101
60.17000 3.038
60.18000 7.148
60.19000 3.049
60.20000 4.025
60.21000 4.107
60.22000 2.023
60.23000 1.024
60.24000 2.052
60.25000 4.092
60.26000 0.999
60.27000 5.109
60.28000 6.059
60.29000 3.083
60.30000 2.992
60.31000 2.003
60.32000 2.099
60.33000 2.038
60.34000 7.120
60.35000 5.066
60.36000 0.000
60.37000 7.142
60.38000 2.031
60.39000 3.047
60.40000 1.033
60.41000 2.076
60.42000 4.012
60.43000 8.112
60.44000 5.980
60.45000 5.043
60.46000 2.106
60.47000 5.129
60.48000 6.165
60.49000 3.005
60.50000 6.112
60.51000 3.098
60.52000 3.006
60.53000 7.173
60.54000 5.076
60.55000 0.000
60.56000 4.022
60.57000 4.006
60.58000 2.034
60.59000 3.012
60.60000 2.016
60.61000 1.030
60.62000 3.099
60.63000 5.153
60.64000 3.069
60.65000 4.036
60.66000 6.068
60.67000 3.012
60.68000 5.166
60.69000 5.048
60.70000 3.127
60.71000 4.077
60.72000 2.984
60.73000 3.045
60.74000 3.006
60.75000 2.022
60.76000 2.027
60.77000 4.038
60.78000 5.101
60.79000 5.074
60.80000 1.004
60.81000 6.224
60.82000 6.053
60.83000 4.030
60.84000 1.993
60.85000 2.065
60.86000 3.071
60.87000 7.233
60.88000 5.016
60.89000 3.062
60.90000 6.105
60.91000 6.078
60.92000 3.060
60.93000 7.128
60.94000 4.043
60.95000 3.124
60.96000 5.135
60.97000 5.114
60.98000 2.042
60.99000 0.987
61.00000 6.148
61.01000 7.158
61.02000 2.044
61.03000 6.211
61.04000 3.075
61.05000 1.057
61.06000 0.000
61.07000 4.130
61.08000 5.087
61.09000 3.102
61.10000 7.168
61.11000 1.043
61.12000 4.112
61.13000 1.029
61.14000 0.993
61.15000 13.234
61.16000 0.000
61.17000 6.119
61.18000 4.111
61.19000 2.049
61.20000 3.083
61.21000 3.056
61.22000 1.047
61.23000 0.000
61.24000 2.050
61.25000 6.070
61.26000 0.987
61.27000 6.143
61.28000 2.067
61.29000 2.055
61.30000 2.026
61.31000 3.069
61.32000 7.172
61.33000 4.188
61.34000 3.030
61.35000 2.049
61.36000 5.061
61.37000 5.082
61.38000 6.136
61.39000 4.153
61.40000 4.059
61.41000 6.014
61.42000 5.044
61.43000 5.177
61.44000 1.027
61.45000 2.015
61.46000 3.088
61.47000 5.108
61.48000 3.023
61.49000 0.991
61.50000 6.028
61.51000 5.067
61.52000 3.064
61.53000 2.033
61.54000 0.000
61.55000 2.026
61.56000 3.041
61.57000 4.069
61.58000 4.070
61.59000 0.997
61.60000 5.065
61.61000 1.012
61.62000 5.143
61.63000 8.120
61.64000 9.247
61.65000 3.075
61.66000 4.029
61.67000 6.109
61.68000 2.020
61.69000 7.202
61.70000 3.011
61.71000 1.036
61.72000 5.161
61.73000 6.099
61.74000 3.071
61.75000 2.048
61.76000 4.108
61.77000 0.980
61.78000 3.119
61.79000 12.191
61.80000 7.088
61.81000 5.132
61.82000 5.130
61.83000 2.045
61.84000 3.121
61.85000 5.057
61.86000 12.197
61.87000 5.183
61.88000 3.149
61.89000 6.104
61.90000 1.051
61.91000 3.033
61.92000 6.155
61.93000 4.049
61.94000 8.132
61.95000 8.093
61.96000 6.089
61.97000 8.147
61.98000 5.111
61.99000 4.049
62.00000 7.180
62.01000 10.188
62.02000 6.122
62.03000 8.198
62.04000 2.005
62.05000 7.070
62.06000 3.025
62.07000 9.243
62.08000 9.103
62.09000 6.107
62.10000 12.243
62.11000 10.173
62.12000 5.071
62.13000 4.125
62.14000 4.002
62.15000 8.146
62.16000 8.193
62.17000 7.077
62.18000 9.194
62.19000 8.256
62.20000 11.166
62.21000 13.213
62.22000 12.246
62.23000 11.183
62.24000 6.113
62.25000 6.163
62.26000 11.301
62.27000 16.450
62.28000 6.126
62.29000 6.120
62.30000 8.208
62.31000 11.201
62.32000 12.315
62.33000 17.427
62.34000 8.230
62.35000 8.188
62.36000 11.325
62.37000 13.265
62.38000 13.178
62.39000 11.155
62.40000 11.262
62.41000 10.129
62.42000 11.236
62.43000 6.230
62.44000 9.182
62.45000 11.326
62.46000 10.226
62.47000 13.406
62.48000 17.473
62.49000 5.124
62.50000 8.132
62.51000 7.098
62.52000 7.072
62.53000 9.083
62.54000 8.085
62.55000 10.106
62.56000 6.113
62.57000 12.265
62.58000 7.089
62.59000 7.053
62.60000 10.229
62.61000 2.064
62.62000 12.370
62.63000 3.126
62.64000 9.178
62.65000 4.026
62.66000 2.025
62.67000 6.018
62.68000 4.115
62.69000 6.121
62.70000 3.048
62.71000 7.227
62.72000 6.161
62.73000 6.135
62.74000 8.035
62.75000 7.060
62.76000 7.190
62.77000 5.082
62.78000 5.085
62.79000 4.067
62.80000 5.052
62.81000 6.113
62.82000 6.148
62.83000 2.011
62.84000 4.115
62.85000 3.014
62.86000 9.142
62.87000 2.058
62.88000 8.231
62.89000 5.127
62.90000 7.068
62.91000 4.039
62.92000 3.077
62.93000 7.132
62.94000 4.109
62.95000 3.014
62.96000 5.152
62.97000 5.190
62.98000 7.034
62.99000 2.031
63.00000 1.066
63.01000 6.179
63.02000 5.168
63.03000 4.110
63.04000 2.030
63.05000 3.163
63.06000 4.057
63.07000 7.204
63.08000 0.988
63.09000 3.049
63.10000 0.000
63.11000 3.115
63.12000 1.008
63.13000 3.099
63.14000 7.101
63.15000 3.099
63.16000 3.110
63.17000 4.144
63.18000 5.115
63.19000 3.092
63.20000 1.042
63.21000 3.022
63.22000 5.074
63.23000 0.000
63.24000 5.102
63.25000 2.047
63.26000 3.049
63.27000 5.012
63.28000 5.071
63.29000 8.203
63.30000 4.146
63.31000 5.081
63.32000 4.157
63.33000 3.038
63.34000 5.178
63.35000 2.032
63.36000 6.133
63.37000 0.992
63.38000 3.061
63.39000 4.108
63.40000 3.185
63.41000 2.076
63.42000 6.062
63.43000 4.163
63.44000 2.049
63.45000 6.074
63.46000 5.180
63.47000 2.044
63.48000 9.179
63.49000 7.155
63.50000 3.058
63.51000 3.096
63.52000 6.097
63.53000 1.977
63.54000 4.014
63.55000 2.016
63.56000 4.029
63.57000 4.056
63.58000 5.089
63.59000 6.077
63.60000 0.000
63.61000 3.074
63.62000 4.146
63.63000 0.998
63.64000 5.086
63.65000 4.053
63.66000 2.045
63.67000 3.045
63.68000 7.090
63.69000 5.068
63.70000 4.041
63.71000 6.135
63.72000 4.135
63.73000 6.126
63.74000 4.077
63.75000 3.074
63.76000 1.016
63.77000 3.055
63.78000 3.072
63.79000 5.049
63.80000 3.055
63.81000 7.121
63.82000 7.124
63.83000 5.180
63.84000 7.162
63.85000 2.054
63.86000 4.140
63.87000 5.061
63.88000 3.094
63.89000 6.130
63.90000 7.149
63.91000 3.049
63.92000 3.052
63.93000 2.091
63.94000 1.070
63.95000 3.081
63.96000 4.038
63.97000 3.012
63.98000 2.040
63.99000 3.014
64.00000 5.180
64.01000 5.162
64.02000 8.175
64.03000 1.044
64.04000 2.020
64.05000 5.045
64.06000 2.073
64.07000 7.141
64.08000 6.036
64.09000 6.125
64.10000 8.214
64.11000 4.112
64.12000 3.131
64.13000 4.068
64.14000 5.055
64.15000 6.119
64.16000 7.087
64.17000 6.090
64.18000 3.107
64.19000 1.050
64.20000 2.057
64.21000 5.119
64.22000 3.074
64.23000 4.099
64.24000 4.023
64.25000 6.149
64.26000 8.069
64.27000 2.086
64.28000 3.046
64.29000 5.053
64.30000 4.174
64.31000 7.246
64.32000 9.097
64.33000 9.125
64.34000 1.053
64.35000 4.065
64.36000 6.138
64.37000 3.036
64.38000 4.104
64.39000 4.037
64.40000 8.246
64.41000 2.120
64.42000 3.096
64.43000 3.004
64.44000 5.085
64.45000 4.119
64.46000 2.999
64.47000 3.065
64.48000 5.040
64.49000 3.082
64.50000 0.991
64.51000 4.179
64.52000 7.207
64.53000 5.087
64.54000 4.118
64.55000 5.199
64.56000 6.105
64.57000 7.279
64.58000 4.063
64.59000 6.186
64.60000 3.045
64.61000 5.131
64.62000 6.058
64.63000 9.217
64.64000 7.165
64.65000 4.208
64.66000 3.088
64.67000 4.073
64.68000 4.024
64.69000 2.991
64.70000 6.118
64.71000 9.158
64.72000 3.059
64.73000 5.211
64.74000 1.065
64.75000 4.066
64.76000 3.048
64.77000 0.986
64.78000 6.046
64.79000 3.016
64.80000 1.008
64.81000 3.107
64.82000 5.073
64.83000 6.118
64.84000 2.055
64.85000 2.070
64.86000 7.112
64.87000 3.048
64.88000 3.083
64.89000 2.095
64.90000 2.032
64.91000 1.070
64.92000 3.074
64.93000 5.029
64.94000 3.056
64.95000 6.148
64.96000 4.236
64.97000 4.001
64.98000 7.192
64.99000 2.029
65.00000 3.120
65.01000 2.020
65.02000 5.072
65.03000 7.099
65.04000 1.011
65.05000 3.056
65.06000 7.251
65.07000 3.059
65.08000 8.052
65.09000 5.233
65.10000 5.137
65.11000 3.016
65.12000 9.158
65.13000 6.054
65.14000 5.119
65.15000 4.095
65.16000 8.175
65.17000 1.999
65.18000 6.101
65.19000 4.135
65.20000 10.280
65.21000 4.003
65.22000 7.114
65.23000 6.062
65.24000 3.032
65.25000 8.185
65.26000 5.139
65.27000 3.030
65.28000 6.039
65.29000 3.065
65.30000 6.101
65.31000 3.054
65.32000 1.050
65.33000 5.037
65.34000 5.030
65.35000 6.240
65.36000 3.013
65.37000 3.084
65.38000 5.074
65.39000 3.110
65.40000 0.000
65.41000 4.093
65.42000 6.135
65.43000 4.054
65.44000 2.038
65.45000 2.060
65.46000 6.123
65.47000 4.036
65.48000 2.013
65.49000 0.000
65.50000 6.127
65.51000 4.096
65.52000 2.983
65.53000 4.139
65.54000 3.135
65.55000 4.144
65.56000 7.140
65.57000 2.007
65.58000 0.000
65.59000 7.154
65.60000 5.005
65.61000 1.988
65.62000 1.011
65.63000 4.076
65.64000 5.070
65.65000 5.135
65.66000 5.179
65.67000 4.022
65.68000 3.027
65.69000 2.107
65.70000 3.058
65.71000 3.118
65.72000 4.217
65.73000 3.094
65.74000 2.065
65.75000 3.048
65.76000 2.099
65.77000 4.051
65.78000 1.989
65.79000 5.118
65.80000 4.046
65.81000 3.080
65.82000 7.099
65.83000 2.088
65.84000 2.027
65.85000 2.002
65.86000 7.242
65.87000 3.047
65.88000 4.015
65.89000 7.183
65.90000 1.002
65.91000 2.020
65.92000 4.079
65.93000 6.114
65.94000 8.127
65.95000 2.026
65.96000 7.089
65.97000 3.054
65.98000 5.072
65.99000 2.034
66.00000 10.293
66.01000 8.183
66.02000 5.136
66.03000 6.022
66.04000 5.115
66.05000 3.224
66.06000 1.024
66.07000 5.167
66.08000 1.974
66.09000 4.055
66.10000 2.044
66.11000 2.017
66.12000 5.142
66.13000 5.045
66.14000 5.151
66.15000 0.000
66.16000 4.062
66.17000 7.171
66.18000 3.016
66.19000 4.132
66.20000 3.027
66.21000 4.095
66.22000 4.035
66.23000 3.069
66.24000 5.045
66.25000 3.016
66.26000 3.034
66.27000 3.082
66.28000 2.015
66.29000 5.038
66.30000 4.059
66.31000 3.045
66.32000 7.086
66.33000 5.101
66.34000 3.063
66.35000 8.224
66.36000 3.110
66.37000 4.071
66.38000 2.075
66.39000 5.020
66.40000 5.054
66.41000 5.121
66.42000 1.988
66.43000 5.183
66.44000 3.058
66.45000 2.081
66.46000 1.023
66.47000 5.053
66.48000 5.048
66.49000 1.021
66.50000 5.151
66.51000 5.116
66.52000 5.236
66.53000 2.080
66.54000 4.039
66.55000 2.088
66.56000 4.062
66.57000 2.048
66.58000 2.012
66.59000 5.133
66.60000 2.973
66.61000 3.055
66.62000 4.021
66.63000 4.057
66.64000 1.005
66.65000 5.035
66.66000 5.149
66.67000 2.018
66.68000 2.021
66.69000 3.069
66.70000 4.069
66.71000 6.219
66.72000 6.075
66.73000 0.000
66.74000 6.181
66.75000 9.100
66.76000 6.156
66.77000 2.055
66.78000 3.995
66.79000 2.091
66.80000 2.085
66.81000 4.026
66.82000 7.161
66.83000 4.055
66.84000 1.050
66.85000 8.256
66.86000 5.082
66.87000 2.035
66.88000 6.068
66.89000 4.099
66.90000 1.075
66.91000 3.042
66.92000 3.064
66.93000 2.016
66.94000 1.004
66.95000 2.018
66.96000 5.042
66.97000 4.976
66.98000 3.077
66.99000 3.022
67.00000 1.992
67.01000 5.106
67.02000 0.000
67.03000 3.083
67.04000 3.036
67.05000 0.990
67.06000 4.050
67.07000 7.166
67.08000 5.099
67.09000 2.093
67.10000 5.129
67.11000 0.991
67.12000 2.041
67.13000 3.118
67.14000 2.054
67.15000 3.124
67.16000 6.175
67.17000 1.995
67.18000 1.010
67.19000 2.047
67.20000 5.005
67.21000 2.047
67.22000 3.160
67.23000 3.009
67.24000 3.038
67.25000 5.156
67.26000 1.006
67.27000 2.025
67.28000 5.083
67.29000 5.080
67.30000 2.032
67.31000 4.052
67.32000 3.081
67.33000 1.977
67.34000 0.999
67.35000 4.047
67.36000 5.221
67.37000 3.997
67.38000 4.019
67.39000 4.101
67.40000 3.062
67.41000 4.014
67.42000 5.143
67.43000 3.110
67.44000 3.059
67.45000 1.999
67.46000 4.038
67.47000 7.071
67.48000 5.112
67.49000 1.014
67.50000 3.001
67.51000 3.040
67.52000 1.053
67.53000 3.059
67.54000 6.103
67.55000 2.046
67.56000 7.076
67.57000 2.074
67.58000 2.038
67.59000 2.007
67.60000 7.071
67.61000 2.988
67.62000 4.053
67.63000 2.037
67.64000 5.023
67.65000 2.056
67.66000 6.183
67.67000 9.365
67.68000 3.019
67.69000 6.116
67.70000 2.004
67.71000 5.152
67.72000 6.061
67.73000 4.042
67.74000 4.076
67.75000 2.088
67.76000 4.038
67.77000 5.091
67.78000 6.075
67.79000 3.046
67.80000 5.085
67.81000 3.059
67.82000 1.042
67.83000 7.026
67.84000 7.140
67.85000 0.997
67.86000 2.073
67.87000 4.113
67.88000 1.005
67.89000 2.046
67.90000 3.052
67.91000 4.052
67.92000 5.063
67.93000 5.039
67.94000 2.003
67.95000 4.080
67.96000 4.077
67.97000 9.199
67.98000 7.190
67.99000 5.092
68.00000 4.135
68.01000 2.086
68.02000 3.039
68.03000 2.018
68.04000 6.104
68.05000 6.088
68.06000 2.033
68.07000 1.973
68.08000 7.093
68.09000 2.054
68.10000 2.062
68.11000 3.063
68.12000 5.071
68.13000 3.019
68.14000 4.042
68.15000 2.026
68.16000 3.046
68.17000 5.162
68.18000 1.064
68.19000 5.020
68.20000 3.025
68.21000 3.059
68.22000 4.061
68.23000 3.085
68.24000 4.042
68.25000 9.288
68.26000 1.005
68.27000 0.990
68.28000 3.060
68.29000 7.093
68.30000 1.033
68.31000 4.178
68.32000 2.052
68.33000 4.050
68.34000 2.034
68.35000 1.032
68.36000 5.146
68.37000 5.134
68.38000 3.996
68.39000 4.991
68.40000 2.008
68.41000 5.084
68.42000 7.139
68.43000 8.219
68.44000 2.983
68.45000 2.072
68.46000 4.997
68.47000 2.019
68.48000 7.124
68.49000 2.015
68.50000 6.988
68.51000 7.073
68.52000 6.033
68.53000 2.025
68.54000 5.138
68.55000 4.113
68.56000 3.041
68.57000 5.054
68.58000 0.998
68.59000 2.082
68.60000 1.046
68.61000 3.014
68.62000 6.147
68.63000 1.062
68.64000 3.111
68.65000 3.035
68.66000 4.032
68.67000 7.210
68.68000 2.070
68.69000 5.142
68.70000 3.030
68.71000 7.251
68.72000 4.077
68.73000 3.009
68.74000 5.132
68.75000 2.060
68.76000 5.117
68.77000 4.093
68.78000 4.199
68.79000 4.156
68.80000 2.049
68.81000 4.057
68.82000 6.158
68.83000 3.020
68.84000 2.990
68.85000 5.092
68.86000 5.162
68.87000 2.033
68.88000 1.004
68.89000 3.995
68.90000 3.075
68.91000 3.103
68.92000 3.139
68.93000 3.090
68.94000 6.111
68.95000 1.031
68.96000 2.049
68.97000 3.079
68.98000 5.100
68.99000 6.064
69.00000 5.112
69.01000 3.066
69.02000 6.200
69.03000 4.074
69.04000 6.109
69.05000 3.055
69.06000 5.130
69.07000 6.170
69.08000 4.001
69.09000 1.001
69.10000 1.010
69.11000 3.114
69.12000 6.097
69.13000 1.016
69.14000 1.067
69.15000 3.068
69.16000 4.075
69.17000 3.061
69.18000 1.990
69.19000 3.067
69.20000 3.154
69.21000 5.073
69.22000 2.000
69.23000 0.996
69.24000 5.074
69.25000 1.054
69.26000 4.058
69.27000 4.143
69.28000 3.133
69.29000 6.039
69.30000 5.092
69.31000 1.993
69.32000 1.986
69.33000 1.967
69.34000 2.018
69.35000 1.014
69.36000 1.028
69.37000 3.045
69.38000 8.167
69.39000 4.025
69.40000 2.035
69.41000 2.998
69.42000 2.019
69.43000 4.029
69.44000 5.063
69.45000 1.000
69.46000 4.035
69.47000 2.011
69.48000 5.044
69.49000 2.994
69.50000 3.094
69.51000 4.070
69.52000 2.087
69.53000 4.071
69.54000 4.035
69.55000 5.122
69.56000 0.000
69.57000 2.070
69.58000 4.023
69.59000 2.055
69.60000 3.083
69.61000 3.014
69.62000 3.033
69.63000 5.142
69.64000 2.097
69.65000 4.056
69.66000 3.088
69.67000 4.982
69.68000 4.062
69.69000 6.051
69.70000 2.078
69.71000 4.066
69.72000 5.162
69.73000 6.071
69.74000 6.024
69.75000 6.126
69.76000 0.990
69.77000 4.053
69.78000 5.113
69.79000 3.064
69.80000 7.061
69.81000 2.075
69.82000 5.078
69.83000 1.036
69.84000 1.989
69.85000 3.015
69.86000 5.058
69.87000 2.017
69.88000 6.958
69.89000 7.064
69.90000 6.074
69.91000 3.083
69.92000 5.142
69.93000 3.139
69.94000 3.130
69.95000 5.162
69.96000 2.063
69.97000 5.081
69.98000 1.000
69.99000 2.062
70.00000 2.018
