20.00000 580.932
20.01000 574.382
20.02000 566.895
20.03000 562.070
20.04000 567.526
20.05000 574.004
20.06000 578.734
20.07000 568.890
20.08000 560.732
20.09000 556.229
20.10000 558.031
20.11000 559.944
20.12000 561.553
20.13000 562.821
20.14000 564.085
20.15000 562.820
20.16000 559.761
20.17000 556.789
20.18000 556.558
20.19000 557.639
20.20000 558.727
20.21000 559.920
20.22000 561.145
20.23000 562.253
20.24000 565.583
20.25000 568.926
20.26000 571.190
20.27000 568.246
20.28000 564.615
20.29000 562.130
20.30000 563.292
20.31000 564.725
20.32000 565.710
20.33000 562.053
20.34000 559.195
20.35000 555.125
20.36000 549.338
20.37000 543.541
20.38000 541.732
20.39000 543.536
20.40000 545.321
20.41000 546.229
20.42000 546.611
20.43000 547.008
20.44000 547.708
20.45000 548.528
20.46000 549.902
20.47000 556.992
20.48000 565.591
20.49000 573.139
20.50000 566.852
20.51000 559.425
20.52000 553.266
20.53000 552.102
20.54000 551.448
20.55000 551.137
20.56000 551.723
20.57000 552.357
20.58000 552.764
20.59000 571.183
20.60000 584.857
20.61000 581.696
20.62000 559.150
20.63000 536.707
20.64000 536.470
20.65000 552.550
20.66000 568.312
20.67000 566.187
20.68000 555.750
20.69000 545.803
20.70000 542.900
20.71000 542.299
20.72000 541.855
20.73000 542.661
20.74000 543.735
20.75000 544.647
20.76000 551.071
20.77000 557.082
20.78000 562.338
20.79000 565.147
20.80000 567.769
20.81000 569.604
20.82000 569.732
20.83000 569.800
20.84000 569.841
20.85000 559.417
20.86000 551.984
20.87000 547.162
20.88000 544.754
20.89000 542.449
20.90000 546.882
20.91000 555.373
20.92000 563.589
20.93000 565.678
20.94000 565.319
20.95000 564.982
20.96000 564.871
20.97000 564.822
20.98000 563.493
20.99000 554.136
21.00000 543.382
21.01000 534.605
21.02000 540.108
21.03000 545.834
21.04000 548.382
21.05000 542.434
21.06000 536.021
21.07000 533.940
21.08000 539.620
21.09000 545.456
21.10000 548.611
21.11000 537.656
21.12000 530.197
21.13000 533.801
21.14000 545.701
21.15000 557.194
21.16000 554.410
21.17000 544.536
21.18000 535.137
21.19000 534.023
21.20000 535.546
21.21000 536.786
21.22000 535.714
21.23000 534.133
21.24000 533.437
21.25000 537.199
21.26000 541.578
21.27000 544.996
21.28000 545.539
21.29000 545.791
21.30000 543.039
21.31000 533.648
21.32000 524.016
21.33000 518.695
21.34000 519.722
21.35000 520.805
21.36000 526.395
21.37000 536.240
21.38000 545.971
21.39000 547.523
21.40000 544.055
21.41000 540.810
21.42000 542.521
21.43000 546.266
21.44000 549.761
21.45000 544.616
21.46000 537.808
21.47000 531.820
21.48000 531.090
21.49000 531.297
21.50000 532.526
21.51000 537.949
21.52000 543.823
21.53000 548.183
21.54000 543.398
21.55000 539.280
21.56000 538.332
21.57000 543.174
21.58000 548.139
21.59000 548.862
21.60000 544.493
21.61000 540.124
21.62000 540.015
21.63000 543.146
21.64000 546.232
21.65000 547.660
21.66000 548.249
21.67000 548.441
21.68000 542.552
21.69000 534.599
21.70000 527.354
21.71000 534.497
21.72000 543.684
21.73000 551.417
21.74000 551.676
21.75000 550.874
21.76000 550.377
21.77000 550.900
21.78000 551.505
21.79000 551.929
21.80000 550.745
21.81000 549.802
21.82000 551.368
21.83000 556.701
21.84000 562.071
21.85000 563.707
21.86000 561.739
21.87000 559.786
21.88000 561.182
21.89000 564.614
21.90000 568.253
21.91000 576.692
21.92000 587.140
21.93000 597.241
21.94000 603.452
21.95000 608.574
21.96000 613.112
21.97000 612.523
21.98000 611.207
21.99000 609.972
22.00000 609.075
22.01000 608.216
22.02000 608.882
22.03000 613.779
22.04000 618.925
22.05000 622.298
22.06000 619.026
22.07000 616.509
22.08000 617.366
22.09000 622.356
22.10000 627.348
22.11000 630.008
22.12000 630.849
22.13000 631.676
22.14000 633.503
22.15000 635.768
22.16000 637.395
22.17000 628.916
22.18000 616.941
22.19000 606.141
22.20000 605.390
22.21000 606.941
22.22000 608.271
22.23000 608.459
22.24000 608.477
22.25000 608.053
22.26000 606.108
22.27000 604.036
22.28000 602.641
22.29000 602.802
22.30000 603.024
22.31000 603.159
22.32000 596.010
22.33000 590.850
22.34000 589.083
22.35000 590.663
22.36000 592.234
22.37000 593.027
22.38000 593.323
22.39000 593.610
22.40000 585.623
22.41000 574.682
22.42000 563.932
22.43000 555.386
22.44000 547.468
22.45000 540.816
22.46000 542.662
22.47000 546.085
22.48000 548.912
22.49000 544.782
22.50000 540.728
22.51000 535.168
22.52000 525.349
22.53000 515.272
22.54000 514.530
22.55000 531.496
22.56000 548.884
22.57000 558.560
22.58000 541.765
22.59000 530.131
22.60000 529.443
22.61000 537.473
22.62000 545.207
22.63000 540.685
22.64000 529.724
22.65000 519.236
22.66000 524.549
22.67000 534.685
22.68000 542.840
22.69000 533.600
22.70000 520.297
22.71000 509.159
22.72000 509.636
22.73000 511.836
22.74000 513.578
22.75000 512.310
22.76000 511.084
22.77000 514.020
22.78000 526.685
22.79000 539.752
22.80000 542.912
22.81000 530.603
22.82000 518.111
22.83000 511.837
22.84000 532.660
22.85000 546.340
22.86000 539.855
22.87000 520.253
22.88000 501.172
22.89000 495.188
22.90000 494.892
22.91000 494.613
22.92000 491.831
22.93000 488.631
22.94000 485.875
22.95000 486.169
22.96000 487.042
22.97000 488.577
22.98000 492.992
22.99000 497.741
23.00000 501.321
23.01000 503.811
23.02000 505.708
23.03000 506.564
23.04000 505.409
23.05000 504.204
23.06000 501.069
23.07000 495.472
23.08000 489.874
23.09000 491.954
23.10000 500.244
23.11000 508.309
23.12000 506.515
23.13000 499.441
23.14000 493.087
23.15000 498.928
23.16000 509.148
23.17000 518.527
23.18000 522.680
23.19000 525.273
23.20000 526.227
23.21000 518.199
23.22000 508.808
23.23000 501.703
23.24000 502.743
23.25000 504.506
23.26000 505.762
23.27000 496.879
23.28000 489.774
23.29000 487.798
23.30000 493.986
23.31000 500.279
23.32000 504.218
23.33000 505.730
23.34000 507.233
23.35000 504.049
23.36000 497.843
23.37000 491.895
23.38000 492.742
23.39000 496.595
23.40000 499.791
23.41000 494.940
23.42000 487.705
23.43000 481.241
23.44000 485.341
23.45000 490.695
23.46000 494.305
23.47000 490.168
23.48000 485.108
23.49000 484.673
23.50000 497.818
23.51000 511.843
23.52000 521.227
23.53000 517.852
23.54000 515.097
23.55000 512.336
23.56000 509.570
23.57000 506.805
23.58000 505.035
23.59000 504.090
23.60000 503.159
23.61000 503.779
23.62000 505.204
23.63000 506.486
23.64000 505.233
23.65000 503.054
23.66000 501.763
23.67000 508.692
23.68000 517.617
23.69000 525.348
23.70000 516.684
23.71000 507.148
23.72000 499.613
23.73000 499.344
23.74000 499.738
23.75000 499.688
23.76000 498.562
23.77000 497.387
23.78000 496.656
23.79000 492.135
23.80000 488.841
23.81000 487.428
23.82000 487.998
23.83000 488.547
23.84000 486.665
23.85000 483.141
23.86000 479.703
23.87000 484.257
23.88000 492.049
23.89000 499.232
23.90000 498.725
23.91000 495.896
23.92000 493.374
23.93000 493.064
23.94000 493.192
23.95000 493.299
23.96000 495.784
23.97000 498.087
23.98000 499.059
23.99000 496.043
24.00000 492.761
24.01000 492.968
24.02000 500.175
24.03000 507.578
24.04000 511.812
24.05000 504.676
24.06000 499.658
24.07000 496.399
24.08000 494.632
24.09000 492.891
24.10000 492.481
24.11000 492.811
24.12000 493.129
24.13000 489.538
24.14000 484.807
24.15000 481.417
24.16000 490.739
24.17000 503.214
24.18000 512.442
24.19000 503.098
24.20000 490.805
24.21000 480.946
24.22000 481.846
24.23000 483.390
24.24000 486.204
24.25000 492.159
24.26000 498.260
24.27000 501.939
24.28000 501.612
24.29000 501.224
24.30000 501.024
24.31000 489.143
24.32000 481.210
24.33000 483.846
24.34000 493.772
24.35000 503.049
24.36000 493.681
24.37000 475.751
24.38000 458.816
24.39000 467.067
24.40000 481.751
24.41000 494.771
24.42000 495.532
24.43000 493.819
24.44000 490.848
24.45000 482.065
24.46000 472.555
24.47000 465.278
24.48000 472.693
24.49000 479.347
24.50000 483.570
24.51000 482.822
24.52000 481.928
24.53000 482.998
24.54000 486.731
24.55000 490.477
24.56000 490.215
24.57000 486.495
24.58000 482.804
24.59000 480.673
24.60000 479.426
24.61000 478.206
24.62000 477.489
24.63000 476.963
24.64000 476.476
24.65000 472.447
24.66000 468.026
24.67000 464.556
24.68000 466.641
24.69000 469.629
24.70000 471.036
24.71000 466.474
24.72000 461.338
24.73000 457.612
24.74000 465.139
24.75000 471.341
24.76000 474.883
24.77000 473.936
24.78000 472.917
24.79000 474.045
24.80000 477.536
24.81000 481.012
24.82000 480.940
24.83000 478.397
24.84000 475.838
24.85000 472.783
24.86000 469.497
24.87000 466.458
24.88000 466.747
24.89000 468.079
24.90000 469.278
24.91000 478.212
24.92000 487.447
24.93000 493.071
24.94000 481.658
24.95000 468.059
24.96000 458.302
24.97000 460.480
24.98000 463.511
24.99000 465.579
25.00000 465.115
25.01000 464.709
25.02000 466.212
25.03000 470.357
25.04000 474.516
25.05000 477.279
25.06000 478.809
25.07000 480.322
25.08000 480.106
25.09000 478.921
25.10000 477.923
25.11000 480.591
25.12000 484.676
25.13000 488.202
25.14000 486.140
25.15000 482.637
25.16000 479.573
25.17000 469.766
25.18000 460.405
25.19000 454.332
25.20000 460.913
25.21000 468.746
25.22000 474.807
25.23000 476.322
25.24000 477.607
25.25000 478.425
25.26000 479.727
25.27000 480.679
25.28000 478.615
25.29000 473.164
25.30000 467.768
25.31000 471.198
25.32000 480.960
25.33000 490.518
25.34000 481.586
25.35000 464.540
25.36000 448.697
25.37000 449.492
25.38000 455.605
25.39000 461.085
25.40000 461.678
25.41000 461.244
25.42000 460.876
25.43000 464.039
25.44000 467.071
25.45000 468.934
25.46000 467.095
25.47000 464.983
25.48000 464.472
25.49000 467.361
25.50000 470.361
25.51000 472.121
25.52000 477.536
25.53000 481.365
25.54000 478.558
25.55000 469.762
25.56000 461.091
25.57000 459.931
25.58000 463.192
25.59000 466.342
25.60000 469.663
25.61000 472.858
25.62000 475.648
25.63000 474.282
25.64000 471.824
25.65000 469.908
25.66000 471.303
25.67000 473.260
25.68000 474.849
25.69000 468.483
25.70000 462.630
25.71000 457.295
25.72000 453.310
25.73000 449.396
25.74000 449.673
25.75000 457.290
25.76000 465.042
25.77000 469.186
25.78000 451.285
25.79000 439.148
25.80000 441.793
25.81000 455.258
25.82000 468.254
25.83000 465.734
25.84000 455.676
25.85000 446.124
25.86000 451.885
25.87000 461.812
25.88000 470.911
25.89000 473.467
25.90000 474.617
25.91000 474.909
25.92000 470.978
25.93000 466.479
25.94000 462.986
25.95000 462.229
25.96000 461.793
25.97000 461.901
25.98000 463.188
25.99000 464.514
26.00000 464.658
26.01000 463.099
26.02000 461.526
26.03000 461.349
26.04000 462.455
26.05000 463.536
26.06000 462.925
26.07000 461.298
26.08000 459.636
26.09000 457.222
26.10000 454.506
26.11000 451.979
26.12000 456.087
26.13000 461.405
26.14000 465.639
26.15000 463.107
26.16000 459.402
26.17000 453.602
26.18000 439.416
26.19000 424.356
26.20000 413.250
26.21000 421.284
26.22000 428.309
26.23000 436.370
26.24000 446.280
26.25000 456.226
26.26000 463.290
26.27000 466.979
26.28000 470.653
26.29000 469.763
26.30000 465.496
26.31000 461.248
26.32000 457.632
26.33000 454.330
26.34000 450.995
26.35000 447.171
26.36000 443.186
26.37000 439.567
26.38000 441.579
26.39000 444.446
26.40000 447.265
26.41000 449.839
26.42000 452.381
26.43000 453.685
26.44000 450.921
26.45000 447.839
26.46000 445.696
26.47000 454.342
26.48000 461.152
26.49000 463.425
26.50000 459.039
26.51000 454.595
26.52000 454.649
26.53000 458.935
26.54000 463.184
26.55000 466.610
26.56000 469.476
26.57000 472.053
26.58000 468.261
26.59000 461.861
26.60000 456.136
26.61000 457.725
26.62000 461.314
26.63000 464.481
26.64000 455.564
26.65000 446.023
26.66000 439.850
26.67000 447.432
26.68000 456.487
26.69000 460.156
26.70000 449.206
26.71000 437.435
26.72000 429.783
26.73000 436.169
26.74000 441.065
26.75000 446.781
26.76000 453.476
26.77000 460.130
26.78000 456.946
26.79000 446.269
26.80000 435.781
26.81000 441.951
26.82000 456.019
26.83000 469.343
26.84000 471.336
26.85000 469.496
26.86000 467.118
26.87000 460.270
26.88000 452.422
26.89000 445.720
26.90000 441.238
26.91000 437.727
26.92000 435.369
26.93000 436.879
26.94000 438.702
26.95000 440.558
26.96000 442.491
26.97000 444.428
26.98000 445.593
26.99000 447.897
27.00000 449.544
27.01000 451.247
27.02000 453.005
27.03000 454.713
27.04000 452.715
27.05000 448.405
27.06000 444.224
27.07000 439.072
27.08000 433.805
27.09000 429.730
27.10000 438.966
27.11000 451.912
27.12000 462.323
27.13000 456.184
27.14000 447.048
27.15000 439.538
27.16000 440.302
27.17000 441.677
27.18000 439.418
27.19000 427.106
27.20000 414.210
27.21000 408.323
27.22000 415.437
27.23000 422.840
27.24000 426.914
27.25000 443.750
27.26000 455.321
27.27000 454.780
27.28000 444.823
27.29000 435.080
27.30000 433.651
27.31000 436.492
27.32000 439.205
27.33000 443.345
27.34000 447.647
27.35000 450.550
27.36000 441.525
27.37000 429.779
27.38000 422.203
27.39000 436.443
27.40000 453.833
27.41000 467.523
27.42000 443.965
27.43000 422.609
27.44000 410.666
27.45000 420.247
27.46000 430.672
27.47000 435.261
27.48000 430.945
27.49000 426.535
27.50000 425.931
27.51000 429.066
27.52000 432.210
27.53000 435.992
27.54000 440.180
27.55000 444.153
27.56000 442.988
27.57000 439.641
27.58000 436.507
27.59000 431.513
27.60000 426.491
27.61000 422.113
27.62000 422.035
27.63000 422.752
27.64000 423.928
27.65000 427.055
27.66000 430.403
27.67000 432.911
27.68000 437.648
27.69000 441.451
27.70000 446.012
27.71000 452.005
27.72000 458.033
27.73000 456.428
27.74000 445.313
27.75000 434.191
27.76000 431.613
27.77000 435.795
27.78000 439.850
27.79000 438.677
27.80000 434.768
27.81000 431.159
27.82000 432.436
27.83000 435.429
27.84000 438.168
27.85000 434.295
27.86000 429.482
27.87000 425.672
27.88000 427.223
27.89000 429.566
27.90000 430.860
27.91000 428.499
27.92000 425.826
27.93000 423.934
27.94000 432.259
27.95000 438.903
27.96000 441.167
27.97000 436.616
27.98000 431.987
27.99000 429.758
28.00000 429.941
28.01000 430.123
28.02000 430.956
28.03000 432.190
28.04000 433.159
28.05000 427.500
28.06000 418.973
28.07000 410.974
28.08000 409.209
28.09000 409.249
28.10000 409.286
28.11000 411.798
28.12000 414.387
28.13000 416.522
28.14000 416.688
28.15000 416.626
28.16000 416.178
28.17000 414.617
28.18000 412.987
28.19000 411.906
28.20000 418.948
28.21000 424.302
28.22000 424.159
28.23000 417.023
28.24000 409.892
28.25000 413.267
28.26000 425.149
28.27000 436.854
28.28000 440.771
28.29000 440.540
28.30000 440.255
28.31000 439.063
28.32000 437.547
28.33000 435.881
28.34000 432.871
28.35000 429.541
28.36000 426.668
28.37000 418.715
28.38000 411.317
28.39000 407.879
28.40000 418.494
28.41000 430.347
28.42000 437.016
28.43000 431.379
28.44000 425.218
28.45000 421.420
28.46000 430.855
28.47000 437.747
28.48000 440.475
28.49000 438.927
28.50000 437.368
28.51000 434.667
28.52000 431.211
28.53000 427.844
28.54000 426.860
28.55000 426.922
28.56000 426.558
28.57000 420.999
28.58000 413.907
28.59000 407.486
28.60000 405.763
28.61000 404.946
28.62000 404.267
28.63000 397.431
28.64000 391.167
28.65000 388.475
28.66000 396.228
28.67000 404.654
28.68000 407.780
28.69000 400.508
28.70000 392.961
28.71000 388.691
28.72000 408.632
28.73000 422.545
28.74000 425.380
28.75000 419.057
28.76000 412.899
28.77000 414.293
28.78000 419.793
28.79000 425.072
28.80000 425.567
28.81000 424.399
28.82000 423.847
28.83000 428.952
28.84000 435.426
28.85000 440.258
28.86000 435.930
28.87000 430.186
28.88000 425.604
28.89000 423.380
28.90000 421.758
28.91000 418.329
28.92000 410.532
28.93000 402.540
28.94000 402.356
28.95000 414.798
28.96000 427.411
28.97000 433.871
28.98000 422.206
28.99000 414.416
29.00000 411.972
29.01000 413.133
29.02000 414.187
29.03000 412.352
29.04000 409.221
29.05000 406.271
29.06000 413.211
29.07000 422.288
29.08000 429.460
29.09000 422.995
29.10000 413.845
29.11000 405.638
29.12000 401.686
29.13000 398.252
29.14000 395.640
29.15000 401.258
29.16000 406.108
29.17000 410.418
29.18000 413.647
29.19000 416.845
29.20000 413.440
29.21000 401.292
29.22000 389.114
29.23000 384.709
29.24000 386.856
29.25000 389.118
29.26000 397.003
29.27000 408.003
29.28000 418.618
29.29000 422.254
29.30000 423.299
29.31000 424.262
29.32000 422.190
29.33000 419.665
29.34000 417.875
29.35000 420.276
29.36000 423.339
29.37000 423.844
29.38000 414.910
29.39000 405.095
29.40000 398.024
29.41000 410.942
29.42000 421.546
29.43000 424.404
29.44000 414.495
29.45000 404.397
29.46000 401.163
29.47000 405.287
29.48000 409.394
29.49000 412.490
29.50000 414.863
29.51000 417.265
29.52000 420.445
29.53000 423.983
29.54000 426.419
29.55000 414.606
29.56000 398.424
29.57000 383.893
29.58000 387.533
29.59000 393.915
29.60000 399.895
29.61000 404.022
29.62000 407.918
29.63000 410.240
29.64000 407.777
29.65000 404.985
29.66000 403.095
29.67000 413.854
29.68000 422.148
29.69000 423.208
29.70000 414.495
29.71000 405.738
29.72000 403.253
29.73000 406.171
29.74000 409.054
29.75000 414.836
29.76000 422.069
29.77000 428.597
29.78000 421.929
29.79000 410.266
29.80000 399.875
29.81000 401.813
29.82000 406.857
29.83000 411.251
29.84000 422.967
29.85000 433.987
29.86000 441.535
29.87000 436.019
29.88000 429.252
29.89000 423.464
29.90000 420.132
29.91000 416.917
29.92000 414.891
29.93000 412.259
29.94000 410.347
29.95000 412.588
29.96000 419.376
29.97000 426.154
29.98000 431.059
29.99000 434.654
30.00000 438.168
30.01000 431.895
30.02000 421.508
30.03000 411.752
30.04000 410.387
30.05000 411.645
30.06000 413.293
30.07000 417.868
30.08000 423.043
30.09000 427.396
30.10000 429.898
30.11000 431.787
30.12000 432.099
30.13000 427.528
30.14000 422.610
30.15000 417.411
30.16000 411.629
30.17000 405.829
30.18000 402.459
30.19000 419.616
30.20000 431.744
30.21000 436.098
30.22000 433.613
30.23000 431.167
30.24000 430.862
30.25000 431.789
30.26000 432.684
30.27000 431.703
30.28000 430.102
30.29000 428.214
30.30000 423.487
30.31000 418.030
30.32000 414.286
30.33000 420.740
30.34000 428.879
30.35000 435.456
30.36000 425.805
30.37000 416.657
30.38000 410.323
30.39000 411.183
30.40000 412.403
30.41000 414.661
30.42000 418.696
30.43000 422.762
30.44000 424.909
30.45000 415.099
30.46000 408.497
30.47000 411.741
30.48000 422.023
30.49000 431.864
30.50000 427.937
30.51000 417.470
30.52000 407.550
30.53000 405.068
30.54000 404.963
30.55000 405.797
30.56000 413.842
30.57000 423.399
30.58000 429.613
30.59000 419.801
30.60000 407.892
30.61000 398.698
30.62000 412.457
30.63000 424.698
30.64000 431.016
30.65000 424.807
30.66000 418.194
30.67000 415.552
30.68000 418.493
30.69000 421.472
30.70000 424.817
30.71000 428.486
30.72000 432.167
30.73000 436.543
30.74000 441.326
30.75000 446.032
30.76000 449.178
30.77000 451.712
30.78000 454.063
30.79000 453.367
30.80000 452.020
30.81000 450.262
30.82000 446.000
30.83000 441.314
30.84000 438.121
30.85000 440.759
30.86000 443.987
30.87000 446.352
30.88000 459.472
30.89000 470.034
30.90000 476.477
30.91000 475.728
30.92000 474.848
30.93000 470.838
30.94000 463.253
30.95000 455.689
30.96000 459.509
30.97000 471.529
30.98000 483.646
30.99000 498.970
31.00000 515.847
31.01000 532.359
31.02000 543.688
31.03000 553.334
31.04000 562.068
31.05000 568.644
31.06000 574.031
31.07000 583.261
31.08000 611.302
31.09000 641.863
31.10000 673.355
31.11000 707.838
31.12000 742.546
31.13000 766.502
31.14000 826.223
31.15000 872.010
31.16000 917.986
31.17000 964.233
31.18000 1010.484
31.19000 1060.162
31.20000 1112.983
31.21000 1165.292
31.22000 1232.425
31.23000 1306.838
31.24000 1381.416
31.25000 1459.460
31.26000 1538.892
31.27000 1618.256
31.28000 1696.910
31.29000 1775.373
31.30000 1844.374
31.31000 1905.137
31.32000 1956.194
31.33000 2008.062
31.34000 2063.165
31.35000 2118.604
31.36000 2170.903
31.37000 2214.870
31.38000 2258.388
31.39000 2286.440
31.40000 2284.492
31.41000 2282.643
31.42000 2273.188
31.43000 2254.862
31.44000 2236.432
31.45000 2200.911
31.46000 2152.674
31.47000 2105.354
31.48000 2053.058
31.49000 2000.302
31.50000 1947.034
31.51000 1886.272
31.52000 1823.032
31.53000 1758.423
31.54000 1682.774
31.55000 1604.714
31.56000 1538.334
31.57000 1440.150
31.58000 1354.024
31.59000 1275.090
31.60000 1219.716
31.61000 1166.177
31.62000 1114.858
31.63000 1068.411
31.64000 1022.138
31.65000 994.564
31.66000 924.594
31.67000 874.750
31.68000 832.044
31.69000 796.029
31.70000 760.083
31.71000 728.854
31.72000 700.501
31.73000 673.040
31.74000 647.276
31.75000 623.559
31.76000 599.833
31.77000 575.995
31.78000 552.128
31.79000 529.782
31.80000 517.111
31.81000 506.147
31.82000 497.176
31.83000 489.078
31.84000 482.520
31.85000 478.074
31.86000 479.340
31.87000 480.925
31.88000 477.530
31.89000 465.106
31.90000 452.495
31.91000 445.634
31.92000 445.595
31.93000 445.573
31.94000 444.658
31.95000 443.067
31.96000 441.335
31.97000 434.522
31.98000 425.156
31.99000 416.230
32.00000 421.447
32.01000 430.700
32.02000 438.390
32.03000 433.140
32.04000 425.010
32.05000 418.209
32.06000 418.200
32.07000 419.145
32.08000 419.884
32.09000 418.533
32.10000 417.319
32.11000 416.569
32.12000 416.857
32.13000 417.183
32.14000 417.777
32.15000 418.770
32.16000 419.767
32.17000 417.857
32.18000 413.165
32.19000 408.599
32.20000 413.485
32.21000 424.242
32.22000 434.165
32.23000 425.096
32.24000 408.138
32.25000 392.297
32.26000 388.240
32.27000 387.529
32.28000 386.552
32.29000 383.851
32.30000 380.840
32.31000 379.403
32.32000 384.496
32.33000 390.305
32.34000 394.630
32.35000 389.344
32.36000 384.798
32.37000 381.984
32.38000 382.371
32.39000 382.827
32.40000 382.849
32.41000 382.342
32.42000 381.835
32.43000 385.312
32.44000 391.837
32.45000 398.061
32.46000 392.749
32.47000 381.532
32.48000 371.167
32.49000 374.137
32.50000 381.688
32.51000 388.576
32.52000 381.290
32.53000 371.970
32.54000 365.516
32.55000 373.994
32.56000 384.618
32.57000 392.528
32.58000 391.195
32.59000 389.099
32.60000 387.625
32.61000 381.652
32.62000 376.995
32.63000 372.919
32.64000 369.727
32.65000 366.545
32.66000 363.413
32.67000 360.331
32.68000 357.273
32.69000 356.795
32.70000 357.931
32.71000 359.212
32.72000 363.887
32.73000 369.999
32.74000 375.802
32.75000 378.066
32.76000 379.329
32.77000 380.449
32.78000 380.473
32.79000 380.320
32.80000 380.571
32.81000 382.535
32.82000 384.691
32.83000 389.670
32.84000 402.577
32.85000 415.957
32.86000 424.766
32.87000 434.131
32.88000 441.038
32.89000 448.305
32.90000 456.020
32.91000 463.714
32.92000 464.638
32.93000 460.214
32.94000 455.860
32.95000 457.402
32.96000 461.875
32.97000 466.006
32.98000 464.602
32.99000 461.261
33.00000 457.610
33.01000 451.257
33.02000 444.278
33.03000 438.280
33.04000 431.171
33.05000 425.020
33.06000 417.366
33.07000 404.505
33.08000 391.201
33.09000 380.982
33.10000 377.926
33.11000 375.161
33.12000 373.473
33.13000 379.347
33.14000 383.609
33.15000 381.258
33.16000 372.290
33.17000 363.331
33.18000 355.230
33.19000 347.682
33.20000 340.342
33.21000 338.858
33.22000 339.848
33.23000 340.720
33.24000 340.192
33.25000 339.260
33.26000 338.585
33.27000 339.666
33.28000 341.077
33.29000 342.245
33.30000 347.692
33.31000 352.594
33.32000 356.352
33.33000 356.839
33.34000 357.122
33.35000 356.742
33.36000 355.087
33.37000 353.401
33.38000 352.458
33.39000 356.183
33.40000 358.759
33.41000 355.518
33.42000 347.587
33.43000 339.863
33.44000 341.025
33.45000 346.911
33.46000 352.548
33.47000 355.045
33.48000 356.330
33.49000 357.299
33.50000 355.451
33.51000 352.937
33.52000 350.245
33.53000 346.591
33.54000 342.792
33.55000 339.777
33.56000 335.941
33.57000 332.796
33.58000 331.356
33.59000 333.949
33.60000 336.713
33.61000 337.554
33.62000 335.356
33.63000 333.120
33.64000 331.990
33.65000 333.542
33.66000 334.576
33.67000 335.120
33.68000 335.342
33.69000 335.633
33.70000 337.708
33.71000 340.567
33.72000 343.254
33.73000 338.138
33.74000 331.373
33.75000 325.143
33.76000 322.643
33.77000 320.860
33.78000 320.423
33.79000 325.914
33.80000 332.105
33.81000 336.786
33.82000 335.131
33.83000 333.515
33.84000 331.876
33.85000 330.189
33.86000 328.501
33.87000 328.921
33.88000 332.064
33.89000 335.213
33.90000 339.901
33.91000 345.835
33.92000 351.614
33.93000 350.310
33.94000 345.169
33.95000 339.896
33.96000 332.331
33.97000 323.933
33.98000 316.215
33.99000 313.852
34.00000 312.895
34.01000 313.242
34.02000 320.824
34.03000 329.520
34.04000 335.628
34.05000 332.404
34.06000 328.338
34.07000 325.429
34.08000 328.857
34.09000 331.689
34.10000 332.487
34.11000 330.009
34.12000 327.488
34.13000 326.667
34.14000 327.625
34.15000 328.577
34.16000 329.158
34.17000 329.485
34.18000 329.834
34.19000 330.751
34.20000 331.922
34.21000 332.944
34.22000 332.103
34.23000 330.704
34.24000 329.452
34.25000 328.243
34.26000 327.196
34.27000 325.566
34.28000 321.320
34.29000 316.756
34.30000 313.783
34.31000 315.533
34.32000 317.596
34.33000 318.981
34.34000 321.878
34.35000 324.061
34.36000 326.859
34.37000 330.468
34.38000 334.075
34.39000 334.394
34.40000 331.951
34.41000 329.539
34.42000 329.131
34.43000 329.811
34.44000 330.317
34.45000 327.710
34.46000 323.950
34.47000 319.869
34.48000 312.774
34.49000 304.937
34.50000 298.135
34.51000 305.908
34.52000 314.486
34.53000 322.106
34.54000 326.208
34.55000 329.984
34.56000 331.187
34.57000 326.072
34.58000 320.667
34.59000 317.289
34.60000 311.787
34.61000 307.795
34.62000 309.627
34.63000 317.679
34.64000 325.672
34.65000 326.563
34.66000 322.593
34.67000 318.716
34.68000 316.967
34.69000 316.220
34.70000 315.769
34.71000 319.118
34.72000 323.627
34.73000 327.534
34.74000 327.045
34.75000 325.675
34.76000 324.527
34.77000 319.466
34.78000 314.855
34.79000 311.959
34.80000 314.256
34.81000 316.907
34.82000 318.424
34.83000 317.638
34.84000 316.785
34.85000 316.295
34.86000 318.319
34.87000 319.743
34.88000 319.348
34.89000 317.393
34.90000 315.474
34.91000 315.392
34.92000 316.343
34.93000 317.259
34.94000 320.450
34.95000 324.248
34.96000 327.597
34.97000 326.615
34.98000 324.547
34.99000 323.744
35.00000 330.275
35.01000 337.986
35.02000 344.187
35.03000 330.915
35.04000 318.648
35.05000 311.551
35.06000 317.383
35.07000 323.831
35.08000 327.083
35.09000 324.981
35.10000 322.795
35.11000 321.655
35.12000 314.581
35.13000 309.817
35.14000 307.815
35.15000 307.742
35.16000 307.787
35.17000 311.297
35.18000 316.416
35.19000 321.257
35.20000 316.885
35.21000 310.232
35.22000 304.426
35.23000 304.944
35.24000 306.756
35.25000 308.296
35.26000 308.567
35.27000 308.676
35.28000 308.760
35.29000 308.629
35.30000 308.514
35.31000 308.517
35.32000 308.766
35.33000 309.022
35.34000 311.543
35.35000 317.172
35.36000 322.816
35.37000 321.223
35.38000 313.300
35.39000 305.534
35.40000 306.408
35.41000 312.237
35.42000 317.833
35.43000 318.921
35.44000 318.277
35.45000 317.682
35.46000 305.560
35.47000 292.013
35.48000 281.351
35.49000 287.786
35.50000 297.035
35.51000 304.742
35.52000 306.557
35.53000 307.795
35.54000 308.696
35.55000 309.218
35.56000 309.605
35.57000 310.623
35.58000 312.717
35.59000 314.829
35.60000 316.225
35.61000 316.823
35.62000 317.419
35.63000 316.213
35.64000 313.749
35.65000 311.229
35.66000 306.963
35.67000 301.871
35.68000 297.196
35.69000 298.223
35.70000 301.058
35.71000 303.617
35.72000 308.583
35.73000 313.386
35.74000 316.476
35.75000 311.379
35.76000 305.215
35.77000 301.645
35.78000 306.224
35.79000 311.397
35.80000 314.941
35.81000 308.138
35.82000 302.795
35.83000 297.559
35.84000 292.472
35.85000 287.394
35.86000 292.945
35.87000 308.009
35.88000 322.913
35.89000 322.959
35.90000 314.517
35.91000 306.444
35.92000 305.773
35.93000 308.000
35.94000 309.467
35.95000 303.209
35.96000 294.934
35.97000 287.684
35.98000 298.267
35.99000 309.921
36.00000 318.403
36.01000 314.526
36.02000 309.404
36.03000 306.236
36.04000 308.136
36.05000 310.298
36.06000 311.679
36.07000 303.331
36.08000 297.127
36.09000 296.495
36.10000 302.202
36.11000 307.884
36.12000 308.468
36.13000 305.347
36.14000 302.291
36.15000 300.617
36.16000 299.650
36.17000 298.510
36.18000 294.935
36.19000 290.573
36.20000 287.087
36.21000 290.464
36.22000 295.303
36.23000 299.401
36.24000 300.181
36.25000 300.464
36.26000 300.559
36.27000 300.050
36.28000 299.496
36.29000 299.881
36.30000 302.279
36.31000 304.745
36.32000 306.200
36.33000 308.544
36.34000 310.204
36.35000 311.437
36.36000 312.278
36.37000 313.063
36.38000 310.311
36.39000 305.453
36.40000 300.756
36.41000 299.409
36.42000 299.400
36.43000 299.312
36.44000 298.407
36.45000 297.285
36.46000 296.487
36.47000 297.701
36.48000 299.261
36.49000 300.531
36.50000 299.026
36.51000 297.563
36.52000 297.403
36.53000 300.687
36.54000 304.155
36.55000 304.368
36.56000 298.810
36.57000 293.141
36.58000 290.093
36.59000 300.413
36.60000 307.458
36.61000 310.980
36.62000 311.889
36.63000 312.609
36.64000 306.831
36.65000 297.861
36.66000 289.332
36.67000 297.937
36.68000 311.116
36.69000 322.145
36.70000 315.904
36.71000 305.907
36.72000 297.604
36.73000 297.729
36.74000 299.005
36.75000 299.998
36.76000 298.527
36.77000 297.203
36.78000 297.540
36.79000 301.509
36.80000 305.606
36.81000 305.699
36.82000 299.959
36.83000 294.170
36.84000 292.864
36.85000 295.742
36.86000 298.590
36.87000 299.387
36.88000 298.938
36.89000 298.581
36.90000 300.232
36.91000 302.698
36.92000 304.995
36.93000 308.579
36.94000 312.138
36.95000 315.457
36.96000 317.257
36.97000 318.791
36.98000 318.860
36.99000 312.994
37.00000 306.499
37.01000 301.693
37.02000 309.388
37.03000 315.895
37.04000 320.085
37.05000 320.087
37.06000 320.003
37.07000 318.763
37.08000 316.150
37.09000 313.543
37.10000 309.769
37.11000 305.145
37.12000 300.569
37.13000 297.723
37.14000 295.742
37.15000 294.286
37.16000 300.729
37.17000 309.824
37.18000 318.096
37.19000 322.345
37.20000 325.313
37.21000 326.262
37.22000 316.952
37.23000 306.206
37.24000 298.936
37.25000 303.227
37.26000 308.441
37.27000 312.080
37.28000 310.673
37.29000 309.470
37.30000 309.802
37.31000 312.411
37.32000 315.041
37.33000 313.732
37.34000 308.665
37.35000 303.639
37.36000 297.796
37.37000 291.561
37.38000 285.660
37.39000 287.258
37.40000 291.962
37.41000 296.799
37.42000 303.116
37.43000 309.841
37.44000 315.787
37.45000 307.814
37.46000 298.765
37.47000 291.728
37.48000 293.002
37.49000 295.180
37.50000 296.545
37.51000 295.673
37.52000 294.673
37.53000 294.020
37.54000 297.741
37.55000 300.542
37.56000 299.662
37.57000 294.323
37.58000 288.983
37.59000 285.688
37.60000 283.970
37.61000 282.281
37.62000 284.160
37.63000 287.736
37.64000 290.829
37.65000 286.431
37.66000 279.470
37.67000 273.337
37.68000 274.198
37.69000 276.643
37.70000 278.735
37.71000 285.955
37.72000 292.664
37.73000 297.758
37.74000 297.371
37.75000 296.534
37.76000 296.475
37.77000 298.183
37.78000 299.959
37.79000 301.033
37.80000 297.971
37.81000 295.760
37.82000 294.501
37.83000 294.171
37.84000 293.796
37.85000 289.807
37.86000 283.537
37.87000 277.450
37.88000 278.975
37.89000 283.470
37.90000 287.859
37.91000 291.051
37.92000 293.905
37.93000 296.636
37.94000 298.550
37.95000 300.315
37.96000 301.769
37.97000 303.630
37.98000 305.199
37.99000 305.420
38.00000 301.872
38.01000 298.100
38.02000 296.162
38.03000 297.665
38.04000 299.249
38.05000 300.125
38.06000 291.164
38.07000 284.996
38.08000 289.097
38.09000 301.280
38.10000 313.170
38.11000 313.303
38.12000 307.324
38.13000 301.609
38.14000 298.713
38.15000 296.932
38.16000 295.454
38.17000 296.605
38.18000 298.362
38.19000 299.486
38.20000 297.253
38.21000 294.528
38.22000 292.377
38.23000 308.391
38.24000 322.475
38.25000 333.183
38.26000 336.081
38.27000 338.665
38.28000 343.184
38.29000 350.690
38.30000 358.229
38.31000 358.420
38.32000 351.287
38.33000 344.219
38.34000 342.639
38.35000 344.591
38.36000 346.776
38.37000 354.671
38.38000 365.020
38.39000 374.724
38.40000 395.301
38.41000 416.888
38.42000 437.939
38.43000 455.367
38.44000 472.116
38.45000 488.658
38.46000 504.308
38.47000 519.855
38.48000 531.540
38.49000 564.569
38.50000 591.420
38.51000 621.027
38.52000 655.905
38.53000 690.911
38.54000 729.531
38.55000 772.710
38.56000 815.833
38.57000 872.881
38.58000 940.831
38.59000 1008.439
38.60000 1061.571
38.61000 1107.036
38.62000 1153.211
38.63000 1211.185
38.64000 1273.352
38.65000 1330.325
38.66000 1375.825
38.67000 1413.937
38.68000 1453.107
38.69000 1498.006
38.70000 1543.763
38.71000 1580.817
38.72000 1587.208
38.73000 1590.927
38.74000 1593.570
38.75000 1577.590
38.76000 1564.830
38.77000 1551.994
38.78000 1539.038
38.79000 1526.079
38.80000 1500.603
38.81000 1462.377
38.82000 1424.394
38.83000 1371.717
38.84000 1310.302
38.85000 1249.308
38.86000 1199.069
38.87000 1153.538
38.88000 1106.402
38.89000 1039.943
38.90000 967.821
38.91000 903.487
38.92000 850.782
38.93000 806.859
38.94000 762.400
38.95000 715.584
38.96000 668.492
38.97000 623.550
38.98000 584.855
38.99000 546.557
39.00000 521.031
39.01000 492.415
39.02000 471.171
39.03000 453.163
39.04000 439.323
39.05000 425.491
39.06000 408.765
39.07000 389.665
39.08000 370.837
39.09000 358.653
39.10000 350.302
39.11000 341.782
39.12000 330.333
39.13000 317.825
39.14000 307.082
39.15000 312.413
39.16000 321.608
39.17000 329.557
39.18000 318.135
39.19000 305.909
39.20000 295.824
39.21000 293.430
39.22000 291.725
39.23000 291.528
39.24000 294.950
39.25000 298.530
39.26000 300.748
39.27000 304.057
39.28000 306.446
39.29000 302.424
39.30000 291.729
39.31000 281.124
39.32000 279.947
39.33000 285.076
39.34000 290.076
39.35000 288.923
39.36000 285.204
39.37000 281.453
39.38000 277.314
39.39000 273.058
39.40000 268.938
39.41000 265.786
39.42000 262.822
39.43000 260.350
39.44000 268.318
39.45000 275.966
39.46000 281.541
39.47000 280.980
39.48000 280.016
39.49000 280.035
39.50000 282.009
39.51000 284.036
39.52000 285.190
39.53000 288.549
39.54000 290.886
39.55000 287.187
39.56000 278.435
39.57000 269.868
39.58000 270.116
39.59000 275.213
39.60000 280.109
39.61000 277.887
39.62000 273.349
39.63000 269.304
39.64000 269.865
39.65000 271.556
39.66000 272.477
39.67000 269.048
39.68000 264.937
39.69000 261.649
39.70000 264.314
39.71000 266.913
39.72000 268.997
39.73000 269.824
39.74000 270.594
39.75000 270.166
39.76000 267.777
39.77000 265.361
39.78000 264.115
39.79000 262.506
39.80000 261.432
39.81000 261.347
39.82000 261.937
39.83000 262.604
39.84000 265.407
39.85000 269.180
39.86000 272.740
39.87000 271.022
39.88000 267.975
39.89000 265.296
39.90000 265.287
39.91000 265.810
39.92000 266.242
39.93000 266.252
39.94000 266.210
39.95000 266.178
39.96000 269.610
39.97000 272.499
39.98000 272.585
39.99000 266.998
40.00000 261.249
40.01000 259.191
40.02000 262.083
40.03000 264.997
40.04000 261.012
40.05000 251.151
40.06000 241.505
40.07000 242.802
40.08000 250.235
40.09000 257.398
40.10000 259.576
40.11000 259.882
40.12000 260.163
40.13000 254.170
40.14000 247.391
40.15000 242.708
40.16000 250.131
40.17000 259.494
40.18000 267.130
40.19000 268.319
40.20000 268.897
40.21000 269.314
40.22000 264.049
40.23000 259.802
40.24000 255.821
40.25000 252.284
40.26000 248.753
40.27000 249.744
40.28000 255.645
40.29000 261.521
40.30000 262.949
40.31000 261.300
40.32000 259.627
40.33000 257.273
40.34000 254.604
40.35000 252.144
40.36000 252.449
40.37000 253.610
40.38000 254.655
40.39000 255.185
40.40000 255.557
40.41000 255.545
40.42000 253.736
40.43000 251.701
40.44000 251.610
40.45000 257.498
40.46000 263.805
40.47000 268.093
40.48000 259.759
40.49000 253.253
40.50000 247.987
40.51000 244.418
40.52000 240.866
40.53000 243.947
40.54000 252.817
40.55000 261.584
40.56000 264.788
40.57000 264.813
40.58000 264.561
40.59000 259.008
40.60000 251.426
40.61000 244.336
40.62000 242.099
40.63000 241.100
40.64000 240.228
40.65000 243.960
40.66000 247.799
40.67000 252.218
40.68000 258.848
40.69000 265.693
40.70000 269.742
40.71000 266.692
40.72000 263.293
40.73000 261.139
40.74000 249.174
40.75000 240.377
40.76000 236.807
40.77000 239.037
40.78000 241.275
40.79000 244.053
40.80000 247.214
40.81000 250.306
40.82000 249.654
40.83000 247.334
40.84000 245.216
40.85000 245.851
40.86000 247.356
40.87000 248.575
40.88000 247.623
40.89000 246.218
40.90000 245.034
40.91000 250.463
40.92000 255.713
40.93000 259.421
40.94000 258.301
40.95000 256.833
40.96000 256.102
40.97000 256.921
40.98000 257.789
40.99000 258.296
41.00000 256.210
41.01000 254.728
41.02000 249.781
41.03000 241.747
41.04000 233.864
41.05000 234.740
41.06000 240.718
41.07000 246.488
41.08000 249.739
41.09000 251.876
41.10000 253.474
41.11000 249.627
41.12000 244.363
41.13000 240.067
41.14000 241.611
41.15000 244.132
41.16000 246.175
41.17000 242.453
41.18000 238.951
41.19000 236.943
41.20000 238.801
41.21000 240.856
41.22000 243.257
41.23000 246.255
41.24000 249.263
41.25000 250.863
41.26000 249.988
41.27000 249.383
41.28000 247.509
41.29000 244.717
41.30000 242.077
41.31000 244.313
41.32000 248.891
41.33000 253.235
41.34000 253.916
41.35000 253.456
41.36000 252.223
41.37000 244.959
41.38000 236.416
41.39000 230.278
41.40000 235.821
41.41000 242.915
41.42000 248.408
41.43000 248.560
41.44000 248.364
41.45000 248.763
41.46000 250.436
41.47000 252.152
41.48000 253.704
41.49000 255.023
41.50000 256.340
41.51000 255.192
41.52000 251.803
41.53000 248.411
41.54000 244.811
41.55000 241.088
41.56000 237.696
41.57000 241.134
41.58000 247.287
41.59000 253.005
41.60000 252.324
41.61000 250.177
41.62000 248.006
41.63000 245.688
41.64000 243.345
41.65000 240.329
41.66000 234.655
41.67000 228.707
41.68000 224.335
41.69000 232.539
41.70000 239.400
41.71000 245.003
41.72000 248.385
41.73000 251.724
41.74000 250.010
41.75000 242.446
41.76000 234.898
41.77000 231.342
41.78000 230.737
41.79000 230.119
41.80000 229.068
41.81000 227.805
41.82000 226.656
41.83000 227.169
41.84000 228.228
41.85000 229.189
41.86000 232.703
41.87000 236.291
41.88000 238.232
41.89000 232.003
41.90000 224.664
41.91000 219.688
41.92000 222.397
41.93000 225.698
41.94000 227.985
41.95000 235.813
41.96000 241.850
41.97000 243.989
41.98000 240.469
41.99000 236.903
42.00000 234.276
42.01000 232.522
42.02000 230.784
42.03000 231.047
42.04000 232.490
42.05000 233.940
42.06000 235.513
42.07000 237.136
42.08000 238.492
42.09000 237.007
42.10000 234.754
42.11000 232.769
42.12000 235.042
42.13000 237.643
42.14000 239.247
42.15000 236.823
42.16000 233.974
42.17000 232.800
42.18000 236.127
42.19000 239.700
42.20000 242.014
42.21000 232.069
42.22000 224.611
42.23000 224.565
42.24000 233.277
42.25000 241.975
42.26000 244.666
42.27000 242.831
42.28000 241.031
42.29000 241.476
42.30000 242.986
42.31000 244.370
42.32000 243.872
42.33000 242.743
42.34000 241.619
42.35000 240.536
42.36000 239.462
42.37000 238.547
42.38000 239.988
42.39000 241.476
42.40000 241.139
42.41000 234.752
42.42000 227.884
42.43000 223.478
42.44000 224.536
42.45000 225.793
42.46000 226.547
42.47000 233.824
42.48000 239.033
42.49000 240.875
42.50000 239.520
42.51000 238.152
42.52000 235.839
42.53000 232.942
42.54000 230.134
42.55000 226.335
42.56000 222.349
42.57000 218.891
42.58000 221.238
42.59000 225.184
42.60000 229.203
42.61000 233.691
42.62000 238.262
42.63000 242.012
42.64000 246.772
42.65000 250.768
42.66000 252.904
42.67000 249.950
42.68000 246.705
42.69000 240.026
42.70000 227.044
42.71000 213.926
42.72000 206.746
42.73000 225.988
42.74000 239.213
42.75000 242.525
42.76000 238.219
42.77000 233.976
42.78000 232.121
42.79000 231.479
42.80000 230.866
42.81000 234.857
42.82000 240.018
42.83000 244.842
42.84000 246.830
42.85000 248.178
42.86000 248.975
42.87000 246.917
42.88000 244.453
42.89000 242.518
42.90000 235.612
42.91000 229.762
42.92000 225.388
42.93000 224.357
42.94000 223.452
42.95000 222.353
42.96000 220.958
42.97000 219.561
42.98000 222.094
42.99000 228.442
43.00000 234.693
43.01000 233.311
43.02000 227.129
43.03000 221.151
43.04000 219.935
43.05000 220.719
43.06000 221.453
43.07000 225.527
43.08000 230.079
43.09000 233.226
43.10000 227.098
43.11000 219.275
43.12000 212.675
43.13000 211.207
43.14000 210.309
43.15000 209.639
43.16000 219.178
43.17000 227.084
43.18000 233.053
43.19000 235.399
43.20000 237.664
43.21000 237.454
43.22000 234.199
43.23000 230.942
43.24000 230.279
43.25000 231.642
43.26000 232.964
43.27000 232.646
43.28000 231.477
43.29000 230.083
43.30000 225.075
43.31000 218.812
43.32000 213.090
43.33000 211.737
43.34000 211.428
43.35000 211.210
43.36000 211.466
43.37000 211.792
43.38000 212.822
43.39000 216.277
43.40000 219.936
43.41000 222.518
43.42000 224.765
43.43000 226.461
43.44000 225.007
43.45000 218.707
43.46000 212.354
43.47000 210.122
43.48000 211.981
43.49000 213.827
43.50000 215.674
43.51000 217.493
43.52000 219.454
43.53000 224.880
43.54000 231.789
43.55000 238.219
43.56000 239.089
43.57000 238.367
43.58000 237.724
43.59000 232.714
43.60000 227.660
43.61000 222.809
43.62000 218.825
43.63000 214.940
43.64000 213.009
43.65000 216.626
43.66000 220.582
43.67000 223.197
43.68000 227.491
43.69000 230.689
43.70000 231.638
43.71000 229.759
43.72000 227.871
43.73000 225.669
43.74000 223.216
43.75000 220.801
43.76000 224.180
43.77000 230.420
43.78000 236.169
43.79000 233.798
43.80000 228.551
43.81000 223.670
43.82000 222.017
43.83000 221.122
43.84000 220.350
43.85000 219.611
43.86000 218.989
43.87000 219.470
43.88000 223.825
43.89000 228.515
43.90000 230.665
43.91000 226.852
43.92000 222.790
43.93000 220.298
43.94000 227.370
43.95000 232.519
43.96000 231.556
43.97000 224.395
43.98000 217.287
43.99000 215.183
44.00000 216.348
44.01000 217.482
44.02000 217.333
44.03000 216.658
44.04000 216.111
44.05000 217.103
44.06000 218.543
44.07000 219.489
44.08000 217.021
44.09000 213.902
44.10000 211.314
44.11000 213.533
44.12000 215.832
44.13000 219.085
44.14000 225.100
44.15000 231.289
44.16000 233.926
44.17000 229.666
44.18000 225.231
44.19000 222.734
44.20000 222.191
44.21000 221.816
44.22000 220.328
44.23000 217.930
44.24000 215.613
44.25000 216.908
44.26000 220.145
44.27000 223.250
44.28000 221.686
44.29000 218.654
44.30000 215.967
44.31000 216.397
44.32000 217.575
44.33000 218.311
44.34000 216.616
44.35000 214.549
44.36000 212.904
44.37000 214.092
44.38000 215.253
44.39000 214.829
44.40000 210.614
44.41000 206.233
44.42000 207.803
44.43000 218.888
44.44000 230.097
44.45000 235.803
44.46000 229.819
44.47000 225.783
44.48000 219.435
44.49000 211.546
44.50000 203.992
44.51000 205.277
44.52000 210.491
44.53000 215.398
44.54000 218.882
44.55000 221.681
44.56000 224.040
44.57000 223.292
44.58000 221.938
44.59000 220.455
44.60000 218.389
44.61000 216.253
44.62000 214.633
44.63000 220.646
44.64000 225.762
44.65000 230.996
44.66000 236.463
44.67000 241.938
44.68000 243.244
44.69000 239.095
44.70000 234.927
44.71000 231.499
44.72000 228.696
44.73000 226.011
44.74000 228.931
44.75000 234.925
44.76000 240.980
44.77000 248.127
44.78000 255.677
44.79000 262.626
44.80000 256.470
44.81000 248.103
44.82000 241.423
44.83000 244.233
44.84000 248.525
44.85000 250.157
44.86000 242.084
44.87000 233.121
44.88000 226.685
44.89000 242.913
44.90000 256.110
44.91000 262.851
44.92000 259.066
44.93000 255.132
44.94000 257.158
44.95000 265.497
44.96000 273.792
44.97000 276.787
44.98000 276.186
44.99000 275.682
45.00000 277.839
45.01000 281.200
45.02000 284.596
45.03000 288.427
45.04000 292.389
45.05000 295.941
45.06000 293.644
45.07000 290.621
45.08000 287.849
45.09000 286.216
45.10000 284.724
45.11000 284.945
45.12000 290.312
45.13000 296.027
45.14000 299.882
45.15000 295.332
45.16000 291.768
45.17000 286.842
45.18000 280.097
45.19000 273.348
45.20000 269.898
45.21000 269.256
45.22000 268.623
45.23000 264.669
45.24000 259.010
45.25000 253.847
45.26000 257.785
45.27000 265.130
45.28000 272.254
45.29000 277.263
45.30000 281.745
45.31000 285.642
45.32000 282.869
45.33000 279.595
45.34000 276.491
45.35000 274.017
45.36000 271.603
45.37000 270.373
45.38000 272.083
45.39000 273.931
45.40000 275.092
45.41000 270.625
45.42000 267.334
45.43000 265.884
45.44000 266.425
45.45000 266.926
45.46000 262.315
45.47000 254.162
45.48000 246.196
45.49000 245.068
45.50000 247.008
45.51000 249.086
45.52000 252.970
45.53000 257.412
45.54000 261.821
45.55000 265.991
45.56000 270.113
45.57000 273.573
45.58000 266.562
45.59000 259.625
45.60000 253.698
45.61000 250.861
45.62000 248.239
45.63000 245.161
45.64000 241.149
45.65000 237.109
45.66000 234.774
45.67000 252.190
45.68000 264.459
45.69000 262.648
45.70000 248.598
45.71000 234.758
45.72000 232.250
45.73000 236.192
45.74000 239.989
45.75000 240.156
45.76000 239.013
45.77000 238.079
45.78000 239.210
45.79000 240.866
45.80000 241.609
45.81000 236.992
45.82000 231.500
45.83000 227.072
45.84000 228.094
45.85000 229.352
45.86000 230.123
45.87000 229.659
45.88000 229.134
45.89000 227.821
45.90000 225.172
45.91000 222.501
45.92000 221.098
45.93000 218.906
45.94000 217.435
45.95000 218.029
45.96000 220.082
45.97000 222.217
45.98000 226.808
45.99000 232.553
46.00000 237.992
46.01000 230.630
46.02000 220.145
46.03000 211.095
46.04000 212.921
46.05000 217.000
46.06000 220.250
46.07000 219.575
46.08000 218.394
46.09000 217.485
46.10000 212.981
46.11000 209.212
46.12000 206.527
46.13000 206.112
46.14000 205.769
46.15000 204.981
46.16000 203.576
46.17000 202.167
46.18000 202.727
46.19000 205.033
46.20000 207.283
46.21000 206.354
46.22000 203.581
46.23000 201.011
46.24000 202.445
46.25000 205.436
46.26000 208.208
46.27000 209.791
46.28000 210.938
46.29000 211.596
46.30000 209.318
46.31000 206.550
46.32000 204.604
46.33000 205.839
46.34000 207.390
46.35000 208.523
46.36000 207.634
46.37000 206.869
46.38000 205.598
46.39000 203.451
46.40000 201.288
46.41000 198.061
46.42000 193.631
46.43000 189.217
46.44000 193.314
46.45000 203.456
46.46000 213.219
46.47000 210.885
46.48000 202.760
46.49000 195.260
46.50000 196.484
46.51000 200.510
46.52000 204.149
46.53000 204.743
46.54000 204.700
46.55000 204.201
46.56000 201.502
46.57000 198.511
46.58000 196.676
46.59000 198.516
46.60000 200.628
46.61000 202.081
46.62000 200.825
46.63000 199.816
46.64000 197.957
46.65000 194.894
46.66000 191.825
46.67000 193.194
46.68000 198.587
46.69000 203.926
46.70000 203.804
46.71000 200.526
46.72000 197.288
46.73000 194.880
46.74000 192.800
46.75000 191.186
46.76000 194.390
46.77000 198.867
46.78000 202.797
46.79000 202.107
46.80000 200.836
46.81000 199.079
46.82000 195.405
46.83000 191.535
46.84000 188.382
46.85000 187.113
46.86000 185.943
46.87000 185.192
46.88000 192.761
46.89000 198.394
46.90000 202.072
46.91000 203.494
46.92000 204.907
46.93000 205.035
46.94000 204.218
46.95000 203.417
46.96000 200.735
46.97000 197.271
46.98000 194.085
46.99000 194.924
47.00000 197.079
47.01000 198.927
47.02000 198.334
47.03000 197.214
47.04000 196.264
47.05000 195.565
47.06000 195.008
47.07000 194.941
47.08000 196.462
47.09000 198.104
47.10000 199.008
47.11000 198.308
47.12000 197.553
47.13000 197.105
47.14000 192.780
47.15000 189.699
47.16000 190.422
47.17000 194.667
47.18000 198.854
47.19000 199.255
47.20000 197.374
47.21000 195.553
47.22000 194.363
47.23000 193.479
47.24000 192.750
47.25000 193.680
47.26000 195.057
47.27000 195.719
47.28000 191.890
47.29000 187.280
47.30000 183.516
47.31000 184.367
47.32000 185.460
47.33000 187.280
47.34000 191.045
47.35000 194.918
47.36000 196.673
47.37000 194.633
47.38000 192.517
47.39000 191.372
47.40000 194.329
47.41000 196.354
47.42000 197.356
47.43000 197.591
47.44000 197.733
47.45000 194.580
47.46000 189.789
47.47000 185.229
47.48000 183.834
47.49000 183.519
47.50000 183.596
47.51000 186.864
47.52000 190.834
47.53000 194.306
47.54000 195.267
47.55000 195.881
47.56000 196.360
47.57000 189.601
47.58000 183.754
47.59000 180.663
47.60000 183.673
47.61000 186.904
47.62000 188.052
47.63000 186.130
47.64000 184.180
47.65000 187.913
47.66000 197.020
47.67000 205.978
47.68000 204.324
47.69000 196.150
47.70000 188.245
47.71000 186.322
47.72000 186.858
47.73000 187.358
47.74000 186.062
47.75000 184.441
47.76000 182.665
47.77000 179.898
47.78000 176.954
47.79000 174.650
47.80000 174.976
47.81000 175.585
47.82000 176.038
47.83000 184.209
47.84000 190.898
47.85000 193.585
47.86000 188.956
47.87000 184.171
47.88000 182.633
47.89000 184.996
47.90000 187.362
47.91000 189.376
47.92000 191.111
47.93000 192.753
47.94000 190.989
47.95000 187.498
47.96000 184.434
47.97000 187.914
47.98000 193.617
47.99000 198.812
48.00000 196.507
48.01000 192.974
48.02000 189.984
48.03000 189.797
48.04000 190.007
48.05000 188.583
48.06000 181.655
48.07000 174.279
48.08000 169.112
48.09000 178.056
48.10000 185.225
48.11000 189.894
48.12000 190.803
48.13000 191.674
48.14000 188.622
48.15000 181.778
48.16000 174.989
48.17000 176.217
48.18000 182.358
48.19000 188.199
48.20000 187.100
48.21000 183.096
48.22000 179.583
48.23000 181.594
48.24000 185.152
48.25000 188.305
48.26000 187.377
48.27000 185.932
48.28000 184.727
48.29000 184.526
48.30000 184.436
48.31000 183.466
48.32000 180.050
48.33000 176.491
48.34000 174.156
48.35000 172.440
48.36000 171.189
48.37000 170.859
48.38000 171.661
48.39000 172.470
48.40000 174.320
48.41000 176.985
48.42000 179.606
48.43000 180.576
48.44000 180.692
48.45000 180.948
48.46000 183.448
48.47000 186.724
48.48000 189.457
48.49000 187.536
48.50000 184.547
48.51000 181.984
48.52000 182.685
48.53000 183.678
48.54000 184.189
48.55000 183.049
48.56000 181.770
48.57000 181.499
48.58000 183.546
48.59000 185.684
48.60000 186.984
48.61000 186.816
48.62000 186.685
48.63000 183.393
48.64000 176.978
48.65000 170.663
48.66000 172.802
48.67000 180.340
48.68000 187.665
48.69000 187.184
48.70000 183.564
48.71000 180.349
48.72000 181.841
48.73000 184.676
48.74000 187.427
48.75000 189.614
48.76000 191.696
48.77000 193.416
48.78000 192.798
48.79000 192.069
48.80000 190.526
48.81000 186.679
48.82000 182.691
48.83000 179.725
48.84000 178.696
48.85000 177.713
48.86000 177.166
48.87000 177.904
48.88000 178.419
48.89000 179.382
48.90000 180.704
48.91000 181.944
48.92000 179.804
48.93000 175.887
48.94000 172.138
48.95000 174.225
48.96000 178.086
48.97000 182.089
48.98000 187.337
48.99000 192.877
49.00000 196.948
49.01000 193.127
49.02000 188.135
49.03000 184.182
49.04000 179.488
49.05000 175.663
49.06000 174.687
49.07000 180.375
49.08000 186.339
49.09000 189.052
49.10000 186.683
49.11000 184.254
49.12000 183.033
49.13000 185.356
49.14000 186.883
49.15000 186.313
49.16000 184.377
49.17000 182.498
49.18000 182.072
49.19000 182.277
49.20000 182.470
49.21000 178.316
49.22000 173.374
49.23000 169.028
49.24000 168.767
49.25000 169.281
49.26000 170.155
49.27000 172.592
49.28000 175.211
49.29000 177.185
49.30000 178.003
49.31000 178.587
49.32000 178.889
49.33000 178.645
49.34000 178.387
49.35000 177.571
49.36000 176.040
49.37000 174.510
49.38000 173.131
49.39000 171.881
49.40000 170.630
49.41000 169.350
49.42000 168.054
49.43000 166.774
49.44000 165.784
49.45000 164.897
49.46000 164.083
49.47000 162.322
49.48000 160.550
49.49000 159.689
49.50000 163.826
49.51000 168.722
49.52000 172.755
49.53000 173.709
49.54000 174.391
49.55000 174.877
49.56000 179.076
49.57000 182.399
49.58000 181.938
49.59000 175.447
49.60000 168.877
49.61000 168.815
49.62000 175.470
49.63000 182.086
49.64000 181.303
49.65000 175.687
49.66000 170.218
49.67000 168.631
49.68000 168.762
49.69000 168.909
49.70000 169.242
49.71000 169.631
49.72000 169.979
49.73000 174.234
49.74000 178.603
49.75000 182.030
49.76000 181.277
49.77000 180.024
49.78000 179.280
49.79000 180.029
49.80000 180.874
49.81000 181.441
49.82000 178.013
49.83000 175.392
49.84000 175.320
49.85000 178.572
49.86000 181.831
49.87000 181.780
49.88000 178.980
49.89000 176.218
49.90000 173.642
49.91000 171.236
49.92000 168.818
49.93000 166.187
49.94000 163.477
49.95000 160.846
49.96000 158.946
49.97000 157.224
49.98000 155.732
49.99000 164.756
50.00000 173.824
50.01000 180.682
50.02000 179.506
50.03000 177.597
50.04000 175.738
50.05000 174.002
50.06000 172.271
50.07000 171.194
50.08000 177.000
50.09000 181.251
50.10000 180.229
50.11000 173.645
50.12000 167.122
50.13000 167.452
50.14000 172.421
50.15000 177.268
50.16000 178.096
50.17000 177.153
50.18000 176.069
50.19000 173.195
50.20000 169.780
50.21000 167.264
50.22000 171.213
50.23000 176.442
50.24000 180.813
50.25000 177.444
50.26000 173.861
50.27000 171.215
50.28000 171.374
50.29000 171.723
50.30000 172.788
50.31000 175.295
50.32000 177.842
50.33000 179.299
50.34000 179.931
50.35000 180.368
50.36000 180.543
50.37000 180.495
50.38000 180.463
50.39000 181.208
50.40000 182.387
50.41000 183.520
50.42000 187.143
50.43000 191.410
50.44000 194.953
50.45000 191.621
50.46000 186.583
50.47000 182.268
50.48000 182.094
50.49000 182.578
50.50000 182.966
50.51000 183.454
50.52000 183.857
50.53000 185.537
50.54000 190.379
50.55000 195.368
50.56000 199.076
50.57000 200.660
50.58000 202.213
50.59000 203.018
50.60000 209.550
50.61000 213.951
50.62000 217.128
50.63000 219.461
50.64000 221.658
50.65000 219.939
50.66000 216.420
50.67000 213.096
50.68000 213.735
50.69000 215.441
50.70000 216.817
50.71000 215.758
50.72000 214.207
50.73000 212.643
50.74000 211.016
50.75000 209.381
50.76000 208.130
50.77000 210.765
50.78000 213.057
50.79000 215.603
50.80000 218.670
50.81000 221.752
50.82000 219.391
50.83000 209.641
50.84000 199.857
50.85000 198.475
50.86000 204.357
50.87000 210.170
50.88000 212.333
50.89000 212.424
50.90000 212.382
50.91000 209.794
50.92000 206.239
50.93000 202.954
50.94000 202.166
50.95000 202.026
50.96000 201.192
50.97000 196.296
50.98000 190.740
50.99000 187.059
51.00000 190.464
51.01000 194.553
51.02000 197.519
51.03000 195.160
51.04000 193.148
51.05000 191.630
51.06000 190.947
51.07000 190.276
51.08000 187.808
51.09000 183.360
51.10000 178.930
51.11000 177.998
51.12000 179.512
51.13000 180.987
51.14000 181.300
51.15000 181.067
51.16000 180.942
51.17000 182.265
51.18000 184.041
51.19000 185.642
51.20000 183.288
51.21000 180.506
51.22000 177.489
51.23000 173.359
51.24000 169.086
51.25000 167.160
51.26000 172.533
51.27000 178.428
51.28000 182.452
51.29000 176.977
51.30000 172.662
51.31000 170.496
51.32000 171.305
51.33000 172.131
51.34000 171.133
51.35000 168.524
51.36000 165.943
51.37000 166.562
51.38000 168.973
51.39000 171.209
51.40000 170.012
51.41000 167.485
51.42000 165.298
51.43000 166.513
51.44000 168.607
51.45000 170.439
51.46000 173.462
51.47000 176.223
51.48000 177.615
51.49000 173.737
51.50000 169.337
51.51000 167.288
51.52000 171.280
51.53000 175.576
51.54000 178.311
51.55000 172.956
51.56000 168.963
51.57000 166.731
51.58000 166.478
51.59000 166.226
51.60000 165.954
51.61000 165.667
51.62000 165.386
51.63000 166.883
51.64000 169.135
51.65000 171.201
51.66000 170.676
51.67000 169.324
51.68000 167.945
51.69000 166.364
51.70000 164.740
51.71000 163.368
51.72000 162.751
51.73000 162.318
51.74000 161.893
51.75000 161.493
51.76000 161.094
51.77000 161.141
51.78000 162.134
51.79000 163.159
51.80000 163.760
51.81000 165.622
51.82000 166.939
51.83000 166.238
51.84000 163.713
51.85000 161.246
51.86000 162.220
51.87000 165.221
51.88000 168.121
51.89000 168.013
51.90000 166.791
51.91000 165.705
51.92000 166.012
51.93000 166.686
51.94000 167.198
51.95000 166.721
51.96000 166.076
51.97000 165.553
51.98000 162.079
51.99000 158.999
52.00000 157.033
52.01000 157.976
52.02000 159.072
52.03000 160.364
52.04000 161.997
52.05000 163.638
52.06000 164.515
52.07000 165.057
52.08000 165.414
52.09000 163.721
52.10000 160.526
52.11000 157.481
52.12000 159.429
52.13000 163.805
52.14000 167.962
52.15000 167.612
52.16000 165.933
52.17000 164.558
52.18000 165.600
52.19000 167.161
52.20000 168.358
52.21000 167.759
52.22000 166.918
52.23000 166.265
52.24000 163.825
52.25000 161.776
52.26000 160.178
52.27000 159.555
52.28000 158.965
52.29000 159.659
52.30000 162.202
52.31000 164.759
52.32000 165.683
52.33000 165.099
52.34000 164.506
52.35000 163.239
52.36000 161.569
52.37000 159.979
52.38000 160.071
52.39000 160.839
52.40000 161.554
52.41000 160.014
52.42000 158.076
52.43000 156.639
52.44000 158.337
52.45000 160.579
52.46000 161.383
52.47000 156.427
52.48000 150.869
52.49000 146.769
52.50000 155.768
52.51000 163.289
52.52000 166.340
52.53000 161.403
52.54000 156.308
52.55000 156.109
52.56000 161.650
52.57000 167.184
52.58000 170.187
52.59000 171.289
52.60000 172.185
52.61000 165.876
52.62000 155.998
52.63000 146.756
52.64000 146.902
52.65000 150.166
52.66000 153.131
52.67000 155.357
52.68000 157.180
52.69000 159.385
52.70000 163.513
52.71000 167.907
52.72000 170.372
52.73000 166.490
52.74000 162.109
52.75000 159.063
52.76000 162.658
52.77000 165.549
52.78000 166.660
52.79000 165.156
52.80000 163.629
52.81000 164.505
52.82000 167.643
52.83000 170.754
52.84000 170.105
52.85000 167.211
52.86000 164.244
52.87000 159.682
52.88000 154.465
52.89000 149.923
52.90000 152.712
52.91000 157.506
52.92000 161.738
52.93000 162.308
52.94000 162.239
52.95000 162.006
52.96000 161.097
52.97000 160.115
52.98000 159.169
52.99000 158.317
53.00000 157.470
53.01000 156.920
53.02000 162.941
53.03000 167.455
53.04000 168.236
53.05000 164.548
53.06000 160.856
53.07000 158.157
53.08000 156.216
53.09000 154.310
53.10000 157.341
53.11000 162.674
53.12000 167.625
53.13000 166.738
53.14000 163.874
53.15000 161.075
53.16000 158.814
53.17000 156.674
53.18000 154.846
53.19000 162.591
53.20000 170.255
53.21000 175.583
53.22000 173.079
53.23000 169.942
53.24000 166.852
53.25000 163.869
53.26000 160.891
53.27000 159.097
53.28000 155.737
53.29000 153.336
53.30000 155.928
53.31000 163.328
53.32000 170.613
53.33000 169.221
53.34000 162.414
53.35000 155.810
53.36000 155.728
53.37000 158.231
53.38000 160.835
53.39000 164.573
53.40000 168.627
53.41000 172.056
53.42000 171.400
53.43000 170.003
53.44000 168.854
53.45000 171.274
53.46000 173.585
53.47000 174.216
53.48000 170.193
53.49000 165.899
53.50000 162.942
53.51000 162.464
53.52000 162.043
53.53000 161.810
53.54000 161.892
53.55000 161.949
53.56000 161.974
53.57000 161.975
53.58000 161.977
53.59000 162.005
53.60000 162.047
53.61000 162.087
53.62000 163.697
53.63000 165.697
53.64000 167.708
53.65000 169.817
53.66000 171.949
53.67000 172.831
53.68000 167.166
53.69000 160.556
53.70000 155.351
53.71000 157.975
53.72000 160.600
53.73000 162.593
53.74000 163.138
53.75000 163.626
53.76000 163.585
53.77000 162.735
53.78000 161.877
53.79000 158.448
53.80000 152.488
53.81000 146.587
53.82000 145.401
53.83000 147.217
53.84000 149.145
53.85000 153.761
53.86000 159.522
53.87000 164.917
53.88000 166.578
53.89000 167.123
53.90000 167.489
53.91000 166.657
53.92000 165.603
53.93000 164.378
53.94000 162.424
53.95000 160.388
53.96000 158.861
53.97000 159.233
53.98000 159.612
53.99000 160.430
54.00000 162.077
54.01000 163.743
54.02000 165.093
54.03000 166.048
54.04000 167.001
54.05000 164.832
54.06000 160.205
54.07000 155.697
54.08000 156.043
54.09000 158.933
54.10000 161.577
54.11000 160.209
54.12000 157.430
54.13000 154.887
54.14000 158.081
54.15000 162.112
54.16000 165.481
54.17000 165.312
54.18000 164.620
54.19000 164.201
54.20000 164.733
54.21000 165.348
54.22000 165.783
54.23000 159.960
54.24000 155.339
54.25000 152.943
54.26000 154.012
54.27000 155.121
54.28000 156.110
54.29000 156.979
54.30000 157.841
54.31000 157.366
54.32000 156.043
54.33000 154.790
54.34000 155.286
54.35000 156.539
54.36000 158.065
54.37000 162.822
54.38000 168.516
54.39000 173.586
54.40000 167.231
54.41000 159.832
54.42000 153.949
54.43000 154.649
54.44000 156.111
54.45000 157.618
54.46000 159.252
54.47000 160.894
54.48000 161.984
54.49000 160.007
54.50000 158.488
54.51000 157.880
54.52000 158.432
54.53000 158.988
54.54000 160.003
54.55000 161.388
54.56000 162.753
54.57000 164.901
54.58000 167.392
54.59000 169.482
54.60000 164.813
54.61000 157.724
54.62000 151.380
54.63000 151.731
54.64000 153.673
54.65000 155.349
54.66000 155.281
54.67000 154.999
54.68000 156.496
54.69000 164.312
54.70000 172.686
54.71000 176.660
54.72000 170.179
54.73000 163.251
54.74000 158.980
54.75000 157.826
54.76000 157.026
54.77000 156.991
54.78000 157.742
54.79000 158.494
54.80000 159.334
54.81000 160.231
54.82000 161.105
54.83000 160.081
54.84000 158.308
54.85000 156.661
54.86000 156.570
54.87000 156.938
54.88000 157.015
54.89000 155.048
54.90000 152.687
54.91000 150.722
54.92000 153.912
54.93000 157.059
54.94000 159.632
54.95000 160.523
54.96000 161.305
54.97000 161.678
54.98000 161.247
54.99000 160.795
55.00000 160.540
55.01000 161.738
55.02000 162.576
55.03000 163.685
55.04000 165.019
55.05000 166.297
55.06000 165.007
55.07000 162.319
55.08000 159.740
55.09000 160.264
55.10000 161.813
55.11000 163.091
55.12000 161.869
55.13000 160.042
55.14000 158.570
55.15000 159.083
55.16000 159.902
55.17000 160.557
55.18000 164.000
55.19000 166.984
55.20000 169.356
55.21000 170.245
55.22000 171.069
55.23000 170.369
55.24000 167.203
55.25000 164.002
55.26000 162.363
55.27000 165.939
55.28000 168.347
55.29000 171.203
55.30000 174.359
55.31000 177.385
55.32000 176.846
55.33000 174.704
55.34000 172.686
55.35000 176.186
55.36000 180.911
55.37000 184.836
55.38000 183.032
55.39000 180.098
55.40000 177.757
55.41000 178.098
55.42000 178.765
55.43000 179.272
55.44000 184.454
55.45000 188.776
55.46000 194.137
55.47000 201.577
55.48000 209.074
55.49000 213.784
55.50000 214.798
55.51000 215.794
55.52000 220.375
55.53000 227.967
55.54000 235.495
55.55000 239.933
55.56000 242.657
55.57000 245.368
55.58000 247.841
55.59000 250.224
55.60000 252.422
55.61000 265.979
55.62000 280.633
55.63000 293.571
55.64000 296.722
55.65000 298.323
55.66000 304.217
55.67000 325.969
55.68000 349.199
55.69000 365.941
55.70000 383.102
55.71000 396.264
55.72000 409.272
55.73000 422.025
55.74000 434.774
55.75000 453.063
55.76000 477.299
55.77000 501.416
55.78000 526.552
55.79000 552.088
55.80000 577.789
55.81000 608.165
55.82000 640.683
55.83000 672.533
55.84000 695.737
55.85000 716.288
55.86000 734.746
55.87000 759.540
55.88000 782.351
55.89000 804.907
55.90000 826.288
55.91000 847.523
55.92000 864.085
55.93000 866.444
55.94000 867.824
55.95000 868.759
55.96000 876.714
55.97000 882.796
55.98000 886.661
55.99000 887.527
56.00000 888.375
56.01000 887.905
56.02000 886.298
56.03000 884.711
56.04000 879.789
56.05000 873.154
56.06000 865.958
56.07000 848.227
56.08000 826.504
56.09000 804.819
56.10000 783.500
56.11000 762.272
56.12000 743.776
56.13000 730.346
56.14000 719.572
56.15000 704.168
56.16000 671.336
56.17000 636.832
56.18000 606.879
56.19000 588.360
56.20000 570.391
56.21000 559.056
56.22000 514.319
56.23000 481.536
56.24000 461.578
56.25000 455.681
56.26000 449.750
56.27000 438.365
56.28000 423.152
56.29000 408.279
56.30000 390.863
56.31000 373.030
56.32000 355.207
56.33000 337.518
56.34000 319.870
56.35000 303.456
56.36000 296.301
56.37000 291.050
56.38000 286.632
56.39000 272.335
56.40000 259.359
56.41000 248.587
56.42000 244.644
56.43000 241.186
56.44000 238.104
56.45000 235.799
56.46000 233.519
56.47000 232.193
56.48000 215.126
56.49000 203.075
56.50000 194.673
56.51000 189.484
56.52000 184.393
56.53000 184.804
56.54000 188.384
56.55000 191.836
56.56000 188.793
56.57000 183.573
56.58000 178.114
56.59000 170.273
56.60000 161.818
56.61000 155.308
56.62000 160.377
56.63000 167.362
56.64000 173.009
56.65000 174.906
56.66000 176.148
56.67000 176.724
56.68000 175.595
56.69000 174.381
56.70000 172.016
56.71000 167.679
56.72000 163.308
56.73000 160.998
56.74000 168.827
56.75000 174.120
56.76000 174.958
56.77000 172.608
56.78000 170.205
56.79000 166.162
56.80000 161.339
56.81000 156.768
56.82000 154.542
56.83000 153.180
56.84000 151.803
56.85000 150.310
56.86000 148.793
56.87000 147.220
56.88000 145.374
56.89000 143.493
56.90000 142.041
56.91000 150.650
56.92000 158.062
56.93000 162.350
56.94000 160.026
56.95000 157.488
56.96000 154.897
56.97000 152.232
56.98000 149.567
56.99000 149.280
57.00000 151.131
57.01000 152.971
57.02000 154.183
57.03000 155.028
57.04000 155.687
57.05000 152.601
57.06000 148.041
57.07000 143.809
57.08000 147.024
57.09000 151.682
57.10000 155.638
57.11000 155.324
57.12000 154.287
57.13000 153.050
57.14000 151.027
57.15000 148.924
57.16000 147.384
57.17000 148.088
57.18000 148.722
57.19000 149.782
57.20000 151.586
57.21000 153.405
57.22000 155.674
57.23000 158.459
57.24000 161.235
57.25000 159.650
57.26000 154.923
57.27000 150.181
57.28000 144.955
57.29000 139.493
57.30000 134.427
57.31000 134.969
57.32000 137.333
57.33000 139.474
57.34000 146.318
57.35000 153.235
57.36000 158.206
57.37000 153.641
57.38000 147.796
57.39000 142.985
57.40000 141.499
57.41000 140.265
57.42000 139.413
57.43000 140.916
57.44000 142.106
57.45000 141.790
57.46000 139.316
57.47000 136.827
57.48000 140.821
57.49000 150.770
57.50000 160.624
57.51000 159.671
57.52000 152.405
57.53000 145.437
57.54000 144.727
57.55000 146.523
57.56000 148.203
57.57000 148.662
57.58000 148.795
57.59000 148.912
57.60000 143.996
57.61000 139.018
57.62000 135.522
57.63000 137.941
57.64000 140.976
57.65000 142.187
57.66000 138.556
57.67000 134.664
57.68000 132.154
57.69000 142.120
57.70000 149.578
57.71000 154.851
57.72000 157.573
57.73000 160.275
57.74000 160.048
57.75000 157.638
57.76000 155.274
57.77000 150.520
57.78000 144.802
57.79000 139.680
57.80000 143.301
57.81000 149.816
57.82000 155.026
57.83000 149.691
57.84000 142.052
57.85000 135.555
57.86000 138.564
57.87000 142.188
57.88000 144.831
57.89000 144.255
57.90000 143.428
57.91000 142.265
57.92000 140.362
57.93000 138.433
57.94000 137.283
57.95000 142.380
57.96000 146.031
57.97000 147.885
57.98000 148.052
57.99000 148.166
58.00000 144.593
58.01000 138.773
58.02000 133.135
58.03000 132.590
58.04000 134.040
58.05000 135.340
58.06000 135.011
58.07000 134.237
58.08000 133.505
58.09000 133.034
58.10000 132.609
58.11000 132.262
58.12000 135.807
58.13000 139.053
58.14000 141.888
58.15000 143.610
58.16000 145.270
58.17000 145.958
58.18000 144.880
58.19000 143.766
58.20000 143.160
58.21000 140.417
58.22000 138.530
58.23000 136.002
58.24000 132.990
58.25000 130.070
58.26000 130.568
58.27000 132.785
58.28000 134.897
58.29000 133.828
58.30000 131.843
58.31000 130.217
58.32000 131.565
58.33000 133.576
58.34000 135.482
58.35000 136.850
58.36000 138.142
58.37000 139.154
58.38000 138.683
58.39000 138.210
58.40000 138.275
58.41000 139.540
58.42000 140.850
58.43000 140.227
58.44000 136.721
58.45000 133.186
58.46000 132.607
58.47000 134.862
58.48000 137.132
58.49000 140.597
58.50000 144.806
58.51000 148.795
58.52000 147.788
58.53000 144.704
58.54000 141.822
58.55000 137.703
58.56000 133.653
58.57000 130.161
58.58000 130.297
58.59000 131.088
58.60000 132.483
58.61000 136.383
58.62000 140.558
58.63000 143.668
58.64000 141.959
58.65000 140.413
58.66000 138.393
58.67000 135.497
58.68000 132.581
58.69000 130.349
58.70000 128.947
58.71000 127.550
58.72000 126.950
58.73000 126.969
58.74000 127.076
58.75000 130.609
58.76000 135.897
58.77000 140.958
58.78000 142.453
58.79000 142.724
58.80000 142.970
58.81000 140.388
58.82000 137.526
58.83000 135.112
58.84000 135.032
58.85000 135.288
58.86000 135.927
58.87000 137.871
58.88000 139.923
58.89000 141.367
58.90000 142.838
58.91000 143.954
58.92000 143.598
58.93000 141.003
58.94000 138.383
58.95000 136.616
58.96000 135.685
58.97000 134.761
58.98000 134.925
58.99000 135.766
59.00000 136.539
59.01000 135.709
59.02000 134.200
59.03000 132.581
59.04000 129.693
59.05000 126.446
59.06000 123.564
59.07000 127.196
59.08000 131.384
59.09000 134.629
59.10000 133.875
59.11000 132.672
59.12000 132.036
59.13000 132.998
59.14000 134.056
59.15000 134.752
59.16000 133.697
59.17000 132.889
59.18000 134.539
59.19000 139.241
59.20000 143.931
59.21000 142.632
59.22000 136.594
59.23000 130.653
59.24000 130.074
59.25000 132.227
59.26000 134.314
59.27000 135.347
59.28000 136.010
59.29000 136.403
59.30000 134.446
59.31000 131.942
59.32000 129.791
59.33000 129.534
59.34000 129.553
59.35000 129.436
59.36000 128.848
59.37000 128.219
59.38000 128.668
59.39000 131.625
59.40000 134.683
59.41000 136.551
59.42000 134.476
59.43000 132.960
59.44000 133.809
59.45000 137.026
59.46000 140.202
59.47000 139.644
59.48000 136.675
59.49000 133.787
59.50000 131.580
59.51000 129.761
59.52000 128.204
59.53000 129.739
59.54000 132.167
59.55000 134.246
59.56000 133.947
59.57000 133.200
59.58000 132.581
59.59000 134.149
59.60000 135.652
59.61000 136.377
59.62000 134.875
59.63000 133.235
59.64000 132.831
59.65000 134.803
59.66000 136.832
59.67000 137.969
59.68000 139.088
59.69000 139.855
59.70000 137.580
59.71000 132.849
59.72000 128.210
59.73000 127.528
59.74000 128.950
59.75000 130.312
59.76000 133.132
59.77000 136.246
59.78000 138.845
59.79000 136.837
59.80000 133.738
59.81000 131.172
59.82000 131.506
59.83000 132.276
59.84000 132.887
59.85000 130.361
59.86000 128.107
59.87000 125.896
59.88000 123.787
59.89000 121.684
59.90000 121.050
59.91000 122.742
59.92000 124.464
59.93000 125.334
59.94000 128.743
59.95000 131.046
59.96000 135.429
59.97000 141.182
59.98000 146.779
59.99000 148.307
60.00000 148.047
60.01000 147.802
60.02000 143.808
60.03000 139.152
60.04000 134.622
60.05000 130.962
60.06000 127.471
60.07000 125.437
60.08000 129.831
60.09000 134.986
60.10000 138.885
60.11000 139.085
60.12000 139.057
60.13000 139.285
60.14000 140.015
60.15000 140.759
60.16000 140.890
60.17000 140.228
60.18000 139.565
60.19000 137.512
60.20000 134.326
60.21000 131.210
60.22000 131.333
60.23000 133.212
60.24000 134.806
60.25000 131.442
60.26000 126.275
60.27000 121.526
60.28000 123.738
60.29000 127.215
60.30000 130.512
60.31000 132.810
60.32000 134.953
60.33000 136.171
60.34000 134.046
60.35000 131.620
60.36000 129.883
60.37000 131.597
60.38000 133.022
60.39000 134.768
60.40000 137.031
60.41000 139.301
60.42000 139.219
60.43000 136.677
60.44000 134.148
60.45000 133.433
60.46000 133.930
60.47000 134.406
60.48000 134.339
60.49000 134.028
60.50000 133.945
60.51000 136.725
60.52000 140.363
60.53000 143.619
60.54000 142.285
60.55000 140.335
60.56000 138.644
60.57000 138.117
60.58000 137.730
60.59000 136.629
60.60000 133.402
60.61000 130.034
60.62000 127.770
60.63000 131.214
60.64000 133.889
60.65000 133.544
60.66000 129.211
60.67000 124.867
60.68000 125.081
60.69000 129.130
60.70000 133.126
60.71000 134.133
60.72000 133.506
60.73000 132.970
60.74000 134.063
60.75000 135.760
60.76000 137.061
60.77000 134.640
60.78000 131.303
60.79000 128.406
60.80000 127.562
60.81000 127.118
60.82000 126.799
60.83000 126.938
60.84000 127.119
60.85000 127.205
60.86000 127.056
60.87000 126.898
60.88000 126.798
60.89000 130.820
60.90000 133.766
60.91000 133.183
60.92000 128.828
60.93000 124.502
60.94000 123.765
60.95000 125.487
60.96000 127.168
60.97000 130.191
60.98000 133.668
60.99000 136.810
61.00000 135.642
61.01000 133.155
61.02000 131.101
61.03000 132.207
61.04000 133.946
61.05000 135.403
61.06000 133.530
61.07000 131.629
61.08000 130.565
61.09000 132.038
61.10000 133.684
61.11000 133.822
61.12000 130.896
61.13000 127.881
61.14000 126.147
61.15000 133.115
61.16000 138.018
61.17000 139.274
61.18000 137.396
61.19000 135.571
61.20000 136.455
61.21000 138.865
61.22000 141.185
61.23000 143.317
61.24000 145.252
61.25000 146.827
61.26000 144.933
61.27000 142.166
61.28000 139.182
61.29000 134.930
61.30000 130.474
61.31000 126.890
61.32000 127.789
61.33000 128.866
61.34000 130.277
61.35000 132.529
61.36000 134.821
61.37000 136.290
61.38000 136.377
61.39000 136.443
61.40000 136.478
61.41000 133.263
61.42000 131.111
61.43000 132.079
61.44000 135.227
61.45000 138.354
61.46000 140.851
61.47000 143.056
61.48000 145.140
61.49000 145.787
61.50000 145.969
61.51000 147.181
61.52000 156.101
61.53000 166.598
61.54000 176.460
61.55000 183.349
61.56000 189.859
61.57000 194.857
61.58000 209.742
61.59000 222.060
61.60000 229.912
61.61000 228.515
61.62000 226.835
61.63000 230.141
61.64000 240.295
61.65000 250.486
61.66000 256.893
61.67000 259.979
61.68000 263.053
61.69000 265.551
61.70000 267.717
61.71000 269.430
61.72000 262.367
61.73000 251.928
61.74000 242.265
61.75000 244.407
61.76000 249.052
61.77000 250.733
61.78000 234.828
61.79000 216.025
61.80000 199.935
61.81000 194.217
61.82000 189.516
61.83000 186.094
61.84000 178.057
61.85000 171.693
61.86000 165.838
61.87000 160.854
61.88000 155.885
61.89000 151.063
61.90000 146.405
61.91000 141.765
61.92000 139.468
61.93000 138.846
61.94000 138.320
61.95000 140.752
61.96000 144.587
61.97000 147.953
61.98000 144.907
61.99000 139.824
62.00000 135.236
62.01000 136.272
62.02000 138.215
62.03000 139.771
62.04000 139.480
62.05000 138.947
62.06000 139.474
62.07000 143.330
62.08000 147.430
62.09000 150.239
62.10000 149.028
62.11000 148.024
62.12000 145.222
62.13000 139.899
62.14000 134.563
62.15000 133.954
62.16000 137.580
62.17000 141.167
62.18000 139.078
62.19000 133.789
62.20000 128.720
62.21000 128.057
62.22000 129.120
62.23000 130.031
62.24000 129.398
62.25000 128.362
62.26000 127.454
62.27000 135.382
62.28000 143.463
62.29000 149.135
62.30000 145.417
62.31000 140.753
62.32000 137.780
62.33000 139.202
62.34000 140.851
62.35000 141.905
62.36000 137.776
62.37000 134.703
62.38000 134.605
62.39000 137.897
62.40000 141.179
62.41000 142.210
62.42000 141.605
62.43000 141.013
62.44000 140.021
62.45000 138.881
62.46000 137.878
62.47000 138.801
62.48000 140.348
62.49000 141.411
62.50000 138.677
62.51000 135.133
62.52000 132.132
62.53000 136.506
62.54000 140.996
62.55000 142.397
62.56000 133.902
62.57000 124.662
62.58000 120.546
62.59000 127.440
62.60000 134.704
62.61000 138.992
62.62000 137.885
62.63000 137.074
62.64000 137.946
62.65000 140.359
62.66000 142.716
62.67000 141.600
62.68000 138.413
62.69000 135.330
62.70000 134.250
62.71000 133.984
62.72000 133.958
62.73000 136.453
62.74000 139.619
62.75000 142.714
62.76000 145.360
62.77000 147.929
62.78000 150.021
62.79000 150.121
62.80000 150.035
62.81000 148.506
62.82000 143.160
62.83000 137.610
62.84000 134.500
62.85000 135.722
62.86000 137.028
62.87000 137.731
62.88000 144.852
62.89000 149.696
62.90000 149.015
62.91000 144.234
62.92000 139.495
62.93000 136.160
62.94000 133.515
62.95000 131.000
62.96000 129.572
62.97000 128.582
62.98000 127.932
62.99000 130.010
63.00000 132.682
63.01000 134.907
63.02000 134.903
63.03000 134.594
63.04000 134.353
63.05000 134.436
63.06000 134.522
63.07000 134.800
63.08000 135.500
63.09000 136.215
63.10000 135.952
63.11000 134.265
63.12000 132.565
63.13000 136.341
63.14000 145.229
63.15000 153.963
63.16000 152.148
63.17000 143.921
63.18000 136.150
63.19000 138.268
63.20000 144.408
63.21000 150.129
63.22000 150.723
63.23000 150.000
63.24000 148.670
63.25000 143.497
63.26000 137.647
63.27000 133.991
63.28000 139.234
63.29000 145.423
63.30000 150.002
63.31000 149.246
63.32000 148.429
63.33000 147.739
63.34000 147.277
63.35000 146.819
63.36000 146.813
63.37000 147.342
63.38000 147.870
63.39000 146.977
63.40000 145.021
63.41000 143.132
63.42000 143.643
63.43000 145.358
63.44000 146.839
63.45000 144.809
63.46000 141.598
63.47000 138.678
63.48000 137.883
63.49000 137.597
63.50000 137.881
63.51000 141.065
63.52000 144.654
63.53000 146.885
63.54000 144.593
63.55000 141.940
63.56000 140.088
63.57000 145.219
63.58000 149.289
63.59000 150.414
63.60000 147.159
63.61000 143.863
63.62000 142.197
63.63000 142.088
63.64000 141.979
63.65000 141.647
63.66000 141.186
63.67000 140.936
63.68000 145.469
63.69000 151.983
63.70000 157.723
63.71000 154.885
63.72000 149.673
63.73000 145.063
63.74000 143.888
63.75000 143.407
63.76000 143.594
63.77000 146.550
63.78000 149.807
63.79000 152.355
63.80000 152.950
63.81000 153.434
63.82000 153.750
63.83000 149.891
63.84000 146.991
63.85000 148.252
63.86000 154.558
63.87000 160.852
63.88000 161.451
63.89000 157.651
63.90000 153.917
63.91000 149.683
63.92000 145.346
63.93000 141.270
63.94000 141.288
63.95000 142.708
63.96000 144.345
63.97000 147.827
63.98000 151.726
63.99000 155.064
64.00000 152.146
64.01000 148.928
64.02000 145.661
64.03000 142.225
64.04000 138.775
64.05000 138.644
64.06000 146.055
64.07000 153.757
64.08000 158.417
64.09000 153.204
64.10000 149.416
64.11000 150.732
64.12000 157.028
64.13000 163.252
64.14000 163.730
64.15000 160.578
64.16000 157.516
64.17000 157.311
64.18000 158.260
64.19000 158.942
64.20000 156.579
64.21000 153.357
64.22000 150.746
64.23000 152.191
64.24000 154.382
64.25000 156.187
64.26000 158.836
64.27000 161.094
64.28000 163.098
64.29000 164.389
64.30000 165.637
64.31000 165.161
64.32000 161.447
64.33000 157.657
64.34000 155.559
64.35000 158.524
64.36000 160.574
64.37000 160.947
64.38000 159.996
64.39000 159.043
64.40000 157.975
64.41000 156.847
64.42000 155.768
64.43000 156.847
64.44000 158.551
64.45000 160.033
64.46000 159.583
64.47000 158.686
64.48000 157.378
64.49000 153.883
64.50000 150.067
64.51000 147.054
64.52000 155.191
64.53000 162.480
64.54000 167.901
64.55000 168.997
64.56000 169.918
64.57000 171.821
64.58000 175.242
64.59000 178.680
64.60000 179.895
64.61000 178.894
64.62000 177.871
64.63000 174.967
64.64000 170.851
64.65000 166.986
64.66000 169.272
64.67000 174.204
64.68000 178.829
64.69000 179.498
64.70000 179.070
64.71000 178.192
64.72000 174.266
64.73000 169.768
64.74000 166.627
64.75000 169.335
64.76000 172.714
64.77000 175.254
64.78000 175.867
64.79000 176.253
64.80000 173.169
64.81000 163.443
64.82000 153.554
64.83000 151.145
64.84000 158.185
64.85000 165.245
64.86000 169.732
64.87000 172.138
64.88000 174.598
64.89000 179.312
64.90000 185.221
64.91000 190.617
64.92000 187.456
64.93000 181.252
64.94000 175.567
64.95000 173.917
64.96000 173.295
64.97000 172.687
64.98000 172.158
64.99000 171.639
65.00000 172.049
65.01000 175.730
65.02000 179.696
65.03000 182.516
65.04000 182.834
65.05000 182.996
65.06000 184.674
65.07000 188.744
65.08000 192.842
65.09000 194.908
65.10000 194.901
65.11000 194.893
65.12000 193.927
65.13000 192.352
65.14000 190.894
65.15000 192.397
65.16000 195.197
65.17000 198.363
65.18000 205.934
65.19000 214.797
65.20000 222.705
65.21000 223.063
65.22000 222.116
65.23000 221.836
65.24000 224.481
65.25000 227.471
65.26000 228.079
65.27000 221.763
65.28000 215.005
65.29000 210.500
65.30000 228.943
65.31000 243.040
65.32000 252.175
65.33000 254.915
65.34000 257.635
65.35000 262.388
65.36000 268.811
65.37000 275.142
65.38000 277.781
65.39000 278.407
65.40000 278.975
65.41000 278.547
65.42000 277.759
65.43000 277.379
65.44000 280.727
65.45000 284.970
65.46000 288.640
65.47000 287.731
65.48000 286.361
65.49000 286.372
65.50000 291.343
65.51000 296.759
65.52000 301.895
65.53000 306.356
65.54000 310.788
65.55000 313.533
65.56000 321.364
65.57000 327.044
65.58000 330.146
65.59000 330.560
65.60000 331.064
65.61000 340.940
65.62000 357.091
65.63000 372.835
65.64000 383.752
65.65000 392.117
65.66000 401.336
65.67000 421.172
65.68000 444.182
65.69000 467.972
65.70000 497.311
65.71000 527.734
65.72000 553.106
65.73000 615.418
65.74000 670.776
65.75000 727.308
65.76000 787.318
65.77000 847.557
65.78000 895.993
65.79000 920.978
65.80000 945.321
65.81000 959.177
65.82000 1005.660
65.83000 1038.139
65.84000 1058.663
65.85000 1069.168
65.86000 1079.544
65.87000 1083.719
65.88000 1084.479
65.89000 1085.210
65.90000 1078.870
65.91000 1070.493
65.92000 1060.374
65.93000 1033.959
65.94000 1003.546
65.95000 968.199
65.96000 904.943
65.97000 837.307
65.98000 783.187
65.99000 706.489
66.00000 642.786
66.01000 584.662
66.02000 540.195
66.03000 496.350
66.04000 459.531
66.05000 434.221
66.06000 409.077
66.07000 396.110
66.08000 373.155
66.09000 357.732
66.10000 347.055
66.11000 339.618
66.12000 332.189
66.13000 324.944
66.14000 317.783
66.15000 311.027
66.16000 307.936
66.17000 306.125
66.18000 304.231
66.19000 301.727
66.20000 299.102
66.21000 297.092
66.22000 297.900
66.23000 299.057
66.24000 299.940
66.25000 309.872
66.26000 318.185
66.27000 327.393
66.28000 338.415
66.29000 349.488
66.30000 359.000
66.31000 366.417
66.32000 373.816
66.33000 384.900
66.34000 399.106
66.35000 413.159
66.36000 419.396
66.37000 421.249
66.38000 422.993
66.39000 422.723
66.40000 421.695
66.41000 420.747
66.42000 434.448
66.43000 450.020
66.44000 461.589
66.45000 450.016
66.46000 434.728
66.47000 421.297
66.48000 414.801
66.49000 408.963
66.50000 404.742
66.51000 399.822
66.52000 396.021
66.53000 388.232
66.54000 373.783
66.55000 359.231
66.56000 349.245
66.57000 344.222
66.58000 339.225
66.59000 330.298
66.60000 318.760
66.61000 307.423
66.62000 301.960
66.63000 299.220
66.64000 296.633
66.65000 296.074
66.66000 296.145
66.67000 296.208
66.68000 303.659
66.69000 311.508
66.70000 316.769
66.71000 309.954
66.72000 301.610
66.73000 296.438
66.74000 301.023
66.75000 306.293
66.76000 309.877
66.77000 310.405
66.78000 310.729
66.79000 312.396
66.80000 315.900
66.81000 319.411
66.82000 319.019
66.83000 315.218
66.84000 311.462
66.85000 310.466
66.86000 311.034
66.87000 311.750
66.88000 315.315
66.89000 319.970
66.90000 324.510
66.91000 327.906
66.92000 331.009
66.93000 333.719
66.94000 332.644
66.95000 331.194
66.96000 329.685
66.97000 327.957
66.98000 326.207
66.99000 324.969
67.00000 325.027
67.01000 325.150
67.02000 325.228
67.03000 327.873
67.04000 329.822
67.05000 330.999
67.06000 331.318
67.07000 331.663
67.08000 335.953
67.09000 343.043
67.10000 349.980
67.11000 350.529
67.12000 348.162
67.13000 346.272
67.14000 350.867
67.15000 357.515
67.16000 362.833
67.17000 358.000
67.18000 351.055
67.19000 345.198
67.20000 346.357
67.21000 348.086
67.22000 349.347
67.23000 349.143
67.24000 348.833
67.25000 348.798
67.26000 349.342
67.27000 349.905
67.28000 350.234
67.29000 355.624
67.30000 359.443
67.31000 365.042
67.32000 372.229
67.33000 379.281
67.34000 378.427
67.35000 372.965
67.36000 367.692
67.37000 367.492
67.38000 369.169
67.39000 371.213
67.40000 376.992
67.41000 383.742
67.42000 389.176
67.43000 386.659
67.44000 382.808
67.45000 379.687
67.46000 379.871
67.47000 380.290
67.48000 382.124
67.49000 387.624
67.50000 393.311
67.51000 400.858
67.52000 411.633
67.53000 422.465
67.54000 428.225
67.55000 414.384
67.56000 404.994
67.57000 402.809
67.58000 405.842
67.59000 408.892
67.60000 412.459
67.61000 416.277
67.62000 419.899
67.63000 421.243
67.64000 421.804
67.65000 422.803
67.66000 427.211
67.67000 432.345
67.68000 437.022
67.69000 439.479
67.70000 441.640
67.71000 443.314
67.72000 439.448
67.73000 436.048
67.74000 436.380
67.75000 444.701
67.76000 453.289
67.77000 460.180
67.78000 464.653
67.79000 469.107
67.80000 468.984
67.81000 464.693
67.82000 460.452
67.83000 459.371
67.84000 460.167
67.85000 461.014
67.86000 462.924
67.87000 465.258
67.88000 467.426
67.89000 466.431
67.90000 464.774
67.91000 464.221
67.92000 470.476
67.93000 477.899
67.94000 484.924
67.95000 490.373
67.96000 495.660
67.97000 499.548
67.98000 498.117
67.99000 496.792
68.00000 497.084
68.01000 500.234
68.02000 503.438
68.03000 506.771
68.04000 510.253
68.05000 513.724
68.06000 519.858
68.07000 527.896
68.08000 535.617
68.09000 532.572
68.10000 524.251
68.11000 516.859
68.12000 522.925
68.13000 533.415
68.14000 542.929
68.15000 536.243
68.16000 527.247
68.17000 520.767
68.18000 526.781
68.19000 534.496
68.20000 541.411
68.21000 545.720
68.22000 549.827
68.23000 552.674
68.24000 566.867
68.25000 577.850
68.26000 582.894
68.27000 579.312
68.28000 575.659
68.29000 578.378
68.30000 587.026
68.31000 595.596
68.32000 607.930
68.33000 622.255
68.34000 636.054
68.35000 638.521
68.36000 636.396
68.37000 634.484
68.38000 634.841
68.39000 635.813
68.40000 636.669
68.41000 635.860
68.42000 634.912
68.43000 636.256
68.44000 646.862
68.45000 658.447
68.46000 671.851
68.47000 690.143
68.48000 708.705
68.49000 720.727
68.50000 732.981
68.51000 741.951
68.52000 751.432
68.53000 761.518
68.54000 771.613
68.55000 783.522
68.56000 796.797
68.57000 809.830
68.58000 838.862
68.59000 874.577
68.60000 910.158
68.61000 943.737
68.62000 976.646
68.63000 1010.026
68.64000 1047.275
68.65000 1085.380
68.66000 1117.860
68.67000 1182.476
68.68000 1240.599
68.69000 1295.593
68.70000 1340.203
68.71000 1383.988
68.72000 1426.925
68.73000 1467.975
68.74000 1508.956
68.75000 1533.511
68.76000 1596.672
68.77000 1641.778
68.78000 1694.020
68.79000 1753.048
68.80000 1812.397
68.81000 1895.050
68.82000 1992.089
68.83000 2086.161
68.84000 2177.376
68.85000 2262.651
68.86000 2353.469
68.87000 2505.294
68.88000 2673.949
68.89000 2875.313
68.90000 3287.806
68.91000 3738.090
68.92000 4107.520
68.93000 5495.652
68.94000 6725.537
68.95000 8365.763
68.96000 11129.644
68.97000 13957.705
68.98000 17238.557
68.99000 21350.855
69.00000 25481.111
69.01000 27742.697
69.02000 33747.344
69.03000 37878.531
69.04000 41288.910
69.05000 44144.773
69.06000 46967.125
69.07000 48526.207
69.08000 49442.574
69.09000 50316.809
69.10000 50748.156
69.11000 51008.230
69.12000 51294.602
69.13000 51802.125
69.14000 52359.578
69.15000 52912.813
69.16000 53444.207
69.17000 53972.488
69.18000 54387.379
69.19000 54083.645
69.20000 53793.527
69.21000 52929.301
69.22000 50764.953
69.23000 48550.820
69.24000 45948.395
69.25000 42759.445
69.26000 39564.629
69.27000 36833.023
69.28000 34551.785
69.29000 32278.785
69.30000 30653.496
69.31000 29435.836
69.32000 28233.502
69.33000 27389.379
69.34000 26695.928
69.35000 26047.195
69.36000 25327.117
69.37000 24654.725
69.38000 23900.871
69.39000 22609.158
69.40000 21219.090
69.41000 19692.859
69.42000 17594.146
69.43000 15431.708
69.44000 13816.019
69.45000 11199.520
69.46000 9113.612
69.47000 7324.199
69.48000 6089.605
69.49000 4867.728
69.50000 3947.207
69.51000 3398.169
69.52000 2851.213
69.53000 2465.831
69.54000 2208.603
69.55000 1953.692
69.56000 1791.071
69.57000 1676.295
69.58000 1562.974
69.59000 1472.937
69.60000 1390.997
69.61000 1316.115
69.62000 1251.856
69.63000 1196.952
69.64000 1145.024
69.65000 1108.822
69.66000 1074.917
69.67000 1044.025
69.68000 1023.523
69.69000 1003.897
69.70000 990.044
69.71000 964.238
69.72000 944.291
69.73000 921.245
69.74000 893.427
69.75000 865.555
69.76000 847.905
69.77000 840.409
69.78000 832.965
69.79000 820.357
69.80000 804.690
69.81000 789.062
69.82000 774.423
69.83000 760.208
69.84000 746.498
69.85000 738.685
69.86000 732.562
69.87000 727.118
69.88000 722.320
69.89000 718.262
69.90000 713.112
69.91000 703.286
69.92000 692.924
69.93000 683.683
69.94000 677.627
69.95000 671.765
69.96000 667.888
69.97000 651.231
69.98000 638.709
69.99000 630.520
70.00000 627.781
