20.00000 556.795
20.01000 557.692
20.02000 558.717
20.03000 560.909
20.04000 567.610
20.05000 574.760
20.06000 579.980
20.07000 577.223
20.08000 574.786
20.09000 573.309
20.10000 573.488
20.11000 573.696
20.12000 573.710
20.13000 573.503
20.14000 573.298
20.15000 571.309
20.16000 568.066
20.17000 564.766
20.18000 559.654
20.19000 553.675
20.20000 548.181
20.21000 549.427
20.22000 552.834
20.23000 555.914
20.24000 561.192
20.25000 566.244
20.26000 570.262
20.27000 569.288
20.28000 567.654
20.29000 565.828
20.30000 563.392
20.31000 560.910
20.32000 559.204
20.33000 565.014
20.34000 569.558
20.35000 570.402
20.36000 566.007
20.37000 561.576
20.38000 560.178
20.39000 561.527
20.40000 562.863
20.41000 561.832
20.42000 559.455
20.43000 556.966
20.44000 552.163
20.45000 546.446
20.46000 542.061
20.47000 551.439
20.48000 564.448
20.49000 575.867
20.50000 570.114
20.51000 562.658
20.52000 556.410
20.53000 554.922
20.54000 553.920
20.55000 554.560
20.56000 559.508
20.57000 564.683
20.58000 568.004
20.59000 571.663
20.60000 574.335
20.61000 570.618
20.62000 559.543
20.63000 548.511
20.64000 546.443
20.65000 550.962
20.66000 555.393
20.67000 560.022
20.68000 564.572
20.69000 569.155
20.70000 574.205
20.71000 579.407
20.72000 582.715
20.73000 570.958
20.74000 555.956
20.75000 543.225
20.76000 547.361
20.77000 552.741
20.78000 554.622
20.79000 545.170
20.80000 534.852
20.81000 531.235
20.82000 542.156
20.83000 553.580
20.84000 560.353
20.85000 552.936
20.86000 547.610
20.87000 544.916
20.88000 544.655
20.89000 544.442
20.90000 547.389
20.91000 552.238
20.92000 556.929
20.93000 558.571
20.94000 558.961
20.95000 559.326
20.96000 559.425
20.97000 559.453
20.98000 558.713
20.99000 553.164
21.00000 546.777
21.01000 541.565
21.02000 542.360
21.03000 543.526
21.04000 542.643
21.05000 536.284
21.06000 529.627
21.07000 529.103
21.08000 539.570
21.09000 550.256
21.10000 556.035
21.11000 546.690
21.12000 540.286
21.13000 536.140
21.14000 533.685
21.15000 531.482
21.16000 538.127
21.17000 549.167
21.18000 559.675
21.19000 560.600
21.20000 558.501
21.21000 555.673
21.22000 546.909
21.23000 536.840
21.24000 528.619
21.25000 529.710
21.26000 532.090
21.27000 533.948
21.28000 535.019
21.29000 535.824
21.30000 534.607
21.31000 528.921
21.32000 523.074
21.33000 524.032
21.34000 535.013
21.35000 546.083
21.36000 548.652
21.37000 543.188
21.38000 537.826
21.39000 539.782
21.40000 546.229
21.41000 552.402
21.42000 552.490
21.43000 550.079
21.44000 547.830
21.45000 548.798
21.46000 550.475
21.47000 551.318
21.48000 546.814
21.49000 541.359
21.50000 537.023
21.51000 537.278
21.52000 538.027
21.53000 538.582
21.54000 546.262
21.55000 552.542
21.56000 554.662
21.57000 549.184
21.58000 543.544
21.59000 542.561
21.60000 547.168
21.61000 551.776
21.62000 554.255
21.63000 555.101
21.64000 555.885
21.65000 554.349
21.66000 551.639
21.67000 549.170
21.68000 550.385
21.69000 552.850
21.70000 555.096
21.71000 548.725
21.72000 541.370
21.73000 535.595
21.74000 537.950
21.75000 541.457
21.76000 545.538
21.77000 551.546
21.78000 557.711
21.79000 562.029
21.80000 574.211
21.81000 583.648
21.82000 587.036
21.83000 581.339
21.84000 575.552
21.85000 577.463
21.86000 586.809
21.87000 596.081
21.88000 606.287
21.89000 616.889
21.90000 627.192
21.91000 630.584
21.92000 631.085
21.93000 631.745
21.94000 634.188
21.95000 637.129
21.96000 639.735
21.97000 640.243
21.98000 640.353
21.99000 641.837
22.00000 649.065
22.01000 656.927
22.02000 663.777
22.03000 667.822
22.04000 671.702
22.05000 674.245
22.06000 676.535
22.07000 678.214
22.08000 677.774
22.09000 674.737
22.10000 671.671
22.11000 662.517
22.12000 648.613
22.13000 634.940
22.14000 638.569
22.15000 650.711
22.16000 662.120
22.17000 661.916
22.18000 657.696
22.19000 653.778
22.20000 652.449
22.21000 651.713
22.22000 651.082
22.23000 651.303
22.24000 651.594
22.25000 650.201
22.26000 643.034
22.27000 635.384
22.28000 628.518
22.29000 623.450
22.30000 618.454
22.31000 615.418
22.32000 598.495
22.33000 586.308
22.34000 582.603
22.35000 587.271
22.36000 591.870
22.37000 590.811
22.38000 586.142
22.39000 581.605
22.40000 571.628
22.41000 559.944
22.42000 549.169
22.43000 548.894
22.44000 551.612
22.45000 553.686
22.46000 551.444
22.47000 548.400
22.48000 545.886
22.49000 543.340
22.50000 541.239
22.51000 538.422
22.52000 533.578
22.53000 528.612
22.54000 526.498
22.55000 529.795
22.56000 533.221
22.57000 535.128
22.58000 546.948
22.59000 555.116
22.60000 555.021
22.61000 548.346
22.62000 541.775
22.63000 539.531
22.64000 539.561
22.65000 539.589
22.66000 540.218
22.67000 541.002
22.68000 541.032
22.69000 534.442
22.70000 526.306
22.71000 519.759
22.72000 521.739
22.73000 524.985
22.74000 527.554
22.75000 530.007
22.76000 531.970
22.77000 532.357
22.78000 529.059
22.79000 525.610
22.80000 522.119
22.81000 518.564
22.82000 515.007
22.83000 513.221
22.84000 513.552
22.85000 513.754
22.86000 512.253
22.87000 509.643
22.88000 507.089
22.89000 505.949
22.90000 505.423
22.91000 504.929
22.92000 509.896
22.93000 515.872
22.94000 520.377
22.95000 514.777
22.96000 507.262
22.97000 501.241
22.98000 501.720
22.99000 502.956
23.00000 503.887
23.01000 508.751
23.02000 512.752
23.03000 516.357
23.04000 519.198
23.05000 522.019
23.06000 517.893
23.07000 504.901
23.08000 491.895
23.09000 490.197
23.10000 497.664
23.11000 504.889
23.12000 501.500
23.13000 492.429
23.14000 483.848
23.15000 483.588
23.16000 486.315
23.17000 488.817
23.18000 490.251
23.19000 491.303
23.20000 492.768
23.21000 496.493
23.22000 500.561
23.23000 504.664
23.24000 508.894
23.25000 513.135
23.26000 516.159
23.27000 512.179
23.28000 508.914
23.29000 506.687
23.30000 506.111
23.31000 505.556
23.32000 503.492
23.33000 499.871
23.34000 496.272
23.35000 503.502
23.36000 517.717
23.37000 531.310
23.38000 528.609
23.39000 518.698
23.40000 508.743
23.41000 498.240
23.42000 487.575
23.43000 478.046
23.44000 484.340
23.45000 492.493
23.46000 499.102
23.47000 498.861
23.48000 497.803
23.49000 498.280
23.50000 503.260
23.51000 508.533
23.52000 512.060
23.53000 510.914
23.54000 509.972
23.55000 508.960
23.56000 507.857
23.57000 506.748
23.58000 503.485
23.59000 498.434
23.60000 493.452
23.61000 492.139
23.62000 492.809
23.63000 493.607
23.64000 496.654
23.65000 500.524
23.66000 503.550
23.67000 498.778
23.68000 492.111
23.69000 486.337
23.70000 490.144
23.71000 494.649
23.72000 496.911
23.73000 491.030
23.74000 484.407
23.75000 481.174
23.76000 486.168
23.77000 491.529
23.78000 494.864
23.79000 499.915
23.80000 503.571
23.81000 503.032
23.82000 498.074
23.83000 493.133
23.84000 490.224
23.85000 488.689
23.86000 487.192
23.87000 492.095
23.88000 499.537
23.89000 506.292
23.90000 504.390
23.91000 499.874
23.92000 495.905
23.93000 495.879
23.94000 496.633
23.95000 497.262
23.96000 493.600
23.97000 490.125
23.98000 488.160
23.99000 490.707
24.00000 493.557
24.01000 494.142
24.02000 490.179
24.03000 486.088
24.04000 483.749
24.05000 481.098
24.06000 479.247
24.07000 478.043
24.08000 477.386
24.09000 476.786
24.10000 479.027
24.11000 482.847
24.12000 486.520
24.13000 485.751
24.14000 483.477
24.15000 481.637
24.16000 483.900
24.17000 487.181
24.18000 489.692
24.19000 487.805
24.20000 485.219
24.21000 483.145
24.22000 483.826
24.23000 484.587
24.24000 484.163
24.25000 480.813
24.26000 477.327
24.27000 480.825
24.28000 495.879
24.29000 511.105
24.30000 519.001
24.31000 494.679
24.32000 478.342
24.33000 472.077
24.34000 472.759
24.35000 473.598
24.36000 478.943
24.37000 486.357
24.38000 493.359
24.39000 491.639
24.40000 487.596
24.41000 483.896
24.42000 482.719
24.43000 482.053
24.44000 481.683
24.45000 482.690
24.46000 483.868
24.47000 484.770
24.48000 478.450
24.49000 473.069
24.50000 469.479
24.51000 469.552
24.52000 469.734
24.53000 473.817
24.54000 483.190
24.55000 492.587
24.56000 493.814
24.57000 487.988
24.58000 482.252
24.59000 481.311
24.60000 483.087
24.61000 485.130
24.62000 492.226
24.63000 501.241
24.64000 509.574
24.65000 505.858
24.66000 499.789
24.67000 493.335
24.68000 484.632
24.69000 475.564
24.70000 467.717
24.71000 464.479
24.72000 461.685
24.73000 459.658
24.74000 460.978
24.75000 462.117
24.76000 464.762
24.77000 469.946
24.78000 475.171
24.79000 472.279
24.80000 460.460
24.81000 448.688
24.82000 457.283
24.83000 479.970
24.84000 501.914
24.85000 501.506
24.86000 490.642
24.87000 480.239
24.88000 476.036
24.89000 473.778
24.90000 471.743
24.91000 467.883
24.92000 464.167
24.93000 460.185
24.94000 454.952
24.95000 449.558
24.96000 447.995
24.97000 458.332
24.98000 469.519
24.99000 477.152
25.00000 480.034
25.01000 482.078
25.02000 483.661
25.03000 484.608
25.04000 485.548
25.05000 483.480
25.06000 478.757
25.07000 474.086
25.08000 474.615
25.09000 478.064
25.10000 481.401
25.11000 482.542
25.12000 482.833
25.13000 483.198
25.14000 484.311
25.15000 485.616
25.16000 486.757
25.17000 484.322
25.18000 481.728
25.19000 480.260
25.20000 483.128
25.21000 486.425
25.22000 486.728
25.23000 479.346
25.24000 471.579
25.25000 466.637
25.26000 469.481
25.27000 471.645
25.28000 473.438
25.29000 474.814
25.30000 476.144
25.31000 470.520
25.32000 459.906
25.33000 449.515
25.34000 451.548
25.35000 459.190
25.36000 466.837
25.37000 474.558
25.38000 482.303
25.39000 489.215
25.40000 489.695
25.41000 488.823
25.42000 488.086
25.43000 477.661
25.44000 467.878
25.45000 460.626
25.46000 461.383
25.47000 462.730
25.48000 463.429
25.49000 462.750
25.50000 462.027
25.51000 461.602
25.52000 467.466
25.53000 471.629
25.54000 473.454
25.55000 473.170
25.56000 472.828
25.57000 468.966
25.58000 463.032
25.59000 457.300
25.60000 460.629
25.61000 467.135
25.62000 472.675
25.63000 468.292
25.64000 461.298
25.65000 455.209
25.66000 454.639
25.67000 455.007
25.68000 455.305
25.69000 471.758
25.70000 486.517
25.71000 493.971
25.72000 482.323
25.73000 469.678
25.74000 461.257
25.75000 460.235
25.76000 459.350
25.77000 458.878
25.78000 470.978
25.79000 479.213
25.80000 483.208
25.81000 484.097
25.82000 484.995
25.83000 486.168
25.84000 487.476
25.85000 488.719
25.86000 483.076
25.87000 475.795
25.88000 468.909
25.89000 465.148
25.90000 462.058
25.91000 459.446
25.92000 459.176
25.93000 459.222
25.94000 459.258
25.95000 464.931
25.96000 469.783
25.97000 472.029
25.98000 468.639
25.99000 465.057
26.00000 461.397
26.01000 457.625
26.02000 453.853
26.03000 454.699
26.04000 459.797
26.05000 464.826
26.06000 465.377
26.07000 463.240
26.08000 461.109
26.09000 459.069
26.10000 457.065
26.11000 455.201
26.12000 461.073
26.13000 468.253
26.14000 473.076
26.15000 463.185
26.16000 450.744
26.17000 441.983
26.18000 447.962
26.19000 455.478
26.20000 461.021
26.21000 470.112
26.22000 477.302
26.23000 477.921
26.24000 466.805
26.25000 455.457
26.26000 450.642
26.27000 453.476
26.28000 456.314
26.29000 453.716
26.30000 447.106
26.31000 440.685
26.32000 440.832
26.33000 444.228
26.34000 447.448
26.35000 448.064
26.36000 447.815
26.37000 447.589
26.38000 450.695
26.39000 454.083
26.40000 457.576
26.41000 461.597
26.42000 465.690
26.43000 466.976
26.44000 459.031
26.45000 450.362
26.46000 444.334
26.47000 434.107
26.48000 426.284
26.49000 424.183
26.50000 430.479
26.51000 436.849
26.52000 446.153
26.53000 458.219
26.54000 470.178
26.55000 467.619
26.56000 456.399
26.57000 445.637
26.58000 444.950
26.59000 448.386
26.60000 451.564
26.61000 451.951
26.62000 451.575
26.63000 451.244
26.64000 455.040
26.65000 458.947
26.66000 461.630
26.67000 459.320
26.68000 456.475
26.69000 454.466
26.70000 454.728
26.71000 455.117
26.72000 455.369
26.73000 448.125
26.74000 442.702
26.75000 440.360
26.76000 441.705
26.77000 443.072
26.78000 447.722
26.79000 454.874
26.80000 461.899
26.81000 461.188
26.82000 456.735
26.83000 452.334
26.84000 448.721
26.85000 445.374
26.86000 442.568
26.87000 444.263
26.88000 446.965
26.89000 449.272
26.90000 441.948
26.91000 434.635
26.92000 430.208
26.93000 435.455
26.94000 441.483
26.95000 446.570
26.96000 449.546
26.97000 452.443
26.98000 454.186
26.99000 457.829
27.00000 460.433
27.01000 461.021
27.02000 459.669
27.03000 458.330
27.04000 457.868
27.05000 457.954
27.06000 458.038
27.07000 455.310
27.08000 451.612
27.09000 448.187
27.10000 447.811
27.11000 448.284
27.12000 448.481
27.13000 446.868
27.14000 444.926
27.15000 443.331
27.16000 442.314
27.17000 441.531
27.18000 440.934
27.19000 440.849
27.20000 440.794
27.21000 439.646
27.22000 436.471
27.23000 433.250
27.24000 431.478
27.25000 432.030
27.26000 432.400
27.27000 428.850
27.28000 422.255
27.29000 415.876
27.30000 417.902
27.31000 424.248
27.32000 430.307
27.33000 432.367
27.34000 433.000
27.35000 433.792
27.36000 435.932
27.37000 438.380
27.38000 440.201
27.39000 438.746
27.40000 436.819
27.41000 435.301
27.42000 435.382
27.43000 435.552
27.44000 436.779
27.45000 440.418
27.46000 444.152
27.47000 443.395
27.48000 435.785
27.49000 428.101
27.50000 429.139
27.51000 438.750
27.52000 448.269
27.53000 450.307
27.54000 447.590
27.55000 444.779
27.56000 439.760
27.57000 433.802
27.58000 428.223
27.59000 430.792
27.60000 435.234
27.61000 439.092
27.62000 439.047
27.63000 438.282
27.64000 438.029
27.65000 439.957
27.66000 442.131
27.67000 443.759
27.68000 439.977
27.69000 436.770
27.70000 435.755
27.71000 438.882
27.72000 442.107
27.73000 438.166
27.74000 425.299
27.75000 412.428
27.76000 407.641
27.77000 409.258
27.78000 410.953
27.79000 415.840
27.80000 422.397
27.81000 428.947
27.82000 435.361
27.83000 441.728
27.84000 447.553
27.85000 435.570
27.86000 421.227
27.87000 409.844
27.88000 414.269
27.89000 421.031
27.90000 427.354
27.91000 432.153
27.92000 436.821
27.93000 440.126
27.94000 441.144
27.95000 441.847
27.96000 440.610
27.97000 436.354
27.98000 432.063
27.99000 427.497
28.00000 422.653
28.01000 417.842
28.02000 418.497
28.03000 422.630
28.04000 426.530
28.05000 424.614
28.06000 420.182
28.07000 416.512
28.08000 421.861
28.09000 429.820
28.10000 436.908
28.11000 425.516
28.12000 412.586
28.13000 403.277
28.14000 409.658
28.15000 417.854
28.16000 424.785
28.17000 428.084
28.18000 431.157
28.19000 433.197
28.20000 434.760
28.21000 435.907
28.22000 436.385
28.23000 436.013
28.24000 435.634
28.25000 433.792
28.26000 430.765
28.27000 427.782
28.28000 430.679
28.29000 436.533
28.30000 441.980
28.31000 440.562
28.32000 436.688
28.33000 433.006
28.34000 431.049
28.35000 429.503
28.36000 428.168
28.37000 430.586
28.38000 433.118
28.39000 434.722
28.40000 433.030
28.41000 431.048
28.42000 431.754
28.43000 438.838
28.44000 446.194
28.45000 450.728
28.46000 450.999
28.47000 451.154
28.48000 446.944
28.49000 438.250
28.50000 429.583
28.51000 423.540
28.52000 419.232
28.53000 415.036
28.54000 413.698
28.55000 413.624
28.56000 413.388
28.57000 411.179
28.58000 408.388
28.59000 407.062
28.60000 415.989
28.61000 426.893
28.62000 435.964
28.63000 437.864
28.64000 438.732
28.65000 437.762
28.66000 431.414
28.67000 424.720
28.68000 419.613
28.69000 417.619
28.70000 415.707
28.71000 414.626
28.72000 419.944
28.73000 423.654
28.74000 424.297
28.75000 422.404
28.76000 420.596
28.77000 422.722
28.78000 426.986
28.79000 431.079
28.80000 426.841
28.81000 420.039
28.82000 414.102
28.83000 416.112
28.84000 420.048
28.85000 424.418
28.86000 431.214
28.87000 438.384
28.88000 444.104
28.89000 439.018
28.90000 434.122
28.91000 429.033
28.92000 423.475
28.93000 417.897
28.94000 417.525
28.95000 425.573
28.96000 433.736
28.97000 437.916
28.98000 418.441
28.99000 405.430
29.00000 400.940
29.01000 402.193
29.02000 403.513
29.03000 406.663
29.04000 410.636
29.05000 414.379
29.06000 413.904
29.07000 412.308
29.08000 410.685
29.09000 408.871
29.10000 407.019
29.11000 406.660
29.12000 413.037
29.13000 420.234
29.14000 425.708
29.15000 423.018
29.16000 420.474
29.17000 418.061
29.18000 415.912
29.19000 413.770
29.20000 411.253
29.21000 408.238
29.22000 405.224
29.23000 406.226
29.24000 410.607
29.25000 414.912
29.26000 415.481
29.27000 413.980
29.28000 412.899
29.29000 419.412
29.30000 428.746
29.31000 437.349
29.32000 426.419
29.33000 412.313
29.34000 400.500
29.35000 401.745
29.36000 405.054
29.37000 409.099
29.38000 415.856
29.39000 422.865
29.40000 427.915
29.41000 420.855
29.42000 415.017
29.43000 412.368
29.44000 414.973
29.45000 417.656
29.46000 417.510
29.47000 414.330
29.48000 411.165
29.49000 412.381
29.50000 416.560
29.51000 420.635
29.52000 421.772
29.53000 421.563
29.54000 421.115
29.55000 417.573
29.56000 413.082
29.57000 409.049
29.58000 411.238
29.59000 414.248
29.60000 415.243
29.61000 406.958
29.62000 397.517
29.63000 391.816
29.64000 397.472
29.65000 403.910
29.66000 408.269
29.67000 416.468
29.68000 422.661
29.69000 424.501
29.70000 420.461
29.71000 416.390
29.72000 413.257
29.73000 410.931
29.74000 408.634
29.75000 413.891
29.76000 423.175
29.77000 432.057
29.78000 433.390
29.79000 431.866
29.80000 430.407
29.81000 429.577
29.82000 428.905
29.83000 428.320
29.84000 424.212
29.85000 420.216
29.86000 418.403
29.87000 424.802
29.88000 431.988
29.89000 437.518
29.90000 438.894
29.91000 440.071
29.92000 440.813
29.93000 435.799
29.94000 432.103
29.95000 432.387
29.96000 437.029
29.97000 441.637
29.98000 441.403
29.99000 437.777
30.00000 434.232
30.01000 438.672
30.02000 446.497
30.03000 453.930
30.04000 456.143
30.05000 456.725
30.06000 456.951
30.07000 454.498
30.08000 451.496
30.09000 448.971
30.10000 443.988
30.11000 439.572
30.12000 437.348
30.13000 441.904
30.14000 446.942
30.15000 448.680
30.16000 443.568
30.17000 438.245
30.18000 435.153
30.19000 441.192
30.20000 445.465
30.21000 443.247
30.22000 435.317
30.23000 427.498
30.24000 425.908
30.25000 427.901
30.26000 429.823
30.27000 434.014
30.28000 438.779
30.29000 442.670
30.30000 437.870
30.31000 430.838
30.32000 424.306
30.33000 420.744
30.34000 417.673
30.35000 415.191
30.36000 415.675
30.37000 416.306
30.38000 416.084
30.39000 413.684
30.40000 411.175
30.41000 412.201
30.42000 419.281
30.43000 426.464
30.44000 430.258
30.45000 424.102
30.46000 419.950
30.47000 420.942
30.48000 425.610
30.49000 430.085
30.50000 428.484
30.51000 423.997
30.52000 419.746
30.53000 422.167
30.54000 426.354
30.55000 430.234
30.56000 431.746
30.57000 432.762
30.58000 433.172
30.59000 430.682
30.60000 427.812
30.61000 425.596
30.62000 437.789
30.63000 448.293
30.64000 455.177
30.65000 454.409
30.66000 453.394
30.67000 451.358
30.68000 447.888
30.69000 444.409
30.70000 440.645
30.71000 436.629
30.72000 432.697
30.73000 433.744
30.74000 437.713
30.75000 441.567
30.76000 443.129
30.77000 443.789
30.78000 444.402
30.79000 453.242
30.80000 463.152
30.81000 471.486
30.82000 470.238
30.83000 467.371
30.84000 466.807
30.85000 475.251
30.86000 484.605
30.87000 491.458
30.88000 483.338
30.89000 476.469
30.90000 475.122
30.91000 483.413
30.92000 491.880
30.93000 495.821
30.94000 494.592
30.95000 493.361
30.96000 506.266
30.97000 529.285
30.98000 552.002
30.99000 564.822
31.00000 572.854
31.01000 581.601
31.02000 600.499
31.03000 622.692
31.04000 642.783
31.05000 679.447
31.06000 714.867
31.07000 750.885
31.08000 789.830
31.09000 829.167
31.10000 871.918
31.11000 925.640
31.12000 980.192
31.13000 1017.843
31.14000 1099.690
31.15000 1162.316
31.16000 1228.892
31.17000 1301.128
31.18000 1373.416
31.19000 1463.946
31.20000 1571.215
31.21000 1677.446
31.22000 1787.116
31.23000 1896.516
31.24000 2005.629
31.25000 2108.696
31.26000 2209.342
31.27000 2310.502
31.28000 2417.057
31.29000 2525.053
31.30000 2620.026
31.31000 2726.718
31.32000 2820.257
31.33000 2904.355
31.34000 2950.797
31.35000 2993.328
31.36000 3035.680
31.37000 3077.555
31.38000 3119.404
31.39000 3146.380
31.40000 3121.337
31.41000 3102.307
31.42000 3077.194
31.43000 3044.984
31.44000 3012.603
31.45000 2949.738
31.46000 2864.194
31.47000 2780.278
31.48000 2706.815
31.49000 2640.995
31.50000 2572.669
31.51000 2467.641
31.52000 2350.474
31.53000 2232.446
31.54000 2107.472
31.55000 1980.981
31.56000 1873.416
31.57000 1751.876
31.58000 1648.189
31.59000 1547.941
31.60000 1458.963
31.61000 1370.862
31.62000 1288.334
31.63000 1218.037
31.64000 1148.176
31.65000 1106.546
31.66000 1025.641
31.67000 968.065
31.68000 912.305
31.69000 858.246
31.70000 804.469
31.71000 770.149
31.72000 747.685
31.73000 725.929
31.74000 698.945
31.75000 671.405
31.76000 644.366
31.77000 622.735
31.78000 602.578
31.79000 582.650
31.80000 564.180
31.81000 545.966
31.82000 531.063
31.83000 521.587
31.84000 514.297
31.85000 506.204
31.86000 495.940
31.87000 485.555
31.88000 477.495
31.89000 473.650
31.90000 469.891
31.91000 467.847
31.92000 462.847
31.93000 459.400
31.94000 452.847
31.95000 443.938
31.96000 435.294
31.97000 436.266
31.98000 442.069
31.99000 447.599
32.00000 442.915
32.01000 435.382
32.02000 428.939
32.03000 431.506
32.04000 436.079
32.05000 438.226
32.06000 427.991
32.07000 416.017
32.08000 406.642
32.09000 412.723
32.10000 418.570
32.11000 421.698
32.12000 418.743
32.13000 415.562
32.14000 410.514
32.15000 402.681
32.16000 394.823
32.17000 392.118
32.18000 394.351
32.19000 396.596
32.20000 399.728
32.21000 403.410
32.22000 406.924
32.23000 406.605
32.24000 404.693
32.25000 402.908
32.26000 402.279
32.27000 402.001
32.28000 402.054
32.29000 404.267
32.30000 406.870
32.31000 408.915
32.32000 408.652
32.33000 408.135
32.34000 407.751
32.35000 406.491
32.36000 405.471
32.37000 403.763
32.38000 400.786
32.39000 397.781
32.40000 393.770
32.41000 388.536
32.42000 383.311
32.43000 384.474
32.44000 390.549
32.45000 396.390
32.46000 393.199
32.47000 385.384
32.48000 377.801
32.49000 373.836
32.50000 371.113
32.51000 368.630
32.52000 369.059
32.53000 370.027
32.54000 371.496
32.55000 375.577
32.56000 380.033
32.57000 384.407
32.58000 388.499
32.59000 392.568
32.60000 395.429
32.61000 388.543
32.62000 383.040
32.63000 379.873
32.64000 380.259
32.65000 380.682
32.66000 379.734
32.67000 377.445
32.68000 375.174
32.69000 372.131
32.70000 368.659
32.71000 365.281
32.72000 364.126
32.73000 363.913
32.74000 364.180
32.75000 369.933
32.76000 377.238
32.77000 383.721
32.78000 386.072
32.79000 387.450
32.80000 391.034
32.81000 403.957
32.82000 417.927
32.83000 429.471
32.84000 434.204
32.85000 438.530
32.86000 441.378
32.87000 460.976
32.88000 475.701
32.89000 484.898
32.90000 487.236
32.91000 489.539
32.92000 487.050
32.93000 480.775
32.94000 474.600
32.95000 473.858
32.96000 475.885
32.97000 478.008
32.98000 481.708
32.99000 485.959
33.00000 489.426
33.01000 486.079
33.02000 481.152
33.03000 476.919
33.04000 462.199
33.05000 448.442
33.06000 435.144
33.07000 423.437
33.08000 411.864
33.09000 400.819
33.10000 390.997
33.11000 381.224
33.12000 375.257
33.13000 369.352
33.14000 365.131
33.15000 359.332
33.16000 351.956
33.17000 344.651
33.18000 343.558
33.19000 346.477
33.20000 349.314
33.21000 351.360
33.22000 352.981
33.23000 354.279
33.24000 351.763
33.25000 348.148
33.26000 344.733
33.27000 342.675
33.28000 340.872
33.29000 339.379
33.30000 345.016
33.31000 350.345
33.32000 354.857
33.33000 357.026
33.34000 359.051
33.35000 359.084
33.36000 355.296
33.37000 351.413
33.38000 349.240
33.39000 342.084
33.40000 337.121
33.41000 334.587
33.42000 334.014
33.43000 333.462
33.44000 333.867
33.45000 334.781
33.46000 335.656
33.47000 335.236
33.48000 334.415
33.49000 333.721
33.50000 334.175
33.51000 334.899
33.52000 335.386
33.53000 334.582
33.54000 333.583
33.55000 332.791
33.56000 334.664
33.57000 336.359
33.58000 337.881
33.59000 338.995
33.60000 340.091
33.61000 341.096
33.62000 341.955
33.63000 342.812
33.64000 343.246
33.65000 350.283
33.66000 354.917
33.67000 352.302
33.68000 344.915
33.69000 337.658
33.70000 333.788
33.71000 331.405
33.72000 329.165
33.73000 328.052
33.74000 327.338
33.75000 327.118
33.76000 330.332
33.77000 334.207
33.78000 335.656
33.79000 326.424
33.80000 315.931
33.81000 307.996
33.82000 324.765
33.83000 339.157
33.84000 348.423
33.85000 347.667
33.86000 346.649
33.87000 342.751
33.88000 335.132
33.89000 327.506
33.90000 325.978
33.91000 329.456
33.92000 332.864
33.93000 333.049
33.94000 331.487
33.95000 330.104
33.96000 331.815
33.97000 334.649
33.98000 337.255
33.99000 335.177
34.00000 332.313
34.01000 329.650
34.02000 328.105
34.03000 326.731
34.04000 326.222
34.05000 328.833
34.06000 331.725
34.07000 333.794
34.08000 336.754
34.09000 339.044
34.10000 339.366
34.11000 336.515
34.12000 333.621
34.13000 327.628
34.14000 318.396
34.15000 309.215
34.16000 310.353
34.17000 318.313
34.18000 326.129
34.19000 330.047
34.20000 332.221
34.21000 334.354
34.22000 335.980
34.23000 337.454
34.24000 338.773
34.25000 336.948
34.26000 334.818
34.27000 332.938
34.28000 332.187
34.29000 331.571
34.30000 330.957
34.31000 330.347
34.32000 329.738
34.33000 329.328
34.34000 331.355
34.35000 332.910
34.36000 332.744
34.37000 330.308
34.38000 327.864
34.39000 326.436
34.40000 325.861
34.41000 325.294
34.42000 324.024
34.43000 322.409
34.44000 320.788
34.45000 319.046
34.46000 317.259
34.47000 315.645
34.48000 315.654
34.49000 316.062
34.50000 316.417
34.51000 311.573
34.52000 306.749
34.53000 305.169
34.54000 315.514
34.55000 326.964
34.56000 335.229
34.57000 335.676
34.58000 335.765
34.59000 335.820
34.60000 333.404
34.61000 331.634
34.62000 334.210
34.63000 341.424
34.64000 348.553
34.65000 345.528
34.66000 335.550
34.67000 325.810
34.68000 324.155
34.69000 326.098
34.70000 328.082
34.71000 330.590
34.72000 333.259
34.73000 335.421
34.74000 333.885
34.75000 331.607
34.76000 329.700
34.77000 327.534
34.78000 325.706
34.79000 323.902
34.80000 322.170
34.81000 320.442
34.82000 320.917
34.83000 325.864
34.84000 330.941
34.85000 333.860
34.86000 331.787
34.87000 330.317
34.88000 328.478
34.89000 326.323
34.90000 324.252
34.91000 326.574
34.92000 331.367
34.93000 335.980
34.94000 331.783
34.95000 324.727
34.96000 318.506
34.97000 320.335
34.98000 324.184
34.99000 326.736
35.00000 321.765
35.01000 315.583
35.02000 310.612
35.03000 308.081
35.04000 306.217
35.05000 304.326
35.06000 302.365
35.07000 300.400
35.08000 301.627
35.09000 308.198
35.10000 314.853
35.11000 318.325
35.12000 314.021
35.13000 311.124
35.14000 310.535
35.15000 311.556
35.16000 312.578
35.17000 313.614
35.18000 314.657
35.19000 315.643
35.20000 312.737
35.21000 308.954
35.22000 306.226
35.23000 311.385
35.24000 318.158
35.25000 323.928
35.26000 325.012
35.27000 325.499
35.28000 325.872
35.29000 328.046
35.30000 329.864
35.31000 327.851
35.32000 317.913
35.33000 307.734
35.34000 304.924
35.35000 312.232
35.36000 319.596
35.37000 326.325
35.38000 332.488
35.39000 338.419
35.40000 331.666
35.41000 317.638
35.42000 304.492
35.43000 308.389
35.44000 318.834
35.45000 328.502
35.46000 323.740
35.47000 316.140
35.48000 309.237
35.49000 306.464
35.50000 304.371
35.51000 302.695
35.52000 302.613
35.53000 302.687
35.54000 302.741
35.55000 302.985
35.56000 303.180
35.57000 303.809
35.58000 305.177
35.59000 306.557
35.60000 307.305
35.61000 307.348
35.62000 307.390
35.63000 308.193
35.64000 309.525
35.65000 310.862
35.66000 312.345
35.67000 313.897
35.68000 315.096
35.69000 311.467
35.70000 306.306
35.71000 301.648
35.72000 299.557
35.73000 298.190
35.74000 297.913
35.75000 302.840
35.76000 308.446
35.77000 312.202
35.78000 310.146
35.79000 307.666
35.80000 305.968
35.81000 308.162
35.82000 309.899
35.83000 309.480
35.84000 306.040
35.85000 302.581
35.86000 300.873
35.87000 300.731
35.88000 300.590
35.89000 302.436
35.90000 305.374
35.91000 308.162
35.92000 307.925
35.93000 306.503
35.94000 304.938
35.95000 301.908
35.96000 298.497
35.97000 295.507
35.98000 289.378
35.99000 283.665
36.00000 280.177
36.01000 285.357
36.02000 291.408
36.03000 296.847
36.04000 300.695
36.05000 304.462
36.06000 306.869
36.07000 311.621
36.08000 315.111
36.09000 314.019
36.10000 307.716
36.11000 301.435
36.12000 299.808
36.13000 301.560
36.14000 303.278
36.15000 303.901
36.16000 303.994
36.17000 304.001
36.18000 302.791
36.19000 301.189
36.20000 299.899
36.21000 301.056
36.22000 302.734
36.23000 304.155
36.24000 302.031
36.25000 299.856
36.26000 297.635
36.27000 295.264
36.28000 292.882
36.29000 291.736
36.30000 293.244
36.31000 294.842
36.32000 295.785
36.33000 305.573
36.34000 312.528
36.35000 312.277
36.36000 305.440
36.37000 298.640
36.38000 294.263
36.39000 291.329
36.40000 288.492
36.41000 288.515
36.42000 289.613
36.43000 290.755
36.44000 292.357
36.45000 294.082
36.46000 295.426
36.47000 294.413
36.48000 292.994
36.49000 291.839
36.50000 293.205
36.51000 294.534
36.52000 295.011
36.53000 293.235
36.54000 291.339
36.55000 292.039
36.56000 297.343
36.57000 302.736
36.58000 305.637
36.59000 296.909
36.60000 290.963
36.61000 290.201
36.62000 293.281
36.63000 296.376
36.64000 299.974
36.65000 303.820
36.66000 307.477
36.67000 308.366
36.68000 308.345
36.69000 307.629
36.70000 301.330
36.71000 293.817
36.72000 287.788
36.73000 289.142
36.74000 291.505
36.75000 293.345
36.76000 289.572
36.77000 286.221
36.78000 286.361
36.79000 294.140
36.80000 302.188
36.81000 306.204
36.82000 304.347
36.83000 302.441
36.84000 299.592
36.85000 295.864
36.86000 292.155
36.87000 289.728
36.88000 288.080
36.89000 286.713
36.90000 291.446
36.91000 298.659
36.92000 305.380
36.93000 309.181
36.94000 311.904
36.95000 314.666
36.96000 317.678
36.97000 320.734
36.98000 321.832
36.99000 314.992
37.00000 307.310
37.01000 301.627
37.02000 309.423
37.03000 316.051
37.04000 317.771
37.05000 310.621
37.06000 303.291
37.07000 302.488
37.08000 309.432
37.09000 316.370
37.10000 318.296
37.11000 316.445
37.12000 314.565
37.13000 311.625
37.14000 308.154
37.15000 304.706
37.16000 301.588
37.17000 298.581
37.18000 295.847
37.19000 293.864
37.20000 292.258
37.21000 291.869
37.22000 297.667
37.23000 304.330
37.24000 307.937
37.25000 301.377
37.26000 294.004
37.27000 288.859
37.28000 293.533
37.29000 297.336
37.30000 301.200
37.31000 305.157
37.32000 309.114
37.33000 308.648
37.34000 303.962
37.35000 299.316
37.36000 296.102
37.37000 293.817
37.38000 291.710
37.39000 293.581
37.40000 297.100
37.41000 300.453
37.42000 301.962
37.43000 302.962
37.44000 303.846
37.45000 300.800
37.46000 297.560
37.47000 295.391
37.48000 297.651
37.49000 300.393
37.50000 302.212
37.51000 301.496
37.52000 300.634
37.53000 300.071
37.54000 297.876
37.55000 296.239
37.56000 295.986
37.57000 297.412
37.58000 298.828
37.59000 297.113
37.60000 292.983
37.61000 288.923
37.62000 291.598
37.63000 297.504
37.64000 303.110
37.65000 304.065
37.66000 303.427
37.67000 302.843
37.68000 302.704
37.69000 302.666
37.70000 302.633
37.71000 301.641
37.72000 300.689
37.73000 300.740
37.74000 304.194
37.75000 307.929
37.76000 311.332
37.77000 313.980
37.78000 316.600
37.79000 318.184
37.80000 306.578
37.81000 298.212
37.82000 297.273
37.83000 303.575
37.84000 309.764
37.85000 307.052
37.86000 298.723
37.87000 290.636
37.88000 293.047
37.89000 299.537
37.90000 305.675
37.91000 307.820
37.92000 308.839
37.93000 310.137
37.94000 313.291
37.95000 316.784
37.96000 319.664
37.97000 315.350
37.98000 311.138
37.99000 306.474
38.00000 300.543
38.01000 294.536
38.02000 291.118
38.03000 292.559
38.04000 294.112
38.05000 294.971
38.06000 296.818
38.07000 298.094
38.08000 299.420
38.09000 300.785
38.10000 302.191
38.11000 305.248
38.12000 309.163
38.13000 312.905
38.14000 316.258
38.15000 319.251
38.16000 321.463
38.17000 316.926
38.18000 310.830
38.19000 305.896
38.20000 307.120
38.21000 309.247
38.22000 310.925
38.23000 313.604
38.24000 315.821
38.25000 319.804
38.26000 327.871
38.27000 336.102
38.28000 343.045
38.29000 347.999
38.30000 352.930
38.31000 356.303
38.32000 358.123
38.33000 359.987
38.34000 365.627
38.35000 373.695
38.36000 381.839
38.37000 391.842
38.38000 402.643
38.39000 412.772
38.40000 429.281
38.41000 445.986
38.42000 462.840
38.43000 480.708
38.44000 498.767
38.45000 519.289
38.46000 550.408
38.47000 582.741
38.48000 607.043
38.49000 638.699
38.50000 663.805
38.51000 699.220
38.52000 754.347
38.53000 809.957
38.54000 861.555
38.55000 908.092
38.56000 954.537
38.57000 1000.896
38.58000 1046.992
38.59000 1093.364
38.60000 1151.454
38.61000 1215.751
38.62000 1279.240
38.63000 1329.289
38.64000 1374.564
38.65000 1416.055
38.66000 1447.540
38.67000 1473.477
38.68000 1499.231
38.69000 1523.986
38.70000 1548.592
38.71000 1568.085
38.72000 1569.563
38.73000 1569.471
38.74000 1569.406
38.75000 1561.226
38.76000 1554.741
38.77000 1534.725
38.78000 1493.405
38.79000 1451.824
38.80000 1403.947
38.81000 1349.658
38.82000 1295.714
38.83000 1249.859
38.84000 1209.899
38.85000 1169.184
38.86000 1109.173
38.87000 1040.715
38.88000 973.968
38.89000 927.835
38.90000 887.742
38.91000 851.979
38.92000 787.408
38.93000 726.429
38.94000 669.539
38.95000 630.593
38.96000 593.756
38.97000 559.305
38.98000 531.786
38.99000 504.708
39.00000 486.660
39.01000 460.258
39.02000 440.552
39.03000 420.695
39.04000 400.645
39.05000 380.614
39.06000 368.893
39.07000 363.988
39.08000 359.153
39.09000 355.440
39.10000 352.423
39.11000 349.009
39.12000 338.758
39.13000 326.032
39.14000 314.254
39.15000 311.104
39.16000 310.029
39.17000 309.100
39.18000 312.262
39.19000 315.482
39.20000 317.734
39.21000 316.511
39.22000 314.977
39.23000 312.476
39.24000 307.655
39.25000 302.732
39.26000 299.684
39.27000 295.168
39.28000 291.906
39.29000 289.094
39.30000 286.749
39.31000 284.402
39.32000 281.864
39.33000 279.199
39.34000 276.600
39.35000 274.435
39.36000 272.553
39.37000 271.120
39.38000 275.264
39.39000 281.075
39.40000 285.917
39.41000 283.891
39.42000 280.522
39.43000 277.714
39.44000 281.313
39.45000 284.938
39.46000 288.061
39.47000 289.700
39.48000 291.242
39.49000 289.851
39.50000 282.637
39.51000 275.264
39.52000 271.069
39.53000 276.080
39.54000 279.594
39.55000 279.949
39.56000 277.657
39.57000 275.385
39.58000 274.026
39.59000 273.169
39.60000 272.347
39.61000 268.086
39.62000 262.912
39.63000 258.788
39.64000 264.487
39.65000 272.592
39.66000 279.202
39.67000 277.354
39.68000 274.180
39.69000 271.641
39.70000 278.743
39.71000 285.203
39.72000 289.429
39.73000 288.187
39.74000 286.695
39.75000 284.782
39.76000 282.178
39.77000 279.564
39.78000 278.217
39.79000 276.793
39.80000 275.843
39.81000 275.974
39.82000 276.842
39.83000 277.636
39.84000 276.347
39.85000 274.112
39.86000 272.003
39.87000 271.573
39.88000 271.646
39.89000 271.590
39.90000 270.593
39.91000 269.407
39.92000 267.900
39.93000 264.925
39.94000 261.768
39.95000 259.360
39.96000 266.242
39.97000 272.162
39.98000 276.905
39.99000 279.268
40.00000 281.562
40.01000 276.779
40.02000 262.509
40.03000 248.201
40.04000 246.843
40.05000 256.530
40.06000 266.058
40.07000 267.491
40.08000 264.386
40.09000 261.288
40.10000 258.311
40.11000 255.381
40.12000 252.676
40.13000 253.903
40.14000 255.885
40.15000 257.519
40.16000 257.149
40.17000 256.458
40.18000 256.861
40.19000 261.352
40.20000 266.230
40.21000 269.756
40.22000 262.099
40.23000 255.817
40.24000 254.162
40.25000 260.225
40.26000 266.408
40.27000 266.429
40.28000 259.754
40.29000 253.107
40.30000 252.304
40.31000 255.532
40.32000 258.571
40.33000 256.088
40.34000 251.048
40.35000 246.368
40.36000 246.424
40.37000 247.949
40.38000 249.321
40.39000 253.439
40.40000 257.536
40.41000 260.959
40.42000 261.239
40.43000 261.122
40.44000 262.115
40.45000 266.518
40.46000 271.161
40.47000 274.317
40.48000 258.401
40.49000 246.090
40.50000 241.539
40.51000 247.602
40.52000 253.721
40.53000 254.328
40.54000 250.124
40.55000 245.969
40.56000 248.313
40.57000 254.223
40.58000 259.425
40.59000 251.039
40.60000 237.450
40.61000 226.039
40.62000 236.079
40.63000 251.590
40.64000 265.130
40.65000 261.204
40.66000 255.395
40.67000 251.270
40.68000 253.557
40.69000 256.468
40.70000 257.508
40.71000 253.797
40.72000 249.853
40.73000 247.354
40.74000 246.013
40.75000 245.055
40.76000 246.356
40.77000 250.165
40.78000 253.944
40.79000 253.280
40.80000 249.463
40.81000 245.729
40.82000 246.845
40.83000 250.110
40.84000 253.230
40.85000 254.378
40.86000 254.902
40.87000 255.509
40.88000 256.745
40.89000 258.111
40.90000 259.262
40.91000 256.832
40.92000 254.414
40.93000 252.302
40.94000 251.147
40.95000 250.062
40.96000 248.613
40.97000 246.402
40.98000 244.166
40.99000 242.860
41.00000 240.963
41.01000 239.627
41.02000 240.749
41.03000 244.062
41.04000 247.334
41.05000 248.291
41.06000 247.900
41.07000 247.523
41.08000 244.599
41.09000 240.912
41.10000 237.463
41.11000 236.435
41.12000 236.037
41.13000 236.656
41.14000 243.415
41.15000 251.201
41.16000 257.511
41.17000 249.043
41.18000 240.941
41.19000 237.462
41.20000 245.942
41.21000 255.032
41.22000 258.238
41.23000 251.246
41.24000 244.072
41.25000 240.259
41.26000 248.375
41.27000 253.877
41.28000 254.760
41.29000 252.300
41.30000 249.862
41.31000 248.134
41.32000 246.748
41.33000 245.433
41.34000 246.865
41.35000 249.002
41.36000 250.725
41.37000 249.215
41.38000 247.017
41.39000 245.422
41.40000 246.749
41.41000 248.465
41.42000 249.793
41.43000 240.186
41.44000 231.910
41.45000 228.272
41.46000 234.555
41.47000 241.169
41.48000 244.031
41.49000 241.557
41.50000 239.044
41.51000 238.595
41.52000 240.022
41.53000 241.413
41.54000 240.512
41.55000 238.252
41.56000 236.194
41.57000 238.344
41.58000 242.165
41.59000 245.716
41.60000 248.335
41.61000 250.475
41.62000 252.167
41.63000 251.095
41.64000 249.549
41.65000 247.189
41.66000 241.607
41.67000 235.694
41.68000 231.347
41.69000 232.287
41.70000 233.230
41.71000 235.589
41.72000 240.448
41.73000 245.355
41.74000 243.780
41.75000 234.702
41.76000 225.644
41.77000 224.032
41.78000 227.887
41.79000 231.528
41.80000 227.914
41.81000 220.747
41.82000 214.370
41.83000 219.428
41.84000 228.241
41.85000 236.232
41.86000 244.537
41.87000 251.924
41.88000 256.658
41.89000 248.236
41.90000 238.025
41.91000 232.154
41.92000 240.400
41.93000 249.733
41.94000 256.199
41.95000 245.879
41.96000 237.671
41.97000 234.639
41.98000 239.122
41.99000 243.665
42.00000 244.219
42.01000 241.063
42.02000 237.936
42.03000 238.436
42.04000 241.078
42.05000 243.601
42.06000 243.569
42.07000 242.502
42.08000 241.082
42.09000 235.878
42.10000 229.651
42.11000 224.165
42.12000 224.133
42.13000 224.927
42.14000 224.998
42.15000 222.145
42.16000 218.985
42.17000 218.350
42.18000 224.496
42.19000 231.016
42.20000 235.238
42.21000 242.457
42.22000 247.783
42.23000 247.873
42.24000 241.776
42.25000 235.695
42.26000 235.078
42.27000 238.577
42.28000 242.011
42.29000 241.872
42.30000 240.017
42.31000 238.299
42.32000 238.620
42.33000 239.623
42.34000 240.149
42.35000 236.761
42.36000 232.509
42.37000 228.884
42.38000 225.135
42.39000 221.966
42.40000 220.119
42.41000 222.652
42.42000 225.532
42.43000 227.849
42.44000 228.914
42.45000 229.933
42.46000 230.543
42.47000 227.979
42.48000 226.138
42.49000 226.353
42.50000 228.521
42.51000 230.660
42.52000 230.589
42.53000 229.157
42.54000 227.769
42.55000 230.191
42.56000 233.973
42.57000 237.465
42.58000 237.766
42.59000 237.188
42.60000 236.236
42.61000 232.877
42.62000 229.087
42.63000 225.978
42.64000 230.559
42.65000 235.001
42.66000 237.679
42.67000 235.528
42.68000 233.102
42.69000 231.269
42.70000 230.523
42.71000 229.800
42.72000 229.405
42.73000 232.584
42.74000 234.768
42.75000 235.218
42.76000 234.337
42.77000 233.476
42.78000 233.419
42.79000 233.770
42.80000 234.105
42.81000 237.111
42.82000 240.745
42.83000 243.583
42.84000 239.730
42.85000 234.367
42.86000 229.314
42.87000 225.864
42.88000 222.643
42.89000 220.113
42.90000 225.001
42.91000 229.397
42.92000 232.317
42.93000 231.897
42.94000 231.350
42.95000 230.595
42.96000 229.525
42.97000 228.452
42.98000 227.621
42.99000 227.025
43.00000 226.405
43.01000 223.858
43.02000 220.100
43.03000 216.644
43.04000 220.241
43.05000 226.800
43.06000 232.936
43.07000 232.712
43.08000 230.884
43.09000 229.845
43.10000 234.000
43.11000 239.104
43.12000 242.787
43.13000 240.501
43.14000 237.551
43.15000 235.347
43.16000 232.068
43.17000 229.463
43.18000 227.507
43.19000 226.764
43.20000 226.049
43.21000 226.551
43.22000 228.550
43.23000 230.549
43.24000 231.135
43.25000 230.616
43.26000 230.153
43.27000 231.922
43.28000 234.847
43.29000 237.245
43.30000 231.234
43.31000 222.302
43.32000 214.140
43.33000 217.347
43.34000 222.520
43.35000 226.447
43.36000 223.802
43.37000 220.199
43.38000 217.860
43.39000 219.877
43.40000 222.261
43.41000 223.943
43.42000 219.074
43.43000 215.182
43.44000 214.516
43.45000 218.815
43.46000 223.169
43.47000 222.401
43.48000 216.550
43.49000 210.740
43.50000 211.029
43.51000 215.160
43.52000 219.248
43.53000 222.267
43.54000 224.830
43.55000 227.211
43.56000 227.477
43.57000 227.138
43.58000 226.836
43.59000 226.695
43.60000 226.600
43.61000 226.164
43.62000 224.272
43.63000 222.214
43.64000 220.409
43.65000 219.322
43.66000 218.279
43.67000 217.589
43.68000 218.049
43.69000 218.409
43.70000 220.139
43.71000 223.591
43.72000 227.041
43.73000 228.069
43.74000 227.157
43.75000 226.260
43.76000 225.185
43.77000 224.053
43.78000 222.946
43.79000 222.243
43.80000 221.684
43.81000 221.237
43.82000 221.775
43.83000 222.544
43.84000 223.206
43.85000 221.893
43.86000 220.530
43.87000 220.053
43.88000 222.683
43.89000 225.582
43.90000 227.529
43.91000 227.238
43.92000 226.853
43.93000 226.618
43.94000 216.883
43.95000 209.826
43.96000 206.380
43.97000 206.598
43.98000 206.881
43.99000 213.255
44.00000 223.609
44.01000 233.687
44.02000 234.926
44.03000 232.434
44.04000 230.043
44.05000 228.861
44.06000 228.031
44.07000 226.427
44.08000 219.480
44.09000 211.515
44.10000 204.903
44.11000 214.080
44.12000 223.191
44.13000 229.644
44.14000 228.404
44.15000 226.678
44.16000 226.876
44.17000 230.812
44.18000 234.844
44.19000 237.113
44.20000 228.517
44.21000 222.526
44.22000 218.309
44.23000 215.543
44.24000 212.909
44.25000 216.150
44.26000 222.550
44.27000 228.686
44.28000 229.438
44.29000 228.327
44.30000 227.194
44.31000 225.860
44.32000 224.479
44.33000 223.727
44.34000 226.449
44.35000 229.700
44.36000 232.287
44.37000 232.436
44.38000 232.382
44.39000 232.063
44.40000 231.113
44.41000 230.136
44.42000 228.912
44.43000 227.292
44.44000 225.667
44.45000 224.840
44.46000 223.685
44.47000 222.889
44.48000 219.842
44.49000 215.295
44.50000 210.999
44.51000 213.344
44.52000 218.640
44.53000 223.625
44.54000 224.968
44.55000 225.204
44.56000 225.932
44.57000 230.136
44.58000 235.016
44.59000 238.424
44.60000 235.269
44.61000 231.326
44.62000 228.335
44.63000 225.193
44.64000 222.717
44.65000 222.124
44.66000 225.257
44.67000 228.490
44.68000 232.252
44.69000 236.707
44.70000 241.160
44.71000 242.767
44.72000 242.004
44.73000 241.275
44.74000 242.180
44.75000 243.980
44.76000 245.654
44.77000 245.073
44.78000 243.663
44.79000 242.365
44.80000 245.064
44.81000 248.349
44.82000 252.646
44.83000 262.630
44.84000 273.502
44.85000 280.902
44.86000 275.632
44.87000 269.200
44.88000 264.581
44.89000 275.347
44.90000 284.114
44.91000 291.394
44.92000 296.248
44.93000 301.068
44.94000 303.713
44.95000 304.053
44.96000 304.392
44.97000 307.983
44.98000 313.713
44.99000 319.319
45.00000 321.501
45.01000 322.133
45.02000 323.001
45.03000 326.878
45.04000 331.669
45.05000 335.964
45.06000 330.913
45.07000 324.878
45.08000 320.600
45.09000 324.326
45.10000 329.035
45.11000 332.931
45.12000 334.381
45.13000 335.666
45.14000 336.533
45.15000 336.622
45.16000 336.673
45.17000 333.197
45.18000 325.012
45.19000 316.807
45.20000 310.775
45.21000 306.595
45.22000 302.467
45.23000 305.714
45.24000 312.888
45.25000 319.511
45.26000 316.007
45.27000 308.710
45.28000 301.583
45.29000 296.065
45.30000 290.949
45.31000 286.500
45.32000 289.096
45.33000 292.270
45.34000 294.730
45.35000 294.533
45.36000 294.086
45.37000 291.204
45.38000 282.274
45.39000 273.060
45.40000 267.275
45.41000 267.237
45.42000 267.273
45.43000 267.145
45.44000 266.839
45.45000 266.527
45.46000 265.326
45.47000 263.510
45.48000 261.735
45.49000 259.981
45.50000 258.310
45.51000 256.856
45.52000 258.232
45.53000 260.484
45.54000 262.034
45.55000 258.384
45.56000 253.680
45.57000 249.731
45.58000 247.605
45.59000 246.025
45.60000 245.728
45.61000 249.363
45.62000 253.271
45.63000 253.156
45.64000 244.778
45.65000 236.153
45.66000 231.167
45.67000 234.615
45.68000 237.063
45.69000 237.138
45.70000 235.152
45.71000 233.279
45.72000 237.499
45.73000 245.186
45.74000 252.593
45.75000 247.085
45.76000 237.284
45.77000 227.728
45.78000 220.578
45.79000 214.039
45.80000 209.194
45.81000 214.299
45.82000 221.028
45.83000 226.454
45.84000 231.577
45.85000 235.714
45.86000 236.689
45.87000 229.665
45.88000 222.250
45.89000 219.334
45.90000 224.040
45.91000 228.870
45.92000 231.407
45.93000 225.438
45.94000 221.423
45.95000 221.994
45.96000 225.807
45.97000 229.339
45.98000 224.321
45.99000 215.284
46.00000 206.729
46.01000 211.770
46.02000 220.349
46.03000 227.808
46.04000 226.766
46.05000 223.963
46.06000 221.078
46.07000 217.799
46.08000 214.470
46.09000 211.907
46.10000 213.289
46.11000 214.608
46.12000 213.474
46.13000 207.211
46.14000 200.786
46.15000 201.553
46.16000 212.315
46.17000 223.136
46.18000 224.171
46.19000 216.528
46.20000 208.998
46.21000 207.948
46.22000 210.659
46.23000 213.245
46.24000 213.363
46.25000 212.524
46.26000 211.745
46.27000 207.597
46.28000 203.077
46.29000 199.685
46.30000 203.067
46.31000 207.579
46.32000 210.859
46.33000 209.375
46.34000 207.416
46.35000 205.985
46.36000 206.661
46.37000 207.264
46.38000 207.101
46.39000 205.612
46.40000 204.100
46.41000 201.564
46.42000 197.870
46.43000 194.189
46.44000 190.032
46.45000 185.573
46.46000 181.281
46.47000 182.327
46.48000 185.928
46.49000 189.503
46.50000 192.709
46.51000 195.796
46.52000 198.586
46.53000 207.194
46.54000 215.849
46.55000 221.972
46.56000 215.846
46.57000 208.101
46.58000 201.286
46.59000 197.428
46.60000 193.789
46.61000 191.286
46.62000 199.005
46.63000 205.049
46.64000 205.780
46.65000 198.979
46.66000 192.127
46.67000 190.655
46.68000 194.061
46.69000 197.433
46.70000 201.211
46.71000 205.140
46.72000 208.975
46.73000 210.860
46.74000 211.974
46.75000 212.248
46.76000 203.841
46.77000 193.142
46.78000 183.749
46.79000 185.764
46.80000 189.167
46.81000 192.915
46.82000 198.019
46.83000 203.262
46.84000 204.970
46.85000 197.395
46.86000 189.331
46.87000 184.154
46.88000 191.894
46.89000 197.714
46.90000 200.156
46.91000 198.703
46.92000 197.252
46.93000 196.926
46.94000 197.429
46.95000 197.921
46.96000 195.653
46.97000 192.174
46.98000 189.149
46.99000 192.668
47.00000 198.329
47.01000 203.629
47.02000 206.061
47.03000 207.873
47.04000 209.412
47.05000 203.921
47.06000 198.518
47.07000 194.781
47.08000 196.441
47.09000 198.514
47.10000 200.309
47.11000 201.500
47.12000 202.671
47.13000 203.365
47.14000 200.671
47.15000 198.748
47.16000 200.286
47.17000 205.030
47.18000 209.654
47.19000 206.374
47.20000 198.328
47.21000 190.542
47.22000 192.342
47.23000 197.698
47.24000 202.355
47.25000 199.576
47.26000 194.794
47.27000 190.341
47.28000 187.952
47.29000 185.922
47.30000 184.265
47.31000 188.135
47.32000 191.777
47.33000 193.177
47.34000 188.583
47.35000 183.661
47.36000 178.774
47.37000 173.950
47.38000 169.127
47.39000 166.518
47.40000 172.734
47.41000 176.992
47.42000 179.433
47.43000 180.512
47.44000 181.554
47.45000 181.313
47.46000 180.433
47.47000 179.595
47.48000 183.827
47.49000 189.310
47.50000 193.921
47.51000 191.417
47.52000 187.347
47.53000 184.932
47.54000 190.865
47.55000 197.956
47.56000 203.492
47.57000 201.980
47.58000 200.330
47.59000 198.865
47.60000 197.810
47.61000 196.770
47.62000 195.848
47.63000 195.103
47.64000 194.358
47.65000 195.568
47.66000 198.626
47.67000 201.625
47.68000 200.438
47.69000 196.677
47.70000 192.901
47.71000 188.771
47.72000 184.495
47.73000 180.505
47.74000 181.453
47.75000 183.541
47.76000 185.457
47.77000 186.269
47.78000 186.885
47.79000 187.290
47.80000 186.826
47.81000 186.268
47.82000 185.855
47.83000 185.245
47.84000 184.763
47.85000 185.710
47.86000 189.269
47.87000 192.884
47.88000 192.074
47.89000 185.947
47.90000 179.824
47.91000 177.311
47.92000 177.561
47.93000 177.815
47.94000 178.237
47.95000 178.745
47.96000 179.161
47.97000 178.164
47.98000 176.686
47.99000 175.340
48.00000 181.386
48.01000 188.211
48.02000 193.692
48.03000 192.248
48.04000 189.823
48.05000 188.023
48.06000 188.326
48.07000 188.800
48.08000 189.133
48.09000 183.633
48.10000 179.305
48.11000 177.866
48.12000 180.768
48.13000 183.714
48.14000 183.749
48.15000 180.971
48.16000 178.215
48.17000 182.032
48.18000 189.826
48.19000 197.329
48.20000 198.084
48.21000 196.012
48.22000 193.702
48.23000 188.725
48.24000 183.001
48.25000 177.930
48.26000 181.512
48.27000 185.973
48.28000 189.757
48.29000 190.704
48.30000 191.338
48.31000 191.357
48.32000 189.669
48.33000 187.881
48.34000 186.708
48.35000 175.760
48.36000 167.546
48.37000 166.819
48.38000 175.278
48.39000 183.724
48.40000 182.602
48.41000 174.004
48.42000 165.548
48.43000 170.821
48.44000 182.777
48.45000 193.866
48.46000 191.178
48.47000 183.720
48.48000 177.182
48.49000 178.534
48.50000 181.695
48.51000 184.406
48.52000 187.044
48.53000 189.264
48.54000 189.600
48.55000 183.468
48.56000 176.794
48.57000 173.347
48.58000 177.311
48.59000 181.569
48.60000 184.156
48.61000 189.926
48.62000 194.069
48.63000 194.562
48.64000 191.448
48.65000 188.364
48.66000 187.815
48.67000 188.886
48.68000 189.927
48.69000 185.808
48.70000 179.803
48.71000 174.443
48.72000 176.533
48.73000 180.749
48.74000 184.577
48.75000 185.791
48.76000 186.520
48.77000 187.122
48.78000 187.122
48.79000 187.066
48.80000 187.133
48.81000 187.546
48.82000 187.979
48.83000 186.694
48.84000 182.146
48.85000 177.520
48.86000 174.945
48.87000 179.504
48.88000 182.662
48.89000 182.547
48.90000 179.822
48.91000 177.201
48.92000 178.868
48.93000 182.791
48.94000 186.545
48.95000 182.817
48.96000 176.885
48.97000 172.005
48.98000 176.367
48.99000 182.891
49.00000 188.961
49.01000 192.594
49.02000 195.866
49.03000 198.456
49.04000 192.416
49.05000 186.963
49.06000 182.665
49.07000 181.067
49.08000 179.581
49.09000 178.595
49.10000 178.392
49.11000 178.199
49.12000 178.101
49.13000 175.544
49.14000 173.883
49.15000 176.547
49.16000 182.026
49.17000 187.365
49.18000 189.147
49.19000 189.383
49.20000 189.605
49.21000 186.439
49.22000 182.653
49.23000 179.014
49.24000 176.393
49.25000 173.965
49.26000 173.052
49.27000 178.732
49.28000 185.180
49.29000 190.042
49.30000 182.849
49.31000 176.622
49.32000 172.399
49.33000 172.051
49.34000 171.802
49.35000 170.876
49.36000 169.087
49.37000 167.298
49.38000 165.983
49.39000 165.058
49.40000 164.262
49.41000 169.095
49.42000 176.945
49.43000 184.251
49.44000 182.303
49.45000 177.028
49.46000 172.186
49.47000 174.517
49.48000 178.121
49.49000 180.775
49.50000 178.221
49.51000 174.875
49.52000 173.091
49.53000 176.876
49.54000 181.154
49.55000 184.206
49.56000 183.980
49.57000 183.699
49.58000 181.161
49.59000 175.023
49.60000 168.838
49.61000 168.556
49.62000 174.366
49.63000 180.142
49.64000 180.218
49.65000 176.560
49.66000 172.907
49.67000 169.362
49.68000 165.865
49.69000 163.166
49.70000 170.246
49.71000 180.225
49.72000 189.143
49.73000 182.076
49.74000 173.217
49.75000 166.756
49.76000 170.943
49.77000 176.401
49.78000 180.121
49.79000 178.732
49.80000 177.011
49.81000 175.859
49.82000 179.369
49.83000 182.065
49.84000 183.006
49.85000 181.660
49.86000 180.306
49.87000 179.484
49.88000 179.105
49.89000 178.732
49.90000 178.565
49.91000 178.512
49.92000 178.398
49.93000 177.199
49.94000 175.603
49.95000 174.023
49.96000 172.581
49.97000 171.173
49.98000 169.954
49.99000 172.962
50.00000 176.081
50.01000 178.231
50.02000 176.862
50.03000 175.171
50.04000 174.817
50.05000 177.711
50.06000 180.751
50.07000 182.642
50.08000 180.072
50.09000 178.176
50.10000 176.708
50.11000 175.691
50.12000 174.711
50.13000 177.878
50.14000 183.852
50.15000 189.679
50.16000 186.208
50.17000 178.883
50.18000 172.204
50.19000 173.701
50.20000 177.668
50.21000 180.634
50.22000 176.389
50.23000 170.716
50.24000 165.976
50.25000 168.300
50.26000 170.947
50.27000 174.694
50.28000 181.734
50.29000 188.996
50.30000 193.189
50.31000 191.219
50.32000 189.076
50.33000 187.849
50.34000 182.684
50.35000 179.075
50.36000 182.264
50.37000 191.216
50.38000 199.949
50.39000 197.764
50.40000 189.502
50.41000 181.558
50.42000 183.559
50.43000 188.911
50.44000 194.013
50.45000 196.744
50.46000 198.885
50.47000 201.013
50.48000 203.064
50.49000 205.101
50.50000 206.736
50.51000 208.789
50.52000 210.483
50.53000 212.583
50.54000 215.687
50.55000 218.838
50.56000 221.615
50.57000 223.773
50.58000 225.922
50.59000 227.036
50.60000 227.212
50.61000 227.334
50.62000 227.813
50.63000 228.539
50.64000 229.214
50.65000 228.414
50.66000 226.935
50.67000 225.538
50.68000 230.688
50.69000 237.265
50.70000 243.215
50.71000 244.539
50.72000 244.929
50.73000 245.414
50.74000 246.333
50.75000 247.308
50.76000 248.054
50.77000 241.773
50.78000 236.432
50.79000 233.629
50.80000 236.020
50.81000 238.565
50.82000 238.446
50.83000 234.712
50.84000 230.960
50.85000 228.450
50.86000 227.017
50.87000 225.611
50.88000 225.619
50.89000 226.429
50.90000 226.996
50.91000 222.995
50.92000 217.257
50.93000 211.953
50.94000 209.711
50.95000 208.394
50.96000 206.909
50.97000 204.442
50.98000 201.814
50.99000 199.780
51.00000 199.983
51.01000 200.403
51.02000 200.707
51.03000 197.232
51.04000 194.420
51.05000 191.383
51.06000 187.966
51.07000 184.543
51.08000 183.139
51.09000 183.959
51.10000 184.775
51.11000 187.518
51.12000 191.575
51.13000 195.446
51.14000 193.733
51.15000 189.405
51.16000 185.171
51.17000 182.191
51.18000 179.605
51.19000 177.274
51.20000 184.103
51.21000 191.752
51.22000 197.385
51.23000 193.503
51.24000 188.398
51.25000 183.949
51.26000 181.539
51.27000 179.274
51.28000 177.728
51.29000 175.093
51.30000 173.097
51.31000 170.026
51.32000 165.469
51.33000 160.907
51.34000 162.522
51.35000 169.597
51.36000 176.594
51.37000 178.368
51.38000 177.152
51.39000 175.990
51.40000 175.874
51.41000 176.163
51.42000 176.420
51.43000 176.346
51.44000 176.188
51.45000 176.050
51.46000 173.839
51.47000 171.650
51.48000 170.136
51.49000 171.222
51.50000 172.566
51.51000 173.079
51.52000 171.457
51.53000 169.728
51.54000 168.628
51.55000 169.506
51.56000 170.170
51.57000 169.707
51.58000 167.977
51.59000 166.241
51.60000 163.594
51.61000 160.293
51.62000 157.062
51.63000 161.008
51.64000 168.088
51.65000 174.484
51.66000 171.408
51.67000 165.301
51.68000 160.158
51.69000 162.473
51.70000 166.359
51.71000 169.642
51.72000 168.271
51.73000 166.611
51.74000 165.446
51.75000 165.844
51.76000 166.358
51.77000 166.658
51.78000 166.500
51.79000 166.327
51.80000 166.226
51.81000 162.844
51.82000 160.444
51.83000 158.565
51.84000 157.157
51.85000 155.786
51.86000 156.711
51.87000 158.989
51.88000 161.190
51.89000 161.554
51.90000 161.214
51.91000 160.848
51.92000 160.228
51.93000 159.540
51.94000 159.137
51.95000 160.480
51.96000 162.118
51.97000 163.450
51.98000 158.087
51.99000 153.156
52.00000 150.375
52.01000 153.219
52.02000 156.358
52.03000 159.377
52.04000 162.188
52.05000 164.995
52.06000 166.496
52.07000 166.671
52.08000 166.783
52.09000 165.818
52.10000 164.064
52.11000 162.317
52.12000 160.765
52.13000 159.310
52.14000 157.927
52.15000 157.887
52.16000 158.255
52.17000 158.529
52.18000 158.060
52.19000 157.430
52.20000 156.660
52.21000 155.201
52.22000 153.650
52.23000 152.445
52.24000 157.648
52.25000 162.174
52.26000 165.387
52.27000 165.761
52.28000 166.037
52.29000 168.584
52.30000 174.402
52.31000 180.246
52.32000 177.529
52.33000 166.922
52.34000 156.448
52.35000 154.618
52.36000 157.981
52.37000 161.143
52.38000 160.065
52.39000 157.283
52.40000 154.694
52.41000 158.772
52.42000 164.073
52.43000 168.891
52.44000 170.683
52.45000 171.950
52.46000 172.182
52.47000 168.269
52.48000 163.924
52.49000 160.718
52.50000 161.098
52.51000 161.542
52.52000 164.187
52.53000 170.762
52.54000 177.415
52.55000 177.188
52.56000 168.895
52.57000 160.613
52.58000 155.744
52.59000 153.442
52.60000 151.232
52.61000 152.231
52.62000 154.820
52.63000 157.139
52.64000 155.470
52.65000 152.475
52.66000 149.755
52.67000 153.833
52.68000 158.752
52.69000 162.723
52.70000 161.928
52.71000 160.475
52.72000 159.065
52.73000 157.795
52.74000 156.536
52.75000 155.660
52.76000 156.495
52.77000 157.170
52.78000 158.586
52.79000 161.091
52.80000 163.605
52.81000 164.447
52.82000 163.714
52.83000 162.988
52.84000 161.290
52.85000 159.040
52.86000 156.904
52.87000 157.246
52.88000 158.603
52.89000 159.634
52.90000 157.130
52.91000 153.659
52.92000 150.594
52.93000 155.290
52.94000 160.530
52.95000 163.814
52.96000 159.105
52.97000 153.538
52.98000 150.130
52.99000 152.584
53.00000 155.369
53.01000 157.179
53.02000 151.815
53.03000 147.774
53.04000 148.403
53.05000 154.625
53.06000 160.838
53.07000 162.423
53.08000 160.478
53.09000 158.568
53.10000 162.398
53.11000 168.893
53.12000 174.989
53.13000 174.993
53.14000 172.934
53.15000 170.510
53.16000 165.039
53.17000 158.887
53.18000 153.632
53.19000 155.157
53.20000 157.248
53.21000 160.372
53.22000 166.961
53.23000 173.829
53.24000 178.084
53.25000 176.468
53.26000 174.632
53.27000 173.526
53.28000 170.585
53.29000 168.480
53.30000 166.664
53.31000 165.127
53.32000 163.608
53.33000 163.398
53.34000 164.005
53.35000 164.594
53.36000 166.563
53.37000 168.976
53.38000 170.997
53.39000 168.632
53.40000 165.045
53.41000 161.775
53.42000 160.576
53.43000 159.753
53.44000 159.076
53.45000 160.365
53.46000 161.603
53.47000 162.117
53.48000 160.632
53.49000 159.030
53.50000 156.332
53.51000 151.602
53.52000 146.826
53.53000 144.197
53.54000 153.397
53.55000 159.729
53.56000 159.511
53.57000 154.196
53.58000 148.956
53.59000 146.614
53.60000 145.762
53.61000 144.949
53.62000 150.121
53.63000 156.845
53.64000 162.978
53.65000 164.058
53.66000 163.985
53.67000 164.038
53.68000 164.745
53.69000 165.548
53.70000 166.180
53.71000 165.020
53.72000 163.971
53.73000 162.464
53.74000 159.907
53.75000 157.309
53.76000 154.946
53.77000 152.943
53.78000 150.944
53.79000 150.142
53.80000 150.520
53.81000 150.914
53.82000 152.659
53.83000 155.264
53.84000 157.690
53.85000 155.825
53.86000 152.136
53.87000 148.682
53.88000 153.019
53.89000 158.981
53.90000 164.547
53.91000 167.475
53.92000 169.914
53.93000 171.025
53.94000 166.490
53.95000 161.317
53.96000 157.441
53.97000 156.492
53.98000 155.890
53.99000 156.560
54.00000 159.637
54.01000 162.772
54.02000 163.664
54.03000 161.761
54.04000 159.853
54.05000 157.819
54.06000 155.696
54.07000 153.608
54.08000 152.960
54.09000 153.067
54.10000 153.123
54.11000 152.354
54.12000 151.295
54.13000 150.325
54.14000 153.227
54.15000 156.611
54.16000 159.543
54.17000 160.062
54.18000 160.224
54.19000 160.150
54.20000 159.252
54.21000 158.283
54.22000 157.596
54.23000 155.905
54.24000 154.589
54.25000 153.518
54.26000 152.828
54.27000 152.143
54.28000 151.838
54.29000 151.913
54.30000 151.988
54.31000 155.931
54.32000 162.286
54.33000 168.363
54.34000 167.495
54.35000 163.620
54.36000 160.084
54.37000 160.566
54.38000 162.214
54.39000 163.681
54.40000 162.006
54.41000 160.035
54.42000 158.485
54.43000 158.761
54.44000 159.249
54.45000 158.305
54.46000 153.249
54.47000 147.937
54.48000 144.410
54.49000 153.204
54.50000 159.933
54.51000 161.754
54.52000 157.328
54.53000 152.889
54.54000 151.884
54.55000 153.662
54.56000 155.413
54.57000 155.214
54.58000 154.009
54.59000 152.824
54.60000 151.981
54.61000 151.262
54.62000 151.055
54.63000 155.452
54.64000 160.944
54.65000 165.683
54.66000 161.063
54.67000 155.943
54.68000 152.623
54.69000 155.702
54.70000 159.345
54.71000 162.763
54.72000 165.646
54.73000 168.507
54.74000 170.270
54.75000 166.132
54.76000 163.109
54.77000 159.969
54.78000 156.711
54.79000 153.489
54.80000 153.800
54.81000 156.449
54.82000 159.029
54.83000 163.110
54.84000 167.632
54.85000 171.789
54.86000 171.484
54.87000 169.861
54.88000 167.759
54.89000 162.311
54.90000 156.217
54.91000 151.147
54.92000 152.639
54.93000 154.520
54.94000 155.927
54.95000 155.949
54.96000 155.882
54.97000 156.721
54.98000 159.343
54.99000 162.012
55.00000 163.522
55.01000 162.006
55.02000 160.948
55.03000 162.078
55.04000 165.018
55.05000 167.841
55.06000 165.215
55.07000 159.624
55.08000 154.257
55.09000 157.601
55.10000 163.699
55.11000 169.169
55.12000 168.853
55.13000 167.136
55.14000 166.073
55.15000 168.668
55.16000 171.830
55.17000 174.352
55.18000 171.261
55.19000 168.354
55.20000 165.226
55.21000 161.563
55.22000 157.877
55.23000 158.743
55.24000 166.978
55.25000 175.313
55.26000 179.584
55.27000 178.407
55.28000 177.612
55.29000 176.463
55.30000 175.075
55.31000 173.820
55.32000 176.208
55.33000 180.233
55.34000 184.026
55.35000 180.845
55.36000 176.010
55.37000 172.560
55.38000 179.035
55.39000 187.467
55.40000 193.788
55.41000 190.575
55.42000 186.202
55.43000 182.875
55.44000 191.177
55.45000 198.319
55.46000 204.264
55.47000 207.812
55.48000 211.294
55.49000 213.818
55.50000 215.072
55.51000 216.319
55.52000 219.452
55.53000 224.164
55.54000 228.961
55.55000 237.957
55.56000 249.282
55.57000 260.702
55.58000 273.867
55.59000 287.680
55.60000 300.412
55.61000 304.715
55.62000 306.702
55.63000 310.001
55.64000 320.781
55.65000 332.745
55.66000 346.162
55.67000 364.942
55.68000 384.223
55.69000 398.117
55.70000 424.548
55.71000 445.242
55.72000 463.905
55.73000 479.214
55.74000 494.474
55.75000 510.369
55.76000 526.947
55.77000 543.444
55.78000 570.310
55.79000 603.915
55.80000 637.353
55.81000 666.005
55.82000 692.465
55.83000 718.863
55.84000 744.457
55.85000 769.805
55.86000 792.570
55.87000 808.885
55.88000 822.024
55.89000 833.448
55.90000 836.972
55.91000 839.510
55.92000 844.229
55.93000 855.575
55.94000 867.378
55.95000 875.373
55.96000 870.962
55.97000 867.404
55.98000 863.898
55.99000 860.465
56.00000 857.017
56.01000 842.724
56.02000 819.078
56.03000 795.717
56.04000 777.602
56.05000 762.832
56.06000 747.916
56.07000 730.251
56.08000 711.543
56.09000 692.177
56.10000 666.411
56.11000 639.032
56.12000 615.176
56.13000 597.254
56.14000 582.761
56.15000 568.608
56.16000 555.734
56.17000 542.984
56.18000 527.593
56.19000 505.569
56.20000 483.227
56.21000 469.132
56.22000 445.769
56.23000 428.744
56.24000 413.497
56.25000 400.198
56.26000 386.856
56.27000 367.755
56.28000 344.613
56.29000 321.987
56.30000 310.052
56.31000 303.393
56.32000 296.360
56.33000 284.327
56.34000 270.731
56.35000 257.840
56.36000 250.251
56.37000 243.752
56.38000 238.284
56.39000 235.884
56.40000 234.209
56.41000 232.556
56.42000 230.972
56.43000 229.392
56.44000 223.744
56.45000 209.646
56.46000 195.286
56.47000 186.940
56.48000 195.273
56.49000 201.190
56.50000 200.025
56.51000 192.623
56.52000 185.309
56.53000 182.931
56.54000 183.398
56.55000 183.848
56.56000 182.702
56.57000 181.045
56.58000 179.113
56.59000 174.436
56.60000 169.053
56.61000 164.776
56.62000 167.085
56.63000 170.485
56.64000 173.232
56.65000 171.290
56.66000 169.334
56.67000 168.498
56.68000 170.532
56.69000 172.709
56.70000 173.395
56.71000 171.526
56.72000 169.614
56.73000 168.603
56.74000 165.776
56.75000 163.871
56.76000 164.373
56.77000 166.598
56.78000 168.659
56.79000 165.593
56.80000 160.090
56.81000 154.874
56.82000 157.514
56.83000 162.253
56.84000 166.085
56.85000 162.939
56.86000 158.329
56.87000 155.101
56.88000 158.510
56.89000 162.787
56.90000 166.090
56.91000 163.716
56.92000 161.503
56.93000 160.124
56.94000 160.509
56.95000 160.952
56.96000 159.758
56.97000 156.262
56.98000 152.751
56.99000 152.191
57.00000 154.282
57.01000 156.341
57.02000 156.471
57.03000 155.470
57.04000 154.516
57.05000 154.535
57.06000 154.936
57.07000 155.308
57.08000 154.164
57.09000 152.775
57.10000 151.527
57.11000 151.140
57.12000 150.899
57.13000 150.438
57.14000 149.120
57.15000 147.715
57.16000 146.685
57.17000 155.150
57.18000 162.067
57.19000 165.068
57.20000 161.226
57.21000 157.259
57.22000 154.770
57.23000 153.970
57.24000 153.176
57.25000 151.150
57.26000 148.250
57.27000 145.452
57.28000 146.013
57.29000 148.202
57.30000 150.348
57.31000 151.889
57.32000 153.232
57.33000 154.449
57.34000 150.506
57.35000 146.060
57.36000 142.702
57.37000 144.676
57.38000 147.364
57.39000 149.166
57.40000 148.113
57.41000 146.844
57.42000 145.967
57.43000 141.920
57.44000 138.797
57.45000 138.669
57.46000 142.839
57.47000 147.041
57.48000 147.634
57.49000 144.911
57.50000 142.214
57.51000 140.398
57.52000 139.137
57.53000 137.989
57.54000 139.240
57.55000 141.451
57.56000 143.601
57.57000 145.101
57.58000 146.428
57.59000 147.595
57.60000 144.180
57.61000 140.560
57.62000 137.932
57.63000 139.267
57.64000 141.013
57.65000 143.914
57.66000 149.881
57.67000 156.013
57.68000 159.967
57.69000 149.556
57.70000 141.746
57.71000 137.711
57.72000 138.086
57.73000 138.473
57.74000 139.876
57.75000 142.035
57.76000 144.153
57.77000 147.087
57.78000 150.304
57.79000 153.251
57.80000 152.235
57.81000 149.907
57.82000 147.620
57.83000 145.665
57.84000 143.781
57.85000 142.180
57.86000 138.387
57.87000 134.948
57.88000 132.850
57.89000 135.150
57.90000 137.794
57.91000 139.091
57.92000 137.430
57.93000 135.663
57.94000 134.610
57.95000 125.930
57.96000 119.733
57.97000 120.847
57.98000 128.821
57.99000 136.740
58.00000 140.747
58.01000 142.368
58.02000 143.938
58.03000 142.800
58.04000 140.679
58.05000 138.570
58.06000 136.591
58.07000 134.647
58.08000 133.273
58.09000 135.527
58.10000 138.421
58.11000 140.789
58.12000 139.966
58.13000 139.013
58.14000 137.824
58.15000 135.998
58.16000 134.135
58.17000 135.309
58.18000 141.995
58.19000 148.794
58.20000 152.495
58.21000 148.955
58.22000 146.518
58.23000 144.471
58.24000 142.720
58.25000 141.031
58.26000 141.576
58.27000 143.246
58.28000 144.838
58.29000 143.650
58.30000 141.679
58.31000 139.824
58.32000 138.929
58.33000 138.249
58.34000 137.538
58.35000 136.671
58.36000 135.782
58.37000 135.086
58.38000 132.513
58.39000 130.337
58.40000 130.745
58.41000 136.940
58.42000 143.350
58.43000 145.157
58.44000 140.096
58.45000 134.970
58.46000 134.520
58.47000 138.553
58.48000 142.509
58.49000 140.658
58.50000 135.197
58.51000 129.962
58.52000 129.896
58.53000 131.980
58.54000 133.927
58.55000 137.285
58.56000 140.686
58.57000 143.863
58.58000 145.576
58.59000 147.025
58.60000 146.486
58.61000 137.689
58.62000 127.989
58.63000 120.764
58.64000 127.697
58.65000 133.731
58.66000 137.388
58.67000 136.648
58.68000 135.810
58.69000 134.154
58.70000 131.501
58.71000 128.851
58.72000 127.600
58.73000 127.434
58.74000 127.301
58.75000 128.459
58.76000 130.278
58.77000 131.899
58.78000 130.414
58.79000 127.861
58.80000 125.532
58.81000 124.076
58.82000 122.961
58.83000 122.115
58.84000 122.673
58.85000 123.433
58.86000 124.416
58.87000 126.158
58.88000 127.961
58.89000 129.230
58.90000 132.480
58.91000 135.000
58.92000 135.816
58.93000 134.038
58.94000 132.233
58.95000 132.101
58.96000 133.608
58.97000 135.104
58.98000 136.663
58.99000 138.234
59.00000 139.758
59.01000 140.163
59.02000 140.093
59.03000 139.938
59.04000 138.806
59.05000 137.396
59.06000 136.145
59.07000 134.790
59.08000 133.598
59.09000 132.545
59.10000 132.078
59.11000 131.677
59.12000 131.661
59.13000 132.727
59.14000 133.859
59.15000 134.604
59.16000 132.121
59.17000 130.237
59.18000 128.459
59.19000 126.813
59.20000 125.178
59.21000 126.506
59.22000 130.177
59.23000 133.790
59.24000 134.240
59.25000 133.076
59.26000 132.058
59.27000 133.429
59.28000 135.635
59.29000 137.651
59.30000 138.002
59.31000 137.967
59.32000 137.937
59.33000 135.305
59.34000 132.755
59.35000 131.518
59.36000 134.845
59.37000 138.560
59.38000 140.932
59.39000 140.179
59.40000 139.298
59.41000 138.761
59.42000 138.151
59.43000 137.714
59.44000 138.566
59.45000 140.710
59.46000 142.821
59.47000 141.985
59.48000 139.244
59.49000 136.579
59.50000 135.511
59.51000 135.150
59.52000 134.569
59.53000 131.399
59.54000 127.482
59.55000 124.437
59.56000 127.338
59.57000 131.357
59.58000 134.686
59.59000 126.691
59.60000 119.013
59.61000 115.063
59.62000 121.785
59.63000 129.168
59.64000 133.228
59.65000 130.904
59.66000 128.422
59.67000 127.032
59.68000 131.933
59.69000 135.342
59.70000 138.193
59.71000 140.593
59.72000 142.849
59.73000 138.883
59.74000 131.607
59.75000 124.637
59.76000 128.810
59.77000 136.410
59.78000 143.085
59.79000 141.493
59.80000 137.944
59.81000 135.047
59.82000 135.697
59.83000 136.880
59.84000 137.820
59.85000 140.275
59.86000 142.358
59.87000 142.384
59.88000 137.540
59.89000 132.490
59.90000 129.413
59.91000 129.458
59.92000 129.542
59.93000 129.585
59.94000 129.294
59.95000 129.119
59.96000 130.836
59.97000 133.799
59.98000 136.670
59.99000 137.173
60.00000 136.635
60.01000 136.129
60.02000 132.266
60.03000 127.835
60.04000 124.401
60.05000 127.912
60.06000 132.759
60.07000 136.403
60.08000 134.740
60.09000 132.450
60.10000 130.718
60.11000 130.461
60.12000 130.334
60.13000 130.254
60.14000 130.263
60.15000 130.274
60.16000 131.103
60.17000 132.988
60.18000 134.875
60.19000 134.832
60.20000 133.206
60.21000 131.584
60.22000 130.226
60.23000 129.011
60.24000 127.857
60.25000 127.770
60.26000 128.070
60.27000 128.347
60.28000 132.781
60.29000 137.637
60.30000 140.839
60.31000 134.845
60.32000 127.433
60.33000 122.348
60.34000 125.657
60.35000 129.724
60.36000 132.636
60.37000 133.592
60.38000 134.257
60.39000 132.785
60.40000 127.870
60.41000 122.909
60.42000 121.456
60.43000 123.674
60.44000 125.880
60.45000 126.151
60.46000 125.135
60.47000 124.297
60.48000 128.258
60.49000 134.368
60.50000 139.894
60.51000 138.121
60.52000 134.158
60.53000 130.611
60.54000 132.511
60.55000 135.102
60.56000 136.486
60.57000 132.435
60.58000 127.724
60.59000 125.281
60.60000 129.575
60.61000 134.316
60.62000 137.502
60.63000 135.593
60.64000 134.071
60.65000 134.186
60.66000 136.462
60.67000 138.746
60.68000 139.991
60.69000 140.361
60.70000 140.727
60.71000 141.133
60.72000 141.550
60.73000 141.782
60.74000 138.686
60.75000 134.357
60.76000 130.764
60.77000 134.097
60.78000 139.137
60.79000 143.511
60.80000 140.871
60.81000 137.680
60.82000 134.736
60.83000 132.700
60.84000 130.747
60.85000 130.465
60.86000 134.284
60.87000 138.292
60.88000 140.798
60.89000 142.603
60.90000 143.897
60.91000 141.304
60.92000 134.555
60.93000 127.857
60.94000 127.242
60.95000 130.796
60.96000 134.266
60.97000 133.322
60.98000 130.491
60.99000 127.821
61.00000 127.218
61.01000 127.247
61.02000 127.500
61.03000 129.391
61.04000 131.612
61.05000 133.472
61.06000 136.066
61.07000 138.299
61.08000 139.707
61.09000 138.616
61.10000 137.353
61.11000 136.844
61.12000 137.864
61.13000 138.929
61.14000 139.542
61.15000 138.220
61.16000 137.288
61.17000 136.231
61.18000 135.068
61.19000 133.893
61.20000 132.133
61.21000 130.044
61.22000 128.033
61.23000 127.487
61.24000 127.493
61.25000 127.400
61.26000 126.345
61.27000 125.049
61.28000 124.484
61.29000 128.163
61.30000 132.527
61.31000 136.036
61.32000 136.788
61.33000 137.185
61.34000 137.547
61.35000 137.824
61.36000 138.096
61.37000 137.544
61.38000 135.610
61.39000 133.655
61.40000 132.634
61.41000 134.423
61.42000 135.640
61.43000 137.676
61.44000 140.282
61.45000 142.866
61.46000 144.775
61.47000 146.369
61.48000 147.876
61.49000 149.990
61.50000 152.108
61.51000 154.667
61.52000 160.532
61.53000 167.075
61.54000 174.829
61.55000 188.260
61.56000 202.413
61.57000 213.278
61.58000 219.829
61.59000 224.766
61.60000 232.047
61.61000 244.178
61.62000 256.458
61.63000 264.734
61.64000 267.509
61.65000 270.248
61.66000 271.918
61.67000 272.648
61.68000 273.331
61.69000 271.423
61.70000 268.027
61.71000 265.012
61.72000 269.365
61.73000 276.552
61.74000 283.205
61.75000 278.452
61.76000 271.552
61.77000 263.743
61.78000 250.537
61.79000 236.443
61.80000 221.383
61.81000 202.633
61.82000 183.521
61.83000 169.606
61.84000 167.890
61.85000 167.036
61.86000 163.147
61.87000 154.076
61.88000 144.917
61.89000 143.277
61.90000 150.024
61.91000 156.749
61.92000 156.423
61.93000 151.121
61.94000 145.883
61.95000 142.653
61.96000 140.373
61.97000 138.174
61.98000 137.089
61.99000 136.357
62.00000 135.697
62.01000 138.862
62.02000 142.346
62.03000 144.564
62.04000 140.730
62.05000 136.106
62.06000 133.875
62.07000 139.170
62.08000 145.013
62.09000 149.017
62.10000 146.081
62.11000 143.716
62.12000 141.857
62.13000 140.711
62.14000 139.570
62.15000 138.470
62.16000 137.407
62.17000 136.356
62.18000 136.753
62.19000 137.970
62.20000 139.172
62.21000 140.069
62.22000 140.848
62.23000 141.363
62.24000 139.192
62.25000 136.320
62.26000 133.803
62.27000 134.019
62.28000 134.600
62.29000 135.808
62.30000 139.465
62.31000 143.369
62.32000 146.085
62.33000 145.716
62.34000 145.189
62.35000 144.851
62.36000 136.269
62.37000 129.912
62.38000 129.175
62.39000 134.837
62.40000 140.483
62.41000 142.198
62.42000 141.057
62.43000 139.938
62.44000 138.978
62.45000 138.128
62.46000 137.269
62.47000 136.289
62.48000 135.270
62.49000 134.723
62.50000 137.889
62.51000 141.846
62.52000 145.198
62.53000 144.300
62.54000 143.073
62.55000 142.440
62.56000 143.711
62.57000 145.126
62.58000 145.929
62.59000 145.418
62.60000 144.862
62.61000 144.534
62.62000 146.204
62.63000 147.394
62.64000 148.839
62.65000 150.519
62.66000 152.168
62.67000 151.917
62.68000 150.533
62.69000 149.194
62.70000 148.465
62.71000 148.005
62.72000 147.510
62.73000 146.637
62.74000 145.664
62.75000 144.062
62.76000 138.562
62.77000 132.391
62.78000 127.365
62.79000 135.769
62.80000 143.769
62.81000 149.048
62.82000 147.121
62.83000 144.809
62.84000 142.793
62.85000 141.304
62.86000 139.825
62.87000 139.029
62.88000 144.567
62.89000 148.337
62.90000 148.327
62.91000 145.514
62.92000 142.806
62.93000 143.744
62.94000 146.474
62.95000 149.070
62.96000 149.926
62.97000 150.186
62.98000 149.941
62.99000 145.633
63.00000 140.441
63.01000 136.291
63.02000 137.335
63.03000 139.089
63.04000 140.454
63.05000 145.803
63.06000 150.308
63.07000 152.959
63.08000 151.548
63.09000 149.994
63.10000 147.275
63.11000 142.859
63.12000 138.429
63.13000 136.987
63.14000 138.337
63.15000 139.694
63.16000 141.577
63.17000 143.778
63.18000 145.822
63.19000 144.434
63.20000 141.651
63.21000 139.057
63.22000 136.103
63.23000 133.343
63.24000 131.866
63.25000 138.525
63.26000 146.617
63.27000 153.132
63.28000 153.254
63.29000 152.698
63.30000 152.286
63.31000 149.058
63.32000 146.432
63.33000 146.488
63.34000 151.396
63.35000 156.404
63.36000 157.326
63.37000 153.398
63.38000 149.472
63.39000 148.184
63.40000 148.888
63.41000 149.517
63.42000 147.393
63.43000 143.890
63.44000 140.672
63.45000 141.758
63.46000 144.289
63.47000 146.593
63.48000 145.308
63.49000 143.466
63.50000 141.767
63.51000 140.796
63.52000 139.927
63.53000 139.842
63.54000 142.369
63.55000 145.105
63.56000 147.015
63.57000 145.457
63.58000 144.183
63.59000 144.130
63.60000 145.893
63.61000 147.673
63.62000 151.329
63.63000 156.777
63.64000 162.180
63.65000 158.662
63.66000 149.783
63.67000 141.146
63.68000 137.985
63.69000 137.092
63.70000 136.941
63.71000 144.986
63.72000 155.300
63.73000 164.422
63.74000 156.757
63.75000 147.526
63.76000 140.270
63.77000 141.188
63.78000 142.997
63.79000 145.318
63.80000 149.045
63.81000 152.853
63.82000 155.340
63.83000 155.863
63.84000 156.215
63.85000 157.149
63.86000 158.787
63.87000 160.416
63.88000 159.283
63.89000 156.017
63.90000 152.807
63.91000 151.180
63.92000 150.388
63.93000 149.610
63.94000 149.049
63.95000 148.561
63.96000 148.516
63.97000 152.204
63.98000 156.739
63.99000 160.621
64.00000 157.924
64.01000 154.855
64.02000 152.099
64.03000 150.408
64.04000 148.804
64.05000 149.955
64.06000 157.366
64.07000 165.018
64.08000 169.648
64.09000 165.454
64.10000 162.400
64.11000 162.191
64.12000 164.760
64.13000 167.283
64.14000 166.099
64.15000 162.574
64.16000 159.151
64.17000 156.648
64.18000 154.641
64.19000 152.742
64.20000 152.068
64.21000 151.740
64.22000 151.698
64.23000 153.544
64.24000 155.738
64.25000 157.546
64.26000 152.408
64.27000 147.539
64.28000 146.904
64.29000 158.124
64.30000 170.050
64.31000 175.751
64.32000 169.762
64.33000 163.502
64.34000 160.036
64.35000 160.965
64.36000 161.617
64.37000 162.916
64.38000 164.727
64.39000 166.467
64.40000 165.405
64.41000 162.885
64.42000 160.475
64.43000 162.958
64.44000 166.856
64.45000 170.622
64.46000 173.241
64.47000 175.596
64.48000 176.938
64.49000 172.911
64.50000 168.097
64.51000 164.295
64.52000 168.013
64.53000 171.508
64.54000 173.282
64.55000 171.073
64.56000 168.704
64.57000 167.107
64.58000 166.703
64.59000 166.313
64.60000 165.079
64.61000 163.006
64.62000 160.982
64.63000 163.315
64.64000 168.453
64.65000 173.357
64.66000 172.510
64.67000 169.190
64.68000 166.076
64.69000 166.080
64.70000 166.902
64.71000 167.691
64.72000 168.263
64.73000 168.795
64.74000 169.398
64.75000 170.308
64.76000 171.253
64.77000 171.964
64.78000 176.077
64.79000 179.457
64.80000 180.533
64.81000 177.200
64.82000 173.759
64.83000 172.781
64.84000 174.914
64.85000 177.054
64.86000 179.215
64.87000 181.385
64.88000 183.553
64.89000 185.682
64.90000 187.791
64.91000 189.674
64.92000 187.802
64.93000 184.596
64.94000 181.657
64.95000 185.353
64.96000 190.038
64.97000 193.846
64.98000 192.894
64.99000 191.228
65.00000 189.816
65.01000 189.300
65.02000 188.863
65.03000 188.551
65.04000 188.663
65.05000 188.762
65.06000 191.728
65.07000 199.214
65.08000 206.755
65.09000 210.297
65.10000 209.762
65.11000 209.230
65.12000 208.838
65.13000 208.542
65.14000 208.490
65.15000 214.708
65.16000 223.673
65.17000 232.053
65.18000 233.394
65.19000 232.669
65.20000 232.023
65.21000 235.836
65.22000 239.897
65.23000 242.603
65.24000 239.356
65.25000 235.409
65.26000 234.531
65.27000 242.572
65.28000 251.182
65.29000 256.923
65.30000 265.386
65.31000 271.705
65.32000 277.155
65.33000 281.484
65.34000 285.804
65.35000 288.311
65.36000 289.329
65.37000 290.332
65.38000 295.380
65.39000 302.408
65.40000 309.355
65.41000 314.934
65.42000 320.017
65.43000 325.030
65.44000 329.402
65.45000 333.621
65.46000 337.269
65.47000 339.974
65.48000 342.151
65.49000 344.823
65.50000 349.279
65.51000 353.896
65.52000 358.416
65.53000 362.708
65.54000 366.990
65.55000 369.642
65.56000 371.307
65.57000 372.495
65.58000 378.464
65.59000 389.414
65.60000 400.377
65.61000 412.529
65.62000 425.477
65.63000 438.100
65.64000 448.041
65.65000 456.387
65.66000 465.769
65.67000 488.028
65.68000 514.137
65.69000 541.139
65.70000 574.485
65.71000 609.072
65.72000 637.916
65.73000 708.316
65.74000 770.841
65.75000 828.990
65.76000 874.174
65.77000 918.503
65.78000 964.592
65.79000 1014.175
65.80000 1063.854
65.81000 1092.131
65.82000 1097.520
65.83000 1101.214
65.84000 1109.941
65.85000 1122.887
65.86000 1135.702
65.87000 1142.196
65.88000 1145.209
65.89000 1148.105
65.90000 1130.964
65.91000 1107.996
65.92000 1084.440
65.93000 1055.385
65.94000 1024.980
65.95000 990.283
65.96000 931.304
65.97000 868.514
65.98000 818.272
65.99000 748.519
66.00000 690.661
66.01000 631.119
66.02000 567.449
66.03000 503.591
66.04000 453.726
66.05000 426.781
66.06000 400.166
66.07000 386.441
66.08000 364.310
66.09000 349.438
66.10000 338.719
66.11000 330.837
66.12000 323.144
66.13000 320.745
66.14000 320.754
66.15000 320.762
66.16000 317.892
66.17000 314.458
66.18000 310.751
66.19000 305.061
66.20000 298.975
66.21000 294.923
66.22000 300.169
66.23000 306.565
66.24000 311.446
66.25000 326.177
66.26000 338.314
66.27000 348.987
66.28000 356.697
66.29000 364.322
66.30000 372.487
66.31000 381.378
66.32000 390.266
66.33000 400.677
66.34000 412.366
66.35000 423.987
66.36000 432.093
66.37000 438.228
66.38000 444.024
66.39000 443.559
66.40000 440.739
66.41000 438.136
66.42000 438.159
66.43000 438.769
66.44000 438.408
66.45000 432.430
66.46000 425.550
66.47000 419.724
66.48000 417.833
66.49000 416.315
66.50000 415.218
66.51000 411.833
66.52000 409.152
66.53000 403.376
66.54000 392.434
66.55000 381.412
66.56000 370.376
66.57000 359.326
66.58000 348.327
66.59000 340.106
66.60000 333.889
66.61000 327.798
66.62000 325.408
66.63000 324.733
66.64000 323.930
66.65000 321.427
66.66000 318.397
66.67000 315.671
66.68000 313.293
66.69000 311.273
66.70000 309.046
66.71000 305.860
66.72000 302.553
66.73000 300.365
66.74000 301.622
66.75000 303.120
66.76000 304.139
66.77000 307.669
66.78000 310.362
66.79000 310.146
66.80000 305.950
66.81000 301.733
66.82000 300.874
66.83000 302.947
66.84000 304.997
66.85000 310.618
66.86000 318.096
66.87000 325.494
66.88000 331.366
66.89000 336.652
66.90000 340.720
66.91000 332.772
66.92000 321.756
66.93000 312.139
66.94000 321.329
66.95000 331.833
66.96000 339.927
66.97000 338.836
66.98000 336.849
66.99000 337.825
67.00000 346.327
67.01000 355.200
67.02000 360.824
67.03000 342.927
67.04000 329.660
67.05000 327.771
67.06000 338.522
67.07000 349.237
67.08000 353.588
67.09000 353.418
67.10000 353.252
67.11000 359.101
67.12000 367.440
67.13000 374.936
67.14000 370.955
67.15000 363.342
67.16000 355.906
67.17000 349.819
67.18000 344.014
67.19000 339.118
67.20000 342.531
67.21000 346.283
67.22000 350.533
67.23000 356.344
67.24000 362.268
67.25000 364.582
67.26000 359.309
67.27000 353.793
67.28000 350.571
67.29000 356.717
67.30000 361.089
67.31000 369.442
67.32000 381.346
67.33000 393.020
67.34000 391.240
67.35000 381.618
67.36000 372.332
67.37000 379.530
67.38000 392.369
67.39000 404.195
67.40000 405.752
67.41000 404.636
67.42000 403.663
67.43000 403.546
67.44000 403.572
67.45000 403.594
67.46000 403.021
67.47000 402.506
67.48000 401.204
67.49000 397.863
67.50000 394.418
67.51000 397.197
67.52000 410.771
67.53000 424.539
67.54000 431.860
67.55000 425.660
67.56000 421.424
67.57000 416.233
67.58000 410.348
67.59000 404.732
67.60000 407.760
67.61000 414.946
67.62000 421.765
67.63000 425.193
67.64000 427.347
67.65000 429.014
67.66000 426.880
67.67000 423.938
67.68000 421.374
67.69000 420.647
67.70000 420.163
67.71000 419.789
67.72000 426.517
67.73000 432.282
67.74000 439.820
67.75000 451.153
67.76000 462.614
67.77000 471.378
67.78000 476.302
67.79000 481.197
67.80000 478.642
67.81000 469.308
67.82000 460.102
67.83000 458.975
67.84000 462.648
67.85000 466.400
67.86000 471.798
67.87000 477.851
67.88000 483.478
67.89000 487.964
67.90000 491.740
67.91000 495.749
67.92000 501.192
67.93000 506.881
67.94000 510.797
67.95000 507.689
67.96000 503.859
67.97000 501.042
67.98000 511.426
67.99000 520.001
68.00000 522.800
68.01000 515.387
68.02000 507.780
68.03000 509.295
68.04000 521.378
68.05000 533.437
68.06000 540.248
68.07000 543.160
68.08000 545.754
68.09000 537.590
68.10000 524.152
68.11000 512.042
68.12000 519.168
68.13000 532.617
68.14000 544.814
68.15000 546.799
68.16000 546.596
68.17000 547.066
68.18000 550.877
68.19000 555.144
68.20000 558.415
68.21000 558.446
68.22000 558.228
68.23000 558.076
68.24000 570.061
68.25000 579.403
68.26000 584.958
68.27000 585.013
68.28000 585.024
68.29000 593.944
68.30000 611.157
68.31000 628.212
68.32000 636.809
68.33000 640.217
68.34000 643.111
68.35000 634.954
68.36000 622.318
68.37000 611.459
68.38000 619.612
68.39000 632.911
68.40000 644.630
68.41000 654.214
68.42000 662.150
68.43000 670.298
68.44000 679.300
68.45000 688.393
68.46000 696.326
68.47000 701.144
68.48000 705.791
68.49000 708.800
68.50000 731.577
68.51000 748.537
68.52000 762.180
68.53000 771.901
68.54000 781.651
68.55000 798.930
68.56000 821.887
68.57000 844.424
68.58000 864.685
68.59000 883.135
68.60000 902.754
68.61000 939.874
68.62000 982.855
68.63000 1025.768
68.64000 1068.115
68.65000 1110.338
68.66000 1146.328
68.67000 1210.147
68.68000 1267.095
68.69000 1323.848
68.70000 1379.953
68.71000 1436.006
68.72000 1492.546
68.73000 1550.166
68.74000 1607.826
68.75000 1642.376
68.76000 1704.984
68.77000 1749.630
68.78000 1804.300
68.79000 1868.504
68.80000 1932.764
68.81000 2000.974
68.82000 2071.625
68.83000 2140.115
68.84000 2261.179
68.85000 2396.399
68.86000 2536.804
68.87000 2734.279
68.88000 2947.499
68.89000 3198.067
68.90000 3689.716
68.91000 4224.518
68.92000 4663.288
68.93000 6364.516
68.94000 7873.046
68.95000 9794.546
68.96000 12846.894
68.97000 15963.833
68.98000 19584.121
68.99000 24128.697
69.00000 28693.236
69.01000 31192.619
69.02000 37605.746
69.03000 42017.027
69.04000 45462.203
69.05000 48164.156
69.06000 50835.238
69.07000 52342.426
69.08000 53257.457
69.09000 54130.422
69.10000 54555.445
69.11000 54808.047
69.12000 55088.359
69.13000 55601.703
69.14000 56167.652
69.15000 56743.121
69.16000 57367.855
69.17000 57999.617
69.18000 58495.777
69.19000 57858.801
69.20000 57274.883
69.21000 56056.992
69.22000 53403.391
69.23000 50694.813
69.24000 47705.723
69.25000 44292.910
69.26000 40875.887
69.27000 38137.191
69.28000 36057.918
69.29000 33984.965
69.30000 32408.686
69.31000 31144.980
69.32000 29897.689
69.33000 29033.979
69.34000 28331.611
69.35000 27674.539
69.36000 26905.916
69.37000 26179.150
69.38000 25338.508
69.39000 23745.975
69.40000 22015.949
69.41000 20182.533
69.42000 17914.426
69.43000 15597.934
69.44000 13867.140
69.45000 11227.165
69.46000 9127.183
69.47000 7344.772
69.48000 6156.627
69.49000 4982.103
69.50000 4063.397
69.51000 3460.037
69.52000 2858.717
69.53000 2460.932
69.54000 2224.137
69.55000 1988.902
69.56000 1815.749
69.57000 1674.781
69.58000 1537.327
69.59000 1456.072
69.60000 1394.362
69.61000 1337.967
69.62000 1274.443
69.63000 1216.559
69.64000 1162.704
69.65000 1130.139
69.66000 1100.681
69.67000 1068.382
69.68000 1026.289
69.69000 983.369
69.70000 953.075
69.71000 944.998
69.72000 939.542
69.73000 929.266
69.74000 911.565
69.75000 893.782
69.76000 877.086
69.77000 861.469
69.78000 845.962
69.79000 829.886
69.80000 813.705
69.81000 797.495
69.82000 780.578
69.83000 763.357
69.84000 746.764
69.85000 737.491
69.86000 730.317
69.87000 723.938
69.88000 716.500
69.89000 709.874
69.90000 703.539
69.91000 698.450
69.92000 693.503
69.93000 686.321
69.94000 672.781
69.95000 658.852
69.96000 649.640
69.97000 662.412
69.98000 672.232
69.99000 673.455
70.00000 663.860
