20.00000 554.856
20.01000 558.228
20.02000 562.082
20.03000 566.546
20.04000 573.361
20.05000 580.411
20.06000 585.559
20.07000 569.004
20.08000 555.395
20.09000 551.784
20.10000 565.421
20.11000 579.359
20.12000 585.485
20.13000 582.800
20.14000 580.118
20.15000 574.350
20.16000 566.432
20.17000 558.688
20.18000 556.495
20.19000 556.958
20.20000 557.327
20.21000 556.374
20.22000 554.997
20.23000 553.753
20.24000 559.539
20.25000 565.935
20.26000 572.107
20.27000 577.193
20.28000 582.136
20.29000 584.064
20.30000 576.412
20.31000 568.051
20.32000 562.302
20.33000 562.195
20.34000 562.254
20.35000 562.032
20.36000 561.414
20.37000 560.793
20.38000 560.761
20.39000 561.261
20.40000 561.757
20.41000 563.239
20.42000 565.259
20.43000 567.070
20.44000 564.601
20.45000 560.438
20.46000 556.337
20.47000 552.876
20.48000 549.583
20.49000 546.694
20.50000 541.462
20.51000 536.625
20.52000 535.768
20.53000 550.596
20.54000 567.027
20.55000 577.161
20.56000 570.777
20.57000 563.523
20.58000 558.869
20.59000 544.875
20.60000 534.546
20.61000 534.964
20.62000 547.758
20.63000 560.515
20.64000 564.178
20.65000 561.160
20.66000 558.201
20.67000 558.289
20.68000 559.803
20.69000 561.424
20.70000 564.580
20.71000 568.238
20.72000 570.398
20.73000 560.645
20.74000 548.324
20.75000 537.870
20.76000 541.154
20.77000 545.465
20.78000 546.732
20.79000 538.142
20.80000 528.799
20.81000 523.890
20.82000 528.601
20.83000 533.645
20.84000 536.634
20.85000 545.684
20.86000 552.115
20.87000 547.530
20.88000 532.753
20.89000 518.276
20.90000 523.590
20.91000 540.823
20.92000 557.497
20.93000 560.914
20.94000 559.093
20.95000 557.292
20.96000 555.704
20.97000 554.172
20.98000 553.097
20.99000 554.882
21.00000 557.164
21.01000 559.027
21.02000 557.130
21.03000 555.255
21.04000 552.493
21.05000 547.360
21.06000 542.097
21.07000 540.988
21.08000 547.321
21.09000 553.802
21.10000 557.308
21.11000 549.456
21.12000 544.086
21.13000 542.319
21.14000 543.253
21.15000 544.129
21.16000 543.007
21.17000 540.891
21.18000 538.877
21.19000 544.625
21.20000 552.341
21.21000 559.653
21.22000 563.677
21.23000 566.979
21.24000 569.488
21.25000 568.006
21.26000 565.972
21.27000 564.384
21.28000 561.697
21.29000 559.485
21.30000 555.835
21.31000 549.008
21.32000 542.066
21.33000 541.199
21.34000 549.279
21.35000 557.439
21.36000 557.623
21.37000 550.270
21.38000 542.954
21.39000 538.297
21.40000 535.272
21.41000 532.617
21.42000 538.189
21.43000 547.139
21.44000 555.489
21.45000 550.891
21.46000 543.509
21.47000 537.059
21.48000 536.594
21.49000 537.194
21.50000 538.248
21.51000 541.162
21.52000 544.278
21.53000 546.589
21.54000 546.244
21.55000 545.859
21.56000 547.494
21.57000 552.819
21.58000 558.222
21.59000 558.931
21.60000 554.005
21.61000 549.079
21.62000 550.470
21.63000 556.655
21.64000 562.381
21.65000 551.079
21.66000 531.159
21.67000 512.706
21.68000 516.722
21.69000 528.365
21.70000 538.970
21.71000 542.940
21.72000 545.138
21.73000 547.339
21.74000 549.557
21.75000 551.777
21.76000 553.107
21.77000 551.441
21.78000 549.532
21.79000 548.195
21.80000 555.820
21.81000 561.842
21.82000 568.120
21.83000 574.781
21.84000 581.446
21.85000 579.110
21.86000 568.082
21.87000 557.141
21.88000 554.362
21.89000 556.648
21.90000 559.248
21.91000 569.076
21.92000 581.927
21.93000 594.009
21.94000 597.444
21.95000 598.461
21.96000 599.362
21.97000 598.188
21.98000 596.845
21.99000 597.934
22.00000 609.187
22.01000 621.564
22.02000 630.190
22.03000 628.410
22.04000 626.020
22.05000 624.453
22.06000 621.427
22.07000 619.177
22.08000 619.635
22.09000 623.411
22.10000 627.176
22.11000 626.025
22.12000 621.036
22.13000 616.131
22.14000 609.036
22.15000 601.081
22.16000 593.681
22.17000 595.083
22.18000 599.529
22.19000 604.440
22.20000 613.326
22.21000 623.122
22.22000 631.521
22.23000 622.364
22.24000 612.479
22.25000 603.775
22.26000 599.117
22.27000 594.797
22.28000 589.590
22.29000 582.346
22.30000 575.022
22.31000 570.572
22.32000 569.984
22.33000 569.595
22.34000 567.472
22.35000 563.639
22.36000 559.826
22.37000 557.698
22.38000 556.644
22.39000 555.621
22.40000 555.704
22.41000 556.230
22.42000 556.871
22.43000 558.830
22.44000 561.165
22.45000 562.092
22.46000 553.572
22.47000 543.298
22.48000 534.812
22.49000 533.085
22.50000 532.293
22.51000 533.214
22.52000 538.974
22.53000 545.027
22.54000 545.426
22.55000 535.101
22.56000 524.520
22.57000 518.632
22.58000 521.386
22.59000 523.311
22.60000 526.022
22.61000 529.360
22.62000 532.621
22.63000 532.713
22.64000 531.139
22.65000 529.633
22.66000 529.016
22.67000 528.732
22.68000 528.504
22.69000 528.763
22.70000 529.136
22.71000 530.291
22.72000 535.640
22.73000 541.611
22.74000 546.338
22.75000 533.895
22.76000 522.709
22.77000 516.157
22.78000 520.438
22.79000 525.166
22.80000 528.947
22.81000 531.248
22.82000 533.532
22.83000 534.680
22.84000 508.380
22.85000 491.017
22.86000 491.471
22.87000 503.515
22.88000 515.232
22.89000 518.720
22.90000 518.633
22.91000 518.552
22.92000 519.327
22.93000 520.259
22.94000 520.422
22.95000 515.294
22.96000 509.164
22.97000 505.166
22.98000 510.445
22.99000 516.803
23.00000 521.595
23.01000 524.668
23.02000 526.990
23.03000 525.984
23.04000 518.547
23.05000 510.948
23.06000 505.376
23.07000 502.394
23.08000 499.425
23.09000 500.104
23.10000 503.736
23.11000 507.206
23.12000 503.641
23.13000 496.308
23.14000 489.594
23.15000 493.381
23.16000 500.940
23.17000 507.876
23.18000 510.348
23.19000 511.604
23.20000 513.460
23.21000 518.602
23.22000 524.243
23.23000 528.188
23.24000 526.087
23.25000 523.451
23.26000 521.571
23.27000 513.321
23.28000 506.823
23.29000 499.715
23.30000 491.636
23.31000 483.544
23.32000 483.023
23.33000 490.308
23.34000 497.550
23.35000 504.829
23.36000 512.033
23.37000 518.948
23.38000 518.261
23.39000 514.212
23.40000 510.531
23.41000 511.344
23.42000 513.489
23.43000 515.406
23.44000 507.616
23.45000 499.192
23.46000 493.231
23.47000 498.203
23.48000 504.478
23.49000 507.512
23.50000 501.033
23.51000 493.938
23.52000 489.190
23.53000 491.993
23.54000 494.221
23.55000 496.474
23.56000 498.759
23.57000 501.050
23.58000 505.979
23.59000 513.097
23.60000 520.117
23.61000 518.281
23.62000 511.799
23.63000 505.652
23.64000 505.398
23.65000 507.300
23.66000 508.598
23.67000 504.317
23.68000 498.679
23.69000 493.797
23.70000 489.063
23.71000 485.056
23.72000 484.875
23.73000 498.591
23.74000 513.573
23.75000 521.961
23.76000 514.345
23.77000 506.012
23.78000 500.830
23.79000 494.139
23.80000 489.306
23.81000 486.899
23.82000 487.049
23.83000 487.249
23.84000 492.810
23.85000 501.997
23.86000 510.959
23.87000 509.622
23.88000 503.910
23.89000 498.413
23.90000 495.631
23.91000 493.669
23.92000 492.801
23.93000 499.808
23.94000 508.372
23.95000 515.529
23.96000 510.526
23.97000 505.141
23.98000 499.981
23.99000 495.501
24.00000 491.066
24.01000 490.145
24.02000 496.273
24.03000 502.599
24.04000 506.217
24.05000 499.471
24.06000 494.732
24.07000 493.523
24.08000 495.303
24.09000 497.022
24.10000 495.702
24.11000 492.693
24.12000 489.799
24.13000 492.781
24.14000 497.628
24.15000 502.160
24.16000 503.712
24.17000 504.525
24.18000 504.829
24.19000 502.216
24.20000 499.141
24.21000 496.675
24.22000 496.183
24.23000 495.934
24.24000 495.479
24.25000 494.513
24.26000 493.524
24.27000 493.659
24.28000 495.655
24.29000 497.679
24.30000 498.729
24.31000 490.427
24.32000 484.858
24.33000 483.571
24.34000 485.236
24.35000 487.078
24.36000 493.991
24.37000 503.231
24.38000 511.958
24.39000 515.248
24.40000 516.731
24.41000 517.049
24.42000 508.786
24.43000 498.790
24.44000 489.950
24.45000 486.452
24.46000 483.622
24.47000 481.457
24.48000 484.082
24.49000 486.414
24.50000 486.854
24.51000 483.425
24.52000 479.881
24.53000 479.237
24.54000 482.525
24.55000 485.832
24.56000 487.595
24.57000 488.020
24.58000 488.473
24.59000 490.373
24.60000 493.093
24.61000 495.107
24.62000 483.791
24.63000 467.414
24.64000 452.276
24.65000 455.708
24.66000 463.003
24.67000 470.010
24.68000 475.341
24.69000 480.399
24.70000 483.272
24.71000 477.896
24.72000 471.726
24.73000 467.250
24.74000 464.712
24.75000 462.834
24.76000 460.870
24.77000 458.761
24.78000 456.650
24.79000 460.823
24.80000 471.907
24.81000 482.947
24.82000 488.637
24.83000 490.543
24.84000 492.430
24.85000 493.723
24.86000 494.737
24.87000 495.337
24.88000 490.372
24.89000 483.661
24.90000 477.615
24.91000 476.304
24.92000 476.009
24.93000 475.804
24.94000 476.017
24.95000 476.283
24.96000 478.183
24.97000 485.155
24.98000 492.489
24.99000 497.493
25.00000 480.585
25.01000 467.434
25.02000 459.961
25.03000 460.342
25.04000 460.774
25.05000 461.513
25.06000 462.524
25.07000 463.524
25.08000 470.012
25.09000 479.444
25.10000 488.480
25.11000 489.761
25.12000 488.042
25.13000 485.834
25.14000 478.744
25.15000 470.395
25.16000 463.094
25.17000 464.430
25.18000 466.803
25.19000 470.197
25.20000 477.528
25.21000 485.247
25.22000 489.359
25.23000 484.210
25.24000 478.595
25.25000 475.023
25.26000 466.717
25.27000 460.623
25.28000 458.764
25.29000 461.662
25.30000 464.563
25.31000 467.211
25.32000 469.677
25.33000 472.091
25.34000 472.230
25.35000 471.321
25.36000 470.331
25.37000 468.203
25.38000 465.710
25.39000 463.737
25.40000 465.775
25.41000 468.656
25.42000 471.090
25.43000 471.744
25.44000 472.096
25.45000 471.429
25.46000 467.539
25.47000 463.412
25.48000 461.345
25.49000 463.651
25.50000 466.100
25.51000 467.537
25.52000 466.099
25.53000 465.069
25.54000 460.720
25.55000 453.375
25.56000 446.142
25.57000 445.648
25.58000 449.122
25.59000 452.477
25.60000 457.605
25.61000 463.098
25.62000 468.472
25.63000 472.620
25.64000 476.444
25.65000 479.877
25.66000 480.911
25.67000 481.538
25.68000 482.048
25.69000 468.468
25.70000 456.223
25.71000 448.015
25.72000 450.360
25.73000 453.255
25.74000 455.491
25.75000 456.572
25.76000 457.631
25.77000 458.197
25.78000 450.159
25.79000 444.713
25.80000 446.337
25.81000 453.137
25.82000 459.768
25.83000 460.844
25.84000 459.221
25.85000 457.679
25.86000 458.120
25.87000 459.122
25.88000 459.958
25.89000 459.471
25.90000 458.701
25.91000 458.051
25.92000 457.993
25.93000 458.014
25.94000 458.030
25.95000 459.971
25.96000 461.630
25.97000 459.846
25.98000 450.619
25.99000 441.137
26.00000 438.179
26.01000 444.608
26.02000 451.110
26.03000 453.378
26.04000 451.745
26.05000 450.190
26.06000 453.688
26.07000 460.218
26.08000 466.179
26.09000 460.095
26.10000 449.173
26.11000 439.009
26.12000 447.475
26.13000 459.637
26.14000 470.095
26.15000 469.911
26.16000 467.882
26.17000 466.361
26.18000 466.878
26.19000 467.608
26.20000 468.146
26.21000 467.338
26.22000 466.655
26.23000 468.570
26.24000 475.122
26.25000 481.765
26.26000 478.763
26.27000 464.463
26.28000 450.188
26.29000 445.349
26.30000 447.541
26.31000 449.780
26.32000 453.644
26.33000 458.313
26.34000 462.254
26.35000 455.477
26.36000 445.142
26.37000 435.757
26.38000 432.990
26.39000 431.827
26.40000 432.380
26.41000 441.544
26.42000 451.895
26.43000 460.756
26.44000 464.722
26.45000 468.304
26.46000 470.794
26.47000 456.709
26.48000 445.643
26.49000 442.329
26.50000 450.391
26.51000 458.552
26.52000 463.037
26.53000 464.062
26.54000 465.077
26.55000 461.209
26.56000 454.485
26.57000 448.066
26.58000 448.348
26.59000 451.372
26.60000 454.433
26.61000 457.885
26.62000 461.445
26.63000 464.587
26.64000 461.005
26.65000 456.886
26.66000 452.379
26.67000 446.289
26.68000 440.029
26.69000 436.267
26.70000 439.284
26.71000 442.681
26.72000 444.889
26.73000 442.289
26.74000 440.309
26.75000 443.900
26.76000 454.152
26.77000 464.361
26.78000 461.945
26.79000 449.911
26.80000 438.091
26.81000 435.098
26.82000 436.506
26.83000 437.600
26.84000 433.911
26.85000 428.606
26.86000 423.992
26.87000 425.126
26.88000 427.544
26.89000 429.609
26.90000 435.024
26.91000 439.983
26.92000 444.007
26.93000 444.901
26.94000 445.541
26.95000 443.643
26.96000 436.045
26.97000 428.233
26.98000 423.533
26.99000 427.457
27.00000 430.308
27.01000 433.596
27.02000 437.305
27.03000 440.984
27.04000 442.327
27.05000 442.213
27.06000 442.103
27.07000 445.690
27.08000 450.550
27.09000 454.758
27.10000 451.668
27.11000 446.545
27.12000 441.834
27.13000 439.818
27.14000 438.290
27.15000 437.034
27.16000 431.755
27.17000 427.054
27.18000 425.559
27.19000 432.931
27.20000 440.818
27.21000 444.772
27.22000 441.433
27.23000 437.931
27.24000 436.004
27.25000 441.231
27.26000 444.827
27.27000 444.327
27.28000 440.644
27.29000 437.052
27.30000 437.010
27.31000 438.790
27.32000 440.491
27.33000 436.566
27.34000 431.118
27.35000 426.768
27.36000 431.771
27.37000 438.907
27.38000 445.154
27.39000 446.749
27.40000 447.672
27.41000 448.399
27.42000 439.224
27.43000 431.213
27.44000 427.750
27.45000 434.684
27.46000 442.025
27.47000 443.088
27.48000 434.571
27.49000 425.952
27.50000 422.525
27.51000 424.202
27.52000 425.875
27.53000 427.293
27.54000 428.548
27.55000 429.886
27.56000 433.179
27.57000 437.303
27.58000 441.166
27.59000 437.848
27.60000 432.976
27.61000 428.888
27.62000 430.048
27.63000 432.179
27.64000 434.486
27.65000 437.544
27.66000 440.686
27.67000 443.041
27.68000 442.967
27.69000 442.796
27.70000 439.047
27.71000 428.535
27.72000 417.864
27.73000 416.706
27.74000 427.400
27.75000 438.110
27.76000 445.559
27.77000 450.399
27.78000 455.016
27.79000 450.528
27.80000 441.273
27.81000 432.165
27.82000 425.454
27.83000 419.585
27.84000 414.214
27.85000 420.717
27.86000 428.957
27.87000 435.716
27.88000 434.559
27.89000 432.232
27.90000 428.341
27.91000 419.005
27.92000 409.203
27.93000 402.263
27.94000 415.755
27.95000 426.643
27.96000 434.516
27.97000 437.697
27.98000 440.824
27.99000 439.997
28.00000 435.198
28.01000 430.431
28.02000 427.645
28.03000 426.165
28.04000 424.894
28.05000 428.805
28.06000 434.958
28.07000 440.228
28.08000 435.041
28.09000 426.826
28.10000 419.511
28.11000 417.673
28.12000 416.975
28.13000 416.083
28.14000 414.349
28.15000 412.518
28.16000 412.077
28.17000 415.624
28.18000 419.420
28.19000 421.939
28.20000 429.225
28.21000 434.698
28.22000 437.475
28.23000 436.823
28.24000 436.154
28.25000 433.315
28.26000 428.719
28.27000 424.191
28.28000 422.447
28.29000 422.196
28.30000 422.208
28.31000 426.651
28.32000 432.681
28.33000 437.834
28.34000 435.125
28.35000 430.551
28.36000 426.605
28.37000 431.646
28.38000 437.075
28.39000 441.392
28.40000 441.758
28.41000 441.777
28.42000 439.857
28.43000 433.339
28.44000 426.625
28.45000 422.487
28.46000 411.071
28.47000 402.811
28.48000 400.032
28.49000 402.880
28.50000 405.777
28.51000 413.498
28.52000 424.405
28.53000 435.029
28.54000 433.685
28.55000 427.372
28.56000 421.776
28.57000 424.904
28.58000 430.608
28.59000 434.735
28.60000 427.838
28.61000 418.815
28.62000 411.309
28.63000 402.552
28.64000 395.180
28.65000 392.154
28.66000 401.839
28.67000 412.343
28.68000 419.313
28.69000 419.349
28.70000 419.202
28.71000 419.119
28.72000 410.719
28.73000 404.869
28.74000 406.250
28.75000 413.609
28.76000 420.816
28.77000 421.077
28.78000 417.560
28.79000 414.186
28.80000 412.818
28.81000 412.223
28.82000 411.545
28.83000 410.108
28.84000 408.488
28.85000 406.817
28.86000 404.869
28.87000 402.878
28.88000 401.290
28.89000 407.649
28.90000 413.363
28.91000 417.807
28.92000 419.179
28.93000 420.414
28.94000 418.792
28.95000 412.549
28.96000 406.243
28.97000 403.014
28.98000 403.517
28.99000 403.901
29.00000 409.233
29.01000 417.900
29.02000 426.130
29.03000 422.486
29.04000 413.509
29.05000 405.051
29.06000 405.976
29.07000 409.407
29.08000 412.990
29.09000 417.667
29.10000 422.558
29.11000 426.040
29.12000 423.164
29.13000 419.515
29.14000 416.739
29.15000 409.578
29.16000 403.716
29.17000 401.062
29.18000 404.824
29.19000 408.766
29.20000 410.023
29.21000 407.727
29.22000 405.416
29.23000 405.865
29.24000 408.635
29.25000 411.335
29.26000 410.616
29.27000 408.004
29.28000 405.684
29.29000 408.656
29.30000 413.595
29.31000 418.146
29.32000 415.318
29.33000 411.155
29.34000 408.946
29.35000 417.870
29.36000 428.553
29.37000 433.634
29.38000 418.043
29.39000 400.526
29.40000 387.905
29.41000 392.438
29.42000 396.518
29.43000 400.733
29.44000 405.172
29.45000 409.615
29.46000 411.397
29.47000 410.327
29.48000 409.262
29.49000 408.360
29.50000 407.580
29.51000 406.627
29.52000 400.734
29.53000 392.581
29.54000 385.623
29.55000 394.108
29.56000 407.329
29.57000 419.201
29.58000 408.167
29.59000 394.484
29.60000 383.840
29.61000 387.190
29.62000 392.284
29.63000 396.300
29.64000 397.038
29.65000 397.552
29.66000 397.900
29.67000 398.959
29.68000 399.764
29.69000 401.026
29.70000 402.902
29.71000 404.776
29.72000 401.479
29.73000 393.728
29.74000 386.072
29.75000 389.510
29.76000 398.968
29.77000 408.108
29.78000 411.283
29.79000 412.199
29.80000 412.634
29.81000 408.404
29.82000 402.999
29.83000 398.290
29.84000 402.975
29.85000 408.276
29.86000 412.749
29.87000 414.107
29.88000 415.168
29.89000 416.011
29.90000 416.310
29.91000 416.582
29.92000 416.753
29.93000 413.939
29.94000 411.868
29.95000 414.386
29.96000 421.932
29.97000 429.435
29.98000 430.908
29.99000 428.156
30.00000 425.466
30.01000 421.759
30.02000 417.752
30.03000 414.216
30.04000 416.951
30.05000 421.645
30.06000 426.083
30.07000 428.598
30.08000 430.718
30.09000 432.501
30.10000 425.967
30.11000 419.633
30.12000 412.495
30.13000 402.864
30.14000 393.057
30.15000 391.301
30.16000 406.258
30.17000 421.730
30.18000 430.718
30.19000 427.920
30.20000 425.906
30.21000 425.716
30.22000 427.131
30.23000 428.429
30.24000 423.229
30.25000 414.288
30.26000 405.667
30.27000 406.351
30.28000 410.368
30.29000 414.583
30.30000 420.766
30.31000 427.455
30.32000 431.974
30.33000 423.587
30.34000 413.066
30.35000 404.563
30.36000 413.602
30.37000 422.358
30.38000 426.006
30.39000 416.593
30.40000 406.529
30.41000 400.473
30.42000 401.285
30.43000 402.213
30.44000 402.703
30.45000 398.475
30.46000 395.651
30.47000 400.129
30.48000 409.826
30.49000 419.221
30.50000 419.139
30.51000 414.555
30.52000 410.211
30.53000 410.619
30.54000 412.388
30.55000 414.068
30.56000 415.052
30.57000 415.891
30.58000 416.774
30.59000 417.868
30.60000 418.990
30.61000 419.856
30.62000 427.156
30.63000 433.316
30.64000 435.235
30.65000 428.182
30.66000 420.839
30.67000 415.782
30.68000 413.935
30.69000 412.111
30.70000 412.420
30.71000 414.643
30.72000 416.872
30.73000 419.498
30.74000 422.357
30.75000 425.017
30.76000 423.671
30.77000 420.750
30.78000 418.039
30.79000 420.520
30.80000 423.981
30.81000 427.115
30.82000 428.258
30.83000 429.064
30.84000 430.598
30.85000 434.980
30.86000 439.650
30.87000 443.071
30.88000 438.206
30.89000 434.117
30.90000 435.929
30.91000 448.039
30.92000 460.338
30.93000 471.190
30.94000 480.388
30.95000 489.553
30.96000 494.989
30.97000 497.684
30.98000 500.266
30.99000 499.180
31.00000 496.318
31.01000 494.050
31.02000 500.222
31.03000 509.132
31.04000 517.199
31.05000 528.224
31.06000 538.493
31.07000 548.900
31.08000 559.986
31.09000 571.163
31.10000 584.277
31.11000 603.618
31.12000 623.430
31.13000 637.104
31.14000 687.099
31.15000 725.592
31.16000 758.492
31.17000 783.377
31.18000 808.202
31.19000 840.499
31.20000 879.653
31.21000 918.427
31.22000 955.498
31.23000 990.800
31.24000 1026.965
31.25000 1081.277
31.26000 1142.851
31.27000 1202.614
31.28000 1243.348
31.29000 1279.000
31.30000 1310.352
31.31000 1355.498
31.32000 1396.391
31.33000 1434.618
31.34000 1462.209
31.35000 1488.696
31.36000 1511.893
31.37000 1526.357
31.38000 1540.351
31.39000 1549.372
31.40000 1544.347
31.41000 1540.478
31.42000 1535.549
31.43000 1529.384
31.44000 1523.165
31.45000 1507.183
31.46000 1483.939
31.47000 1461.136
31.48000 1428.882
31.49000 1393.312
31.50000 1358.052
31.51000 1327.339
31.52000 1298.130
31.53000 1266.499
31.54000 1215.333
31.55000 1159.902
31.56000 1112.765
31.57000 1074.861
31.58000 1044.090
31.59000 1011.596
31.60000 973.452
31.61000 934.867
31.62000 893.367
31.63000 845.466
31.64000 797.336
31.65000 768.656
31.66000 732.887
31.67000 707.495
31.68000 687.148
31.69000 671.529
31.70000 655.853
31.71000 636.267
31.72000 614.298
31.73000 593.021
31.74000 570.647
31.75000 549.058
31.76000 528.566
31.77000 519.919
31.78000 514.498
31.79000 508.408
31.80000 498.068
31.81000 486.978
31.82000 477.904
31.83000 467.030
31.84000 457.963
31.85000 452.540
31.86000 456.968
31.87000 461.946
31.88000 464.650
31.89000 463.232
31.90000 461.728
31.91000 460.910
31.92000 447.114
31.93000 437.670
31.94000 436.427
31.95000 441.407
31.96000 446.133
31.97000 441.576
31.98000 432.356
31.99000 423.570
32.00000 419.577
32.01000 417.373
32.02000 415.759
32.03000 419.020
32.04000 423.366
32.05000 425.274
32.06000 414.741
32.07000 402.460
32.08000 392.845
32.09000 394.541
32.10000 396.620
32.11000 401.191
32.12000 411.334
32.13000 421.684
32.14000 421.896
32.15000 406.995
32.16000 391.951
32.17000 387.775
32.18000 394.009
32.19000 400.121
32.20000 397.131
32.21000 388.485
32.22000 380.504
32.23000 387.639
32.24000 401.052
32.25000 413.582
32.26000 408.475
32.27000 399.400
32.28000 390.950
32.29000 386.555
32.30000 382.892
32.31000 379.623
32.32000 377.984
32.33000 376.524
32.34000 375.436
32.35000 387.299
32.36000 397.112
32.37000 400.241
32.38000 391.015
32.39000 381.518
32.40000 374.117
32.41000 369.264
32.42000 364.429
32.43000 366.576
32.44000 374.088
32.45000 381.451
32.46000 383.062
32.47000 381.728
32.48000 380.053
32.49000 373.040
32.50000 364.193
32.51000 356.122
32.52000 360.702
32.53000 367.315
32.54000 373.455
32.55000 377.136
32.56000 380.464
32.57000 383.464
32.58000 385.348
32.59000 387.140
32.60000 388.400
32.61000 374.018
32.62000 362.663
32.63000 357.191
32.64000 360.665
32.65000 364.232
32.66000 364.374
32.67000 361.163
32.68000 357.976
32.69000 355.486
32.70000 353.473
32.71000 351.818
32.72000 358.665
32.73000 369.111
32.74000 378.614
32.75000 377.354
32.76000 373.047
32.77000 369.225
32.78000 370.280
32.79000 371.972
32.80000 375.613
32.81000 387.497
32.82000 400.308
32.83000 410.326
32.84000 412.507
32.85000 414.219
32.86000 415.345
32.87000 431.060
32.88000 442.887
32.89000 450.987
32.90000 454.464
32.91000 457.914
32.92000 457.533
32.93000 454.122
32.94000 450.767
32.95000 446.915
32.96000 442.935
32.97000 439.282
32.98000 440.910
32.99000 444.387
33.00000 446.938
33.01000 441.431
33.02000 434.057
33.03000 427.720
33.04000 421.372
33.05000 416.000
33.06000 409.704
33.07000 400.200
33.08000 390.423
33.09000 380.703
33.10000 371.113
33.11000 361.528
33.12000 355.676
33.13000 352.673
33.14000 350.549
33.15000 349.009
33.16000 348.053
33.17000 347.111
33.18000 347.329
33.19000 348.297
33.20000 349.237
33.21000 347.063
33.22000 343.716
33.23000 340.388
33.24000 337.271
33.25000 334.214
33.26000 332.130
33.27000 336.659
33.28000 342.433
33.29000 347.213
33.30000 345.679
33.31000 343.813
33.32000 343.126
33.33000 345.811
33.34000 348.704
33.35000 350.214
33.36000 349.070
33.37000 347.859
33.38000 347.182
33.39000 346.105
33.40000 345.353
33.41000 343.085
33.42000 339.595
33.43000 336.266
33.44000 339.898
33.45000 347.230
33.46000 354.253
33.47000 349.375
33.48000 340.868
33.49000 332.659
33.50000 327.099
33.51000 322.165
33.52000 318.673
33.53000 323.013
33.54000 328.532
33.55000 332.912
33.56000 342.924
33.57000 351.379
33.58000 355.185
33.59000 347.999
33.60000 340.347
33.61000 336.107
33.62000 337.260
33.63000 338.479
33.64000 339.096
33.65000 334.752
33.66000 331.887
33.67000 333.087
33.68000 336.965
33.69000 340.759
33.70000 342.414
33.71000 343.128
33.72000 343.800
33.73000 337.933
33.74000 330.821
33.75000 324.937
33.76000 327.607
33.77000 331.921
33.78000 334.516
33.79000 329.535
33.80000 323.660
33.81000 319.218
33.82000 321.179
33.83000 323.039
33.84000 325.918
33.85000 330.790
33.86000 335.714
33.87000 337.500
33.88000 335.229
33.89000 332.945
33.90000 333.282
33.91000 335.767
33.92000 338.202
33.93000 338.316
33.94000 337.173
33.95000 335.893
33.96000 332.236
33.97000 327.716
33.98000 323.562
33.99000 325.945
34.00000 329.482
34.01000 332.256
34.02000 330.798
34.03000 328.688
34.04000 327.948
34.05000 332.144
34.06000 336.785
34.07000 340.106
34.08000 336.909
34.09000 334.248
34.10000 330.818
34.11000 326.149
34.12000 321.464
34.13000 322.889
34.14000 330.700
34.15000 338.467
34.16000 337.876
34.17000 331.754
34.18000 325.727
34.19000 322.258
34.20000 319.935
34.21000 317.816
34.22000 318.250
34.23000 319.448
34.24000 320.520
34.25000 320.804
34.26000 320.917
34.27000 321.331
34.28000 323.097
34.29000 325.027
34.30000 324.833
34.31000 318.335
34.32000 311.419
34.33000 306.773
34.34000 318.438
34.35000 327.437
34.36000 329.957
34.37000 323.935
34.38000 317.887
34.39000 319.539
34.40000 327.664
34.41000 335.682
34.42000 334.751
34.43000 329.038
34.44000 323.569
34.45000 322.478
34.46000 323.007
34.47000 323.808
34.48000 327.155
34.49000 331.129
34.50000 334.578
34.51000 332.748
34.52000 330.481
34.53000 329.161
34.54000 331.326
34.55000 333.813
34.56000 334.157
34.57000 329.238
34.58000 324.077
34.59000 320.852
34.60000 316.402
34.61000 313.178
34.62000 314.502
34.63000 320.682
34.64000 326.818
34.65000 327.662
34.66000 324.883
34.67000 322.169
34.68000 318.638
34.69000 314.905
34.70000 311.550
34.71000 313.059
34.72000 316.055
34.73000 318.609
34.74000 317.947
34.75000 316.640
34.76000 315.546
34.77000 323.020
34.78000 330.119
34.79000 333.877
34.80000 327.528
34.81000 320.488
34.82000 316.981
34.83000 320.649
34.84000 324.526
34.85000 326.754
34.86000 326.931
34.87000 327.048
34.88000 327.604
34.89000 328.536
34.90000 329.379
34.91000 325.659
34.92000 319.372
34.93000 313.321
34.94000 318.349
34.95000 326.985
34.96000 334.446
34.97000 330.572
34.98000 323.853
34.99000 317.652
35.00000 314.454
35.01000 311.738
35.02000 309.555
35.03000 312.371
35.04000 315.041
35.05000 316.378
35.06000 314.380
35.07000 312.223
35.08000 312.417
35.09000 316.548
35.10000 320.740
35.11000 322.927
35.12000 313.126
35.13000 306.523
35.14000 303.728
35.15000 303.592
35.16000 303.426
35.17000 302.388
35.18000 300.944
35.19000 299.578
35.20000 308.573
35.21000 319.803
35.22000 328.895
35.23000 322.015
35.24000 311.870
35.25000 304.223
35.26000 308.274
35.27000 313.812
35.28000 318.062
35.29000 322.500
35.30000 326.019
35.31000 326.504
35.32000 320.718
35.33000 314.740
35.34000 309.900
35.35000 306.624
35.36000 303.359
35.37000 304.613
35.38000 309.819
35.39000 314.907
35.40000 313.596
35.41000 308.616
35.42000 303.826
35.43000 302.733
35.44000 303.060
35.45000 303.362
35.46000 307.761
35.47000 312.657
35.48000 316.326
35.49000 312.724
35.50000 307.925
35.51000 303.912
35.52000 302.904
35.53000 302.190
35.54000 301.670
35.55000 307.797
35.56000 312.767
35.57000 315.803
35.58000 315.539
35.59000 315.219
35.60000 315.661
35.61000 316.954
35.62000 318.241
35.63000 321.323
35.64000 325.640
35.65000 329.735
35.66000 326.958
35.67000 320.928
35.68000 314.971
35.69000 310.009
35.70000 305.363
35.71000 301.170
35.72000 298.310
35.73000 296.043
35.74000 295.652
35.75000 304.230
35.76000 313.976
35.77000 319.382
35.78000 311.149
35.79000 301.923
35.80000 295.603
35.81000 300.312
35.82000 304.104
35.83000 303.462
35.84000 296.613
35.85000 289.724
35.86000 286.880
35.87000 287.655
35.88000 288.421
35.89000 288.745
35.90000 288.808
35.91000 289.221
35.92000 296.680
35.93000 306.895
35.94000 316.110
35.95000 315.151
35.96000 311.535
35.97000 308.368
35.98000 310.307
35.99000 312.709
36.00000 314.138
36.01000 311.781
36.02000 309.044
36.03000 307.258
36.04000 307.942
36.05000 308.753
36.06000 309.272
36.07000 308.618
36.08000 308.126
36.09000 306.914
36.10000 304.880
36.11000 302.861
36.12000 303.350
36.13000 305.663
36.14000 307.928
36.15000 308.429
36.16000 308.093
36.17000 307.595
36.18000 304.815
36.19000 301.296
36.20000 298.011
36.21000 296.561
36.22000 295.502
36.23000 294.605
36.24000 296.949
36.25000 299.275
36.26000 301.448
36.27000 303.136
36.28000 304.786
36.29000 304.910
36.30000 301.755
36.31000 298.490
36.32000 296.563
36.33000 293.493
36.34000 291.320
36.35000 291.379
36.36000 293.478
36.37000 295.587
36.38000 298.344
36.39000 301.486
36.40000 304.524
36.41000 305.234
36.42000 305.028
36.43000 304.752
36.44000 303.743
36.45000 302.540
36.46000 301.970
36.47000 305.318
36.48000 309.340
36.49000 312.615
36.50000 307.636
36.51000 302.871
36.52000 298.693
36.53000 296.068
36.54000 293.525
36.55000 292.701
36.56000 294.922
36.57000 297.201
36.58000 298.427
36.59000 301.620
36.60000 303.780
36.61000 301.796
36.62000 296.740
36.63000 291.755
36.64000 289.178
36.65000 287.785
36.66000 286.460
36.67000 293.875
36.68000 303.395
36.69000 311.435
36.70000 307.593
36.71000 301.168
36.72000 296.018
36.73000 297.221
36.74000 299.291
36.75000 300.903
36.76000 300.415
36.77000 299.897
36.78000 298.866
36.79000 296.711
36.80000 294.517
36.81000 292.748
36.82000 291.600
36.83000 290.457
36.84000 292.852
36.85000 298.548
36.86000 304.168
36.87000 304.669
36.88000 302.061
36.89000 299.657
36.90000 301.647
36.91000 305.422
36.92000 308.940
36.93000 310.930
36.94000 312.356
36.95000 313.014
36.96000 308.806
36.97000 303.743
36.98000 300.689
36.99000 305.773
37.00000 311.722
37.01000 316.122
37.02000 323.052
37.03000 328.537
37.04000 328.514
37.05000 318.541
37.06000 308.363
37.07000 305.781
37.08000 312.210
37.09000 318.639
37.10000 318.939
37.11000 314.634
37.12000 310.404
37.13000 308.834
37.14000 308.597
37.15000 308.392
37.16000 308.675
37.17000 309.123
37.18000 309.530
37.19000 305.548
37.20000 301.164
37.21000 298.098
37.22000 301.732
37.23000 306.302
37.24000 308.126
37.25000 300.814
37.26000 292.773
37.27000 287.161
37.28000 295.926
37.29000 302.945
37.30000 304.436
37.31000 297.714
37.32000 290.916
37.33000 291.790
37.34000 299.981
37.35000 308.104
37.36000 309.442
37.37000 306.632
37.38000 303.817
37.39000 300.882
37.40000 297.897
37.41000 295.503
37.42000 299.636
37.43000 305.575
37.44000 310.827
37.45000 306.321
37.46000 300.914
37.47000 296.501
37.48000 296.199
37.49000 296.345
37.50000 296.901
37.51000 298.585
37.52000 300.333
37.53000 301.475
37.54000 298.433
37.55000 296.134
37.56000 293.362
37.57000 290.018
37.58000 286.693
37.59000 288.310
37.60000 293.740
37.61000 299.077
37.62000 302.476
37.63000 304.804
37.64000 306.405
37.65000 296.678
37.66000 283.075
37.67000 271.276
37.68000 274.696
37.69000 281.563
37.70000 287.438
37.71000 286.215
37.72000 284.327
37.73000 283.619
37.74000 286.914
37.75000 290.539
37.76000 294.271
37.77000 298.246
37.78000 302.231
37.79000 304.641
37.80000 293.518
37.81000 285.493
37.82000 285.180
37.83000 292.387
37.84000 299.515
37.85000 300.325
37.86000 297.149
37.87000 294.065
37.88000 295.311
37.89000 298.227
37.90000 301.445
37.91000 308.086
37.92000 315.693
37.93000 321.559
37.94000 315.894
37.95000 308.114
37.96000 301.703
37.97000 297.965
37.98000 295.136
37.99000 292.753
38.00000 291.619
38.01000 290.560
38.02000 293.024
38.03000 302.097
38.04000 311.322
38.05000 316.429
38.06000 312.410
38.07000 309.627
38.08000 309.150
38.09000 310.489
38.10000 311.741
38.11000 309.474
38.12000 305.379
38.13000 301.464
38.14000 302.202
38.15000 304.399
38.16000 305.705
38.17000 299.298
38.18000 291.111
38.19000 285.510
38.20000 293.622
38.21000 303.741
38.22000 311.729
38.23000 308.495
38.24000 305.138
38.25000 304.833
38.26000 311.590
38.27000 318.630
38.28000 323.284
38.29000 324.252
38.30000 325.178
38.31000 327.906
38.32000 332.429
38.33000 336.986
38.34000 344.453
38.35000 353.793
38.36000 362.801
38.37000 363.655
38.38000 361.005
38.39000 358.521
38.40000 364.732
38.41000 372.665
38.42000 382.143
38.43000 402.083
38.44000 423.984
38.45000 445.552
38.46000 465.690
38.47000 485.665
38.48000 500.677
38.49000 543.620
38.50000 578.539
38.51000 613.084
38.52000 646.913
38.53000 680.724
38.54000 716.897
38.55000 756.050
38.56000 795.149
38.57000 848.359
38.58000 912.636
38.59000 976.712
38.60000 1032.244
38.61000 1083.251
38.62000 1134.950
38.63000 1198.157
38.64000 1265.451
38.65000 1327.123
38.66000 1372.650
38.67000 1409.805
38.68000 1448.224
38.69000 1493.490
38.70000 1539.781
38.71000 1581.018
38.72000 1604.447
38.73000 1626.325
38.74000 1641.871
38.75000 1629.339
38.76000 1618.902
38.77000 1609.203
38.78000 1600.665
38.79000 1592.140
38.80000 1569.373
38.81000 1532.099
38.82000 1495.063
38.83000 1447.305
38.84000 1393.308
38.85000 1339.254
38.86000 1283.750
38.87000 1227.610
38.88000 1171.520
38.89000 1116.028
38.90000 1060.711
38.91000 1011.368
38.92000 936.858
38.93000 867.838
38.94000 803.519
38.95000 759.832
38.96000 718.569
38.97000 678.088
38.98000 639.878
38.99000 601.812
39.00000 576.440
39.01000 530.856
39.02000 496.722
39.03000 473.834
39.04000 465.428
39.05000 457.050
39.06000 436.947
39.07000 407.230
39.08000 377.935
39.09000 361.718
39.10000 352.821
39.11000 344.033
39.12000 337.106
39.13000 330.853
39.14000 324.922
39.15000 321.918
39.16000 319.619
39.17000 317.631
39.18000 305.008
39.19000 292.899
39.20000 284.242
39.21000 287.985
39.22000 292.839
39.23000 294.152
39.24000 286.963
39.25000 279.403
39.26000 274.722
39.27000 283.979
39.28000 290.769
39.29000 291.978
39.30000 287.378
39.31000 282.814
39.32000 281.907
39.33000 283.447
39.34000 284.948
39.35000 286.736
39.36000 288.564
39.37000 289.942
39.38000 285.741
39.39000 279.872
39.40000 274.508
39.41000 272.724
39.42000 271.640
39.43000 270.736
39.44000 278.392
39.45000 285.595
39.46000 289.011
39.47000 281.226
39.48000 272.704
39.49000 267.951
39.50000 270.683
39.51000 273.619
39.52000 275.289
39.53000 281.150
39.54000 285.246
39.55000 288.562
39.56000 291.226
39.57000 293.739
39.58000 289.057
39.59000 280.419
39.60000 272.120
39.61000 270.195
39.62000 270.595
39.63000 271.521
39.64000 277.372
39.65000 284.431
39.66000 290.073
39.67000 287.710
39.68000 284.092
39.69000 281.198
39.70000 281.731
39.71000 282.417
39.72000 281.828
39.73000 278.116
39.74000 274.262
39.75000 270.727
39.76000 267.716
39.77000 264.712
39.78000 263.163
39.79000 263.792
39.80000 264.204
39.81000 263.331
39.82000 261.582
39.83000 259.903
39.84000 260.174
39.85000 261.330
39.86000 262.420
39.87000 261.545
39.88000 260.193
39.89000 259.426
39.90000 262.896
39.91000 267.212
39.92000 271.031
39.93000 272.577
39.94000 273.842
39.95000 274.808
39.96000 273.057
39.97000 271.532
39.98000 269.359
39.99000 265.877
40.00000 262.357
40.01000 262.702
40.02000 268.227
40.03000 273.774
40.04000 273.141
40.05000 267.238
40.06000 261.377
40.07000 257.653
40.08000 255.128
40.09000 252.858
40.10000 255.325
40.11000 259.572
40.12000 263.492
40.13000 263.802
40.14000 263.270
40.15000 263.429
40.16000 267.574
40.17000 272.358
40.18000 275.280
40.19000 271.247
40.20000 266.555
40.21000 263.163
40.22000 258.278
40.23000 254.475
40.24000 253.124
40.25000 255.861
40.26000 258.662
40.27000 260.736
40.28000 262.018
40.29000 263.294
40.30000 263.101
40.31000 261.900
40.32000 260.651
40.33000 258.016
40.34000 254.740
40.35000 251.525
40.36000 249.115
40.37000 246.955
40.38000 245.012
40.39000 249.793
40.40000 255.182
40.41000 259.449
40.42000 258.483
40.43000 256.854
40.44000 254.397
40.45000 249.394
40.46000 244.213
40.47000 240.690
40.48000 251.234
40.49000 259.423
40.50000 264.154
40.51000 264.155
40.52000 264.127
40.53000 261.993
40.54000 258.022
40.55000 254.097
40.56000 255.395
40.57000 259.573
40.58000 263.199
40.59000 256.226
40.60000 245.196
40.61000 235.339
40.62000 237.048
40.63000 241.706
40.64000 245.772
40.65000 251.012
40.66000 255.660
40.67000 258.644
40.68000 255.295
40.69000 251.329
40.70000 248.799
40.71000 249.918
40.72000 251.216
40.73000 252.038
40.74000 252.430
40.75000 252.709
40.76000 252.088
40.77000 250.467
40.78000 248.864
40.79000 249.731
40.80000 252.352
40.81000 254.916
40.82000 254.507
40.83000 252.770
40.84000 251.052
40.85000 249.596
40.86000 248.223
40.87000 247.224
40.88000 249.071
40.89000 251.510
40.90000 253.567
40.91000 256.941
40.92000 259.902
40.93000 261.107
40.94000 256.815
40.95000 252.124
40.96000 246.364
40.97000 238.359
40.98000 230.282
40.99000 225.564
41.00000 240.707
41.01000 251.447
41.02000 254.654
41.03000 251.146
41.04000 247.640
41.05000 244.229
41.06000 240.873
41.07000 237.634
41.08000 237.740
41.09000 239.069
41.10000 240.024
41.11000 237.204
41.12000 233.402
41.13000 230.502
41.14000 233.040
41.15000 236.490
41.16000 239.285
41.17000 239.002
41.18000 238.521
41.19000 238.809
41.20000 241.085
41.21000 243.462
41.22000 244.701
41.23000 243.966
41.24000 243.196
41.25000 242.786
41.26000 242.210
41.27000 241.811
41.28000 240.399
41.29000 238.253
41.30000 236.243
41.31000 238.611
41.32000 243.082
41.33000 247.325
41.34000 242.600
41.35000 235.577
41.36000 229.914
41.37000 234.862
41.38000 242.062
41.39000 247.813
41.40000 246.527
41.41000 244.307
41.42000 242.588
41.43000 242.077
41.44000 241.742
41.45000 241.511
41.46000 241.500
41.47000 241.497
41.48000 240.911
41.49000 239.496
41.50000 238.076
41.51000 238.143
41.52000 239.565
41.53000 240.933
41.54000 238.935
41.55000 234.940
41.56000 231.165
41.57000 231.961
41.58000 234.573
41.59000 237.001
41.60000 235.627
41.61000 233.479
41.62000 232.450
41.63000 238.330
41.64000 245.394
41.65000 250.654
41.66000 248.774
41.67000 246.161
41.68000 244.239
41.69000 242.682
41.70000 241.492
41.71000 241.698
41.72000 244.370
41.73000 247.090
41.74000 248.648
41.75000 248.861
41.76000 249.073
41.77000 248.607
41.78000 247.650
41.79000 246.604
41.80000 242.556
41.81000 237.037
41.82000 231.813
41.83000 230.850
41.84000 231.287
41.85000 231.683
41.86000 239.067
41.87000 246.916
41.88000 252.275
41.89000 245.288
41.90000 236.622
41.91000 230.187
41.92000 231.011
41.93000 232.393
41.94000 233.351
41.95000 231.441
41.96000 229.927
41.97000 230.229
41.98000 233.166
41.99000 236.124
42.00000 239.368
42.01000 242.876
42.02000 246.352
42.03000 246.040
42.04000 243.488
42.05000 240.827
42.06000 235.811
42.07000 229.843
42.08000 224.474
42.09000 225.518
42.10000 228.296
42.11000 230.743
42.12000 232.786
42.13000 234.485
42.14000 235.179
42.15000 231.810
42.16000 228.012
42.17000 226.449
42.18000 230.886
42.19000 235.654
42.20000 238.741
42.21000 239.110
42.22000 239.339
42.23000 238.908
42.24000 237.695
42.25000 236.481
42.26000 235.159
42.27000 233.756
42.28000 232.379
42.29000 230.626
42.30000 228.752
42.31000 227.453
42.32000 234.729
42.33000 244.875
42.34000 253.412
42.35000 248.758
42.36000 241.189
42.37000 234.738
42.38000 235.762
42.39000 237.499
42.40000 237.989
42.41000 234.345
42.42000 230.373
42.43000 226.854
42.44000 224.343
42.45000 221.869
42.46000 220.387
42.47000 227.426
42.48000 232.478
42.49000 233.941
42.50000 231.994
42.51000 230.091
42.52000 231.365
42.53000 234.598
42.54000 237.732
42.55000 239.316
42.56000 240.211
42.57000 241.115
42.58000 242.122
42.59000 243.157
42.60000 243.343
42.61000 238.057
42.62000 231.792
42.63000 226.654
42.64000 230.648
42.65000 234.737
42.66000 237.351
42.67000 235.926
42.68000 234.271
42.69000 234.526
42.70000 238.286
42.71000 242.121
42.72000 244.221
42.73000 238.349
42.74000 234.312
42.75000 233.088
42.76000 234.025
42.77000 234.958
42.78000 235.738
42.79000 236.439
42.80000 237.108
42.81000 234.562
42.82000 231.182
42.83000 228.123
42.84000 227.768
42.85000 228.022
42.86000 228.332
42.87000 228.924
42.88000 229.557
42.89000 230.054
42.90000 234.655
42.91000 238.605
42.92000 239.325
42.93000 232.738
42.94000 225.873
42.95000 222.277
42.96000 223.616
42.97000 225.005
42.98000 226.262
42.99000 227.392
43.00000 228.478
43.01000 226.055
43.02000 221.427
43.03000 217.117
43.04000 220.223
43.05000 226.446
43.06000 232.267
43.07000 232.128
43.08000 230.479
43.09000 228.843
43.10000 227.291
43.11000 225.754
43.12000 225.814
43.13000 232.579
43.14000 240.089
43.15000 245.699
43.16000 235.350
43.17000 226.549
43.18000 219.292
43.19000 214.922
43.20000 210.618
43.21000 210.838
43.22000 216.631
43.23000 222.427
43.24000 223.285
43.25000 220.285
43.26000 217.394
43.27000 218.853
43.28000 222.565
43.29000 226.295
43.30000 230.322
43.31000 234.452
43.32000 238.225
43.33000 235.005
43.34000 230.715
43.35000 226.806
43.36000 224.904
43.37000 223.295
43.38000 224.184
43.39000 233.678
43.40000 243.897
43.41000 251.108
43.42000 233.232
43.43000 218.909
43.44000 211.785
43.45000 215.739
43.46000 219.815
43.47000 221.158
43.48000 219.788
43.49000 218.427
43.50000 218.900
43.51000 220.521
43.52000 222.050
43.53000 221.357
43.54000 219.714
43.55000 218.226
43.56000 218.554
43.57000 219.402
43.58000 220.156
43.59000 219.099
43.60000 217.888
43.61000 217.425
43.62000 220.161
43.63000 223.262
43.64000 224.642
43.65000 221.134
43.66000 217.328
43.67000 214.811
43.68000 218.165
43.69000 220.745
43.70000 221.950
43.71000 221.428
43.72000 220.909
43.73000 223.087
43.74000 227.425
43.75000 231.696
43.76000 228.883
43.77000 222.531
43.78000 216.324
43.79000 212.516
43.80000 209.556
43.81000 207.307
43.82000 211.330
43.83000 216.825
43.84000 221.556
43.85000 221.546
43.86000 220.938
43.87000 220.306
43.88000 219.589
43.89000 218.865
43.90000 217.976
43.91000 216.700
43.92000 215.409
43.93000 214.617
43.94000 221.736
43.95000 226.904
43.96000 229.293
43.97000 228.863
43.98000 228.416
43.99000 226.485
44.00000 223.584
44.01000 220.761
44.02000 220.795
44.03000 222.015
44.04000 223.175
44.05000 223.604
44.06000 223.819
44.07000 223.902
44.08000 223.065
44.09000 222.053
44.10000 221.212
44.11000 215.651
44.12000 210.598
44.13000 207.909
44.14000 212.062
44.15000 216.648
44.16000 218.691
44.17000 215.796
44.18000 212.775
44.19000 211.075
44.20000 211.105
44.21000 211.130
44.22000 211.357
44.23000 211.748
44.24000 212.137
44.25000 212.491
44.26000 212.825
44.27000 213.145
44.28000 214.731
44.29000 216.638
44.30000 218.567
44.31000 220.691
44.32000 222.861
44.33000 224.143
44.34000 220.531
44.35000 216.171
44.36000 212.701
44.37000 213.621
44.38000 214.679
44.39000 215.852
44.40000 217.302
44.41000 218.764
44.42000 222.066
44.43000 228.312
44.44000 234.595
44.45000 237.793
44.46000 231.372
44.47000 227.087
44.48000 225.102
44.49000 224.649
44.50000 224.141
44.51000 222.187
44.52000 219.591
44.53000 217.147
44.54000 219.059
44.55000 221.992
44.56000 224.704
44.57000 225.855
44.58000 226.703
44.59000 227.914
44.60000 230.747
44.61000 233.775
44.62000 236.072
44.63000 236.778
44.64000 237.250
44.65000 236.176
44.66000 232.041
44.67000 227.823
44.68000 226.576
44.69000 229.219
44.70000 231.875
44.71000 228.638
44.72000 220.511
44.73000 212.622
44.74000 216.010
44.75000 225.578
44.76000 234.563
44.77000 233.202
44.78000 228.039
44.79000 223.287
44.80000 231.969
44.81000 242.666
44.82000 251.533
44.83000 250.102
44.84000 247.064
44.85000 244.609
44.86000 244.287
44.87000 244.161
44.88000 244.070
44.89000 246.931
44.90000 249.222
44.91000 249.868
44.92000 247.831
44.93000 245.756
44.94000 248.835
44.95000 257.371
44.96000 265.864
44.97000 269.062
44.98000 268.667
44.99000 268.244
45.00000 267.064
45.01000 265.542
45.02000 264.300
45.03000 266.623
45.04000 270.027
45.05000 273.079
45.06000 277.332
45.07000 281.255
45.08000 284.680
45.09000 285.837
45.10000 286.714
45.11000 286.100
45.12000 281.004
45.13000 275.605
45.14000 271.962
45.15000 287.031
45.16000 298.639
45.17000 299.209
45.18000 285.039
45.19000 270.809
45.20000 265.551
45.21000 267.933
45.22000 270.285
45.23000 272.076
45.24000 273.516
45.25000 274.952
45.26000 276.325
45.27000 277.674
45.28000 278.210
45.29000 270.984
45.30000 261.824
45.31000 253.858
45.32000 257.260
45.33000 261.711
45.34000 264.639
45.35000 261.906
45.36000 258.639
45.37000 256.054
45.38000 255.167
45.39000 254.359
45.40000 253.852
45.41000 252.511
45.42000 251.532
45.43000 249.765
45.44000 247.145
45.45000 244.540
45.46000 243.876
45.47000 244.558
45.48000 245.223
45.49000 244.958
45.50000 244.294
45.51000 243.919
45.52000 247.334
45.53000 251.920
45.54000 255.451
45.55000 251.163
45.56000 245.289
45.57000 240.358
45.58000 239.105
45.59000 238.446
45.60000 238.407
45.61000 240.264
45.62000 242.253
45.63000 243.848
45.64000 244.634
45.65000 245.396
45.66000 245.836
45.67000 237.866
45.68000 232.250
45.69000 231.239
45.70000 234.229
45.71000 237.171
45.72000 237.501
45.73000 236.344
45.74000 235.230
45.75000 233.428
45.76000 231.488
45.77000 229.891
45.78000 231.648
45.79000 234.256
45.80000 235.752
45.81000 230.711
45.82000 224.603
45.83000 219.679
45.84000 227.876
45.85000 235.566
45.86000 238.094
45.87000 227.562
45.88000 216.393
45.89000 212.383
45.90000 220.500
45.91000 228.817
45.92000 233.185
45.93000 223.198
45.94000 216.480
45.95000 217.601
45.96000 224.262
45.97000 230.775
45.98000 232.783
45.99000 232.674
46.00000 232.571
46.01000 227.003
46.02000 220.296
46.03000 214.466
46.04000 215.284
46.05000 217.480
46.06000 219.237
46.07000 218.911
46.08000 218.317
46.09000 217.860
46.10000 212.101
46.11000 207.240
46.12000 204.540
46.13000 206.360
46.14000 208.324
46.15000 210.999
46.16000 214.664
46.17000 218.333
46.18000 213.999
46.19000 202.574
46.20000 191.348
46.21000 191.517
46.22000 198.297
46.23000 204.729
46.24000 204.283
46.25000 201.163
46.26000 198.272
46.27000 198.460
46.28000 199.346
46.29000 200.601
46.30000 204.065
46.31000 207.898
46.32000 210.290
46.33000 207.113
46.34000 203.381
46.35000 200.655
46.36000 207.522
46.37000 213.191
46.38000 216.482
46.39000 215.667
46.40000 214.780
46.41000 214.915
46.42000 216.204
46.43000 217.489
46.44000 214.519
46.45000 208.534
46.46000 202.657
46.47000 200.192
46.48000 199.362
46.49000 198.546
46.50000 197.924
46.51000 197.363
46.52000 196.857
46.53000 196.524
46.54000 196.264
46.55000 196.897
46.56000 201.853
46.57000 207.381
46.58000 210.289
46.59000 204.866
46.60000 198.824
46.61000 194.668
46.62000 192.820
46.63000 191.491
46.64000 192.565
46.65000 197.046
46.66000 201.549
46.67000 201.000
46.68000 195.871
46.69000 190.794
46.70000 192.871
46.71000 199.044
46.72000 204.987
46.73000 206.219
46.74000 205.586
46.75000 204.827
46.76000 202.771
46.77000 200.373
46.78000 198.267
46.79000 205.545
46.80000 213.174
46.81000 218.282
46.82000 213.446
46.83000 207.593
46.84000 203.198
46.85000 202.634
46.86000 202.271
46.87000 202.039
46.88000 204.585
46.89000 206.479
46.90000 207.757
46.91000 208.323
46.92000 208.876
46.93000 207.139
46.94000 203.717
46.95000 200.362
46.96000 199.621
46.97000 200.136
46.98000 200.736
46.99000 202.569
47.00000 204.806
47.01000 206.674
47.02000 205.617
47.03000 203.929
47.04000 202.496
47.05000 199.027
47.06000 195.886
47.07000 193.837
47.08000 195.326
47.09000 197.086
47.10000 196.874
47.11000 192.376
47.12000 187.729
47.13000 184.974
47.14000 183.731
47.15000 182.862
47.16000 186.484
47.17000 194.266
47.18000 201.982
47.19000 205.389
47.20000 206.200
47.21000 206.984
47.22000 198.084
47.23000 185.982
47.24000 175.370
47.25000 180.593
47.26000 190.080
47.27000 197.810
47.28000 194.514
47.29000 189.295
47.30000 185.036
47.31000 188.039
47.32000 191.121
47.33000 191.842
47.34000 186.246
47.35000 180.306
47.36000 178.468
47.37000 183.987
47.38000 189.654
47.39000 192.720
47.40000 193.229
47.41000 193.583
47.42000 195.757
47.43000 199.296
47.44000 202.773
47.45000 204.101
47.46000 204.359
47.47000 204.604
47.48000 199.954
47.49000 194.137
47.50000 188.699
47.51000 186.361
47.52000 184.706
47.53000 183.766
47.54000 186.435
47.55000 189.604
47.56000 192.079
47.57000 188.523
47.58000 185.306
47.59000 182.946
47.60000 182.482
47.61000 182.086
47.62000 183.551
47.63000 187.759
47.64000 191.992
47.65000 196.167
47.66000 200.287
47.67000 204.322
47.68000 202.330
47.69000 196.633
47.70000 190.908
47.71000 184.553
47.72000 177.937
47.73000 171.765
47.74000 178.939
47.75000 188.760
47.76000 196.954
47.77000 194.704
47.78000 190.595
47.79000 186.939
47.80000 185.146
47.81000 183.553
47.82000 182.371
47.83000 188.035
47.84000 192.738
47.85000 194.354
47.86000 190.328
47.87000 186.182
47.88000 185.228
47.89000 188.110
47.90000 190.992
47.91000 190.669
47.92000 187.908
47.93000 185.060
47.94000 178.949
47.95000 171.186
47.96000 164.161
47.97000 168.481
47.98000 176.654
47.99000 184.101
48.00000 186.347
48.01000 187.302
48.02000 188.037
48.03000 187.635
48.04000 187.071
48.05000 185.997
48.06000 183.204
48.07000 180.271
48.08000 178.216
48.09000 182.882
48.10000 186.605
48.11000 189.201
48.12000 190.104
48.13000 190.991
48.14000 190.458
48.15000 188.553
48.16000 186.663
48.17000 187.849
48.18000 190.907
48.19000 193.787
48.20000 192.525
48.21000 189.530
48.22000 186.890
48.23000 188.247
48.24000 190.723
48.25000 192.916
48.26000 188.306
48.27000 183.246
48.28000 179.521
48.29000 181.380
48.30000 183.857
48.31000 184.946
48.32000 182.178
48.33000 179.184
48.34000 177.221
48.35000 182.287
48.36000 186.129
48.37000 187.361
48.38000 185.390
48.39000 183.420
48.40000 184.004
48.41000 186.583
48.42000 189.119
48.43000 189.656
48.44000 189.178
48.45000 188.497
48.46000 184.599
48.47000 179.586
48.48000 175.194
48.49000 176.120
48.50000 178.265
48.51000 180.104
48.52000 180.053
48.53000 179.779
48.54000 178.961
48.55000 176.281
48.56000 173.444
48.57000 170.920
48.58000 169.116
48.59000 167.341
48.60000 166.262
48.61000 162.187
48.62000 159.255
48.63000 161.721
48.64000 169.522
48.65000 177.264
48.66000 180.051
48.67000 179.674
48.68000 179.308
48.69000 181.788
48.70000 185.298
48.71000 188.458
48.72000 187.564
48.73000 185.514
48.74000 182.822
48.75000 175.821
48.76000 168.019
48.77000 161.574
48.78000 167.516
48.79000 173.573
48.80000 179.481
48.81000 184.971
48.82000 190.436
48.83000 193.194
48.84000 190.816
48.85000 188.316
48.86000 186.923
48.87000 184.218
48.88000 182.347
48.89000 181.351
48.90000 181.052
48.91000 180.739
48.92000 179.812
48.93000 178.562
48.94000 177.365
48.95000 179.788
48.96000 183.233
48.97000 185.926
48.98000 182.000
48.99000 176.525
49.00000 171.895
49.01000 171.800
49.02000 172.378
49.03000 172.836
49.04000 171.332
49.05000 169.986
49.06000 170.346
49.07000 174.696
49.08000 179.210
49.09000 182.099
49.10000 182.449
49.11000 182.768
49.12000 182.929
49.13000 184.832
49.14000 186.079
49.15000 185.245
49.16000 183.054
49.17000 180.949
49.18000 181.012
49.19000 182.017
49.20000 182.961
49.21000 179.025
49.22000 174.140
49.23000 169.959
49.24000 170.607
49.25000 172.172
49.26000 174.274
49.27000 178.715
49.28000 183.428
49.29000 186.982
49.30000 179.021
49.31000 172.221
49.32000 168.747
49.33000 171.708
49.34000 174.833
49.35000 178.381
49.36000 182.471
49.37000 186.556
49.38000 185.873
49.39000 181.325
49.40000 176.869
49.41000 176.424
49.42000 178.128
49.43000 179.703
49.44000 179.096
49.45000 177.706
49.46000 176.429
49.47000 176.775
49.48000 177.429
49.49000 177.914
49.50000 177.469
49.51000 176.884
49.52000 175.589
49.53000 171.767
49.54000 167.721
49.55000 164.835
49.56000 166.955
49.57000 168.735
49.58000 170.036
49.59000 170.574
49.60000 171.103
49.61000 173.672
49.62000 178.348
49.63000 182.997
49.64000 183.304
49.65000 180.765
49.66000 178.271
49.67000 176.978
49.68000 176.216
49.69000 175.384
49.70000 173.707
49.71000 171.778
49.72000 170.055
49.73000 171.146
49.74000 172.572
49.75000 173.456
49.76000 171.931
49.77000 170.119
49.78000 169.935
49.79000 174.538
49.80000 179.452
49.81000 182.741
49.82000 178.705
49.83000 175.566
49.84000 173.777
49.85000 173.750
49.86000 173.725
49.87000 171.369
49.88000 167.076
49.89000 162.842
49.90000 163.042
49.91000 165.591
49.92000 168.130
49.93000 170.503
49.94000 172.815
49.95000 174.618
49.96000 171.701
49.97000 167.636
49.98000 164.115
49.99000 166.947
50.00000 170.197
50.01000 173.078
50.02000 174.621
50.03000 176.040
50.04000 176.849
50.05000 176.171
50.06000 175.427
50.07000 174.963
50.08000 174.171
50.09000 173.597
50.10000 172.959
50.11000 172.254
50.12000 171.568
50.13000 172.966
50.14000 175.774
50.15000 178.513
50.16000 180.031
50.17000 180.955
50.18000 181.622
50.19000 179.050
50.20000 175.498
50.21000 172.288
50.22000 171.532
50.23000 171.261
50.24000 171.035
50.25000 174.007
50.26000 176.800
50.27000 179.178
50.28000 180.316
50.29000 181.370
50.30000 181.634
50.31000 180.309
50.32000 178.940
50.33000 178.156
50.34000 178.129
50.35000 178.111
50.36000 176.697
50.37000 174.100
50.38000 171.549
50.39000 171.278
50.40000 172.276
50.41000 173.236
50.42000 175.594
50.43000 178.292
50.44000 181.223
50.45000 186.366
50.46000 192.057
50.47000 196.659
50.48000 195.025
50.49000 192.400
50.50000 190.295
50.51000 183.412
50.52000 177.476
50.53000 174.219
50.54000 177.592
50.55000 181.273
50.56000 182.344
50.57000 179.093
50.58000 175.776
50.59000 174.055
50.60000 181.943
50.61000 187.228
50.62000 187.452
50.63000 184.182
50.64000 181.135
50.65000 184.477
50.66000 190.756
50.67000 196.687
50.68000 199.723
50.69000 201.690
50.70000 203.227
50.71000 201.579
50.72000 199.289
50.73000 196.343
50.74000 190.361
50.75000 183.998
50.76000 179.128
50.77000 179.955
50.78000 180.919
50.79000 182.632
50.80000 185.879
50.81000 189.172
50.82000 187.733
50.83000 179.875
50.84000 171.985
50.85000 171.610
50.86000 177.729
50.87000 183.853
50.88000 190.258
50.89000 196.821
50.90000 202.887
50.91000 199.550
50.92000 192.640
50.93000 186.251
50.94000 183.879
50.95000 182.663
50.96000 181.993
50.97000 184.521
50.98000 187.570
50.99000 189.504
51.00000 187.224
51.01000 184.537
51.02000 182.588
51.03000 177.744
51.04000 173.913
51.05000 173.695
51.06000 179.577
51.07000 185.557
51.08000 189.798
51.09000 192.126
51.10000 194.443
51.11000 191.438
51.12000 184.756
51.13000 178.185
51.14000 174.964
51.15000 173.312
51.16000 171.885
51.17000 173.479
51.18000 176.020
51.19000 178.310
51.20000 180.016
51.21000 181.407
51.22000 182.441
51.23000 181.785
51.24000 180.913
51.25000 179.501
51.26000 176.409
51.27000 173.196
51.28000 171.004
51.29000 175.734
51.30000 179.432
51.31000 180.264
51.32000 177.127
51.33000 173.967
51.34000 172.793
51.35000 173.375
51.36000 173.950
51.37000 173.938
51.38000 173.595
51.39000 173.313
51.40000 174.238
51.41000 175.631
51.42000 176.355
51.43000 170.385
51.44000 162.686
51.45000 155.952
51.46000 164.131
51.47000 173.261
51.48000 180.195
51.49000 178.663
51.50000 176.293
51.51000 172.966
51.52000 167.186
51.53000 161.282
51.54000 157.525
51.55000 163.551
51.56000 168.053
51.57000 169.757
51.58000 168.315
51.59000 166.879
51.60000 166.691
51.61000 167.400
51.62000 168.093
51.63000 169.460
51.64000 171.082
51.65000 172.414
51.66000 169.735
51.67000 165.772
51.68000 162.236
51.69000 162.004
51.70000 162.467
51.71000 162.859
51.72000 162.258
51.73000 161.645
51.74000 160.952
51.75000 160.000
51.76000 159.029
51.77000 159.524
51.78000 163.133
51.79000 166.843
51.80000 169.022
51.81000 170.362
51.82000 171.302
51.83000 170.968
51.84000 169.482
51.85000 167.998
51.86000 166.548
51.87000 165.120
51.88000 163.739
51.89000 160.503
51.90000 156.761
51.91000 153.180
51.92000 151.257
51.93000 149.770
51.94000 149.283
51.95000 154.912
51.96000 161.581
51.97000 166.998
51.98000 167.308
51.99000 167.138
52.00000 166.528
52.01000 164.769
52.02000 162.950
52.03000 161.476
52.04000 160.606
52.05000 159.747
52.06000 159.288
52.07000 162.906
52.08000 165.354
52.09000 163.845
52.10000 159.437
52.11000 155.110
52.12000 153.461
52.13000 153.113
52.14000 152.784
52.15000 155.438
52.16000 158.788
52.17000 161.758
52.18000 161.716
52.19000 161.026
52.20000 159.654
52.21000 154.926
52.22000 149.745
52.23000 145.722
52.24000 154.751
52.25000 162.721
52.26000 169.215
52.27000 172.512
52.28000 175.699
52.29000 175.636
52.30000 170.889
52.31000 166.106
52.32000 164.242
52.33000 165.070
52.34000 165.850
52.35000 163.592
52.36000 159.507
52.37000 155.589
52.38000 155.199
52.39000 156.227
52.40000 157.184
52.41000 156.543
52.42000 155.576
52.43000 155.382
52.44000 160.023
52.45000 165.503
52.46000 168.994
52.47000 164.512
52.48000 159.197
52.49000 155.277
52.50000 161.357
52.51000 166.487
52.52000 169.791
52.53000 169.832
52.54000 169.808
52.55000 170.196
52.56000 171.066
52.57000 171.934
52.58000 169.527
52.59000 164.705
52.60000 160.011
52.61000 159.768
52.62000 161.729
52.63000 163.663
52.64000 165.199
52.65000 166.602
52.66000 167.877
52.67000 161.651
52.68000 154.698
52.69000 148.510
52.70000 146.162
52.71000 144.345
52.72000 143.145
52.73000 143.978
52.74000 144.971
52.75000 145.661
52.76000 148.851
52.77000 151.324
52.78000 151.526
52.79000 148.390
52.80000 145.226
52.81000 145.757
52.82000 149.770
52.83000 153.748
52.84000 157.851
52.85000 161.951
52.86000 165.788
52.87000 163.847
52.88000 159.539
52.89000 155.736
52.90000 157.426
52.91000 160.619
52.92000 163.437
52.93000 161.408
52.94000 158.915
52.95000 157.471
52.96000 160.316
52.97000 163.620
52.98000 163.998
52.99000 156.426
53.00000 148.407
53.01000 143.192
53.02000 148.422
53.03000 152.416
53.04000 155.664
53.05000 158.019
53.06000 160.361
53.07000 160.139
53.08000 157.963
53.09000 155.826
53.10000 157.610
53.11000 161.245
53.12000 164.598
53.13000 163.657
53.14000 161.263
53.15000 159.133
53.16000 159.205
53.17000 159.769
53.18000 160.252
53.19000 159.899
53.20000 159.503
53.21000 159.251
53.22000 159.486
53.23000 159.761
53.24000 158.596
53.25000 154.199
53.26000 149.681
53.27000 146.961
53.28000 154.953
53.29000 160.712
53.30000 164.693
53.31000 166.962
53.32000 169.173
53.33000 167.028
53.34000 162.164
53.35000 157.446
53.36000 157.876
53.37000 160.321
53.38000 162.831
53.39000 166.069
53.40000 169.511
53.41000 172.256
53.42000 170.444
53.43000 167.806
53.44000 165.637
53.45000 171.416
53.46000 176.885
53.47000 179.553
53.48000 174.470
53.49000 168.935
53.50000 165.051
53.51000 164.230
53.52000 163.478
53.53000 163.064
53.54000 166.493
53.55000 168.848
53.56000 167.718
53.57000 163.875
53.58000 160.118
53.59000 159.651
53.60000 160.877
53.61000 162.048
53.62000 163.699
53.63000 165.386
53.64000 166.593
53.65000 163.693
53.66000 159.855
53.67000 157.514
53.68000 163.013
53.69000 169.647
53.70000 174.870
53.71000 167.103
53.72000 160.014
53.73000 156.155
53.74000 159.692
53.75000 163.519
53.76000 164.130
53.77000 159.829
53.78000 155.475
53.79000 153.975
53.80000 155.284
53.81000 156.607
53.82000 159.094
53.83000 162.323
53.84000 165.364
53.85000 163.945
53.86000 160.630
53.87000 157.525
53.88000 155.474
53.89000 153.881
53.90000 152.807
53.91000 155.201
53.92000 158.238
53.93000 160.403
53.94000 158.861
53.95000 156.902
53.96000 155.433
53.97000 151.406
53.98000 148.141
53.99000 146.004
54.00000 146.000
54.01000 146.048
54.02000 148.758
54.03000 154.789
54.04000 160.820
54.05000 160.495
54.06000 155.148
54.07000 149.965
54.08000 151.512
54.09000 156.584
54.10000 161.332
54.11000 160.779
54.12000 158.363
54.13000 156.153
54.14000 155.311
54.15000 154.846
54.16000 154.822
54.17000 157.154
54.18000 159.835
54.19000 161.754
54.20000 161.017
54.21000 160.053
54.22000 159.370
54.23000 162.386
54.24000 164.793
54.25000 163.985
54.26000 158.170
54.27000 152.296
54.28000 151.121
54.29000 154.672
54.30000 158.199
54.31000 157.953
54.32000 155.299
54.33000 152.771
54.34000 153.362
54.35000 155.304
54.36000 156.820
54.37000 153.281
54.38000 148.279
54.39000 143.823
54.40000 151.584
54.41000 160.335
54.42000 166.849
54.43000 163.659
54.44000 159.345
54.45000 156.090
54.46000 155.882
54.47000 155.864
54.48000 155.852
54.49000 156.916
54.50000 157.723
54.51000 156.135
54.52000 151.501
54.53000 146.867
54.54000 146.637
54.55000 149.976
54.56000 153.266
54.57000 157.283
54.58000 161.557
54.59000 165.398
54.60000 161.927
54.61000 155.836
54.62000 150.540
54.63000 152.369
54.64000 155.891
54.65000 158.930
54.66000 157.338
54.67000 155.393
54.68000 154.030
54.69000 154.734
54.70000 155.620
54.71000 157.296
54.72000 160.848
54.73000 164.481
54.74000 166.721
54.75000 158.437
54.76000 152.395
54.77000 149.604
54.78000 150.154
54.79000 150.693
54.80000 150.110
54.81000 148.783
54.82000 147.491
54.83000 153.594
54.84000 162.524
54.85000 170.756
54.86000 170.480
54.87000 167.691
54.88000 164.907
54.89000 162.159
54.90000 159.417
54.91000 157.137
54.92000 162.398
54.93000 167.496
54.94000 170.136
54.95000 165.585
54.96000 160.570
54.97000 156.574
54.98000 154.580
54.99000 152.639
55.00000 151.540
55.01000 158.528
55.02000 163.400
55.03000 163.064
55.04000 158.418
55.05000 153.887
55.06000 154.701
55.07000 158.423
55.08000 161.995
55.09000 164.769
55.10000 167.091
55.11000 169.050
55.12000 167.674
55.13000 165.488
55.14000 164.361
55.15000 169.138
55.16000 174.828
55.17000 179.369
55.18000 173.963
55.19000 168.869
55.20000 164.936
55.21000 163.811
55.22000 162.812
55.23000 162.603
55.24000 163.673
55.25000 164.761
55.26000 165.319
55.27000 168.278
55.28000 170.245
55.29000 169.890
55.30000 167.969
55.31000 166.167
55.32000 167.630
55.33000 170.560
55.34000 173.321
55.35000 171.216
55.36000 167.948
55.37000 165.336
55.38000 167.427
55.39000 170.446
55.40000 174.186
55.41000 181.182
55.42000 188.575
55.43000 194.200
55.44000 192.667
55.45000 191.084
55.46000 192.519
55.47000 199.993
55.48000 207.635
55.49000 211.232
55.50000 209.470
55.51000 207.684
55.52000 210.024
55.53000 215.834
55.54000 221.604
55.55000 225.393
55.56000 228.083
55.57000 231.098
55.58000 239.988
55.59000 251.062
55.60000 261.270
55.61000 269.028
55.62000 275.431
55.63000 282.981
55.64000 297.070
55.65000 312.194
55.66000 327.945
55.67000 346.011
55.68000 364.292
55.69000 377.467
55.70000 386.212
55.71000 392.755
55.72000 403.390
55.73000 420.779
55.74000 438.267
55.75000 460.949
55.76000 489.208
55.77000 517.328
55.78000 536.579
55.79000 549.578
55.80000 562.866
55.81000 584.416
55.82000 609.750
55.83000 634.812
55.84000 656.343
55.85000 676.789
55.86000 695.153
55.87000 728.403
55.88000 760.118
55.89000 789.093
55.90000 805.439
55.91000 820.210
55.92000 832.571
55.93000 837.609
55.94000 842.141
55.95000 845.211
55.96000 860.513
55.97000 872.185
55.98000 877.540
55.99000 874.353
56.00000 871.124
56.01000 871.549
56.02000 875.128
56.03000 878.662
56.04000 869.096
56.05000 852.550
56.06000 836.135
56.07000 822.185
56.08000 809.169
56.09000 794.837
56.10000 767.739
56.11000 737.423
56.12000 711.007
56.13000 704.523
56.14000 701.740
56.15000 694.479
56.16000 670.364
56.17000 644.632
56.18000 619.751
56.19000 597.009
56.20000 574.369
56.21000 560.087
56.22000 530.072
56.23000 508.154
56.24000 485.787
56.25000 462.927
56.26000 440.050
56.27000 414.960
56.28000 388.318
56.29000 362.269
56.30000 348.688
56.31000 341.244
56.32000 333.864
56.33000 327.324
56.34000 321.046
56.35000 314.033
56.36000 301.491
56.37000 287.814
56.38000 276.306
56.39000 268.548
56.40000 262.478
56.41000 255.912
56.42000 247.809
56.43000 239.596
56.44000 232.364
56.45000 227.172
56.46000 222.043
56.47000 219.061
56.48000 212.447
56.49000 207.790
56.50000 206.112
56.51000 207.058
56.52000 207.905
56.53000 203.224
56.54000 195.359
56.55000 187.775
56.56000 179.221
56.57000 170.824
56.58000 163.135
56.59000 162.509
56.60000 163.699
56.61000 165.354
56.62000 169.779
56.63000 174.662
56.64000 178.609
56.65000 176.938
56.66000 175.128
56.67000 173.805
56.68000 173.726
56.69000 173.710
56.70000 172.262
56.71000 168.360
56.72000 164.415
56.73000 162.331
56.74000 166.517
56.75000 169.352
56.76000 170.331
56.77000 169.982
56.78000 169.558
56.79000 166.768
56.80000 162.853
56.81000 159.143
56.82000 155.738
56.83000 152.692
56.84000 150.115
56.85000 151.155
56.86000 152.954
56.87000 154.836
56.88000 157.114
56.89000 159.445
56.90000 161.245
56.91000 158.434
56.92000 155.938
56.93000 153.558
56.94000 151.424
56.95000 149.298
56.96000 150.126
56.97000 155.113
56.98000 160.126
56.99000 159.102
57.00000 152.654
57.01000 146.323
57.02000 147.005
57.03000 151.803
57.04000 156.331
57.05000 155.375
57.06000 152.263
57.07000 149.374
57.08000 152.583
57.09000 156.915
57.10000 160.055
57.11000 155.935
57.12000 150.586
57.13000 146.098
57.14000 144.977
57.15000 144.196
57.16000 143.625
57.17000 144.913
57.18000 145.983
57.19000 146.195
57.20000 144.910
57.21000 143.598
57.22000 143.732
57.23000 145.522
57.24000 147.308
57.25000 146.947
57.26000 145.035
57.27000 143.268
57.28000 146.260
57.29000 151.556
57.30000 156.614
57.31000 158.292
57.32000 158.872
57.33000 159.397
57.34000 158.996
57.35000 158.468
57.36000 157.805
57.37000 156.478
57.38000 155.061
57.39000 154.604
57.40000 157.232
57.41000 160.093
57.42000 162.068
57.43000 155.524
57.44000 150.388
57.45000 146.689
57.46000 145.054
57.47000 143.436
57.48000 143.317
57.49000 144.575
57.50000 145.822
57.51000 145.980
57.52000 145.497
57.53000 144.972
57.54000 143.546
57.55000 141.759
57.56000 140.435
57.57000 143.989
57.58000 148.847
57.59000 153.120
57.60000 151.168
57.61000 148.562
57.62000 146.314
57.63000 145.492
57.64000 144.819
57.65000 142.955
57.66000 137.928
57.67000 132.731
57.68000 129.380
57.69000 137.424
57.70000 143.463
57.71000 144.553
57.72000 139.864
57.73000 135.190
57.74000 134.860
57.75000 137.766
57.76000 140.617
57.77000 142.534
57.78000 143.937
57.79000 145.391
57.80000 147.607
57.81000 150.075
57.82000 152.189
57.83000 151.448
57.84000 150.084
57.85000 148.924
57.86000 147.799
57.87000 146.859
57.88000 146.242
57.89000 146.688
57.90000 147.217
57.91000 146.970
57.92000 145.016
57.93000 143.000
57.94000 141.799
57.95000 143.653
57.96000 144.985
57.97000 142.105
57.98000 135.270
57.99000 128.543
58.00000 129.207
58.01000 134.380
58.02000 139.391
58.03000 140.171
58.04000 139.276
58.05000 138.801
58.06000 142.870
58.07000 148.176
58.08000 152.541
58.09000 150.910
58.10000 148.219
58.11000 146.018
58.12000 144.653
58.13000 143.607
58.14000 141.780
58.15000 137.837
58.16000 133.775
58.17000 132.623
58.18000 136.751
58.19000 140.988
58.20000 143.294
58.21000 144.611
58.22000 145.510
58.23000 145.810
58.24000 145.655
58.25000 145.436
58.26000 142.884
58.27000 139.158
58.28000 135.607
58.29000 132.958
58.30000 130.783
58.31000 128.972
58.32000 130.171
58.33000 132.042
58.34000 133.516
58.35000 132.968
58.36000 132.135
58.37000 131.483
58.38000 130.421
58.39000 129.545
58.40000 131.124
58.41000 138.199
58.42000 145.479
58.43000 148.679
58.44000 145.793
58.45000 142.848
58.46000 142.449
58.47000 144.491
58.48000 146.477
58.49000 144.258
58.50000 139.424
58.51000 134.710
58.52000 132.740
58.53000 131.911
58.54000 131.136
58.55000 131.729
58.56000 132.612
58.57000 133.783
58.58000 136.831
58.59000 140.218
58.60000 141.714
58.61000 135.359
58.62000 128.144
58.63000 122.771
58.64000 129.127
58.65000 134.604
58.66000 139.718
58.67000 144.165
58.68000 148.597
58.69000 147.027
58.70000 138.151
58.71000 129.279
58.72000 126.284
58.73000 127.837
58.74000 129.361
58.75000 129.772
58.76000 129.613
58.77000 129.578
58.78000 131.505
58.79000 134.106
58.80000 136.479
58.81000 132.018
58.82000 126.684
58.83000 122.860
58.84000 126.921
58.85000 132.117
58.86000 136.689
58.87000 139.138
58.88000 141.411
58.89000 143.010
58.90000 140.944
58.91000 139.271
58.92000 137.792
58.93000 136.610
58.94000 135.431
58.95000 134.733
58.96000 134.508
58.97000 134.284
58.98000 134.909
58.99000 136.053
59.00000 137.058
59.01000 134.745
59.02000 131.026
59.03000 127.741
59.04000 129.423
59.05000 132.512
59.06000 135.254
59.07000 135.204
59.08000 134.715
59.09000 134.745
59.10000 136.970
59.11000 139.442
59.12000 140.063
59.13000 135.481
59.14000 130.587
59.15000 127.364
59.16000 133.905
59.17000 138.891
59.18000 141.558
59.19000 141.343
59.20000 141.114
59.21000 139.383
59.22000 136.463
59.23000 133.589
59.24000 133.606
59.25000 135.084
59.26000 136.532
59.27000 137.507
59.28000 138.316
59.29000 139.247
59.30000 141.241
59.31000 143.480
59.32000 145.405
59.33000 143.844
59.34000 142.089
59.35000 140.803
59.36000 141.148
59.37000 141.632
59.38000 141.738
59.39000 140.965
59.40000 140.158
59.41000 139.664
59.42000 137.637
59.43000 136.175
59.44000 135.516
59.45000 135.661
59.46000 135.797
59.47000 135.125
59.48000 133.932
59.49000 132.772
59.50000 131.393
59.51000 129.991
59.52000 128.672
59.53000 128.335
59.54000 128.281
59.55000 127.799
59.56000 124.404
59.57000 120.461
59.58000 117.195
59.59000 119.304
59.60000 121.555
59.61000 124.356
59.62000 128.727
59.63000 133.197
59.64000 137.548
59.65000 141.674
59.66000 145.794
59.67000 148.100
59.68000 138.580
59.69000 131.969
59.70000 130.481
59.71000 133.129
59.72000 135.688
59.73000 134.416
59.74000 131.106
59.75000 127.935
59.76000 126.911
59.77000 126.671
59.78000 126.764
59.79000 129.828
59.80000 133.596
59.81000 136.364
59.82000 133.691
59.83000 130.198
59.84000 127.425
59.85000 132.265
59.86000 136.698
59.87000 139.565
59.88000 138.727
59.89000 137.732
59.90000 136.983
59.91000 136.623
59.92000 136.268
59.93000 136.088
59.94000 129.710
59.95000 125.468
59.96000 123.825
59.97000 123.893
59.98000 124.117
59.99000 128.360
60.00000 134.370
60.01000 140.020
60.02000 137.902
60.03000 133.880
60.04000 130.470
60.05000 131.335
60.06000 133.022
60.07000 133.968
60.08000 131.651
60.09000 128.949
60.10000 126.904
60.11000 131.990
60.12000 136.338
60.13000 138.754
60.14000 137.390
60.15000 135.927
60.16000 133.911
60.17000 131.179
60.18000 128.447
60.19000 126.272
60.20000 124.561
60.21000 122.939
60.22000 125.398
60.23000 130.069
60.24000 134.600
60.25000 136.710
60.26000 137.938
60.27000 139.068
60.28000 139.663
60.29000 140.078
60.30000 139.857
60.31000 136.091
60.32000 131.780
60.33000 128.379
60.34000 128.267
60.35000 128.452
60.36000 128.584
60.37000 133.081
60.38000 136.663
60.39000 138.235
60.40000 136.566
60.41000 134.853
60.42000 132.229
60.43000 128.653
60.44000 125.096
60.45000 124.998
60.46000 127.195
60.47000 129.298
60.48000 128.837
60.49000 127.228
60.50000 125.834
60.51000 127.116
60.52000 129.201
60.53000 131.067
60.54000 129.914
60.55000 128.391
60.56000 127.079
60.57000 126.718
60.58000 126.472
60.59000 126.073
60.60000 125.219
60.61000 124.334
60.62000 123.739
60.63000 125.520
60.64000 126.892
60.65000 128.131
60.66000 129.192
60.67000 130.253
60.68000 131.477
60.69000 132.839
60.70000 134.184
60.71000 134.610
60.72000 134.533
60.73000 134.402
60.74000 133.333
60.75000 131.915
60.76000 130.696
60.77000 131.338
60.78000 132.440
60.79000 133.396
60.80000 132.486
60.81000 131.460
60.82000 130.591
60.83000 130.301
60.84000 130.065
60.85000 130.967
60.86000 134.666
60.87000 138.494
60.88000 140.887
60.89000 137.957
60.90000 135.786
60.91000 132.048
60.92000 126.632
60.93000 121.264
60.94000 121.439
60.95000 125.414
60.96000 129.294
60.97000 133.458
60.98000 137.565
60.99000 141.565
61.00000 144.185
61.01000 146.384
61.02000 148.039
61.03000 145.715
61.04000 142.593
61.05000 139.979
61.06000 135.727
61.07000 132.023
61.08000 129.383
61.09000 129.969
61.10000 130.776
61.11000 131.927
61.12000 133.780
61.13000 135.653
61.14000 136.731
61.15000 137.646
61.16000 138.284
61.17000 137.843
61.18000 136.473
61.19000 135.130
61.20000 135.145
61.21000 135.924
61.22000 136.674
61.23000 136.992
61.24000 137.136
61.25000 137.172
61.26000 136.160
61.27000 134.884
61.28000 133.915
61.29000 134.727
61.30000 135.825
61.31000 136.709
61.32000 136.174
61.33000 135.629
61.34000 134.422
61.35000 131.553
61.36000 128.605
61.37000 129.299
61.38000 136.094
61.39000 142.986
61.40000 146.584
61.41000 142.128
61.42000 139.143
61.43000 140.228
61.44000 144.158
61.45000 147.975
61.46000 148.440
61.47000 147.346
61.48000 146.312
61.49000 150.251
61.50000 155.296
61.51000 159.812
61.52000 160.380
61.53000 160.140
61.54000 162.506
61.55000 177.081
61.56000 193.209
61.57000 205.591
61.58000 211.769
61.59000 216.305
61.60000 223.243
61.61000 235.150
61.62000 247.209
61.63000 254.136
61.64000 254.012
61.65000 253.845
61.66000 254.666
61.67000 256.352
61.68000 257.933
61.69000 253.744
61.70000 246.243
61.71000 239.392
61.72000 245.110
61.73000 255.661
61.74000 265.428
61.75000 260.405
61.76000 252.485
61.77000 244.190
61.78000 233.675
61.79000 222.795
61.80000 211.189
61.81000 196.810
61.82000 182.158
61.83000 171.491
61.84000 170.235
61.85000 169.628
61.86000 167.578
61.87000 163.064
61.88000 158.508
61.89000 155.795
61.90000 155.139
61.91000 154.486
61.92000 152.475
61.93000 149.526
61.94000 146.607
61.95000 144.654
61.96000 143.158
61.97000 141.553
61.98000 138.450
61.99000 134.872
62.00000 131.643
62.01000 132.708
62.02000 134.433
62.03000 135.782
62.04000 135.334
62.05000 134.651
62.06000 135.430
62.07000 140.805
62.08000 146.516
62.09000 150.430
62.10000 146.468
62.11000 143.310
62.12000 142.344
62.13000 144.451
62.14000 146.575
62.15000 144.926
62.16000 139.898
62.17000 134.922
62.18000 135.101
62.19000 138.224
62.20000 140.996
62.21000 136.707
62.22000 129.651
62.23000 123.675
62.24000 128.699
62.25000 136.598
62.26000 143.519
62.27000 141.376
62.28000 138.226
62.29000 135.830
62.30000 136.368
62.31000 137.203
62.32000 138.592
62.33000 141.423
62.34000 144.328
62.35000 146.186
62.36000 147.288
62.37000 148.081
62.38000 146.887
62.39000 143.430
62.40000 139.985
62.41000 138.793
62.42000 139.241
62.43000 139.679
62.44000 141.517
62.45000 143.934
62.46000 146.083
62.47000 144.438
62.48000 141.564
62.49000 139.059
62.50000 139.451
62.51000 140.460
62.52000 141.316
62.53000 137.408
62.54000 133.603
62.55000 130.796
62.56000 131.190
62.57000 131.824
62.58000 133.475
62.59000 137.314
62.60000 141.226
62.61000 143.536
62.62000 145.098
62.63000 146.196
62.64000 144.819
62.65000 141.177
62.66000 137.617
62.67000 139.202
62.68000 143.857
62.69000 148.357
62.70000 149.049
62.71000 148.267
62.72000 147.344
62.73000 144.951
62.74000 142.167
62.75000 139.944
62.76000 141.197
62.77000 143.049
62.78000 144.557
62.79000 143.222
62.80000 141.890
62.81000 140.510
62.82000 139.003
62.83000 137.490
62.84000 138.403
62.85000 143.621
62.86000 148.923
62.87000 151.775
62.88000 146.043
62.89000 142.122
62.90000 139.099
62.91000 136.742
62.92000 134.495
62.93000 136.010
62.94000 139.376
62.95000 142.576
62.96000 144.959
62.97000 146.913
62.98000 148.279
62.99000 144.914
63.00000 140.519
63.01000 137.060
63.02000 138.267
63.03000 140.111
63.04000 141.547
63.05000 140.317
63.06000 139.173
63.07000 137.961
63.08000 136.602
63.09000 135.238
63.10000 133.910
63.11000 132.633
63.12000 131.356
63.13000 132.647
63.14000 136.337
63.15000 139.941
63.16000 137.683
63.17000 131.863
63.18000 126.460
63.19000 130.135
63.20000 137.501
63.21000 144.366
63.22000 146.377
63.23000 147.005
63.24000 147.263
63.25000 145.179
63.26000 142.683
63.27000 140.620
63.28000 140.317
63.29000 140.200
63.30000 140.114
63.31000 143.579
63.32000 146.421
63.33000 147.710
63.34000 146.191
63.35000 144.615
63.36000 144.995
63.37000 147.699
63.38000 150.399
63.39000 150.546
63.40000 148.772
63.41000 147.019
63.42000 146.037
63.43000 145.440
63.44000 144.854
63.45000 144.433
63.46000 144.068
63.47000 143.735
63.48000 147.374
63.49000 151.372
63.50000 154.515
63.51000 153.303
63.52000 151.480
63.53000 150.721
63.54000 153.504
63.55000 156.569
63.56000 158.710
63.57000 160.059
63.58000 161.056
63.59000 162.013
63.60000 162.911
63.61000 163.808
63.62000 161.439
63.63000 155.952
63.64000 150.510
63.65000 148.463
63.66000 148.519
63.67000 148.606
63.68000 149.412
63.69000 150.516
63.70000 151.059
63.71000 145.397
63.72000 138.016
63.73000 131.488
63.74000 135.935
63.75000 141.482
63.76000 146.771
63.77000 150.990
63.78000 155.093
63.79000 156.896
63.80000 152.379
63.81000 147.498
63.82000 144.310
63.83000 144.711
63.84000 145.063
63.85000 144.278
63.86000 142.112
63.87000 139.965
63.88000 143.138
63.89000 150.420
63.90000 157.578
63.91000 159.342
63.92000 158.385
63.93000 157.417
63.94000 156.289
63.95000 155.106
63.96000 153.905
63.97000 152.546
63.98000 151.152
63.99000 149.959
64.00000 155.348
64.01000 160.689
64.02000 163.666
64.03000 158.617
64.04000 152.907
64.05000 149.513
64.06000 151.381
64.07000 153.452
64.08000 154.705
64.09000 155.344
64.10000 155.794
64.11000 157.223
64.12000 159.607
64.13000 161.934
64.14000 159.737
64.15000 154.682
64.16000 149.774
64.17000 150.677
64.18000 153.863
64.19000 156.764
64.20000 156.438
64.21000 155.200
64.22000 154.302
64.23000 155.663
64.24000 157.439
64.25000 158.902
64.26000 158.620
64.27000 158.228
64.28000 157.688
64.29000 156.733
64.30000 155.753
64.31000 155.568
64.32000 156.875
64.33000 158.216
64.34000 158.959
64.35000 162.134
64.36000 164.317
64.37000 162.583
64.38000 157.762
64.39000 153.096
64.40000 154.687
64.41000 159.532
64.42000 164.165
64.43000 167.388
64.44000 169.930
64.45000 171.773
64.46000 167.571
64.47000 161.970
64.48000 157.160
64.49000 156.542
64.50000 156.539
64.51000 156.536
64.52000 161.488
64.53000 165.799
64.54000 168.892
64.55000 169.168
64.56000 169.329
64.57000 168.496
64.58000 166.126
64.59000 163.738
64.60000 161.799
64.61000 160.309
64.62000 158.879
64.63000 162.704
64.64000 169.913
64.65000 176.763
64.66000 174.796
64.67000 169.036
64.68000 163.635
64.69000 165.409
64.70000 168.906
64.71000 171.742
64.72000 170.086
64.73000 167.588
64.74000 165.359
64.75000 164.287
64.76000 163.347
64.77000 162.641
64.78000 161.478
64.79000 160.546
64.80000 160.370
64.81000 161.642
64.82000 162.949
64.83000 165.248
64.84000 168.800
64.85000 172.351
64.86000 174.299
64.87000 174.955
64.88000 175.585
64.89000 175.096
64.90000 174.013
64.91000 173.082
64.92000 174.675
64.93000 177.166
64.94000 179.449
64.95000 181.096
64.96000 182.429
64.97000 183.193
64.98000 180.866
64.99000 178.076
65.00000 176.079
65.01000 176.883
65.02000 177.932
65.03000 178.677
65.04000 179.463
65.05000 180.063
65.06000 181.074
65.07000 182.734
65.08000 184.402
65.09000 186.812
65.10000 189.977
65.11000 193.123
65.12000 194.089
65.13000 193.632
65.14000 193.508
65.15000 201.936
65.16000 214.110
65.17000 225.308
65.18000 224.737
65.19000 220.714
65.20000 217.124
65.21000 213.041
65.22000 209.406
65.23000 206.176
65.24000 204.727
65.25000 203.487
65.26000 204.946
65.27000 214.248
65.28000 224.049
65.29000 230.585
65.30000 229.194
65.31000 228.012
65.32000 225.176
65.33000 220.208
65.34000 215.244
65.35000 215.253
65.36000 219.345
65.37000 223.378
65.38000 229.825
65.39000 237.353
65.40000 244.670
65.41000 248.347
65.42000 250.707
65.43000 253.316
65.44000 258.201
65.45000 263.635
65.46000 268.332
65.47000 267.319
65.48000 265.713
65.49000 264.669
65.50000 265.646
65.51000 266.805
65.52000 271.038
65.53000 282.659
65.54000 294.604
65.55000 302.004
65.56000 297.299
65.57000 293.800
65.58000 298.003
65.59000 310.231
65.60000 322.389
65.61000 327.210
65.62000 327.117
65.63000 327.027
65.64000 336.945
65.65000 350.677
65.66000 364.537
65.67000 379.978
65.68000 395.892
65.69000 413.753
65.70000 445.452
65.71000 479.857
65.72000 508.550
65.73000 563.041
65.74000 610.800
65.75000 662.143
65.76000 724.104
65.77000 786.763
65.78000 835.539
65.79000 856.728
65.80000 877.163
65.81000 888.794
65.82000 934.204
65.83000 965.945
65.84000 989.564
65.85000 1006.377
65.86000 1022.970
65.87000 1029.042
65.88000 1029.321
65.89000 1029.589
65.90000 1019.008
65.91000 1005.353
65.92000 990.355
65.93000 962.794
65.94000 932.150
65.95000 896.953
65.96000 836.001
65.97000 771.007
65.98000 719.001
65.99000 646.716
66.00000 586.753
66.01000 532.665
66.02000 492.963
66.03000 453.916
66.04000 416.866
66.05000 383.086
66.06000 349.354
66.07000 331.958
66.08000 332.368
66.09000 332.597
66.10000 327.004
66.11000 317.437
66.12000 308.033
66.13000 303.195
66.14000 300.433
66.15000 297.827
66.16000 293.809
66.17000 289.732
66.18000 285.804
66.19000 282.968
66.20000 280.350
66.21000 280.082
66.22000 290.563
66.23000 302.373
66.24000 311.387
66.25000 302.063
66.26000 293.732
66.27000 294.912
66.28000 315.346
66.29000 336.335
66.30000 349.665
66.31000 352.718
66.32000 355.716
66.33000 364.439
66.34000 378.031
66.35000 391.589
66.36000 403.388
66.37000 414.201
66.38000 424.574
66.39000 426.815
66.40000 425.997
66.41000 425.241
66.42000 429.984
66.43000 435.471
66.44000 439.129
66.45000 432.220
66.46000 423.615
66.47000 415.967
66.48000 411.893
66.49000 408.158
66.50000 405.457
66.51000 398.439
66.52000 392.897
66.53000 383.710
66.54000 368.438
66.55000 353.072
66.56000 340.012
66.57000 329.459
66.58000 318.956
66.59000 314.216
66.60000 313.497
66.61000 312.781
66.62000 312.173
66.63000 311.614
66.64000 311.137
66.65000 311.730
66.66000 312.656
66.67000 313.489
66.68000 306.855
66.69000 299.709
66.70000 294.113
66.71000 295.752
66.72000 298.309
66.73000 301.161
66.74000 304.921
66.75000 308.746
66.76000 311.347
66.77000 302.773
66.78000 296.118
66.79000 297.013
66.80000 308.242
66.81000 319.522
66.82000 321.446
66.83000 315.195
66.84000 309.017
66.85000 305.703
66.86000 304.068
66.87000 302.968
66.88000 312.166
66.89000 325.310
66.90000 336.792
66.91000 331.883
66.92000 322.790
66.93000 314.851
66.94000 317.623
66.95000 321.498
66.96000 324.386
66.97000 323.510
66.98000 322.266
66.99000 322.186
67.00000 325.063
67.01000 328.086
67.02000 330.001
67.03000 323.566
67.04000 318.796
67.05000 314.441
67.06000 310.547
67.07000 306.725
67.08000 313.079
67.09000 326.660
67.10000 339.948
67.11000 344.087
67.12000 343.915
67.13000 343.467
67.14000 339.250
67.15000 333.842
67.16000 329.485
67.17000 333.157
67.18000 338.499
67.19000 343.004
67.20000 352.917
67.21000 361.783
67.22000 367.991
67.23000 365.871
67.24000 363.146
67.25000 359.197
67.26000 352.675
67.27000 346.070
67.28000 342.211
67.29000 358.664
67.30000 370.328
67.31000 372.959
67.32000 367.530
67.33000 362.252
67.34000 365.813
67.35000 374.525
67.36000 382.934
67.37000 384.072
67.38000 382.471
67.39000 381.235
67.40000 383.704
67.41000 387.137
67.42000 389.591
67.43000 386.132
67.44000 381.682
67.45000 378.075
67.46000 387.650
67.47000 396.526
67.48000 402.952
67.49000 403.038
67.50000 402.798
67.51000 402.249
67.52000 401.163
67.53000 400.067
67.54000 399.484
67.55000 403.847
67.56000 406.810
67.57000 408.192
67.58000 408.427
67.59000 408.831
67.60000 414.638
67.61000 423.044
67.62000 431.021
67.63000 437.274
67.64000 442.528
67.65000 447.097
67.66000 446.308
67.67000 444.381
67.68000 443.066
67.69000 444.728
67.70000 446.786
67.71000 448.379
67.72000 435.432
67.73000 424.287
67.74000 420.398
67.75000 432.049
67.76000 444.218
67.77000 452.170
67.78000 454.115
67.79000 456.014
67.80000 457.151
67.81000 457.592
67.82000 458.064
67.83000 460.436
67.84000 463.938
67.85000 467.126
67.86000 463.807
67.87000 457.900
67.88000 452.409
67.89000 460.532
67.90000 471.125
67.91000 480.470
67.92000 482.121
67.93000 482.453
67.94000 482.520
67.95000 481.535
67.96000 480.441
67.97000 479.637
67.98000 488.649
67.99000 496.023
68.00000 500.594
68.01000 500.206
68.02000 499.724
68.03000 504.684
68.04000 515.951
68.05000 527.190
68.06000 533.887
68.07000 537.202
68.08000 540.316
68.09000 536.579
68.10000 529.485
68.11000 522.872
68.12000 523.219
68.13000 525.855
68.14000 528.245
68.15000 533.464
68.16000 538.609
68.17000 542.875
68.18000 542.781
68.19000 542.093
68.20000 543.972
68.21000 554.210
68.22000 565.093
68.23000 572.635
68.24000 575.295
68.25000 577.168
68.26000 580.922
68.27000 587.406
68.28000 593.914
68.29000 598.855
68.30000 602.338
68.31000 605.790
68.32000 605.460
68.33000 602.891
68.34000 600.710
68.35000 606.878
68.36000 616.428
68.37000 626.039
68.38000 636.299
68.39000 646.734
68.40000 655.929
68.41000 657.374
68.42000 657.450
68.43000 660.585
68.44000 676.089
68.45000 692.900
68.46000 703.335
68.47000 696.632
68.48000 688.985
68.49000 684.031
68.50000 708.637
68.51000 727.082
68.52000 741.430
68.53000 750.932
68.54000 760.500
68.55000 785.302
68.56000 821.591
68.57000 857.215
68.58000 872.314
68.59000 876.993
68.60000 882.346
68.61000 897.796
68.62000 916.627
68.63000 938.368
68.64000 983.984
68.65000 1034.883
68.66000 1078.268
68.67000 1143.333
68.68000 1200.607
68.69000 1254.748
68.70000 1298.492
68.71000 1341.409
68.72000 1382.865
68.73000 1421.073
68.74000 1459.163
68.75000 1481.986
68.76000 1560.313
68.77000 1616.296
68.78000 1657.703
68.79000 1685.246
68.80000 1713.158
68.81000 1767.831
68.82000 1839.023
68.83000 1908.038
68.84000 2002.733
68.85000 2102.461
68.86000 2208.449
68.87000 2383.328
68.88000 2577.213
68.89000 2797.410
68.90000 3187.451
68.91000 3607.893
68.92000 3952.839
68.93000 5484.739
68.94000 6847.587
68.95000 8587.427
68.96000 11359.599
68.97000 14190.735
68.98000 17477.717
68.99000 21601.758
69.00000 25743.875
69.01000 28011.955
69.02000 34007.016
69.03000 38130.457
69.04000 41261.230
69.05000 43628.352
69.06000 45971.000
69.07000 47391.277
69.08000 48342.273
69.09000 49249.555
69.10000 49633.629
69.11000 49824.383
69.12000 50025.332
69.13000 50312.039
69.14000 50618.105
69.15000 50992.887
69.16000 51723.262
69.17000 52504.363
69.18000 53117.809
69.19000 52456.762
69.20000 51844.324
69.21000 50711.313
69.22000 48399.406
69.23000 46042.359
69.24000 43421.574
69.25000 40402.410
69.26000 37379.285
69.27000 34818.824
69.28000 32708.189
69.29000 30605.559
69.30000 29132.145
69.31000 28054.717
69.32000 26991.408
69.33000 26258.100
69.34000 25663.594
69.35000 25107.428
69.36000 24352.656
69.37000 23616.232
69.38000 22804.996
69.39000 21499.795
69.40000 20104.264
69.41000 18572.918
69.42000 16470.537
69.43000 14304.595
69.44000 12686.286
69.45000 10266.126
69.46000 8342.454
69.47000 6700.290
69.48000 5584.902
69.49000 4481.589
69.50000 3631.380
69.51000 3093.171
69.52000 2556.863
69.53000 2205.744
69.54000 2001.046
69.55000 1797.821
69.56000 1653.217
69.57000 1539.004
69.58000 1427.473
69.59000 1358.856
69.60000 1305.162
69.61000 1256.092
69.62000 1212.025
69.63000 1173.905
69.64000 1135.888
69.65000 1098.410
69.66000 1061.011
69.67000 1025.161
69.68000 994.652
69.69000 964.593
69.70000 943.376
69.71000 911.486
69.72000 886.961
69.73000 868.662
69.74000 859.954
69.75000 851.353
69.76000 835.801
69.77000 813.346
69.78000 791.050
69.79000 774.899
69.80000 762.886
69.81000 751.189
69.82000 747.187
69.83000 746.482
69.84000 745.059
69.85000 735.252
69.86000 723.042
69.87000 712.187
69.88000 701.976
69.89000 693.220
69.90000 684.523
69.91000 676.076
69.92000 667.658
69.93000 657.904
69.94000 644.351
69.95000 630.566
69.96000 621.449
69.97000 633.488
69.98000 642.752
69.99000 642.225
70.00000 629.380
