20.00000 551.860
20.01000 561.972
20.02000 573.529
20.03000 581.480
20.04000 575.497
20.05000 568.128
20.06000 562.748
20.07000 574.189
20.08000 583.665
20.09000 583.712
20.10000 567.490
20.11000 550.984
20.12000 546.079
20.13000 554.259
20.14000 562.419
20.15000 569.163
20.16000 574.833
20.17000 580.279
20.18000 578.563
20.19000 573.421
20.20000 568.398
20.21000 565.050
20.22000 562.239
20.23000 559.698
20.24000 562.193
20.25000 565.323
20.26000 566.649
20.27000 559.256
20.28000 550.713
20.29000 543.718
20.30000 541.643
20.31000 539.933
20.32000 538.757
20.33000 552.092
20.34000 562.453
20.35000 565.142
20.36000 556.964
20.37000 548.713
20.38000 549.048
20.39000 557.159
20.40000 565.189
20.41000 562.017
20.42000 552.440
20.43000 543.393
20.44000 545.207
20.45000 551.319
20.46000 557.789
20.47000 567.968
20.48000 579.126
20.49000 588.919
20.50000 583.010
20.51000 575.636
20.52000 568.565
20.53000 562.689
20.54000 556.935
20.55000 556.771
20.56000 571.273
20.57000 586.546
20.58000 596.347
20.59000 584.430
20.60000 575.446
20.61000 569.214
20.62000 566.152
20.63000 563.098
20.64000 560.854
20.65000 559.206
20.66000 557.590
20.67000 557.934
20.68000 559.184
20.69000 560.352
20.70000 560.356
20.71000 559.979
20.72000 559.405
20.73000 557.260
20.74000 554.776
20.75000 552.669
20.76000 556.508
20.77000 560.402
20.78000 561.374
20.79000 552.888
20.80000 543.679
20.81000 540.361
20.82000 549.824
20.83000 559.730
20.84000 565.602
20.85000 564.877
20.86000 564.326
20.87000 562.024
20.88000 558.100
20.89000 554.294
20.90000 558.223
20.91000 566.810
20.92000 575.120
20.93000 563.062
20.94000 543.915
20.95000 526.545
20.96000 528.058
20.97000 534.652
20.98000 542.120
20.99000 555.074
21.00000 568.982
21.01000 580.334
21.02000 571.177
21.03000 561.927
21.04000 557.639
21.05000 566.612
21.06000 576.309
21.07000 580.313
21.08000 574.115
21.09000 567.715
21.10000 564.253
21.11000 556.465
21.12000 551.168
21.13000 553.829
21.14000 562.455
21.15000 570.756
21.16000 567.600
21.17000 558.754
21.18000 550.334
21.19000 555.609
21.20000 564.715
21.21000 572.586
21.22000 570.383
21.23000 565.966
21.24000 562.300
21.25000 562.424
21.26000 563.073
21.27000 563.580
21.28000 552.222
21.29000 542.419
21.30000 537.699
21.31000 544.221
21.32000 551.148
21.33000 554.261
21.34000 551.754
21.35000 549.197
21.36000 550.714
21.37000 556.082
21.38000 561.454
21.39000 567.122
21.40000 572.972
21.41000 578.479
21.42000 576.365
21.43000 571.123
21.44000 566.233
21.45000 563.482
21.46000 561.523
21.47000 561.376
21.48000 572.851
21.49000 586.394
21.50000 594.736
21.51000 581.759
21.52000 566.487
21.53000 555.153
21.54000 565.896
21.55000 575.213
21.56000 582.085
21.57000 584.492
21.58000 586.804
21.59000 586.631
21.60000 583.476
21.61000 580.323
21.62000 588.310
21.63000 604.717
21.64000 621.046
21.65000 634.495
21.66000 646.487
21.67000 658.436
21.68000 669.735
21.69000 680.814
21.70000 690.905
21.71000 707.581
21.72000 723.660
21.73000 739.002
21.74000 750.553
21.75000 761.566
21.76000 771.783
21.77000 779.319
21.78000 786.637
21.79000 791.762
21.80000 814.304
21.81000 831.849
21.82000 853.268
21.83000 880.505
21.84000 907.800
21.85000 933.601
21.86000 957.961
21.87000 982.128
21.88000 989.419
21.89000 986.208
21.90000 983.497
21.91000 992.362
21.92000 1006.068
21.93000 1018.588
21.94000 1017.786
21.95000 1013.258
21.96000 1009.248
21.97000 1007.145
21.98000 1005.626
21.99000 999.349
22.00000 973.178
22.01000 944.810
22.02000 920.856
22.03000 909.151
22.04000 898.163
22.05000 890.959
22.06000 871.632
22.07000 857.220
22.08000 839.540
22.09000 817.856
22.10000 796.155
22.11000 772.722
22.12000 747.937
22.13000 723.563
22.14000 708.443
22.15000 698.432
22.16000 688.796
22.17000 685.089
22.18000 683.434
22.19000 680.598
22.20000 667.653
22.21000 652.393
22.22000 639.308
22.23000 619.311
22.24000 601.573
22.25000 588.680
22.26000 592.394
22.27000 597.498
22.28000 601.115
22.29000 601.321
22.30000 601.393
22.31000 601.436
22.32000 598.163
22.33000 595.801
22.34000 592.403
22.35000 587.982
22.36000 583.626
22.37000 584.619
22.38000 589.024
22.39000 593.305
22.40000 585.099
22.41000 572.246
22.42000 559.726
22.43000 551.064
22.44000 543.501
22.45000 537.530
22.46000 542.237
22.47000 548.927
22.48000 554.452
22.49000 546.057
22.50000 537.839
22.51000 533.408
22.52000 539.690
22.53000 546.620
22.54000 550.057
22.55000 546.869
22.56000 543.523
22.57000 541.661
22.58000 538.334
22.59000 536.028
22.60000 533.152
22.61000 529.821
22.62000 526.548
22.63000 525.690
22.64000 526.100
22.65000 526.493
22.66000 522.099
22.67000 516.434
22.68000 511.926
22.69000 517.577
22.70000 525.602
22.71000 532.176
22.72000 530.975
22.73000 528.619
22.74000 526.755
22.75000 522.703
22.76000 519.296
22.77000 519.526
22.78000 528.260
22.79000 537.345
22.80000 540.247
22.81000 533.496
22.82000 526.630
22.83000 523.183
22.84000 526.603
22.85000 528.869
22.86000 529.458
22.87000 528.958
22.88000 528.499
22.89000 529.068
22.90000 530.084
22.91000 531.038
22.92000 525.219
22.93000 518.118
22.94000 511.929
22.95000 512.001
22.96000 513.261
22.97000 514.106
22.98000 513.145
22.99000 511.975
23.00000 511.092
23.01000 514.923
23.02000 518.154
23.03000 519.318
23.04000 516.487
23.05000 513.555
23.06000 514.789
23.07000 521.338
23.08000 527.898
23.09000 525.657
23.10000 516.299
23.11000 507.101
23.12000 504.926
23.13000 506.512
23.14000 508.214
23.15000 511.880
23.16000 516.250
23.17000 520.261
23.18000 518.265
23.19000 515.209
23.20000 511.527
23.21000 504.416
23.22000 496.785
23.23000 493.001
23.24000 502.926
23.25000 514.065
23.26000 522.007
23.27000 517.401
23.28000 513.478
23.29000 510.668
23.30000 509.630
23.31000 508.615
23.32000 508.531
23.33000 509.408
23.34000 510.280
23.35000 513.835
23.36000 519.095
23.37000 523.982
23.38000 519.076
23.39000 509.836
23.40000 501.231
23.41000 500.410
23.42000 501.894
23.43000 503.220
23.44000 510.820
23.45000 518.499
23.46000 524.976
23.47000 526.117
23.48000 526.621
23.49000 524.299
23.50000 513.681
23.51000 502.524
23.52000 495.060
23.53000 502.852
23.54000 508.932
23.55000 512.210
23.56000 511.837
23.57000 511.445
23.58000 508.926
23.59000 504.643
23.60000 500.419
23.61000 500.627
23.62000 503.180
23.63000 505.455
23.64000 502.842
23.65000 498.442
23.66000 494.758
23.67000 497.695
23.68000 502.241
23.69000 506.178
23.70000 500.710
23.71000 494.816
23.72000 490.895
23.73000 494.141
23.74000 498.040
23.75000 502.726
23.76000 509.326
23.77000 516.010
23.78000 520.168
23.79000 521.799
23.80000 522.948
23.81000 521.912
23.82000 518.576
23.83000 515.205
23.84000 508.159
23.85000 498.628
23.86000 489.330
23.87000 483.950
23.88000 480.498
23.89000 477.867
23.90000 485.598
23.91000 496.458
23.92000 506.278
23.93000 508.623
23.94000 509.489
23.95000 510.213
23.96000 506.831
23.97000 503.606
23.98000 500.387
23.99000 497.183
24.00000 493.980
24.01000 493.544
24.02000 498.662
24.03000 503.936
24.04000 506.952
24.05000 506.233
24.06000 505.715
24.07000 503.306
24.08000 499.296
24.09000 495.414
24.10000 497.902
24.11000 503.932
24.12000 509.730
24.13000 509.890
24.14000 508.071
24.15000 505.963
24.16000 501.120
24.17000 495.599
24.18000 491.224
24.19000 493.408
24.20000 496.634
24.21000 499.220
24.22000 503.095
24.23000 506.329
24.24000 506.940
24.25000 501.065
24.26000 494.888
24.27000 492.521
24.28000 496.458
24.29000 500.490
24.30000 502.580
24.31000 488.594
24.32000 479.223
24.33000 478.521
24.34000 483.799
24.35000 488.933
24.36000 489.932
24.37000 489.034
24.38000 488.185
24.39000 488.891
24.40000 489.978
24.41000 490.441
24.42000 486.306
24.43000 481.242
24.44000 478.154
24.45000 484.190
24.46000 491.368
24.47000 496.862
24.48000 488.188
24.49000 480.569
24.50000 474.952
24.51000 473.425
24.52000 472.020
24.53000 472.097
24.54000 474.183
24.55000 476.279
24.56000 477.458
24.57000 477.842
24.58000 478.193
24.59000 476.734
24.60000 474.249
24.61000 472.115
24.62000 476.600
24.63000 483.599
24.64000 490.067
24.65000 490.639
24.66000 489.814
24.67000 489.647
24.68000 493.329
24.69000 497.637
24.70000 499.893
24.71000 494.405
24.72000 488.172
24.73000 483.650
24.74000 494.236
24.75000 502.932
24.76000 503.155
24.77000 489.085
24.78000 474.786
24.79000 470.894
24.80000 478.447
24.81000 485.973
24.82000 484.622
24.83000 477.105
24.84000 469.939
24.85000 473.319
24.86000 481.633
24.87000 489.424
24.88000 490.208
24.89000 488.793
24.90000 487.518
24.91000 486.920
24.92000 486.517
24.93000 485.022
24.94000 478.380
24.95000 471.076
24.96000 467.956
24.97000 477.830
24.98000 488.632
24.99000 496.002
25.00000 476.185
25.01000 460.735
25.02000 452.896
25.03000 455.584
25.04000 458.339
25.05000 461.879
25.06000 466.112
25.07000 470.299
25.08000 474.176
25.09000 477.789
25.10000 481.371
25.11000 484.345
25.12000 487.083
25.13000 489.225
25.14000 485.391
25.15000 480.016
25.16000 475.315
25.17000 477.124
25.18000 479.600
25.19000 479.800
25.20000 471.238
25.21000 461.810
25.22000 454.709
25.23000 453.580
25.24000 452.751
25.25000 452.224
25.26000 469.837
25.27000 482.861
25.28000 486.265
25.29000 478.862
25.30000 471.478
25.31000 468.137
25.32000 467.697
25.33000 467.267
25.34000 468.539
25.35000 470.540
25.36000 472.068
25.37000 467.051
25.38000 459.941
25.39000 453.776
25.40000 454.909
25.41000 457.576
25.42000 459.830
25.43000 467.123
25.44000 473.775
25.45000 479.857
25.46000 484.129
25.47000 488.269
25.48000 489.670
25.49000 485.260
25.50000 480.659
25.51000 477.959
25.52000 479.752
25.53000 481.040
25.54000 484.963
25.55000 491.263
25.56000 497.374
25.57000 492.062
25.58000 480.025
25.59000 468.399
25.60000 462.131
25.61000 458.215
25.62000 454.399
25.63000 451.625
25.64000 449.124
25.65000 448.978
25.66000 463.213
25.67000 479.888
25.68000 493.431
25.69000 483.268
25.70000 473.014
25.71000 467.371
25.72000 473.784
25.73000 480.826
25.74000 483.262
25.75000 477.624
25.76000 471.838
25.77000 468.745
25.78000 476.126
25.79000 481.107
25.80000 475.773
25.81000 462.889
25.82000 450.351
25.83000 449.280
25.84000 453.780
25.85000 458.054
25.86000 464.964
25.87000 472.138
25.88000 477.926
25.89000 472.748
25.90000 465.215
25.91000 458.743
25.92000 457.489
25.93000 456.936
25.94000 456.508
25.95000 458.747
25.96000 460.690
25.97000 460.754
25.98000 456.758
25.99000 452.623
26.00000 454.561
26.01000 465.237
26.02000 475.980
26.03000 478.102
26.04000 472.281
26.05000 466.469
26.06000 461.176
26.07000 456.195
26.08000 451.711
26.09000 457.742
26.10000 467.995
26.11000 477.537
26.12000 468.442
26.13000 455.709
26.14000 445.547
26.15000 451.436
26.16000 460.109
26.17000 466.364
26.18000 462.944
26.19000 458.515
26.20000 455.248
26.21000 461.451
26.22000 466.653
26.23000 469.279
26.24000 467.308
26.25000 465.246
26.26000 462.567
26.27000 459.166
26.28000 455.774
26.29000 456.740
26.30000 460.928
26.31000 464.972
26.32000 463.972
26.33000 460.476
26.34000 457.093
26.35000 455.384
26.36000 454.230
26.37000 453.181
26.38000 450.177
26.39000 447.146
26.40000 445.269
26.41000 449.187
26.42000 453.903
26.43000 457.439
26.44000 457.092
26.45000 456.441
26.46000 455.989
26.47000 457.312
26.48000 458.358
26.49000 460.351
26.50000 463.733
26.51000 467.128
26.52000 469.802
26.53000 471.797
26.54000 473.775
26.55000 469.905
26.56000 462.601
26.57000 455.526
26.58000 453.472
26.59000 453.474
26.60000 453.749
26.61000 456.989
26.62000 461.039
26.63000 464.614
26.64000 464.753
26.65000 464.349
26.66000 463.641
26.67000 461.699
26.68000 459.623
26.69000 457.254
26.70000 454.088
26.71000 450.876
26.72000 448.789
26.73000 448.113
26.74000 447.640
26.75000 448.710
26.76000 451.624
26.77000 454.552
26.78000 459.620
26.79000 466.317
26.80000 472.895
26.81000 461.777
26.82000 442.428
26.83000 424.701
26.84000 431.685
26.85000 447.027
26.86000 460.441
26.87000 457.836
26.88000 451.648
26.89000 446.364
26.90000 444.545
26.91000 443.425
26.92000 442.748
26.93000 443.557
26.94000 444.486
26.95000 446.996
26.96000 453.057
26.97000 459.250
26.98000 462.977
26.99000 443.892
27.00000 430.162
27.01000 428.118
27.02000 437.315
27.03000 446.436
27.04000 449.883
27.05000 449.792
27.06000 449.703
27.07000 450.593
27.08000 451.823
27.09000 452.372
27.10000 445.316
27.11000 436.141
27.12000 429.527
27.13000 439.638
27.14000 452.776
27.15000 463.577
27.16000 462.788
27.17000 461.092
27.18000 459.523
27.19000 458.304
27.20000 457.105
27.21000 454.205
27.22000 448.149
27.23000 442.022
27.24000 438.651
27.25000 441.997
27.26000 444.294
27.27000 441.880
27.28000 435.804
27.29000 429.930
27.30000 431.926
27.31000 437.965
27.32000 443.732
27.33000 441.713
27.34000 437.344
27.35000 433.983
27.36000 439.210
27.37000 446.396
27.38000 452.951
27.39000 456.207
27.40000 458.987
27.41000 461.175
27.42000 459.671
27.43000 458.220
27.44000 458.312
27.45000 461.931
27.46000 465.689
27.47000 463.860
27.48000 453.504
27.49000 443.058
27.50000 436.681
27.51000 434.303
27.52000 431.988
27.53000 434.770
27.54000 440.792
27.55000 446.453
27.56000 443.482
27.57000 436.845
27.58000 430.629
27.59000 432.190
27.60000 435.620
27.61000 439.227
27.62000 444.020
27.63000 449.032
27.64000 451.327
27.65000 442.079
27.66000 431.529
27.67000 423.624
27.68000 430.543
27.69000 436.641
27.70000 441.519
27.71000 444.092
27.72000 446.610
27.73000 450.457
27.74000 455.961
27.75000 461.459
27.76000 455.385
27.77000 440.200
27.78000 425.376
27.79000 425.355
27.80000 433.082
27.81000 440.233
27.82000 437.989
27.83000 432.445
27.84000 427.373
27.85000 433.092
27.86000 440.411
27.87000 447.164
27.88000 450.886
27.89000 454.161
27.90000 454.690
27.91000 445.660
27.92000 435.811
27.93000 428.838
27.94000 450.161
27.95000 467.245
27.96000 475.547
27.97000 470.186
27.98000 464.666
27.99000 459.353
28.00000 454.250
28.01000 449.181
28.02000 448.504
28.03000 450.642
28.04000 452.635
28.05000 451.057
28.06000 447.934
28.07000 444.875
28.08000 442.570
28.09000 440.484
28.10000 438.626
28.11000 438.056
28.12000 437.772
28.13000 438.978
28.14000 446.641
28.15000 455.052
28.16000 461.589
28.17000 462.752
28.18000 463.579
28.19000 464.128
28.20000 459.079
28.21000 455.244
28.22000 455.519
28.23000 461.022
28.24000 466.512
28.25000 460.774
28.26000 445.946
28.27000 431.338
28.28000 427.205
28.29000 428.618
28.30000 430.186
28.31000 434.378
28.32000 439.508
28.33000 443.162
28.34000 433.584
28.35000 420.865
28.36000 409.892
28.37000 412.884
28.38000 417.212
28.39000 422.617
28.40000 431.844
28.41000 441.406
28.42000 446.481
28.43000 440.905
28.44000 434.875
28.45000 431.158
28.46000 429.749
28.47000 428.759
28.48000 430.624
28.49000 435.419
28.50000 440.186
28.51000 442.234
28.52000 442.486
28.53000 442.730
28.54000 436.748
28.55000 428.428
28.56000 420.702
28.57000 420.214
28.58000 421.861
28.59000 423.599
28.60000 425.971
28.61000 428.465
28.62000 430.539
28.63000 419.702
28.64000 409.463
28.65000 403.483
28.66000 409.963
28.67000 417.245
28.68000 422.945
28.69000 425.541
28.70000 428.055
28.71000 429.477
28.72000 431.283
28.73000 432.536
28.74000 432.137
28.75000 430.372
28.76000 428.656
28.77000 429.207
28.78000 430.989
28.79000 432.699
28.80000 433.476
28.81000 433.885
28.82000 434.335
28.83000 435.178
28.84000 436.115
28.85000 435.974
28.86000 429.821
28.87000 422.739
28.88000 417.088
28.89000 417.925
28.90000 419.075
28.91000 418.941
28.92000 415.701
28.93000 412.323
28.94000 415.054
28.95000 427.661
28.96000 440.403
28.97000 446.928
28.98000 444.243
28.99000 442.405
29.00000 437.176
29.01000 429.660
29.02000 422.384
29.03000 421.617
29.04000 423.773
29.05000 425.805
29.06000 426.261
29.07000 426.245
29.08000 425.683
29.09000 421.217
29.10000 415.981
29.11000 412.752
29.12000 418.576
29.13000 425.500
29.14000 430.767
29.15000 419.100
29.16000 409.034
29.17000 405.039
29.18000 413.178
29.19000 421.655
29.20000 425.895
29.21000 424.526
29.22000 423.131
29.23000 420.579
29.24000 417.060
29.25000 413.609
29.26000 413.438
29.27000 415.084
29.28000 416.745
29.29000 418.669
29.30000 420.690
29.31000 422.553
29.32000 427.094
29.33000 431.752
29.34000 435.751
29.35000 435.995
29.36000 435.646
29.37000 435.177
29.38000 434.266
29.39000 433.314
29.40000 432.629
29.41000 432.578
29.42000 432.562
29.43000 432.163
29.44000 431.132
29.45000 430.091
29.46000 428.574
29.47000 426.544
29.48000 424.525
29.49000 427.929
29.50000 434.977
29.51000 441.675
29.52000 438.409
29.53000 430.584
29.54000 423.279
29.55000 422.696
29.56000 424.174
29.57000 425.502
29.58000 431.204
29.59000 436.964
29.60000 441.460
29.61000 440.145
29.62000 438.106
29.63000 437.791
29.64000 442.713
29.65000 447.995
29.66000 451.571
29.67000 449.816
29.68000 448.391
29.69000 446.341
29.70000 443.447
29.71000 440.559
29.72000 444.937
29.73000 455.577
29.74000 466.088
29.75000 467.283
29.76000 463.321
29.77000 459.693
29.78000 462.340
29.79000 467.362
29.80000 472.615
29.81000 480.115
29.82000 488.180
29.83000 495.206
29.84000 486.638
29.85000 477.165
29.86000 471.759
29.87000 481.653
29.88000 493.013
29.89000 498.747
29.90000 490.358
29.91000 481.291
29.92000 475.573
29.93000 486.837
29.94000 495.188
29.95000 499.253
29.96000 498.624
29.97000 497.976
29.98000 495.061
29.99000 490.557
30.00000 486.155
30.01000 488.584
30.02000 493.966
30.03000 498.969
30.04000 498.924
30.05000 497.302
30.06000 494.271
30.07000 480.661
30.08000 464.878
30.09000 451.602
30.10000 446.407
30.11000 442.936
30.12000 440.219
30.13000 439.836
30.14000 439.620
30.15000 439.662
30.16000 440.240
30.17000 440.835
30.18000 441.181
30.19000 463.395
30.20000 479.075
30.21000 483.118
30.22000 476.924
30.23000 470.794
30.24000 468.158
30.25000 467.535
30.26000 466.934
30.27000 463.542
30.28000 459.341
30.29000 454.822
30.30000 447.141
30.31000 438.648
30.32000 431.978
30.33000 436.156
30.34000 442.126
30.35000 446.951
30.36000 444.931
30.37000 442.741
30.38000 444.267
30.39000 455.300
30.40000 466.807
30.41000 471.468
30.42000 464.404
30.43000 457.140
30.44000 453.303
30.45000 446.108
30.46000 441.268
30.47000 443.470
30.48000 450.706
30.49000 457.832
30.50000 461.505
30.51000 463.537
30.52000 465.463
30.53000 472.530
30.54000 480.547
30.55000 487.434
30.56000 485.624
30.57000 481.992
30.58000 478.202
30.59000 473.657
30.60000 469.013
30.61000 465.428
30.62000 465.590
30.63000 465.936
30.64000 470.964
30.65000 485.894
30.66000 501.144
30.67000 504.345
30.68000 490.612
30.69000 476.766
30.70000 474.823
30.71000 483.567
30.72000 492.328
30.73000 502.186
30.74000 512.687
30.75000 522.763
30.76000 524.262
30.77000 522.393
30.78000 520.658
30.79000 525.137
30.80000 530.641
30.81000 538.304
30.82000 559.099
30.83000 582.113
30.84000 603.994
30.85000 621.442
30.86000 638.442
30.87000 650.897
30.88000 680.914
30.89000 704.795
30.90000 733.423
30.91000 770.338
30.92000 807.404
30.93000 854.046
30.94000 911.628
30.95000 969.023
30.96000 1044.245
30.97000 1131.721
30.98000 1219.492
30.99000 1316.954
31.00000 1419.107
31.01000 1523.332
31.02000 1656.980
31.03000 1800.177
31.04000 1929.814
31.05000 2112.915
31.06000 2284.281
31.07000 2459.918
31.08000 2656.461
31.09000 2855.806
31.10000 3054.938
31.11000 3253.390
31.12000 3451.791
31.13000 3588.723
31.14000 3811.181
31.15000 3980.517
31.16000 4146.668
31.17000 4308.256
31.18000 4469.792
31.19000 4595.556
31.20000 4688.493
31.21000 4780.530
31.22000 4838.839
31.23000 4876.188
31.24000 4910.692
31.25000 4885.447
31.26000 4836.288
31.27000 4782.163
31.28000 4675.847
31.29000 4555.591
31.30000 4449.837
31.31000 4299.811
31.32000 4164.150
31.33000 4020.844
31.34000 3847.041
31.35000 3670.072
31.36000 3487.547
31.37000 3290.276
31.38000 3092.211
31.39000 2964.538
31.40000 2708.998
31.41000 2520.550
31.42000 2341.822
31.43000 2174.432
31.44000 2007.169
31.45000 1860.763
31.46000 1729.871
31.47000 1601.469
31.48000 1490.012
31.49000 1390.665
31.50000 1292.073
31.51000 1204.557
31.52000 1120.705
31.53000 1039.590
31.54000 980.564
31.55000 926.360
31.56000 880.266
31.57000 840.833
31.58000 808.482
31.59000 775.949
31.60000 742.822
31.61000 709.649
31.62000 678.790
31.63000 653.011
31.64000 627.412
31.65000 612.158
31.66000 588.554
31.67000 571.776
31.68000 557.366
31.69000 545.178
31.70000 533.112
31.71000 529.467
31.72000 530.955
31.73000 532.395
31.74000 523.892
31.75000 512.013
31.76000 500.297
31.77000 490.326
31.78000 480.830
31.79000 472.140
31.80000 468.573
31.81000 465.909
31.82000 463.730
31.83000 457.477
31.84000 451.999
31.85000 446.215
31.86000 439.607
31.87000 432.953
31.88000 431.199
31.89000 438.332
31.90000 445.649
31.91000 449.630
31.92000 435.317
31.93000 425.516
31.94000 424.654
31.95000 430.577
31.96000 436.338
31.97000 436.216
31.98000 433.139
31.99000 430.207
32.00000 423.740
32.01000 416.642
32.02000 410.695
32.03000 414.278
32.04000 419.983
32.05000 423.363
32.06000 414.880
32.07000 404.730
32.08000 396.784
32.09000 400.803
32.10000 404.781
32.11000 410.394
32.12000 419.665
32.13000 429.072
32.14000 430.821
32.15000 421.151
32.16000 411.373
32.17000 406.801
32.18000 407.217
32.19000 407.690
32.20000 412.388
32.21000 419.711
32.22000 426.462
32.23000 420.190
32.24000 408.508
32.25000 397.595
32.26000 393.995
32.27000 392.571
32.28000 392.269
32.29000 399.271
32.30000 407.588
32.31000 414.091
32.32000 413.062
32.33000 411.210
32.34000 409.831
32.35000 404.897
32.36000 400.897
32.37000 398.607
32.38000 399.475
32.39000 400.413
32.40000 399.886
32.41000 397.578
32.42000 395.270
32.43000 392.895
32.44000 390.482
32.45000 388.154
32.46000 389.145
32.47000 391.835
32.48000 394.606
32.49000 398.654
32.50000 403.142
32.51000 407.236
32.52000 400.242
32.53000 391.805
32.54000 384.329
32.55000 381.863
32.56000 380.117
32.57000 380.711
32.58000 389.264
32.59000 398.476
32.60000 404.952
32.61000 396.271
32.62000 389.249
32.63000 387.184
32.64000 392.656
32.65000 398.207
32.66000 395.405
32.67000 384.427
32.68000 373.531
32.69000 367.743
32.70000 365.232
32.71000 363.091
32.72000 369.713
32.73000 380.043
32.74000 389.815
32.75000 393.201
32.76000 394.779
32.77000 396.180
32.78000 411.278
32.79000 426.546
32.80000 441.998
32.81000 458.234
32.82000 474.557
32.83000 490.087
32.84000 503.386
32.85000 516.552
32.86000 525.221
32.87000 538.824
32.88000 548.929
32.89000 558.488
32.90000 567.368
32.91000 576.244
32.92000 584.485
32.93000 592.226
32.94000 599.843
32.95000 602.530
32.96000 602.641
32.97000 602.508
32.98000 598.444
32.99000 593.003
33.00000 587.589
33.01000 582.406
33.02000 577.277
33.03000 572.870
33.04000 562.423
33.05000 552.834
33.06000 538.984
33.07000 510.351
33.08000 480.460
33.09000 454.872
33.10000 439.272
33.11000 424.078
33.12000 414.800
33.13000 406.030
33.14000 399.762
33.15000 393.786
33.16000 388.101
33.17000 382.463
33.18000 380.919
33.19000 382.019
33.20000 383.089
33.21000 376.811
33.22000 367.824
33.23000 359.669
33.24000 361.284
33.25000 365.717
33.26000 369.449
33.27000 368.399
33.28000 366.449
33.29000 364.835
33.30000 368.355
33.31000 371.747
33.32000 372.993
33.33000 368.097
33.34000 362.821
33.35000 357.709
33.36000 352.913
33.37000 348.124
33.38000 345.444
33.39000 350.066
33.40000 353.282
33.41000 355.278
33.42000 356.288
33.43000 357.220
33.44000 354.734
33.45000 350.432
33.46000 346.312
33.47000 345.063
33.48000 344.852
33.49000 344.751
33.50000 345.631
33.51000 346.742
33.52000 347.999
33.53000 350.048
33.54000 352.216
33.55000 353.937
33.56000 349.987
33.57000 346.408
33.58000 345.643
33.59000 351.531
33.60000 357.700
33.61000 360.066
33.62000 356.420
33.63000 352.699
33.64000 350.817
33.65000 352.372
33.66000 353.378
33.67000 351.007
33.68000 346.413
33.69000 341.935
33.70000 340.420
33.71000 340.208
33.72000 340.008
33.73000 342.912
33.74000 346.397
33.75000 349.578
33.76000 350.638
33.77000 351.292
33.78000 351.576
33.79000 350.234
33.80000 348.700
33.81000 347.540
33.82000 352.815
33.83000 357.275
33.84000 359.477
33.85000 357.263
33.86000 354.934
33.87000 353.425
33.88000 352.975
33.89000 352.530
33.90000 350.928
33.91000 348.380
33.92000 345.798
33.93000 341.626
33.94000 336.592
33.95000 331.796
33.96000 331.101
33.97000 331.896
33.98000 332.627
33.99000 329.359
34.00000 325.580
34.01000 323.553
34.02000 331.257
34.03000 340.458
34.04000 347.675
34.05000 347.741
34.06000 347.162
34.07000 346.747
34.08000 344.616
34.09000 342.930
34.10000 339.824
34.11000 334.428
34.12000 329.001
34.13000 326.042
34.14000 325.663
34.15000 325.286
34.16000 326.999
34.17000 330.075
34.18000 333.235
34.19000 338.643
34.20000 345.058
34.21000 350.711
34.22000 346.853
34.23000 340.143
34.24000 334.139
34.25000 337.269
34.26000 341.564
34.27000 344.492
34.28000 341.275
34.29000 337.314
34.30000 333.824
34.31000 331.734
34.32000 329.736
34.33000 328.395
34.34000 332.675
34.35000 335.970
34.36000 338.851
34.37000 341.186
34.38000 343.516
34.39000 344.642
34.40000 344.758
34.41000 344.872
34.42000 341.271
34.43000 335.770
34.44000 330.545
34.45000 330.266
34.46000 331.818
34.47000 333.699
34.48000 338.660
34.49000 344.379
34.50000 349.343
34.51000 343.610
34.52000 337.290
34.53000 333.091
34.54000 336.683
34.55000 340.998
34.56000 342.122
34.57000 335.414
34.58000 328.346
34.59000 323.929
34.60000 330.125
34.61000 334.706
34.62000 336.418
34.63000 335.065
34.64000 333.707
34.65000 331.862
34.66000 329.685
34.67000 327.560
34.68000 330.542
34.69000 335.621
34.70000 340.106
34.71000 336.946
34.72000 331.451
34.73000 326.190
34.74000 322.640
34.75000 319.432
34.76000 316.746
34.77000 314.817
34.78000 313.291
34.79000 313.074
34.80000 316.815
34.81000 320.827
34.82000 324.330
34.83000 326.797
34.84000 329.235
34.85000 330.637
34.86000 329.777
34.87000 329.159
34.88000 323.612
34.89000 313.833
34.90000 304.266
34.91000 305.617
34.92000 313.111
34.93000 320.323
34.94000 328.930
34.95000 337.500
34.96000 344.871
34.97000 340.686
34.98000 333.601
34.99000 327.195
35.00000 324.730
35.01000 322.898
35.02000 321.426
35.03000 319.187
35.04000 317.312
35.05000 317.676
35.06000 323.638
35.07000 329.868
35.08000 332.768
35.09000 330.096
35.10000 327.336
35.11000 325.895
35.12000 331.761
35.13000 335.707
35.14000 336.788
35.15000 335.868
35.16000 334.812
35.17000 329.743
35.18000 322.810
35.19000 316.254
35.20000 317.362
35.21000 320.573
35.22000 323.648
35.23000 325.702
35.24000 327.546
35.25000 327.082
35.26000 315.810
35.27000 303.164
35.28000 293.458
35.29000 303.917
35.30000 313.309
35.31000 318.644
35.32000 315.589
35.33000 312.278
35.34000 310.005
35.35000 309.159
35.36000 308.322
35.37000 306.624
35.38000 304.175
35.39000 301.810
35.40000 304.053
35.41000 308.938
35.42000 313.693
35.43000 315.937
35.44000 317.218
35.45000 318.403
35.46000 318.141
35.47000 317.574
35.48000 317.842
35.49000 323.057
35.50000 329.087
35.51000 332.044
35.52000 323.257
35.53000 313.321
35.54000 306.088
35.55000 312.874
35.56000 318.632
35.57000 321.871
35.58000 320.812
35.59000 319.681
35.60000 317.274
35.61000 313.445
35.62000 309.630
35.63000 308.070
35.64000 308.114
35.65000 308.164
35.66000 308.378
35.67000 308.670
35.68000 309.243
35.69000 313.661
35.70000 319.300
35.71000 324.389
35.72000 323.412
35.73000 321.442
35.74000 319.447
35.75000 317.331
35.76000 315.198
35.77000 311.787
35.78000 304.357
35.79000 296.634
35.80000 291.344
35.81000 295.225
35.82000 298.352
35.83000 300.885
35.84000 302.586
35.85000 304.281
35.86000 304.971
35.87000 304.761
35.88000 304.553
35.89000 303.920
35.90000 303.058
35.91000 302.496
35.92000 307.940
35.93000 315.736
35.94000 322.969
35.95000 324.481
35.96000 324.499
35.97000 324.515
35.98000 316.919
35.99000 309.302
36.00000 303.563
36.01000 305.141
36.02000 307.455
36.03000 310.460
36.04000 315.261
36.05000 320.154
36.06000 323.281
36.07000 318.904
36.08000 315.620
36.09000 312.417
36.10000 309.305
36.11000 306.190
36.12000 302.521
36.13000 298.450
36.14000 294.461
36.15000 297.387
36.16000 303.407
36.17000 309.084
36.18000 309.928
36.19000 309.210
36.20000 308.863
36.21000 311.434
36.22000 314.626
36.23000 317.329
36.24000 313.389
36.25000 309.348
36.26000 307.106
36.27000 310.629
36.28000 314.585
36.29000 316.529
36.30000 314.151
36.31000 311.629
36.32000 310.140
36.33000 301.514
36.34000 295.386
36.35000 291.792
36.36000 290.513
36.37000 289.341
36.38000 294.946
36.39000 304.587
36.40000 313.909
36.41000 314.254
36.42000 311.201
36.43000 308.454
36.44000 308.910
36.45000 310.219
36.46000 311.186
36.47000 310.037
36.48000 308.524
36.49000 307.293
36.50000 305.450
36.51000 303.894
36.52000 303.888
36.53000 307.982
36.54000 312.295
36.55000 313.715
36.56000 310.005
36.57000 306.197
36.58000 304.148
36.59000 302.566
36.60000 301.496
36.61000 302.300
36.62000 304.495
36.63000 306.571
36.64000 304.625
36.65000 300.702
36.66000 296.972
36.67000 301.318
36.68000 307.796
36.69000 313.207
36.70000 310.039
36.71000 305.005
36.72000 301.082
36.73000 302.688
36.74000 305.051
36.75000 306.890
36.76000 308.479
36.77000 309.729
36.78000 309.631
36.79000 306.582
36.80000 303.430
36.81000 303.475
36.82000 308.178
36.83000 312.920
36.84000 315.920
36.85000 317.294
36.86000 318.638
36.87000 317.889
36.88000 315.871
36.89000 313.815
36.90000 310.945
36.91000 307.744
36.92000 304.762
36.93000 305.326
36.94000 306.706
36.95000 307.580
36.96000 305.248
36.97000 302.353
36.98000 299.946
36.99000 299.517
37.00000 299.298
37.01000 299.136
37.02000 303.652
37.03000 307.358
37.04000 307.234
37.05000 300.193
37.06000 293.010
37.07000 291.558
37.08000 296.906
37.09000 302.252
37.10000 305.666
37.11000 307.607
37.12000 309.470
37.13000 308.525
37.14000 306.173
37.15000 303.679
37.16000 299.033
37.17000 293.664
37.18000 288.780
37.19000 292.351
37.20000 297.169
37.21000 301.430
37.22000 302.863
37.23000 303.899
37.24000 303.881
37.25000 300.354
37.26000 296.547
37.27000 293.890
37.28000 293.419
37.29000 293.125
37.30000 294.614
37.31000 298.751
37.32000 302.912
37.33000 305.249
37.34000 305.846
37.35000 306.438
37.36000 301.980
37.37000 294.535
37.38000 287.286
37.39000 284.453
37.40000 283.448
37.41000 282.537
37.42000 282.665
37.43000 283.080
37.44000 283.447
37.45000 281.947
37.46000 280.362
37.47000 281.008
37.48000 290.877
37.49000 301.751
37.50000 310.052
37.51000 311.292
37.52000 312.126
37.53000 312.671
37.54000 298.364
37.55000 287.624
37.56000 285.090
37.57000 292.495
37.58000 299.899
37.59000 301.812
37.60000 299.488
37.61000 297.204
37.62000 297.352
37.63000 298.694
37.64000 299.762
37.65000 296.571
37.66000 291.922
37.67000 288.554
37.68000 295.994
37.69000 305.881
37.70000 314.341
37.71000 312.212
37.72000 309.137
37.73000 305.228
37.74000 298.490
37.75000 291.519
37.76000 289.724
37.77000 299.682
37.78000 310.092
37.79000 316.388
37.80000 299.906
37.81000 287.994
37.82000 283.659
37.83000 286.709
37.84000 289.749
37.85000 291.971
37.86000 293.675
37.87000 295.330
37.88000 301.604
37.89000 309.408
37.90000 316.207
37.91000 311.588
37.92000 303.750
37.93000 297.441
37.94000 301.269
37.95000 306.955
37.96000 311.642
37.97000 311.293
37.98000 310.543
37.99000 309.552
38.00000 307.886
38.01000 306.180
38.02000 307.275
38.03000 313.626
38.04000 320.099
38.05000 323.681
38.06000 312.211
38.07000 304.298
38.08000 305.503
38.09000 313.885
38.10000 322.070
38.11000 322.307
38.12000 318.413
38.13000 314.690
38.14000 318.673
38.15000 324.877
38.16000 330.811
38.17000 334.398
38.18000 337.444
38.19000 341.202
38.20000 348.737
38.21000 356.825
38.22000 363.211
38.23000 368.344
38.24000 372.378
38.25000 376.660
38.26000 381.516
38.27000 386.396
38.28000 392.699
38.29000 401.200
38.30000 409.726
38.31000 420.492
38.32000 433.488
38.33000 446.482
38.34000 459.281
38.35000 471.955
38.36000 484.601
38.37000 496.580
38.38000 508.271
38.39000 519.235
38.40000 534.159
38.41000 548.787
38.42000 564.742
38.43000 589.684
38.44000 616.310
38.45000 637.066
38.46000 632.575
38.47000 625.190
38.48000 619.641
38.49000 646.087
38.50000 668.304
38.51000 681.807
38.52000 678.651
38.53000 675.088
38.54000 673.464
38.55000 674.287
38.56000 675.117
38.57000 679.139
38.58000 685.698
38.59000 691.871
38.60000 681.644
38.61000 662.729
38.62000 644.651
38.63000 640.490
38.64000 641.274
38.65000 641.992
38.66000 627.691
38.67000 611.804
38.68000 594.755
38.69000 571.412
38.70000 547.125
38.71000 525.457
38.72000 513.012
38.73000 501.372
38.74000 493.100
38.75000 477.440
38.76000 465.283
38.77000 451.263
38.78000 434.311
38.79000 417.322
38.80000 404.112
38.81000 394.749
38.82000 385.445
38.83000 377.899
38.84000 371.597
38.85000 365.464
38.86000 363.644
38.87000 363.711
38.88000 363.247
38.89000 356.381
38.90000 347.639
38.91000 339.840
38.92000 325.337
38.93000 311.601
38.94000 300.618
38.95000 301.717
38.96000 304.236
38.97000 305.845
38.98000 304.809
38.99000 303.605
39.00000 302.802
39.01000 301.601
39.02000 300.705
39.03000 300.802
39.04000 302.180
39.05000 303.544
39.06000 297.205
39.07000 284.548
39.08000 272.072
39.09000 270.264
39.10000 274.103
39.11000 277.848
39.12000 279.991
39.13000 281.555
39.14000 283.207
39.15000 285.658
39.16000 288.301
39.17000 290.586
39.18000 286.023
39.19000 281.256
39.20000 276.926
39.21000 274.168
39.22000 271.550
39.23000 271.629
39.24000 278.181
39.25000 285.015
39.26000 289.247
39.27000 287.434
39.28000 286.072
39.29000 285.573
39.30000 285.970
39.31000 286.322
39.32000 281.868
39.33000 274.201
39.34000 266.726
39.35000 272.424
39.36000 283.470
39.37000 293.307
39.38000 288.152
39.39000 278.520
39.40000 270.753
39.41000 276.222
39.42000 284.277
39.43000 290.994
39.44000 278.511
39.45000 266.244
39.46000 258.866
39.47000 265.954
39.48000 273.994
39.49000 278.947
39.50000 277.770
39.51000 276.426
39.52000 275.661
39.53000 271.059
39.54000 267.846
39.55000 267.655
39.56000 269.995
39.57000 272.340
39.58000 274.949
39.59000 277.703
39.60000 280.349
39.61000 279.233
39.62000 276.890
39.63000 274.324
39.64000 269.670
39.65000 264.504
39.66000 260.235
39.67000 261.039
39.68000 262.639
39.69000 263.918
39.70000 265.377
39.71000 266.570
39.72000 268.187
39.73000 270.843
39.74000 273.546
39.75000 274.617
39.76000 273.014
39.77000 271.373
39.78000 270.528
39.79000 268.187
39.80000 266.613
39.81000 265.345
39.82000 264.285
39.83000 263.338
39.84000 265.568
39.85000 269.240
39.86000 272.704
39.87000 269.379
39.88000 264.438
39.89000 260.091
39.90000 260.062
39.91000 260.894
39.92000 262.003
39.93000 264.377
39.94000 266.907
39.95000 268.837
39.96000 264.824
39.97000 261.344
39.98000 260.843
39.99000 266.369
40.00000 272.067
40.01000 271.060
40.02000 261.063
40.03000 251.028
40.04000 250.656
40.05000 258.526
40.06000 266.270
40.07000 267.583
40.08000 265.292
40.09000 263.219
40.10000 265.187
40.11000 268.674
40.12000 271.893
40.13000 270.594
40.14000 268.417
40.15000 266.626
40.16000 267.062
40.17000 267.856
40.18000 268.091
40.19000 266.238
40.20000 264.186
40.21000 262.703
40.22000 263.127
40.23000 263.522
40.24000 262.125
40.25000 257.741
40.26000 253.310
40.27000 251.488
40.28000 252.499
40.29000 253.507
40.30000 254.102
40.31000 254.405
40.32000 254.721
40.33000 255.374
40.34000 256.184
40.35000 256.783
40.36000 254.593
40.37000 251.539
40.38000 248.791
40.39000 253.046
40.40000 258.024
40.41000 261.926
40.42000 260.815
40.43000 259.069
40.44000 257.661
40.45000 257.291
40.46000 256.993
40.47000 256.791
40.48000 255.159
40.49000 253.909
40.50000 253.319
40.51000 253.634
40.52000 253.955
40.53000 255.391
40.54000 257.798
40.55000 260.178
40.56000 255.358
40.57000 246.640
40.58000 238.632
40.59000 244.235
40.60000 255.049
40.61000 264.838
40.62000 264.527
40.63000 261.641
40.64000 259.121
40.65000 253.965
40.66000 249.183
40.67000 246.289
40.68000 250.582
40.69000 255.575
40.70000 258.065
40.71000 254.200
40.72000 250.023
40.73000 247.376
40.74000 246.148
40.75000 245.274
40.76000 245.146
40.77000 245.847
40.78000 246.551
40.79000 247.634
40.80000 248.987
40.81000 250.310
40.82000 246.789
40.83000 241.219
40.84000 236.173
40.85000 238.258
40.86000 242.596
40.87000 246.703
40.88000 249.042
40.89000 251.013
40.90000 252.675
40.91000 255.653
40.92000 258.282
40.93000 258.745
40.94000 252.421
40.95000 245.606
40.96000 242.358
40.97000 246.599
40.98000 251.078
40.99000 253.694
41.00000 249.224
41.01000 246.046
41.02000 244.130
41.03000 243.338
41.04000 242.580
41.05000 243.807
41.06000 246.189
41.07000 248.488
41.08000 245.449
41.09000 240.627
41.10000 236.486
41.11000 239.244
41.12000 243.794
41.13000 247.848
41.14000 248.902
41.15000 249.454
41.16000 249.902
41.17000 248.175
41.18000 246.592
41.19000 246.385
41.20000 249.738
41.21000 253.273
41.22000 253.203
41.23000 246.886
41.24000 240.458
41.25000 237.041
41.26000 241.421
41.27000 244.392
41.28000 244.979
41.29000 243.840
41.30000 242.738
41.31000 242.815
41.32000 243.459
41.33000 244.071
41.34000 240.566
41.35000 236.110
41.36000 232.766
41.37000 238.103
41.38000 245.282
41.39000 250.015
41.40000 242.869
41.41000 234.146
41.42000 227.392
41.43000 230.333
41.44000 233.243
41.45000 237.386
41.46000 244.167
41.47000 251.035
41.48000 254.357
41.49000 252.631
41.50000 250.868
41.51000 248.657
41.52000 246.040
41.53000 243.434
41.54000 241.513
41.55000 239.997
41.56000 238.493
41.57000 237.233
41.58000 236.070
41.59000 234.989
41.60000 238.025
41.61000 241.749
41.62000 245.154
41.63000 246.586
41.64000 247.680
41.65000 248.326
41.66000 247.201
41.67000 245.894
41.68000 244.933
41.69000 246.214
41.70000 247.297
41.71000 246.655
41.72000 242.967
41.73000 239.220
41.74000 237.961
41.75000 239.580
41.76000 241.198
41.77000 243.183
41.78000 245.421
41.79000 247.644
41.80000 249.373
41.81000 250.859
41.82000 251.856
41.83000 245.759
41.84000 237.332
41.85000 229.691
41.86000 234.164
41.87000 240.424
41.88000 245.476
41.89000 244.538
41.90000 242.786
41.91000 240.609
41.92000 237.049
41.93000 233.383
41.94000 230.843
41.95000 234.654
41.96000 237.688
41.97000 240.304
41.98000 242.312
41.99000 244.314
42.00000 244.711
42.01000 243.613
42.02000 242.526
42.03000 241.393
42.04000 240.255
42.05000 239.178
42.06000 239.414
42.07000 240.182
42.08000 240.918
42.09000 241.318
42.10000 241.627
42.11000 241.900
42.12000 245.011
42.13000 248.120
42.14000 248.634
42.15000 238.670
42.16000 227.600
42.17000 220.732
42.18000 225.148
42.19000 230.185
42.20000 233.446
42.21000 240.622
42.22000 245.930
42.23000 246.745
42.24000 242.249
42.25000 237.752
42.26000 234.606
42.27000 232.478
42.28000 230.389
42.29000 237.890
42.30000 249.739
42.31000 260.505
42.32000 255.093
42.33000 244.268
42.34000 234.904
42.35000 237.519
42.36000 242.783
42.37000 247.268
42.38000 243.985
42.39000 240.313
42.40000 237.983
42.41000 240.099
42.42000 242.568
42.43000 242.776
42.44000 237.964
42.45000 232.969
42.46000 229.977
42.47000 228.693
42.48000 227.793
42.49000 229.054
42.50000 232.369
42.51000 235.655
42.52000 236.842
42.53000 236.735
42.54000 236.631
42.55000 235.811
42.56000 234.753
42.57000 234.008
42.58000 236.692
42.59000 240.322
42.60000 243.105
42.61000 240.429
42.62000 236.777
42.63000 233.781
42.64000 240.494
42.65000 246.866
42.66000 250.016
42.67000 244.355
42.68000 238.191
42.69000 236.167
42.70000 241.738
42.71000 247.473
42.72000 250.612
42.73000 250.366
42.74000 250.187
42.75000 248.538
42.76000 245.760
42.77000 243.005
42.78000 241.143
42.79000 239.734
42.80000 238.390
42.81000 236.545
42.82000 234.673
42.83000 233.496
42.84000 238.144
42.85000 244.106
42.86000 249.274
42.87000 250.337
42.88000 250.815
42.89000 251.190
42.90000 246.860
42.91000 243.089
42.92000 240.828
42.93000 241.985
42.94000 243.272
42.95000 244.428
42.96000 245.384
42.97000 246.338
42.98000 241.990
42.99000 232.494
43.00000 223.080
43.01000 220.114
43.02000 221.202
43.03000 222.389
43.04000 225.899
43.05000 230.385
43.06000 234.581
43.07000 241.607
43.08000 248.712
43.09000 254.348
43.10000 250.291
43.11000 244.465
43.12000 239.246
43.13000 236.579
43.14000 234.197
43.15000 232.417
43.16000 223.923
43.17000 216.993
43.18000 214.022
43.19000 218.455
43.20000 223.057
43.21000 226.527
43.22000 228.604
43.23000 230.672
43.24000 232.564
43.25000 234.308
43.26000 236.039
43.27000 237.285
43.28000 238.278
43.29000 239.046
43.30000 236.208
43.31000 232.118
43.32000 228.380
43.33000 225.508
43.34000 223.134
43.35000 222.439
43.36000 230.602
43.37000 240.058
43.38000 245.941
43.39000 239.517
43.40000 232.057
43.41000 226.794
43.42000 228.302
43.43000 229.651
43.44000 231.982
43.45000 235.821
43.46000 239.676
43.47000 241.366
43.48000 240.908
43.49000 240.452
43.50000 240.922
43.51000 241.967
43.52000 242.932
43.53000 241.947
43.54000 240.127
43.55000 238.099
43.56000 233.650
43.57000 228.507
43.58000 223.936
43.59000 228.063
43.60000 233.052
43.61000 237.502
43.62000 239.641
43.63000 241.517
43.64000 241.878
43.65000 237.936
43.66000 233.730
43.67000 230.950
43.68000 241.615
43.69000 249.725
43.70000 251.485
43.71000 245.263
43.72000 239.025
43.73000 236.091
43.74000 235.800
43.75000 235.514
43.76000 231.752
43.77000 226.326
43.78000 221.478
43.79000 226.174
43.80000 234.248
43.81000 241.395
43.82000 240.345
43.83000 237.371
43.84000 234.810
43.85000 236.199
43.86000 237.874
43.87000 238.221
43.88000 233.900
43.89000 229.175
43.90000 227.066
43.91000 231.101
43.92000 235.391
43.93000 238.024
43.94000 238.526
43.95000 238.867
43.96000 240.675
43.97000 243.970
43.98000 247.202
43.99000 244.606
44.00000 238.201
44.01000 231.968
44.02000 232.058
44.03000 234.771
44.04000 237.624
44.05000 242.161
44.06000 247.189
44.07000 251.377
44.08000 249.765
44.09000 247.046
44.10000 244.790
44.11000 245.037
44.12000 245.484
44.13000 246.418
44.14000 248.762
44.15000 251.196
44.16000 252.729
44.17000 252.512
44.18000 252.251
44.19000 252.104
44.20000 256.639
44.21000 259.794
44.22000 261.018
44.23000 260.665
44.24000 260.396
44.25000 263.890
44.26000 269.408
44.27000 274.699
44.28000 275.508
44.29000 274.753
44.30000 274.527
44.31000 279.090
44.32000 284.799
44.33000 289.648
44.34000 289.760
44.35000 289.149
44.36000 288.663
44.37000 297.763
44.38000 305.787
44.39000 312.064
44.40000 314.160
44.41000 316.075
44.42000 321.514
44.43000 332.592
44.44000 343.744
44.45000 349.421
44.46000 361.158
44.47000 368.977
44.48000 371.442
44.49000 370.340
44.50000 369.625
44.51000 379.184
44.52000 393.309
44.53000 406.603
44.54000 414.479
44.55000 420.205
44.56000 427.353
44.57000 444.547
44.58000 463.696
44.59000 480.277
44.60000 485.399
44.61000 489.148
44.62000 491.992
44.63000 507.008
44.64000 519.429
44.65000 531.510
44.66000 542.919
44.67000 554.310
44.68000 570.766
44.69000 593.851
44.70000 616.939
44.71000 623.007
44.72000 614.906
44.73000 607.080
44.74000 612.299
44.75000 624.667
44.76000 636.300
44.77000 634.911
44.78000 628.737
44.79000 623.053
44.80000 633.025
44.81000 645.359
44.82000 655.310
44.83000 651.853
44.84000 646.304
44.85000 640.754
44.86000 635.204
44.87000 629.654
44.88000 625.669
44.89000 610.455
44.90000 598.430
44.91000 585.359
44.92000 570.585
44.93000 555.786
44.94000 542.384
44.95000 530.460
44.96000 518.600
44.97000 507.082
44.98000 495.937
44.99000 484.867
45.00000 475.905
45.01000 467.895
45.02000 459.813
45.03000 450.793
45.04000 441.489
45.05000 433.148
45.06000 420.419
45.07000 408.535
45.08000 398.167
45.09000 394.698
45.10000 392.078
45.11000 386.477
45.12000 371.918
45.13000 356.755
45.14000 346.526
45.15000 341.706
45.16000 338.234
45.17000 331.720
45.18000 321.147
45.19000 310.562
45.20000 306.120
45.21000 306.907
45.22000 307.684
45.23000 304.655
45.24000 299.634
45.25000 294.800
45.26000 293.394
45.27000 293.273
45.28000 293.035
45.29000 291.675
45.30000 290.037
45.31000 288.613
45.32000 287.084
45.33000 285.766
45.34000 282.893
45.35000 274.237
45.36000 265.037
45.37000 259.565
45.38000 263.351
45.39000 267.572
45.40000 270.222
45.41000 259.860
45.42000 252.226
45.43000 247.508
45.44000 245.948
45.45000 244.384
45.46000 242.361
45.47000 240.020
45.48000 237.732
45.49000 242.223
45.50000 249.519
45.51000 256.043
45.52000 252.474
45.53000 245.784
45.54000 240.272
45.55000 243.474
45.56000 248.445
45.57000 252.618
45.58000 246.013
45.59000 239.384
45.60000 234.704
45.61000 235.991
45.62000 237.696
45.63000 236.743
45.64000 230.334
45.65000 223.761
45.66000 219.961
45.67000 223.982
45.68000 226.830
45.69000 228.918
45.70000 230.344
45.71000 231.658
45.72000 226.975
45.73000 218.878
45.74000 211.077
45.75000 213.290
45.76000 218.958
45.77000 224.103
45.78000 224.120
45.79000 222.836
45.80000 221.389
45.81000 218.993
45.82000 216.442
45.83000 214.385
45.84000 214.579
45.85000 214.914
45.86000 215.584
45.87000 217.102
45.88000 218.660
45.89000 219.278
45.90000 218.303
45.91000 217.301
45.92000 216.775
45.93000 212.672
45.94000 209.892
45.95000 207.481
45.96000 205.331
45.97000 203.287
45.98000 204.447
45.99000 207.113
46.00000 209.637
46.01000 209.028
46.02000 207.561
46.03000 206.484
46.04000 208.370
46.05000 210.869
46.06000 213.346
46.07000 215.715
46.08000 218.070
46.09000 219.883
46.10000 211.070
46.11000 203.489
46.12000 198.526
46.13000 199.042
46.14000 199.731
46.15000 203.595
46.16000 211.870
46.17000 220.169
46.18000 221.240
46.19000 215.900
46.20000 210.629
46.21000 209.252
46.22000 210.135
46.23000 210.957
46.24000 210.558
46.25000 209.685
46.26000 208.877
46.27000 210.154
46.28000 211.790
46.29000 212.744
46.30000 209.602
46.31000 205.777
46.32000 203.193
46.33000 205.415
46.34000 208.114
46.35000 210.086
46.36000 213.319
46.37000 215.861
46.38000 216.534
46.39000 213.980
46.40000 211.370
46.41000 209.608
46.42000 208.805
46.43000 208.005
46.44000 209.318
46.45000 212.129
46.46000 214.828
46.47000 213.947
46.48000 211.352
46.49000 209.121
46.50000 211.967
46.51000 216.444
46.52000 220.491
46.53000 216.543
46.54000 211.583
46.55000 206.605
46.56000 201.542
46.57000 196.468
46.58000 192.828
46.59000 193.746
46.60000 195.003
46.61000 195.867
46.62000 191.313
46.63000 187.763
46.64000 186.646
46.65000 188.980
46.66000 191.340
46.67000 194.004
46.68000 196.946
46.69000 199.858
46.70000 203.089
46.71000 206.435
46.72000 209.684
46.73000 210.928
46.74000 211.378
46.75000 211.500
46.76000 208.225
46.77000 204.052
46.78000 200.389
46.79000 198.931
46.80000 198.001
46.81000 197.751
46.82000 200.182
46.83000 202.887
46.84000 203.855
46.85000 200.258
46.86000 196.421
46.87000 193.957
46.88000 202.406
46.89000 208.716
46.90000 209.983
46.91000 205.436
46.92000 200.898
46.93000 199.110
46.94000 199.347
46.95000 199.578
46.96000 201.599
46.97000 204.384
46.98000 206.605
46.99000 200.709
47.00000 192.157
47.01000 185.103
47.02000 189.963
47.03000 197.394
47.04000 203.701
47.05000 204.211
47.06000 203.981
47.07000 204.280
47.08000 206.298
47.09000 208.447
47.10000 208.102
47.11000 202.341
47.12000 196.392
47.13000 192.864
47.14000 190.089
47.15000 188.130
47.16000 186.500
47.17000 185.176
47.18000 183.916
47.19000 186.887
47.20000 192.410
47.21000 197.754
47.22000 198.866
47.23000 198.303
47.24000 197.881
47.25000 198.956
47.26000 200.434
47.27000 201.355
47.28000 198.773
47.29000 195.581
47.30000 192.976
47.31000 187.865
47.32000 183.469
47.33000 182.670
47.34000 191.498
47.35000 200.851
47.36000 206.559
47.37000 205.729
47.38000 204.769
47.39000 204.249
47.40000 205.377
47.41000 206.135
47.42000 203.654
47.43000 198.742
47.44000 193.931
47.45000 192.642
47.46000 193.104
47.47000 193.544
47.48000 188.609
47.49000 182.379
47.50000 177.153
47.51000 180.101
47.52000 184.849
47.53000 188.958
47.54000 189.845
47.55000 190.285
47.56000 190.628
47.57000 190.360
47.58000 190.107
47.59000 190.035
47.60000 190.365
47.61000 190.709
47.62000 191.046
47.63000 191.373
47.64000 191.699
47.65000 190.744
47.66000 188.576
47.67000 186.416
47.68000 184.826
47.69000 183.585
47.70000 182.469
47.71000 184.120
47.72000 186.909
47.73000 189.511
47.74000 192.598
47.75000 195.517
47.76000 197.865
47.77000 196.558
47.78000 194.599
47.79000 192.817
47.80000 191.759
47.81000 190.779
47.82000 190.052
47.83000 187.119
47.84000 184.743
47.85000 185.617
47.86000 192.434
47.87000 199.377
47.88000 200.663
47.89000 195.149
47.90000 189.635
47.91000 188.346
47.92000 190.278
47.93000 192.216
47.94000 194.398
47.95000 196.704
47.96000 198.711
47.97000 196.141
47.98000 192.015
47.99000 188.256
48.00000 192.275
48.01000 197.384
48.02000 201.703
48.03000 201.962
48.04000 201.644
48.05000 200.587
48.06000 197.041
48.07000 193.293
48.08000 190.667
48.09000 196.198
48.10000 200.615
48.11000 201.453
48.12000 196.908
48.13000 192.310
48.14000 192.010
48.15000 195.867
48.16000 199.693
48.17000 195.905
48.18000 187.498
48.19000 179.364
48.20000 177.545
48.21000 178.371
48.22000 179.145
48.23000 179.350
48.24000 179.395
48.25000 179.435
48.26000 179.462
48.27000 179.483
48.28000 179.308
48.29000 178.309
48.30000 177.218
48.31000 176.686
48.32000 177.704
48.33000 178.813
48.34000 179.540
48.35000 184.083
48.36000 187.488
48.37000 190.671
48.38000 193.582
48.39000 196.474
48.40000 194.408
48.41000 188.468
48.42000 182.626
48.43000 183.049
48.44000 186.586
48.45000 189.906
48.46000 189.784
48.47000 188.470
48.48000 187.469
48.49000 189.148
48.50000 191.441
48.51000 193.408
48.52000 190.633
48.53000 187.707
48.54000 184.968
48.55000 182.868
48.56000 180.821
48.57000 179.761
48.58000 180.966
48.59000 182.261
48.60000 183.049
48.61000 183.492
48.62000 183.806
48.63000 185.915
48.64000 189.798
48.65000 193.634
48.66000 193.550
48.67000 190.965
48.68000 188.452
48.69000 182.820
48.70000 176.204
48.71000 170.392
48.72000 173.890
48.73000 180.045
48.74000 185.649
48.75000 187.560
48.76000 188.784
48.77000 189.795
48.78000 184.637
48.79000 179.808
48.80000 177.305
48.81000 181.381
48.82000 185.856
48.83000 188.121
48.84000 186.193
48.85000 184.164
48.86000 183.034
48.87000 186.918
48.88000 189.599
48.89000 187.277
48.90000 180.967
48.91000 174.880
48.92000 178.040
48.93000 186.062
48.94000 193.738
48.95000 191.529
48.96000 186.223
48.97000 181.792
48.98000 185.053
48.99000 190.112
49.00000 193.832
49.01000 190.357
49.02000 185.814
49.03000 182.218
49.04000 177.535
49.05000 173.696
49.06000 173.025
49.07000 179.767
49.08000 186.815
49.09000 189.332
49.10000 184.765
49.11000 180.114
49.12000 177.777
49.13000 175.800
49.14000 174.530
49.15000 177.789
49.16000 183.996
49.17000 189.981
49.18000 190.364
49.19000 188.312
49.20000 186.386
49.21000 183.392
49.22000 180.379
49.23000 177.649
49.24000 176.865
49.25000 176.451
49.26000 176.141
49.27000 176.284
49.28000 176.479
49.29000 176.627
49.30000 177.626
49.31000 178.450
49.32000 179.560
49.33000 181.219
49.34000 182.893
49.35000 184.649
49.36000 186.510
49.37000 188.368
49.38000 185.691
49.39000 179.346
49.40000 173.100
49.41000 171.187
49.42000 171.598
49.43000 172.359
49.44000 179.090
49.45000 187.967
49.46000 196.114
49.47000 192.253
49.48000 186.256
49.49000 180.955
49.50000 179.477
49.51000 178.581
49.52000 178.783
49.53000 182.904
49.54000 187.373
49.55000 190.560
49.56000 185.071
49.57000 180.600
49.58000 178.835
49.59000 181.380
49.60000 183.981
49.61000 181.880
49.62000 174.927
49.63000 168.015
49.64000 167.380
49.65000 170.864
49.66000 174.247
49.67000 174.945
49.68000 174.455
49.69000 173.963
49.70000 173.453
49.71000 172.938
49.72000 172.477
49.73000 179.116
49.74000 186.100
49.75000 192.280
49.76000 194.888
49.77000 197.069
49.78000 198.472
49.79000 197.586
49.80000 196.551
49.81000 195.859
49.82000 191.910
49.83000 188.916
49.84000 185.804
49.85000 182.538
49.86000 179.276
49.87000 178.617
49.88000 180.119
49.89000 181.601
49.90000 182.366
49.91000 182.729
49.92000 183.027
49.93000 182.198
49.94000 180.955
49.95000 180.052
49.96000 182.289
49.97000 185.290
49.98000 187.889
49.99000 191.175
50.00000 194.062
50.01000 196.935
50.02000 199.761
50.03000 202.582
50.04000 202.611
50.05000 195.856
50.06000 188.798
50.07000 184.406
50.08000 194.067
50.09000 201.167
50.10000 208.662
50.11000 216.573
50.12000 224.427
50.13000 225.932
50.14000 223.140
50.15000 220.416
50.16000 224.841
50.17000 232.151
50.18000 238.819
50.19000 237.383
50.20000 233.498
50.21000 230.965
50.22000 238.169
50.23000 247.299
50.24000 254.929
50.25000 258.613
50.26000 261.270
50.27000 265.170
50.28000 272.788
50.29000 280.655
50.30000 286.165
50.31000 286.940
50.32000 287.582
50.33000 287.950
50.34000 288.723
50.35000 289.264
50.36000 290.099
50.37000 291.182
50.38000 292.282
50.39000 294.200
50.40000 296.575
50.41000 298.858
50.42000 298.395
50.43000 296.999
50.44000 296.068
50.45000 299.546
50.46000 304.119
50.47000 307.765
50.48000 306.099
50.49000 303.589
50.50000 301.576
50.51000 294.193
50.52000 287.807
50.53000 282.960
50.54000 281.919
50.55000 281.056
50.56000 280.569
50.57000 280.704
50.58000 280.849
50.59000 280.924
50.60000 277.437
50.61000 275.079
50.62000 272.256
50.63000 269.113
50.64000 266.017
50.65000 264.282
50.66000 263.173
50.67000 262.126
50.68000 251.088
50.69000 238.134
50.70000 226.504
50.71000 224.641
50.72000 224.751
50.73000 225.227
50.74000 227.394
50.75000 229.774
50.76000 231.595
50.77000 224.980
50.78000 219.298
50.79000 214.165
50.80000 210.159
50.81000 206.185
50.82000 202.700
50.83000 199.878
50.84000 197.062
50.85000 196.290
50.86000 197.287
50.87000 198.261
50.88000 198.016
50.89000 197.080
50.90000 196.051
50.91000 193.250
50.92000 189.777
50.93000 186.566
50.94000 191.981
50.95000 198.802
50.96000 204.345
50.97000 202.413
50.98000 199.265
50.99000 195.526
51.00000 189.551
51.01000 183.361
51.02000 178.870
51.03000 176.063
51.04000 173.969
51.05000 175.107
51.06000 181.700
51.07000 188.380
51.08000 189.633
51.09000 184.910
51.10000 180.203
51.11000 179.755
51.12000 182.280
51.13000 184.773
51.14000 186.287
51.15000 187.343
51.16000 188.075
51.17000 184.457
51.18000 179.474
51.19000 174.984
51.20000 176.935
51.21000 179.813
51.22000 181.143
51.23000 175.166
51.24000 168.251
51.25000 164.062
51.26000 168.351
51.27000 173.246
51.28000 176.587
51.29000 173.411
51.30000 170.885
51.31000 169.113
51.32000 168.388
51.33000 167.669
51.34000 166.977
51.35000 166.308
51.36000 165.646
51.37000 166.304
51.38000 167.692
51.39000 169.031
51.40000 169.425
51.41000 169.452
51.42000 169.874
51.43000 174.248
51.44000 179.642
51.45000 184.359
51.46000 178.656
51.47000 172.286
51.48000 167.154
51.49000 166.795
51.50000 166.908
51.51000 168.049
51.52000 171.831
51.53000 175.746
51.54000 178.238
51.55000 174.752
51.56000 172.145
51.57000 168.764
51.58000 164.515
51.59000 160.302
51.60000 161.661
51.61000 167.023
51.62000 172.272
51.63000 171.892
51.64000 168.946
51.65000 166.276
51.66000 167.439
51.67000 169.827
51.68000 171.499
51.69000 167.629
51.70000 162.591
51.71000 158.334
51.72000 161.322
51.73000 164.618
51.74000 168.055
51.75000 171.940
51.76000 175.858
51.77000 178.432
51.78000 178.148
51.79000 177.771
51.80000 177.550
51.81000 169.879
51.82000 164.437
51.83000 161.648
51.84000 161.256
51.85000 160.874
51.86000 161.086
51.87000 161.648
51.88000 162.190
51.89000 166.122
51.90000 171.089
51.91000 175.730
51.92000 177.023
51.93000 177.435
51.94000 177.279
51.95000 173.653
51.96000 169.437
51.97000 166.012
51.98000 167.761
51.99000 169.617
52.00000 170.431
52.01000 168.515
52.02000 166.458
52.03000 164.146
52.04000 161.390
52.05000 158.625
52.06000 157.147
52.07000 162.088
52.08000 165.444
52.09000 165.554
52.10000 163.286
52.11000 161.086
52.12000 161.140
52.13000 162.290
52.14000 163.383
52.15000 166.688
52.16000 170.406
52.17000 173.570
52.18000 172.341
52.19000 170.168
52.20000 168.116
52.21000 166.661
52.22000 165.286
52.23000 164.218
52.24000 168.920
52.25000 173.009
52.26000 174.534
52.27000 170.506
52.28000 166.289
52.29000 164.517
52.30000 166.267
52.31000 168.046
52.32000 167.930
52.33000 166.068
52.34000 164.264
52.35000 166.237
52.36000 170.479
52.37000 174.422
52.38000 172.035
52.39000 167.104
52.40000 162.516
52.41000 164.532
52.42000 167.956
52.43000 170.933
52.44000 171.115
52.45000 170.811
52.46000 170.323
52.47000 169.093
52.48000 167.786
52.49000 166.822
52.50000 162.247
52.51000 158.551
52.52000 156.023
52.53000 155.582
52.54000 155.182
52.55000 157.319
52.56000 162.429
52.57000 167.529
52.58000 170.955
52.59000 173.115
52.60000 175.172
52.61000 173.648
52.62000 170.349
52.63000 167.189
52.64000 166.084
52.65000 165.662
52.66000 165.279
52.67000 163.392
52.68000 161.434
52.69000 159.942
52.70000 160.795
52.71000 161.972
52.72000 161.945
52.73000 157.953
52.74000 153.651
52.75000 150.658
52.76000 150.857
52.77000 151.093
52.78000 152.450
52.79000 155.452
52.80000 158.469
52.81000 160.987
52.82000 163.033
52.83000 165.062
52.84000 167.804
52.85000 170.924
52.86000 173.715
52.87000 169.278
52.88000 161.881
52.89000 155.286
52.90000 157.422
52.91000 161.947
52.92000 165.941
52.93000 167.736
52.94000 168.947
52.95000 169.431
52.96000 166.937
52.97000 164.124
52.98000 163.106
52.99000 166.962
53.00000 171.092
53.01000 173.778
53.02000 168.358
53.03000 164.261
53.04000 163.470
53.05000 166.635
53.06000 169.800
53.07000 171.080
53.08000 170.920
53.09000 170.764
53.10000 172.284
53.11000 174.568
53.12000 176.424
53.13000 171.763
53.14000 164.895
53.15000 158.527
53.16000 156.325
53.17000 155.054
53.18000 153.969
53.19000 159.275
53.20000 164.504
53.21000 168.009
53.22000 165.729
53.23000 162.981
53.24000 161.739
53.25000 163.880
53.26000 166.147
53.27000 167.513
53.28000 163.224
53.29000 160.134
53.30000 158.763
53.31000 159.048
53.32000 159.336
53.33000 159.930
53.34000 160.714
53.35000 161.475
53.36000 161.807
53.37000 161.951
53.38000 161.978
53.39000 160.683
53.40000 159.021
53.41000 157.968
53.42000 160.905
53.43000 164.564
53.44000 167.574
53.45000 169.100
53.46000 170.221
53.47000 172.834
53.48000 179.580
53.49000 186.567
53.50000 187.244
53.51000 176.209
53.52000 164.912
53.53000 158.693
53.54000 162.106
53.55000 164.471
53.56000 166.126
53.57000 167.230
53.58000 168.292
53.59000 167.736
53.60000 166.348
53.61000 165.023
53.62000 161.341
53.63000 157.163
53.64000 153.958
53.65000 159.050
53.66000 166.037
53.67000 172.355
53.68000 175.177
53.69000 177.493
53.70000 179.317
53.71000 170.219
53.72000 162.199
53.73000 157.618
53.74000 160.904
53.75000 164.498
53.76000 166.026
53.77000 164.396
53.78000 162.732
53.79000 162.411
53.80000 163.413
53.81000 164.376
53.82000 162.091
53.83000 157.740
53.84000 153.543
53.85000 153.059
53.86000 154.152
53.87000 155.176
53.88000 157.522
53.89000 159.997
53.90000 161.736
53.91000 158.548
53.92000 154.449
53.93000 151.632
53.94000 154.270
53.95000 157.524
53.96000 159.962
53.97000 159.021
53.98000 158.128
53.99000 157.820
54.00000 158.621
54.01000 159.448
54.02000 160.032
54.03000 160.310
54.04000 160.587
54.05000 161.290
54.06000 162.326
54.07000 163.257
54.08000 159.866
54.09000 154.211
54.10000 148.977
54.11000 150.622
54.12000 154.684
54.13000 158.402
54.14000 156.964
54.15000 154.617
54.16000 153.478
54.17000 158.802
54.18000 165.080
54.19000 169.657
54.20000 168.303
54.21000 166.440
54.22000 165.120
54.23000 166.617
54.24000 167.842
54.25000 168.207
54.26000 167.233
54.27000 166.244
54.28000 165.389
54.29000 164.668
54.30000 163.952
54.31000 161.715
54.32000 158.540
54.33000 155.511
54.34000 156.102
54.35000 158.261
54.36000 160.299
54.37000 160.913
54.38000 161.113
54.39000 161.291
54.40000 161.346
54.41000 161.374
54.42000 161.783
54.43000 163.850
54.44000 166.108
54.45000 167.699
54.46000 167.371
54.47000 166.924
54.48000 166.626
54.49000 167.986
54.50000 169.021
54.51000 168.683
54.52000 166.596
54.53000 164.507
54.54000 163.829
54.55000 164.297
54.56000 164.758
54.57000 164.238
54.58000 163.225
54.59000 162.373
54.60000 164.250
54.61000 167.103
54.62000 169.340
54.63000 166.036
54.64000 161.416
54.65000 157.429
54.66000 155.718
54.67000 154.557
54.68000 154.575
54.69000 158.781
54.70000 163.356
54.71000 166.652
54.72000 166.909
54.73000 167.036
54.74000 167.114
54.75000 166.402
54.76000 165.883
54.77000 164.843
54.78000 163.268
54.79000 161.703
54.80000 161.176
54.81000 161.336
54.82000 161.491
54.83000 162.128
54.84000 162.937
54.85000 164.074
54.86000 169.210
54.87000 175.528
54.88000 180.484
54.89000 175.896
54.90000 169.466
54.91000 164.116
54.92000 165.199
54.93000 166.728
54.94000 168.835
54.95000 172.632
54.96000 176.539
54.97000 178.784
54.98000 177.764
54.99000 176.657
55.00000 176.031
55.01000 174.784
55.02000 173.921
55.03000 175.762
55.04000 179.840
55.05000 183.846
55.06000 184.500
55.07000 183.330
55.08000 182.207
55.09000 186.840
55.10000 193.134
55.11000 198.609
55.12000 196.529
55.13000 192.618
55.14000 189.521
55.15000 190.970
55.16000 193.122
55.17000 194.839
55.18000 202.338
55.19000 208.816
55.20000 213.884
55.21000 215.540
55.22000 217.044
55.23000 220.831
55.24000 228.315
55.25000 235.849
55.26000 239.709
55.27000 251.283
55.28000 259.023
55.29000 262.368
55.30000 262.751
55.31000 263.521
55.32000 274.868
55.33000 290.971
55.34000 306.145
55.35000 313.685
55.36000 318.484
55.37000 324.868
55.38000 342.619
55.39000 362.611
55.40000 380.784
55.41000 390.746
55.42000 399.708
55.43000 406.528
55.44000 425.264
55.45000 440.630
55.46000 456.403
55.47000 472.987
55.48000 489.594
55.49000 508.755
55.50000 531.301
55.51000 553.841
55.52000 571.201
55.53000 584.153
55.54000 597.138
55.55000 611.757
55.56000 627.284
55.57000 643.034
55.58000 662.850
55.59000 684.178
55.60000 703.837
55.61000 716.716
55.62000 726.746
55.63000 735.963
55.64000 740.542
55.65000 744.388
55.66000 750.626
55.67000 765.704
55.68000 781.607
55.69000 793.067
55.70000 798.757
55.71000 802.912
55.72000 798.557
55.73000 780.162
55.74000 761.559
55.75000 755.539
55.76000 763.025
55.77000 770.479
55.78000 762.601
55.79000 744.391
55.80000 726.185
55.81000 708.123
55.82000 690.126
55.83000 671.652
55.84000 647.009
55.85000 620.471
55.86000 596.637
55.87000 585.884
55.88000 578.778
55.89000 568.675
55.90000 544.760
55.91000 519.121
55.92000 496.214
55.93000 481.611
55.94000 467.581
55.95000 458.078
55.96000 441.549
55.97000 429.075
55.98000 416.231
55.99000 402.885
56.00000 389.533
56.01000 373.362
56.02000 354.760
56.03000 336.382
56.04000 321.521
56.05000 308.970
56.06000 296.489
56.07000 285.332
56.08000 274.676
56.09000 264.898
56.10000 263.638
56.11000 264.527
56.12000 265.301
56.13000 261.226
56.14000 257.073
56.15000 251.303
56.16000 239.441
56.17000 226.994
56.18000 217.780
56.19000 216.690
56.20000 215.990
56.21000 215.549
56.22000 206.453
56.23000 199.765
56.24000 195.542
56.25000 194.021
56.26000 192.489
56.27000 189.232
56.28000 184.766
56.29000 180.400
56.30000 178.338
56.31000 177.392
56.32000 176.782
56.33000 180.658
56.34000 185.936
56.35000 189.881
56.36000 183.812
56.37000 175.685
56.38000 168.848
56.39000 168.418
56.40000 168.744
56.41000 170.780
56.42000 178.116
56.43000 185.829
56.44000 189.296
56.45000 183.940
56.46000 178.312
56.47000 175.041
56.48000 169.479
56.49000 165.567
56.50000 165.161
56.51000 167.843
56.52000 170.481
56.53000 170.623
56.54000 169.328
56.55000 168.079
56.56000 164.997
56.57000 161.434
56.58000 158.220
56.59000 158.491
56.60000 159.657
56.61000 160.816
56.62000 161.927
56.63000 163.029
56.64000 163.921
56.65000 166.048
56.66000 167.878
56.67000 167.651
56.68000 162.162
56.69000 156.409
56.70000 154.344
56.71000 158.598
56.72000 162.960
56.73000 165.265
56.74000 156.977
56.75000 151.382
56.76000 151.722
56.77000 156.309
56.78000 160.728
56.79000 159.866
56.80000 156.494
56.81000 153.298
56.82000 151.107
56.83000 149.384
56.84000 147.897
56.85000 148.221
56.86000 148.926
56.87000 149.814
56.88000 151.582
56.89000 153.466
56.90000 154.920
56.91000 150.783
56.92000 147.178
56.93000 146.190
56.94000 150.739
56.95000 155.469
56.96000 157.649
56.97000 156.244
56.98000 154.814
56.99000 153.727
57.00000 152.947
57.01000 152.146
57.02000 150.020
57.03000 147.115
57.04000 144.513
57.05000 148.014
57.06000 153.915
57.07000 159.392
57.08000 157.302
57.09000 153.630
57.10000 150.117
57.11000 147.567
57.12000 145.180
57.13000 143.567
57.14000 144.978
57.15000 146.695
57.16000 147.954
57.17000 149.938
57.18000 151.500
57.19000 151.074
57.20000 147.174
57.21000 143.211
57.22000 142.985
57.23000 147.031
57.24000 151.069
57.25000 153.084
57.26000 153.618
57.27000 154.060
57.28000 151.463
57.29000 147.394
57.30000 143.675
57.31000 144.919
57.32000 147.776
57.33000 150.363
57.34000 152.725
57.35000 154.764
57.36000 156.789
57.37000 158.745
57.38000 160.691
57.39000 160.609
57.40000 153.999
57.41000 146.894
57.42000 141.990
57.43000 142.172
57.44000 142.440
57.45000 143.789
57.46000 146.692
57.47000 149.605
57.48000 150.520
57.49000 149.597
57.50000 148.683
57.51000 147.782
57.52000 146.907
57.53000 146.209
57.54000 149.234
57.55000 153.751
57.56000 157.612
57.57000 154.571
57.58000 149.686
57.59000 145.388
57.60000 140.036
57.61000 135.274
57.62000 133.088
57.63000 141.190
57.64000 150.362
57.65000 156.468
57.66000 154.431
57.67000 151.955
57.68000 150.358
57.69000 148.819
57.70000 147.697
57.71000 146.514
57.72000 145.260
57.73000 144.011
57.74000 143.597
57.75000 143.805
57.76000 144.010
57.77000 147.025
57.78000 151.267
57.79000 155.176
57.80000 154.194
57.81000 151.593
57.82000 149.359
57.83000 150.088
57.84000 151.465
57.85000 152.636
57.86000 150.584
57.87000 148.489
57.88000 146.690
57.89000 145.858
57.90000 145.102
57.91000 145.984
57.92000 150.463
57.93000 155.071
57.94000 157.818
57.95000 151.660
57.96000 147.241
57.97000 144.957
57.98000 144.677
57.99000 144.381
58.00000 142.955
58.01000 140.840
58.02000 138.791
58.03000 141.545
58.04000 146.004
58.05000 149.885
58.06000 147.519
58.07000 143.450
58.08000 140.115
58.09000 141.450
58.10000 143.610
58.11000 145.378
58.12000 144.658
58.13000 143.849
58.14000 143.274
58.15000 143.327
58.16000 143.416
58.17000 144.411
58.18000 147.051
58.19000 149.724
58.20000 151.179
58.21000 148.271
58.22000 146.274
58.23000 145.162
58.24000 144.723
58.25000 144.283
58.26000 143.826
58.27000 143.360
58.28000 142.916
58.29000 142.575
58.30000 142.291
58.31000 141.879
58.32000 140.403
58.33000 138.690
58.34000 137.484
58.35000 138.866
58.36000 140.612
58.37000 141.979
58.38000 142.678
58.39000 143.193
58.40000 143.932
58.41000 145.172
58.42000 146.430
58.43000 145.129
58.44000 140.008
58.45000 134.851
58.46000 134.101
58.47000 137.576
58.48000 141.018
58.49000 141.931
58.50000 141.271
58.51000 140.722
58.52000 142.671
58.53000 145.659
58.54000 148.450
58.55000 142.999
58.56000 135.976
58.57000 131.043
58.58000 139.724
58.59000 150.861
58.60000 158.921
58.61000 154.200
58.62000 148.079
58.63000 143.520
58.64000 139.969
58.65000 137.250
58.66000 134.705
58.67000 132.480
58.68000 130.262
58.69000 129.895
58.70000 131.783
58.71000 133.672
58.72000 134.448
58.73000 134.362
58.74000 134.285
58.75000 134.521
58.76000 134.919
58.77000 135.512
58.78000 139.164
58.79000 143.867
58.80000 148.159
58.81000 145.938
58.82000 142.655
58.83000 139.966
58.84000 140.382
58.85000 141.244
58.86000 141.689
58.87000 140.716
58.88000 139.625
58.89000 138.858
58.90000 136.393
58.91000 134.474
58.92000 133.709
58.93000 134.696
58.94000 135.701
58.95000 135.825
58.96000 135.085
58.97000 134.351
58.98000 137.214
58.99000 142.271
59.00000 147.111
59.01000 146.807
59.02000 144.324
59.03000 141.886
59.04000 139.977
59.05000 138.217
59.06000 136.656
59.07000 134.308
59.08000 132.148
59.09000 130.863
59.10000 133.286
59.11000 136.125
59.12000 136.677
59.13000 130.798
59.14000 124.534
59.15000 120.409
59.16000 127.460
59.17000 132.847
59.18000 136.448
59.19000 137.828
59.20000 139.197
59.21000 139.265
59.22000 138.304
59.23000 137.358
59.24000 139.342
59.25000 142.745
59.26000 145.849
59.27000 144.114
59.28000 140.684
59.29000 137.508
59.30000 136.545
59.31000 136.094
59.32000 135.707
59.33000 136.280
59.34000 136.884
59.35000 137.339
59.36000 137.280
59.37000 137.176
59.38000 136.695
59.39000 135.336
59.40000 133.941
59.41000 133.090
59.42000 135.756
59.43000 137.693
59.44000 139.237
59.45000 140.390
59.46000 141.550
59.47000 143.436
59.48000 145.791
59.49000 148.081
59.50000 145.234
59.51000 140.415
59.52000 136.072
59.53000 137.326
59.54000 140.197
59.55000 142.760
59.56000 143.227
59.57000 143.298
59.58000 143.357
59.59000 142.963
59.60000 142.595
59.61000 141.411
59.62000 137.891
59.63000 134.226
59.64000 131.881
59.65000 132.071
59.66000 132.324
59.67000 132.465
59.68000 133.656
59.69000 134.475
59.70000 132.201
59.71000 127.428
59.72000 122.846
59.73000 126.463
59.74000 134.443
59.75000 142.088
59.76000 141.213
59.77000 137.563
59.78000 134.474
59.79000 136.409
59.80000 139.532
59.81000 141.899
59.82000 140.143
59.83000 137.766
59.84000 135.880
59.85000 137.388
59.86000 138.842
59.87000 140.046
59.88000 140.655
59.89000 141.239
59.90000 142.157
59.91000 143.601
59.92000 145.052
59.93000 145.785
59.94000 141.106
59.95000 137.971
59.96000 134.635
59.97000 131.166
59.98000 127.872
59.99000 129.111
60.00000 132.342
60.01000 135.379
60.02000 134.850
60.03000 133.408
60.04000 132.236
60.05000 132.940
60.06000 134.006
60.07000 135.217
60.08000 137.065
60.09000 138.989
60.10000 140.445
60.11000 136.496
60.12000 133.126
60.13000 131.748
60.14000 134.267
60.15000 136.888
60.16000 139.883
60.17000 143.360
60.18000 146.834
60.19000 144.571
60.20000 137.602
60.21000 130.783
60.22000 130.775
60.23000 134.461
60.24000 137.925
60.25000 137.536
60.26000 135.746
60.27000 134.101
60.28000 135.854
60.29000 138.153
60.30000 139.925
60.31000 138.767
60.32000 137.157
60.33000 135.148
60.34000 131.695
60.35000 128.112
60.36000 125.547
60.37000 130.137
60.38000 133.884
60.39000 134.606
60.40000 130.451
60.41000 126.230
60.42000 124.397
60.43000 125.064
60.44000 125.726
60.45000 125.759
60.46000 125.374
60.47000 125.050
60.48000 126.392
60.49000 128.480
60.50000 130.746
60.51000 135.241
60.52000 140.404
60.53000 145.026
60.54000 142.052
60.55000 138.156
60.56000 134.516
60.57000 132.024
60.58000 129.673
60.59000 127.802
60.60000 127.361
60.61000 127.015
60.62000 126.782
60.63000 132.787
60.64000 137.377
60.65000 138.401
60.66000 134.720
60.67000 131.026
60.68000 132.681
60.69000 138.835
60.70000 144.909
60.71000 142.096
60.72000 134.579
60.73000 127.414
60.74000 126.593
60.75000 128.122
60.76000 129.644
60.77000 131.110
60.78000 132.561
60.79000 133.821
60.80000 140.032
60.81000 145.988
60.82000 149.568
60.83000 144.404
60.84000 138.428
60.85000 133.783
60.86000 132.409
60.87000 131.185
60.88000 130.420
60.89000 131.344
60.90000 132.028
60.91000 132.318
60.92000 132.185
60.93000 132.059
60.94000 132.753
60.95000 134.010
60.96000 135.237
60.97000 135.408
60.98000 135.111
60.99000 135.023
61.00000 137.626
61.01000 141.050
61.02000 143.787
61.03000 141.496
61.04000 138.198
61.05000 135.435
61.06000 137.034
61.07000 138.813
61.08000 139.829
61.09000 138.528
61.10000 137.069
61.11000 135.928
61.12000 135.433
61.13000 134.958
61.14000 134.684
61.15000 136.846
61.16000 138.369
61.17000 140.468
61.18000 143.061
61.19000 145.609
61.20000 145.839
61.21000 144.764
61.22000 143.729
61.23000 139.317
61.24000 133.981
61.25000 129.379
61.26000 131.859
61.27000 136.119
61.28000 139.677
61.29000 139.165
61.30000 137.997
61.31000 137.058
61.32000 138.382
61.33000 139.630
61.34000 140.031
61.35000 138.307
61.36000 136.481
61.37000 137.361
61.38000 142.776
61.39000 148.262
61.40000 151.126
61.41000 144.681
61.42000 140.358
61.43000 141.132
61.44000 145.470
61.45000 149.784
61.46000 153.417
61.47000 156.733
61.48000 159.868
61.49000 169.103
61.50000 179.335
61.51000 189.660
61.52000 200.673
61.53000 211.827
61.54000 223.025
61.55000 234.426
61.56000 245.853
61.57000 254.626
61.58000 271.413
61.59000 285.130
61.60000 301.431
61.61000 323.081
61.62000 344.895
61.63000 358.929
61.64000 362.272
61.65000 365.548
61.66000 371.145
61.67000 378.766
61.68000 386.286
61.69000 388.205
61.70000 386.909
61.71000 385.643
61.72000 384.947
61.73000 384.470
61.74000 384.028
61.75000 373.589
61.76000 361.902
61.77000 348.326
61.78000 323.544
61.79000 296.915
61.80000 272.983
61.81000 259.371
61.82000 246.771
61.83000 237.597
61.84000 215.996
61.85000 198.890
61.86000 185.630
61.87000 178.938
61.88000 172.356
61.89000 167.143
61.90000 163.455
61.91000 159.783
61.92000 155.867
61.93000 151.818
61.94000 147.865
61.95000 146.922
61.96000 147.404
61.97000 148.046
61.98000 150.878
61.99000 154.405
62.00000 157.588
62.01000 159.224
62.02000 160.378
62.03000 160.235
62.04000 153.893
62.05000 146.743
62.06000 141.638
62.07000 142.964
62.08000 144.760
62.09000 145.991
62.10000 138.062
62.11000 131.902
62.12000 132.116
62.13000 141.263
62.14000 150.468
62.15000 154.859
62.16000 154.939
62.17000 155.017
62.18000 153.931
62.19000 152.203
62.20000 150.420
62.21000 147.535
62.22000 144.218
62.23000 141.161
62.24000 140.744
62.25000 141.018
62.26000 141.257
62.27000 144.327
62.28000 147.371
62.29000 149.585
62.30000 148.566
62.31000 147.222
62.32000 146.156
62.33000 145.815
62.34000 145.511
62.35000 145.316
62.36000 144.778
62.37000 144.382
62.38000 144.661
62.39000 145.710
62.40000 146.751
62.41000 146.486
62.42000 145.272
62.43000 144.083
62.44000 146.483
62.45000 150.458
62.46000 154.010
62.47000 151.581
62.48000 147.216
62.49000 143.582
62.50000 145.675
62.51000 148.991
62.52000 151.798
62.53000 147.406
62.54000 142.921
62.55000 140.658
62.56000 145.516
62.57000 150.910
62.58000 152.884
62.59000 147.509
62.60000 141.885
62.61000 138.566
62.62000 137.879
62.63000 137.410
62.64000 140.593
62.65000 147.119
62.66000 153.537
62.67000 153.152
62.68000 148.709
62.69000 144.413
62.70000 144.016
62.71000 145.111
62.72000 146.294
62.73000 148.404
62.74000 150.760
62.75000 152.677
62.76000 151.873
62.77000 150.600
62.78000 149.564
62.79000 147.571
62.80000 145.863
62.81000 146.162
62.82000 151.775
62.83000 157.673
62.84000 160.419
62.85000 157.574
62.86000 154.621
62.87000 153.033
62.88000 145.002
62.89000 139.536
62.90000 139.357
62.91000 143.101
62.92000 146.759
62.93000 147.473
62.94000 146.737
62.95000 146.038
62.96000 149.299
62.97000 153.522
62.98000 156.764
62.99000 152.125
63.00000 145.771
63.01000 141.386
63.02000 146.812
63.03000 153.581
63.04000 158.852
63.05000 155.680
63.06000 152.632
63.07000 149.396
63.08000 145.750
63.09000 142.090
63.10000 143.102
63.11000 150.924
63.12000 158.804
63.13000 161.712
63.14000 159.975
63.15000 158.198
63.16000 153.714
63.17000 147.584
63.18000 141.752
63.19000 142.399
63.20000 145.681
63.21000 148.740
63.22000 148.869
63.23000 148.265
63.24000 147.384
63.25000 144.746
63.26000 141.798
63.27000 140.406
63.28000 145.324
63.29000 150.911
63.30000 155.046
63.31000 154.076
63.32000 153.103
63.33000 152.132
63.34000 151.165
63.35000 150.197
63.36000 148.683
63.37000 146.521
63.38000 144.362
63.39000 143.956
63.40000 144.871
63.41000 145.763
63.42000 145.862
63.43000 145.563
63.44000 145.449
63.45000 148.135
63.46000 151.761
63.47000 155.059
63.48000 153.765
63.49000 151.718
63.50000 150.383
63.51000 152.670
63.52000 155.463
63.53000 157.250
63.54000 155.684
63.55000 153.849
63.56000 152.569
63.57000 150.755
63.58000 149.370
63.59000 147.512
63.60000 144.949
63.61000 142.380
63.62000 142.243
63.63000 144.430
63.64000 146.598
63.65000 149.728
63.66000 153.387
63.67000 156.882
63.68000 156.698
63.69000 154.990
63.70000 153.214
63.71000 150.697
63.72000 147.974
63.73000 145.566
63.74000 150.718
63.75000 156.345
63.76000 160.300
63.77000 157.338
63.78000 153.623
63.79000 150.751
63.80000 150.195
63.81000 149.772
63.82000 149.496
63.83000 159.226
63.84000 166.531
63.85000 168.508
63.86000 164.025
63.87000 159.543
63.88000 158.966
63.89000 161.404
63.90000 163.800
63.91000 160.431
63.92000 154.330
63.93000 148.654
63.94000 149.600
63.95000 152.814
63.96000 155.545
63.97000 154.189
63.98000 151.906
63.99000 149.953
64.00000 152.889
64.01000 155.957
64.02000 158.665
64.03000 160.153
64.04000 161.541
64.05000 162.612
64.06000 162.965
64.07000 163.289
64.08000 163.486
64.09000 161.468
64.10000 160.014
64.11000 160.260
64.12000 162.165
64.13000 164.065
64.14000 165.655
64.15000 167.047
64.16000 168.400
64.17000 164.402
64.18000 158.462
64.19000 153.281
64.20000 156.732
64.21000 162.620
64.22000 167.846
64.23000 168.693
64.24000 168.736
64.25000 168.771
64.26000 164.818
64.27000 161.197
64.28000 159.491
64.29000 163.149
64.30000 167.127
64.31000 169.580
64.32000 169.171
64.33000 168.695
64.34000 168.432
64.35000 162.988
64.36000 159.234
64.37000 159.383
64.38000 162.607
64.39000 165.807
64.40000 168.082
64.41000 169.874
64.42000 171.588
64.43000 174.881
64.44000 178.457
64.45000 181.296
64.46000 177.746
64.47000 172.719
64.48000 168.700
64.49000 170.031
64.50000 172.147
64.51000 173.817
64.52000 173.326
64.53000 172.784
64.54000 174.549
64.55000 181.655
64.56000 188.976
64.57000 194.541
64.58000 197.390
64.59000 200.208
64.60000 198.669
64.61000 192.782
64.62000 186.940
64.63000 184.927
64.64000 185.380
64.65000 186.074
64.66000 192.668
64.67000 201.799
64.68000 210.363
64.69000 210.308
64.70000 207.999
64.71000 206.245
64.72000 208.258
64.73000 210.977
64.74000 213.510
64.75000 215.244
64.76000 216.885
64.77000 218.120
64.78000 218.985
64.79000 219.644
64.80000 222.739
64.81000 230.495
64.82000 238.365
64.83000 243.940
64.84000 246.616
64.85000 249.278
64.86000 254.740
64.87000 262.421
64.88000 270.208
64.89000 282.507
64.90000 297.198
64.91000 311.362
64.92000 316.736
64.93000 318.984
64.94000 321.044
64.95000 327.006
64.96000 333.134
64.97000 338.863
64.98000 342.422
64.99000 345.657
65.00000 352.218
65.01000 370.512
65.02000 389.831
65.03000 403.563
65.04000 402.985
65.05000 402.087
65.06000 405.183
65.07000 414.574
65.08000 424.043
65.09000 432.226
65.10000 439.097
65.11000 445.925
65.12000 451.560
65.13000 456.342
65.14000 461.017
65.15000 462.944
65.16000 463.667
65.17000 464.811
65.18000 471.039
65.19000 478.758
65.20000 485.645
65.21000 476.175
65.22000 465.207
65.23000 458.172
65.24000 468.405
65.25000 480.670
65.26000 489.785
65.27000 489.740
65.28000 489.111
65.29000 488.692
65.30000 477.655
65.31000 469.280
65.32000 462.611
65.33000 458.143
65.34000 453.682
65.35000 448.814
65.36000 443.611
65.37000 438.481
65.38000 429.582
65.39000 418.960
65.40000 408.827
65.41000 407.128
65.42000 408.486
65.43000 408.815
65.44000 399.762
65.45000 388.452
65.46000 378.674
65.47000 371.797
65.48000 366.332
65.49000 363.187
65.50000 368.387
65.51000 374.335
65.52000 376.633
65.53000 370.156
65.54000 363.295
65.55000 359.044
65.56000 364.626
65.57000 368.734
65.58000 371.035
65.59000 371.452
65.60000 371.913
65.61000 376.980
65.62000 385.131
65.63000 393.076
65.64000 406.772
65.65000 422.295
65.66000 439.028
65.67000 470.791
65.68000 507.047
65.69000 547.532
65.70000 618.066
65.71000 694.477
65.72000 758.200
65.73000 849.662
65.74000 928.269
65.75000 1012.195
65.76000 1111.876
65.77000 1212.595
65.78000 1302.268
65.79000 1369.993
65.80000 1437.118
65.81000 1475.324
65.82000 1541.009
65.83000 1586.838
65.84000 1611.504
65.85000 1618.435
65.86000 1625.511
65.87000 1639.493
65.88000 1657.278
65.89000 1674.365
65.90000 1650.922
65.91000 1614.971
65.92000 1578.202
65.93000 1533.770
65.94000 1487.459
65.95000 1430.738
65.96000 1315.137
65.97000 1190.294
65.98000 1090.399
65.99000 987.977
66.00000 904.973
66.01000 822.610
66.02000 741.818
66.03000 661.097
66.04000 592.777
66.05000 544.768
66.06000 497.052
66.07000 472.444
66.08000 438.441
66.09000 415.596
66.10000 399.887
66.11000 389.050
66.12000 378.069
66.13000 363.071
66.14000 346.245
66.15000 330.370
66.16000 332.259
66.17000 338.953
66.18000 345.335
66.19000 349.449
66.20000 353.111
66.21000 357.332
66.22000 364.109
66.23000 371.203
66.24000 376.617
66.25000 387.299
66.26000 395.999
66.27000 407.711
66.28000 425.523
66.29000 443.511
66.30000 465.443
66.31000 492.666
66.32000 519.895
66.33000 537.267
66.34000 546.184
66.35000 554.985
66.36000 557.826
66.37000 557.321
66.38000 557.066
66.39000 561.438
66.40000 567.550
66.41000 573.192
66.42000 585.222
66.43000 597.441
66.44000 607.378
66.45000 604.122
66.46000 598.749
66.47000 592.535
66.48000 583.182
66.49000 573.532
66.50000 566.552
66.51000 541.482
66.52000 521.583
66.53000 502.252
66.54000 483.869
66.55000 465.501
66.56000 447.113
66.57000 428.704
66.58000 410.379
66.59000 400.122
66.60000 395.532
66.61000 390.940
66.62000 386.290
66.63000 381.613
66.64000 377.192
66.65000 376.156
66.66000 376.170
66.67000 376.183
66.68000 374.752
66.69000 373.240
66.70000 371.089
66.71000 365.954
66.72000 360.441
66.73000 356.141
66.74000 355.568
66.75000 355.258
66.76000 355.047
66.77000 350.749
66.78000 347.448
66.79000 354.119
66.80000 374.443
66.81000 394.827
66.82000 396.909
66.83000 383.001
66.84000 369.255
66.85000 363.483
66.86000 362.301
66.87000 361.604
66.88000 370.214
66.89000 382.390
66.90000 393.451
66.91000 393.506
66.92000 390.752
66.93000 388.348
66.94000 385.563
66.95000 383.127
66.96000 381.425
66.97000 382.517
66.98000 383.883
66.99000 386.848
67.00000 393.880
67.01000 401.112
67.02000 405.696
67.03000 400.332
67.04000 396.320
67.05000 395.048
67.06000 396.819
67.07000 398.587
67.08000 399.710
67.09000 400.375
67.10000 401.026
67.11000 406.649
67.12000 414.299
67.13000 421.769
67.14000 426.799
67.15000 431.056
67.16000 433.643
67.17000 423.491
67.18000 410.688
67.19000 399.891
67.20000 403.951
67.21000 408.952
67.22000 414.095
67.23000 419.683
67.24000 425.304
67.25000 428.230
67.26000 425.491
67.27000 422.572
67.28000 420.866
67.29000 429.948
67.30000 436.386
67.31000 438.374
67.32000 436.393
67.33000 434.494
67.34000 437.403
67.35000 443.113
67.36000 448.624
67.37000 446.926
67.38000 442.676
67.39000 439.682
67.40000 449.416
67.41000 462.462
67.42000 473.609
67.43000 473.288
67.44000 471.043
67.45000 469.224
67.46000 464.035
67.47000 459.533
67.48000 456.055
67.49000 455.230
67.50000 454.541
67.51000 458.253
67.52000 469.598
67.53000 481.079
67.54000 487.184
67.55000 484.025
67.56000 481.862
67.57000 478.685
67.58000 474.774
67.59000 471.110
67.60000 475.418
67.61000 483.561
67.62000 491.289
67.63000 497.740
67.64000 503.312
67.65000 508.268
67.66000 508.414
67.67000 507.539
67.68000 506.827
67.69000 506.912
67.70000 507.104
67.71000 507.252
67.72000 511.089
67.73000 514.356
67.74000 520.344
67.75000 532.162
67.76000 544.174
67.77000 550.022
67.78000 547.090
67.79000 544.093
67.80000 541.485
67.81000 539.233
67.82000 537.073
67.83000 540.631
67.84000 547.587
67.85000 554.467
67.86000 559.776
67.87000 564.461
67.88000 568.815
67.89000 563.866
67.90000 557.172
67.91000 552.547
67.92000 560.701
67.93000 571.046
67.94000 580.820
67.95000 588.333
67.96000 595.614
67.97000 600.968
67.98000 600.141
67.99000 599.248
68.00000 598.426
68.01000 597.731
68.02000 597.038
68.03000 602.655
68.04000 615.584
68.05000 628.482
68.06000 631.777
68.07000 628.005
68.08000 624.532
68.09000 631.199
68.10000 642.835
68.11000 653.924
68.12000 657.085
68.13000 657.641
68.14000 658.145
68.15000 653.154
68.16000 647.700
68.17000 643.295
68.18000 644.103
68.19000 645.620
68.20000 649.348
68.21000 660.273
68.22000 671.754
68.23000 679.711
68.24000 682.586
68.25000 684.617
68.26000 684.665
68.27000 681.834
68.28000 678.982
68.29000 687.819
68.30000 707.536
68.31000 727.072
68.32000 736.217
68.33000 739.013
68.34000 741.968
68.35000 748.375
68.36000 756.179
68.37000 764.178
68.38000 774.255
68.39000 784.894
68.40000 794.269
68.41000 801.808
68.42000 808.027
68.43000 816.698
68.44000 835.281
68.45000 854.910
68.46000 871.143
68.47000 878.246
68.48000 884.846
68.49000 889.121
68.50000 885.398
68.51000 882.554
68.52000 894.871
68.53000 925.122
68.54000 955.406
68.55000 986.294
68.56000 1017.638
68.57000 1048.407
68.58000 1080.127
68.59000 1111.186
68.60000 1143.166
68.61000 1188.952
68.62000 1239.363
68.63000 1292.021
68.64000 1363.109
68.65000 1438.275
68.66000 1502.345
68.67000 1589.858
68.68000 1666.222
68.69000 1743.525
68.70000 1823.944
68.71000 1904.610
68.72000 1981.660
68.73000 2050.669
68.74000 2119.384
68.75000 2160.557
68.76000 2299.195
68.77000 2398.278
68.78000 2458.603
68.79000 2482.064
68.80000 2506.299
68.81000 2586.668
68.82000 2701.691
68.83000 2813.197
68.84000 2946.364
68.85000 3080.960
68.86000 3226.731
68.87000 3495.505
68.88000 3798.212
68.89000 4159.892
68.90000 4902.243
68.91000 5712.731
68.92000 6377.686
68.93000 8942.039
68.94000 11215.612
68.95000 14154.467
68.96000 18915.088
68.97000 23779.764
68.98000 29350.537
68.99000 36217.898
69.00000 43113.270
69.01000 46888.930
69.02000 56940.883
69.03000 63855.684
69.04000 69335.344
69.05000 73710.969
69.06000 78039.711
69.07000 80601.109
69.08000 82263.336
69.09000 83849.148
69.10000 84574.195
69.11000 84974.500
69.12000 85425.797
69.13000 86305.852
69.14000 87282.695
69.15000 88219.047
69.16000 88945.867
69.17000 89642.797
69.18000 90190.141
69.19000 88905.695
69.20000 87757.938
69.21000 85765.453
69.22000 81860.008
69.23000 77881.305
69.24000 73717.055
69.25000 69272.523
69.26000 64825.266
69.27000 60642.887
69.28000 56718.238
69.29000 52807.129
69.30000 49960.055
69.31000 47782.609
69.32000 45642.695
69.33000 44379.969
69.34000 43486.199
69.35000 42650.070
69.36000 41337.293
69.37000 40022.910
69.38000 38562.875
69.39000 36141.188
69.40000 33543.645
69.41000 30786.535
69.42000 27358.518
69.43000 23855.818
69.44000 21238.740
69.45000 17432.154
69.46000 14409.784
69.47000 11722.895
69.48000 9663.777
69.49000 7619.049
69.50000 6026.411
69.51000 4991.062
69.52000 3959.256
69.53000 3309.544
69.54000 2961.562
69.55000 2616.304
69.56000 2379.482
69.57000 2198.876
69.58000 2022.499
69.59000 1913.766
69.60000 1828.558
69.61000 1750.689
69.62000 1671.880
69.63000 1601.687
69.64000 1532.033
69.65000 1465.235
69.66000 1398.854
69.67000 1341.902
69.68000 1317.454
69.69000 1295.746
69.70000 1280.425
69.71000 1240.759
69.72000 1209.919
69.73000 1175.555
69.74000 1135.766
69.75000 1095.916
69.76000 1069.304
69.77000 1055.841
69.78000 1042.474
69.79000 1026.733
69.80000 1009.743
69.81000 992.582
69.82000 971.258
69.83000 948.150
69.84000 925.018
69.85000 901.610
69.86000 878.122
69.87000 857.240
69.88000 836.389
69.89000 818.299
69.90000 803.846
69.91000 804.990
69.92000 807.914
69.93000 808.130
69.94000 800.647
69.95000 792.693
69.96000 787.432
69.97000 776.428
69.98000 768.204
69.99000 754.838
70.00000 735.003
