20.00000 559.707
20.01000 558.013
20.02000 556.077
20.03000 555.234
20.04000 558.613
20.05000 562.413
20.06000 565.187
20.07000 570.628
20.08000 574.926
20.09000 580.324
20.10000 587.616
20.11000 594.941
20.12000 593.026
20.13000 580.690
20.14000 568.391
20.15000 561.108
20.16000 557.471
20.17000 553.934
20.18000 553.542
20.19000 554.655
20.20000 555.867
20.21000 558.461
20.22000 561.498
20.23000 564.243
20.24000 564.806
20.25000 564.897
20.26000 565.600
20.27000 569.263
20.28000 573.317
20.29000 574.967
20.30000 568.979
20.31000 562.424
20.32000 557.918
20.33000 560.343
20.34000 562.334
20.35000 564.427
20.36000 566.665
20.37000 568.904
20.38000 570.213
20.39000 570.680
20.40000 571.143
20.41000 563.730
20.42000 551.925
20.43000 540.550
20.44000 537.984
20.45000 538.902
20.46000 540.476
20.47000 548.819
20.48000 558.949
20.49000 567.840
20.50000 561.367
20.51000 553.558
20.52000 546.300
20.53000 541.216
20.54000 536.354
20.55000 534.910
20.56000 542.435
20.57000 550.431
20.58000 555.562
20.59000 551.810
20.60000 548.953
20.61000 545.708
20.62000 542.016
20.63000 538.374
20.64000 543.720
20.65000 555.668
20.66000 567.381
20.67000 572.643
20.68000 574.682
20.69000 575.870
20.70000 564.844
20.71000 549.827
20.72000 536.817
20.73000 539.770
20.74000 546.164
20.75000 551.589
20.76000 551.289
20.77000 550.388
20.78000 548.715
20.79000 544.539
20.80000 540.172
20.81000 535.802
20.82000 531.427
20.83000 527.053
20.84000 524.459
20.85000 544.103
20.86000 558.121
20.87000 562.739
20.88000 558.659
20.89000 554.650
20.90000 555.256
20.91000 558.643
20.92000 561.920
20.93000 558.984
20.94000 553.845
20.95000 548.974
20.96000 546.963
20.97000 545.721
20.98000 546.412
20.99000 559.219
21.00000 574.135
21.01000 586.310
21.02000 563.273
21.03000 541.407
21.04000 527.105
21.05000 533.026
21.06000 540.050
21.07000 544.820
21.08000 545.550
21.09000 546.199
21.10000 546.550
21.11000 538.600
21.12000 533.179
21.13000 533.956
21.14000 539.380
21.15000 544.789
21.16000 549.713
21.17000 554.397
21.18000 558.854
21.19000 558.182
21.20000 555.978
21.21000 553.006
21.22000 543.775
21.23000 533.167
21.24000 525.006
21.25000 529.172
21.26000 535.045
21.27000 539.629
21.28000 534.680
21.29000 530.134
21.30000 527.425
21.31000 528.779
21.32000 530.279
21.33000 534.366
21.34000 542.266
21.35000 550.200
21.36000 549.549
21.37000 540.789
21.38000 532.180
21.39000 534.381
21.40000 543.219
21.41000 551.817
21.42000 555.097
21.43000 556.194
21.44000 557.216
21.45000 556.160
21.46000 554.686
21.47000 552.533
21.48000 546.023
21.49000 538.739
21.50000 533.769
21.51000 538.284
21.52000 543.820
21.53000 547.928
21.54000 540.925
21.55000 534.996
21.56000 533.807
21.57000 541.274
21.58000 548.924
21.59000 551.655
21.60000 548.480
21.61000 545.300
21.62000 546.894
21.63000 552.107
21.64000 557.085
21.65000 553.345
21.66000 545.194
21.67000 538.027
21.68000 545.925
21.69000 558.936
21.70000 570.789
21.71000 572.428
21.72000 571.850
21.73000 569.470
21.74000 557.821
21.75000 544.859
21.76000 535.672
21.77000 539.181
21.78000 543.721
21.79000 546.900
21.80000 548.003
21.81000 548.778
21.82000 557.710
21.83000 578.892
21.84000 600.195
21.85000 608.220
21.86000 603.421
21.87000 598.660
21.88000 606.290
21.89000 621.404
21.90000 635.815
21.91000 633.993
21.92000 625.380
21.93000 617.774
21.94000 621.470
21.95000 628.327
21.96000 634.400
21.97000 640.914
21.98000 646.620
21.99000 652.097
22.00000 656.614
22.01000 661.025
22.02000 664.987
22.03000 667.702
22.04000 670.344
22.05000 672.076
22.06000 676.405
22.07000 679.630
22.08000 682.117
22.09000 683.700
22.10000 685.276
22.11000 685.878
22.12000 685.719
22.13000 685.563
22.14000 681.323
22.15000 675.185
22.16000 669.057
22.17000 663.105
22.18000 657.214
22.19000 651.570
22.20000 648.038
22.21000 644.991
22.22000 642.378
22.23000 639.919
22.24000 637.862
22.25000 636.610
22.26000 638.118
22.27000 639.858
22.28000 638.311
22.29000 629.223
22.30000 619.837
22.31000 614.135
22.32000 612.955
22.33000 612.148
22.34000 605.838
22.35000 594.096
22.36000 582.441
22.37000 577.949
22.38000 578.027
22.39000 578.103
22.40000 576.481
22.41000 574.253
22.42000 572.520
22.43000 576.519
22.44000 582.153
22.45000 587.316
22.46000 589.325
22.47000 590.749
22.48000 591.925
22.49000 581.328
22.50000 571.494
22.51000 562.336
22.52000 555.084
22.53000 547.948
22.54000 542.771
22.55000 541.308
22.56000 539.933
22.57000 539.168
22.58000 537.452
22.59000 536.269
22.60000 537.092
22.61000 539.511
22.62000 541.910
22.63000 543.419
22.64000 544.461
22.65000 545.458
22.66000 536.601
22.67000 525.116
22.68000 515.665
22.69000 524.066
22.70000 536.638
22.71000 546.756
22.72000 543.709
22.73000 538.709
22.74000 534.752
22.75000 532.326
22.76000 530.483
22.77000 528.363
22.78000 525.597
22.79000 522.803
22.80000 519.147
22.81000 514.143
22.82000 509.124
22.83000 506.603
22.84000 507.664
22.85000 508.413
22.86000 512.871
22.87000 519.741
22.88000 526.450
22.89000 529.119
22.90000 530.035
22.91000 530.895
22.92000 526.841
22.93000 521.843
22.94000 517.431
22.95000 517.049
22.96000 517.431
22.97000 517.500
22.98000 516.206
22.99000 514.753
23.00000 513.658
23.01000 516.196
23.02000 518.361
23.03000 517.286
23.04000 509.950
23.05000 502.456
23.06000 498.860
23.07000 500.240
23.08000 501.637
23.09000 504.343
23.10000 508.102
23.11000 511.769
23.12000 511.471
23.13000 509.049
23.14000 507.069
23.15000 512.583
23.16000 520.788
23.17000 528.318
23.18000 515.817
23.19000 500.414
23.20000 488.805
23.21000 497.994
23.22000 510.338
23.23000 520.440
23.24000 522.548
23.25000 523.948
23.26000 524.946
23.27000 518.977
23.28000 514.199
23.29000 511.091
23.30000 510.644
23.31000 510.231
23.32000 512.532
23.33000 517.632
23.34000 522.701
23.35000 516.007
23.36000 501.710
23.37000 487.753
23.38000 482.723
23.39000 481.644
23.40000 481.066
23.41000 486.639
23.42000 494.033
23.43000 500.640
23.44000 494.524
23.45000 487.049
23.46000 482.201
23.47000 489.014
23.48000 497.218
23.49000 503.657
23.50000 504.918
23.51000 505.843
23.52000 506.462
23.53000 501.617
23.54000 497.917
23.55000 496.511
23.56000 498.093
23.57000 499.687
23.58000 500.677
23.59000 501.165
23.60000 501.646
23.61000 500.240
23.62000 497.872
23.63000 495.588
23.64000 494.796
23.65000 494.548
23.66000 494.441
23.67000 495.635
23.68000 497.146
23.69000 498.454
23.70000 494.534
23.71000 490.508
23.72000 488.535
23.73000 494.016
23.74000 500.175
23.75000 505.765
23.76000 509.974
23.77000 514.120
23.78000 516.699
23.79000 518.602
23.80000 519.965
23.81000 514.894
23.82000 503.043
23.83000 491.264
23.84000 487.444
23.85000 489.008
23.86000 490.533
23.87000 489.174
23.88000 486.632
23.89000 484.512
23.90000 487.724
23.91000 492.546
23.92000 496.746
23.93000 496.473
23.94000 495.316
23.95000 494.349
23.96000 496.444
23.97000 498.493
23.98000 499.965
23.99000 499.710
24.00000 499.340
24.01000 498.498
24.02000 496.709
24.03000 494.893
24.04000 493.855
24.05000 494.167
24.06000 494.392
24.07000 496.230
24.08000 499.435
24.09000 502.608
24.10000 504.235
24.11000 505.003
24.12000 505.740
24.13000 503.184
24.14000 499.638
24.15000 495.719
24.16000 488.258
24.17000 479.919
24.18000 473.063
24.19000 474.700
24.20000 477.684
24.21000 480.077
24.22000 476.198
24.23000 472.582
24.24000 469.682
24.25000 468.553
24.26000 467.507
24.27000 469.709
24.28000 477.286
24.29000 484.944
24.30000 488.915
24.31000 481.919
24.32000 477.218
24.33000 475.211
24.34000 475.063
24.35000 474.737
24.36000 469.309
24.37000 461.538
24.38000 454.198
24.39000 463.554
24.40000 476.854
24.41000 489.211
24.42000 494.619
24.43000 498.624
24.44000 500.499
24.45000 492.529
24.46000 483.327
24.47000 476.285
24.48000 473.000
24.49000 470.613
24.50000 470.838
24.51000 476.404
24.52000 482.127
24.53000 483.014
24.54000 477.344
24.55000 471.640
24.56000 473.443
24.57000 481.723
24.58000 489.802
24.59000 487.344
24.60000 478.913
24.61000 471.051
24.62000 473.927
24.63000 480.881
24.64000 487.308
24.65000 484.285
24.66000 479.428
24.67000 475.877
24.68000 479.971
24.69000 485.306
24.70000 489.621
24.71000 490.089
24.72000 490.186
24.73000 490.256
24.74000 485.312
24.75000 481.327
24.76000 477.070
24.77000 472.356
24.78000 467.635
24.79000 469.530
24.80000 478.702
24.81000 487.838
24.82000 487.827
24.83000 481.447
24.84000 475.290
24.85000 475.857
24.86000 479.569
24.87000 482.756
24.88000 478.891
24.89000 472.814
24.90000 467.340
24.91000 470.763
24.92000 475.376
24.93000 479.025
24.94000 478.133
24.95000 476.657
24.96000 475.743
24.97000 476.575
24.98000 477.532
24.99000 478.184
25.00000 487.178
25.01000 494.096
25.02000 494.213
25.03000 484.923
25.04000 475.575
25.05000 469.221
25.06000 465.510
25.07000 461.840
25.08000 465.236
25.09000 472.537
25.10000 479.538
25.11000 480.659
25.12000 479.506
25.13000 478.434
25.14000 478.180
25.15000 478.138
25.16000 478.101
25.17000 469.647
25.18000 461.208
25.19000 456.937
25.20000 468.715
25.21000 482.080
25.22000 488.530
25.23000 477.234
25.24000 465.046
25.25000 457.292
25.26000 463.828
25.27000 468.756
25.28000 473.780
25.29000 478.911
25.30000 484.014
25.31000 484.718
25.32000 482.267
25.33000 479.867
25.34000 469.888
25.35000 456.833
25.36000 444.857
25.37000 447.809
25.38000 455.534
25.39000 462.883
25.40000 467.332
25.41000 471.171
25.42000 474.414
25.43000 476.789
25.44000 478.679
25.45000 480.855
25.46000 483.935
25.47000 487.082
25.48000 488.935
25.49000 488.043
25.50000 487.061
25.51000 486.485
25.52000 480.351
25.53000 476.000
25.54000 469.754
25.55000 461.800
25.56000 454.034
25.57000 457.646
25.58000 467.954
25.59000 477.912
25.60000 467.637
25.61000 450.432
25.62000 434.830
25.63000 435.695
25.64000 440.891
25.65000 446.344
25.66000 453.373
25.67000 460.669
25.68000 466.595
25.69000 466.150
25.70000 465.260
25.71000 467.285
25.72000 476.933
25.73000 486.980
25.74000 488.783
25.75000 476.145
25.76000 463.240
25.77000 456.341
25.78000 471.226
25.79000 481.343
25.80000 483.209
25.81000 479.034
25.82000 474.946
25.83000 473.703
25.84000 473.843
25.85000 473.976
25.86000 468.508
25.87000 461.774
25.88000 455.489
25.89000 452.763
25.90000 450.801
25.91000 448.211
25.92000 442.533
25.93000 436.440
25.94000 431.710
25.95000 448.357
25.96000 462.886
25.97000 472.915
25.98000 473.210
25.99000 473.173
26.00000 471.589
26.01000 467.781
26.02000 463.956
26.03000 463.319
26.04000 465.617
26.05000 467.884
26.06000 468.098
26.07000 467.081
26.08000 466.269
26.09000 469.809
26.10000 475.098
26.11000 480.020
26.12000 472.770
26.13000 463.271
26.14000 455.012
26.15000 454.497
26.16000 455.325
26.17000 456.608
26.18000 459.713
26.19000 463.009
26.20000 465.439
26.21000 462.460
26.22000 459.926
26.23000 459.555
26.24000 463.045
26.25000 466.612
26.26000 465.105
26.27000 457.657
26.28000 450.222
26.29000 450.165
26.30000 455.577
26.31000 460.870
26.32000 461.994
26.33000 461.054
26.34000 459.915
26.35000 455.820
26.36000 450.744
26.37000 446.135
26.38000 443.538
26.39000 441.634
26.40000 440.669
26.41000 444.416
26.42000 448.812
26.43000 452.100
26.44000 451.742
26.45000 451.099
26.46000 450.652
26.47000 453.058
26.48000 454.949
26.49000 453.499
26.50000 447.147
26.51000 440.753
26.52000 440.819
26.53000 446.967
26.54000 453.061
26.55000 455.120
26.56000 454.719
26.57000 454.626
26.58000 461.326
26.59000 470.805
26.60000 479.123
26.61000 474.825
26.62000 467.079
26.63000 460.243
26.64000 460.922
26.65000 462.656
26.66000 463.205
26.67000 458.912
26.68000 454.100
26.69000 451.003
26.70000 452.557
26.71000 454.372
26.72000 455.552
26.73000 454.917
26.74000 454.424
26.75000 454.116
26.76000 454.029
26.77000 453.928
26.78000 450.703
26.79000 445.097
26.80000 439.590
26.81000 440.983
26.82000 445.688
26.83000 449.882
26.84000 446.293
26.85000 440.072
26.86000 435.391
26.87000 443.506
26.88000 454.482
26.89000 463.855
26.90000 456.549
26.91000 448.414
26.92000 440.648
26.93000 434.120
26.94000 427.691
26.95000 425.521
26.96000 432.907
26.97000 440.652
26.98000 445.312
26.99000 441.704
27.00000 439.080
27.01000 437.138
27.02000 435.852
27.03000 434.671
27.04000 441.428
27.05000 453.133
27.06000 464.489
27.07000 462.155
27.08000 454.531
27.09000 447.191
27.10000 443.025
27.11000 439.743
27.12000 437.215
27.13000 439.617
27.14000 442.911
27.15000 445.619
27.16000 445.920
27.17000 445.949
27.18000 446.536
27.19000 448.663
27.20000 450.879
27.21000 449.716
27.22000 442.288
27.23000 434.719
27.24000 430.555
27.25000 449.627
27.26000 462.757
27.27000 464.224
27.28000 456.623
27.29000 449.153
27.30000 446.729
27.31000 446.897
27.32000 447.058
27.33000 444.412
27.34000 441.055
27.35000 437.945
27.36000 436.941
27.37000 436.416
27.38000 435.898
27.39000 435.412
27.40000 434.931
27.41000 434.552
27.42000 427.805
27.43000 421.975
27.44000 420.343
27.45000 428.313
27.46000 436.660
27.47000 442.815
27.48000 445.627
27.49000 448.404
27.50000 449.832
27.51000 449.932
27.52000 449.939
27.53000 442.266
27.54000 429.709
27.55000 417.821
27.56000 421.900
27.57000 432.759
27.58000 442.930
27.59000 441.705
27.60000 437.647
27.61000 433.017
27.62000 424.571
27.63000 415.419
27.64000 409.048
27.65000 414.487
27.66000 421.259
27.67000 426.332
27.68000 436.963
27.69000 445.522
27.70000 450.013
27.71000 446.815
27.72000 443.436
27.73000 438.911
27.74000 432.958
27.75000 427.012
27.76000 427.873
27.77000 434.106
27.78000 440.145
27.79000 438.259
27.80000 432.225
27.81000 426.370
27.82000 423.433
27.83000 421.520
27.84000 419.770
27.85000 417.934
27.86000 416.283
27.87000 415.686
27.88000 420.721
27.89000 426.587
27.90000 431.824
27.91000 434.867
27.92000 437.722
27.93000 439.743
27.94000 439.530
27.95000 439.299
27.96000 436.665
27.97000 430.292
27.98000 423.877
27.99000 423.288
28.00000 428.555
28.01000 433.787
28.02000 435.876
28.03000 435.929
28.04000 435.934
28.05000 434.745
28.06000 433.040
28.07000 431.128
28.08000 426.775
28.09000 421.714
28.10000 417.208
28.11000 417.693
28.12000 418.933
28.13000 420.433
28.14000 423.059
28.15000 425.815
28.16000 427.624
28.17000 426.719
28.18000 425.644
28.19000 424.931
28.20000 430.380
28.21000 434.521
28.22000 434.433
28.23000 428.970
28.24000 423.507
28.25000 425.159
28.26000 432.573
28.27000 439.877
28.28000 436.014
28.29000 426.485
28.30000 417.581
28.31000 419.211
28.32000 424.610
28.33000 429.837
28.34000 433.519
28.35000 436.835
28.36000 439.695
28.37000 438.608
28.38000 437.180
28.39000 437.047
28.40000 441.513
28.41000 446.385
28.42000 445.558
28.43000 431.205
28.44000 416.275
28.45000 407.074
28.46000 414.686
28.47000 420.301
28.48000 426.491
28.49000 433.272
28.50000 439.992
28.51000 440.766
28.52000 437.610
28.53000 434.536
28.54000 429.888
28.55000 424.794
28.56000 419.839
28.57000 416.570
28.58000 413.798
28.59000 412.222
28.60000 419.014
28.61000 427.421
28.62000 434.414
28.63000 425.404
28.64000 416.374
28.65000 410.156
28.66000 412.159
28.67000 414.692
28.68000 414.886
28.69000 410.491
28.70000 405.974
28.71000 403.419
28.72000 410.633
28.73000 415.677
28.74000 420.393
28.75000 424.840
28.76000 429.141
28.77000 426.760
28.78000 420.747
28.79000 414.976
28.80000 419.955
28.81000 428.272
28.82000 435.114
28.83000 428.382
28.84000 418.363
28.85000 409.724
28.86000 408.771
28.87000 409.007
28.88000 409.195
28.89000 408.211
28.90000 407.330
28.91000 407.226
28.92000 409.002
28.93000 410.860
28.94000 411.580
28.95000 410.459
28.96000 409.312
28.97000 408.725
28.98000 415.171
28.99000 419.525
29.00000 426.317
29.01000 434.751
29.02000 442.781
29.03000 439.841
29.04000 431.973
29.05000 424.560
29.06000 415.699
29.07000 407.189
29.08000 399.529
29.09000 397.959
29.10000 397.587
29.11000 398.394
29.12000 404.519
29.13000 411.291
29.14000 416.442
29.15000 410.480
29.16000 405.209
29.17000 403.002
29.18000 406.925
29.19000 411.018
29.20000 415.257
29.21000 419.689
29.22000 424.119
29.23000 420.160
29.24000 409.153
29.25000 398.417
29.26000 401.016
29.27000 411.003
29.28000 420.487
29.29000 420.883
29.30000 417.902
29.31000 415.155
29.32000 404.226
29.33000 392.633
29.34000 383.582
29.35000 389.010
29.36000 396.728
29.37000 403.504
29.38000 406.807
29.39000 409.785
29.40000 411.931
29.41000 410.425
29.42000 409.142
29.43000 409.535
29.44000 412.692
29.45000 415.889
29.46000 419.796
29.47000 424.462
29.48000 429.105
29.49000 426.796
29.50000 419.792
29.51000 412.963
29.52000 411.116
29.53000 411.549
29.54000 411.931
29.55000 411.654
29.56000 411.174
29.57000 410.743
29.58000 412.096
29.59000 413.593
29.60000 414.645
29.61000 413.647
29.62000 412.392
29.63000 411.114
29.64000 409.767
29.65000 408.414
29.66000 407.498
29.67000 410.708
29.68000 413.191
29.69000 411.640
29.70000 404.643
29.71000 397.630
29.72000 401.369
29.73000 414.372
29.74000 427.217
29.75000 427.258
29.76000 420.249
29.77000 413.972
29.78000 421.417
29.79000 434.054
29.80000 445.652
29.81000 447.170
29.82000 446.148
29.83000 445.259
29.84000 445.000
29.85000 444.865
29.86000 443.110
29.87000 435.255
29.88000 426.817
29.89000 421.737
29.90000 425.087
29.91000 428.841
29.92000 431.208
29.93000 430.394
29.94000 429.767
29.95000 428.435
29.96000 426.331
29.97000 424.259
29.98000 426.571
29.99000 431.955
30.00000 437.218
30.01000 442.463
30.02000 447.482
30.03000 451.683
30.04000 444.969
30.05000 434.844
30.06000 426.199
30.07000 428.658
30.08000 433.397
30.09000 437.383
30.10000 445.981
30.11000 453.640
30.12000 457.699
30.13000 450.612
30.14000 442.734
30.15000 437.042
30.16000 435.891
30.17000 434.879
30.18000 434.291
30.19000 436.330
30.20000 437.770
30.21000 437.369
30.22000 435.348
30.23000 433.361
30.24000 433.271
30.25000 434.275
30.26000 435.242
30.27000 435.320
30.28000 435.072
30.29000 435.177
30.30000 438.799
30.31000 443.324
30.32000 446.314
30.33000 440.170
30.34000 432.517
30.35000 426.332
30.36000 423.190
30.37000 420.878
30.38000 419.427
30.39000 420.176
30.40000 421.036
30.41000 423.367
30.42000 428.219
30.43000 433.114
30.44000 435.699
30.45000 428.367
30.46000 423.419
30.47000 423.820
30.48000 428.044
30.49000 432.156
30.50000 432.749
30.51000 431.669
30.52000 430.647
30.53000 432.071
30.54000 434.101
30.55000 435.965
30.56000 436.549
30.57000 436.864
30.58000 435.334
30.59000 424.950
30.60000 413.408
30.61000 404.499
30.62000 414.036
30.63000 422.668
30.64000 426.928
30.65000 421.940
30.66000 416.653
30.67000 415.921
30.68000 421.592
30.69000 427.305
30.70000 431.154
30.71000 433.324
30.72000 435.447
30.73000 434.706
30.74000 432.285
30.75000 430.131
30.76000 433.357
30.77000 438.696
30.78000 443.651
30.79000 446.188
30.80000 447.904
30.81000 451.064
30.82000 463.016
30.83000 476.452
30.84000 485.556
30.85000 477.721
30.86000 468.173
30.87000 461.178
30.88000 470.497
30.89000 478.347
30.90000 484.222
30.91000 486.650
30.92000 489.015
30.93000 491.712
30.94000 494.787
30.95000 497.852
30.96000 506.184
30.97000 518.253
30.98000 530.432
30.99000 546.176
31.00000 563.646
31.01000 579.977
31.02000 580.129
31.03000 575.031
31.04000 570.416
31.05000 604.252
31.06000 641.302
31.07000 676.818
31.08000 704.828
31.09000 731.831
31.10000 762.407
31.11000 804.465
31.12000 847.391
31.13000 877.018
31.14000 944.040
31.15000 995.355
31.16000 1055.672
31.17000 1128.895
31.18000 1202.223
31.19000 1288.652
31.20000 1387.103
31.21000 1484.601
31.22000 1571.485
31.23000 1650.347
31.24000 1731.003
31.25000 1849.344
31.26000 1982.766
31.27000 2112.192
31.28000 2199.630
31.29000 2275.851
31.30000 2342.881
31.31000 2457.282
31.32000 2562.752
31.33000 2664.106
31.34000 2749.045
31.35000 2832.280
31.36000 2900.580
31.37000 2929.242
31.38000 2955.771
31.39000 2972.871
31.40000 2995.188
31.41000 3011.561
31.42000 2998.356
31.43000 2950.646
31.44000 2902.945
31.45000 2866.568
31.46000 2838.616
31.47000 2811.195
31.48000 2746.255
31.49000 2665.851
31.50000 2583.762
31.51000 2476.971
31.52000 2362.011
31.53000 2247.298
31.54000 2134.573
31.55000 2022.282
31.56000 1926.792
31.57000 1809.946
31.58000 1709.350
31.59000 1610.166
31.60000 1515.605
31.61000 1421.405
31.62000 1335.162
31.63000 1266.389
31.64000 1198.236
31.65000 1157.624
31.66000 1078.805
31.67000 1022.715
31.68000 970.500
31.69000 921.918
31.70000 873.429
31.71000 831.292
31.72000 793.026
31.73000 755.966
31.74000 721.948
31.75000 690.944
31.76000 660.428
31.77000 635.185
31.78000 611.376
31.79000 589.959
31.80000 583.744
31.81000 580.211
31.82000 577.320
31.83000 550.656
31.84000 526.734
31.85000 507.880
31.86000 502.734
31.87000 498.352
31.88000 495.912
31.89000 496.991
31.90000 498.143
31.91000 498.769
31.92000 478.793
31.93000 465.097
31.94000 459.117
31.95000 458.993
31.96000 458.828
31.97000 457.179
31.98000 454.785
31.99000 452.503
32.00000 443.116
32.01000 432.195
32.02000 422.133
32.03000 419.173
32.04000 417.793
32.05000 417.316
32.06000 421.443
32.07000 426.216
32.08000 429.953
32.09000 424.957
32.10000 420.407
32.11000 418.768
32.12000 423.641
32.13000 428.755
32.14000 427.345
32.15000 416.207
32.16000 404.977
32.17000 401.504
32.18000 405.462
32.19000 409.410
32.20000 412.616
32.21000 415.362
32.22000 417.850
32.23000 414.477
32.24000 408.669
32.25000 403.244
32.26000 396.243
32.27000 389.497
32.28000 384.671
32.29000 392.340
32.30000 402.260
32.31000 409.075
32.32000 402.999
32.33000 395.514
32.34000 389.941
32.35000 390.658
32.36000 391.499
32.37000 393.130
32.38000 396.220
32.39000 399.342
32.40000 401.662
32.41000 403.006
32.42000 404.345
32.43000 404.431
32.44000 403.553
32.45000 402.507
32.46000 395.035
32.47000 384.273
32.48000 374.207
32.49000 375.019
32.50000 379.566
32.51000 383.715
32.52000 382.965
32.53000 381.312
32.54000 380.528
32.55000 384.263
32.56000 388.649
32.57000 389.868
32.58000 380.314
32.59000 369.868
32.60000 362.524
32.61000 369.725
32.62000 375.609
32.63000 374.380
32.64000 362.338
32.65000 350.183
32.66000 346.588
32.67000 351.372
32.68000 356.120
32.69000 358.354
32.70000 358.986
32.71000 359.622
32.72000 360.351
32.73000 361.120
32.74000 362.182
32.75000 366.591
32.76000 371.948
32.77000 376.701
32.78000 386.243
32.79000 395.275
32.80000 402.524
32.81000 402.228
32.82000 401.086
32.83000 403.994
32.84000 418.274
32.85000 433.234
32.86000 443.084
32.87000 465.669
32.88000 482.524
32.89000 488.941
32.90000 482.404
32.91000 475.853
32.92000 476.323
32.93000 482.340
32.94000 488.261
32.95000 490.063
32.96000 489.727
32.97000 489.425
32.98000 489.672
32.99000 490.112
33.00000 490.145
33.01000 486.646
33.02000 482.328
33.03000 478.617
33.04000 467.922
33.05000 458.006
33.06000 447.765
33.07000 436.398
33.08000 424.935
33.09000 415.161
33.10000 409.308
33.11000 403.614
33.12000 400.138
33.13000 387.423
33.14000 378.254
33.15000 367.781
33.16000 356.002
33.17000 344.337
33.18000 342.600
33.19000 347.275
33.20000 351.821
33.21000 349.079
33.22000 343.481
33.23000 338.566
33.24000 341.673
33.25000 347.095
33.26000 351.695
33.27000 350.696
33.28000 348.645
33.29000 346.947
33.30000 346.860
33.31000 346.942
33.32000 348.055
33.33000 352.120
33.34000 356.367
33.35000 354.797
33.36000 342.065
33.37000 329.056
33.38000 321.775
33.39000 333.741
33.40000 342.075
33.41000 349.919
33.42000 357.369
33.43000 364.671
33.44000 365.649
33.45000 363.265
33.46000 360.981
33.47000 352.016
33.48000 341.434
33.49000 331.879
33.50000 331.485
33.51000 333.258
33.52000 334.782
33.53000 334.956
33.54000 334.926
33.55000 334.903
33.56000 340.426
33.57000 345.262
33.58000 347.874
33.59000 345.228
33.60000 342.359
33.61000 340.862
33.62000 341.532
33.63000 342.230
33.64000 342.583
33.65000 347.226
33.66000 350.313
33.67000 351.529
33.68000 351.513
33.69000 351.305
33.70000 346.157
33.71000 338.840
33.72000 331.961
33.73000 328.161
33.74000 325.518
33.75000 323.528
33.76000 326.080
33.77000 329.504
33.78000 333.744
33.79000 341.577
33.80000 349.835
33.81000 356.079
33.82000 357.850
33.83000 359.015
33.84000 358.422
33.85000 354.393
33.86000 350.274
33.87000 346.976
33.88000 344.740
33.89000 342.510
33.90000 343.728
33.91000 347.770
33.92000 351.604
33.93000 345.912
33.94000 335.061
33.95000 324.840
33.96000 325.535
33.97000 330.197
33.98000 334.481
33.99000 338.576
34.00000 342.192
34.01000 345.742
34.02000 348.932
34.03000 352.067
34.04000 351.730
34.05000 338.877
34.06000 324.896
34.07000 314.892
34.08000 322.585
34.09000 329.055
34.10000 330.733
34.11000 324.687
34.12000 318.537
34.13000 320.293
34.14000 330.311
34.15000 340.274
34.16000 343.554
34.17000 342.365
34.18000 341.107
34.19000 338.011
34.20000 334.093
34.21000 330.796
34.22000 335.242
34.23000 342.009
34.24000 348.066
34.25000 338.939
34.26000 328.378
34.27000 321.563
34.28000 331.584
34.29000 343.643
34.30000 351.024
34.31000 344.510
34.32000 337.077
34.33000 332.083
34.34000 326.508
34.35000 322.355
34.36000 324.334
34.37000 334.401
34.38000 344.481
34.39000 341.021
34.40000 326.181
34.41000 311.536
34.42000 314.865
34.43000 327.761
34.44000 339.887
34.45000 338.192
34.46000 331.381
34.47000 325.716
34.48000 330.820
34.49000 338.573
34.50000 345.302
34.51000 340.095
34.52000 334.058
34.53000 328.846
34.54000 326.664
34.55000 324.763
34.56000 324.364
34.57000 327.649
34.58000 331.103
34.59000 333.262
34.60000 324.571
34.61000 318.187
34.62000 317.848
34.63000 323.965
34.64000 330.038
34.65000 330.872
34.66000 328.118
34.67000 325.430
34.68000 320.045
34.69000 313.718
34.70000 308.319
34.71000 314.857
34.72000 325.042
34.73000 333.312
34.74000 327.609
34.75000 319.108
34.76000 311.987
34.77000 317.755
34.78000 323.879
34.79000 328.809
34.80000 330.124
34.81000 331.192
34.82000 331.665
34.83000 330.931
34.84000 330.162
34.85000 329.720
34.86000 320.135
34.87000 313.406
34.88000 313.843
34.89000 320.429
34.90000 326.944
34.91000 329.758
34.92000 330.490
34.93000 331.195
34.94000 325.678
34.95000 318.300
34.96000 311.593
34.97000 311.351
34.98000 312.731
34.99000 314.329
35.00000 317.187
35.01000 320.249
35.02000 322.711
35.03000 328.308
35.04000 333.089
35.05000 334.647
35.06000 328.145
35.07000 321.258
35.08000 316.232
35.09000 314.320
35.10000 312.458
35.11000 311.486
35.12000 321.329
35.13000 327.936
35.14000 327.711
35.15000 322.717
35.16000 317.845
35.17000 316.607
35.18000 317.056
35.19000 317.480
35.20000 317.494
35.21000 317.388
35.22000 317.141
35.23000 315.827
35.24000 314.296
35.25000 313.082
35.26000 313.350
35.27000 313.807
35.28000 314.158
35.29000 310.546
35.30000 307.469
35.31000 305.599
35.32000 306.222
35.33000 306.921
35.34000 307.944
35.35000 309.410
35.36000 310.878
35.37000 311.471
35.38000 311.296
35.39000 311.086
35.40000 308.903
35.41000 305.589
35.42000 302.377
35.43000 301.142
35.44000 300.667
35.45000 300.226
35.46000 306.756
35.47000 314.228
35.48000 320.174
35.49000 317.071
35.50000 312.478
35.51000 308.715
35.52000 308.119
35.53000 307.834
35.54000 307.626
35.55000 309.137
35.56000 310.366
35.57000 309.520
35.58000 305.133
35.59000 300.686
35.60000 301.217
35.61000 307.294
35.62000 313.350
35.63000 314.114
35.64000 311.137
35.65000 308.127
35.66000 304.082
35.67000 299.548
35.68000 295.489
35.69000 297.934
35.70000 302.442
35.71000 306.511
35.72000 310.710
35.73000 314.423
35.74000 317.036
35.75000 314.391
35.76000 311.062
35.77000 308.345
35.78000 307.555
35.79000 306.904
35.80000 306.459
35.81000 307.845
35.82000 308.927
35.83000 310.066
35.84000 311.285
35.85000 312.501
35.86000 309.785
35.87000 303.550
35.88000 297.381
35.89000 292.837
35.90000 289.325
35.91000 286.259
35.92000 292.170
35.93000 301.594
35.94000 310.021
35.95000 308.307
35.96000 303.947
35.97000 300.126
35.98000 298.810
35.99000 298.042
36.00000 298.466
36.01000 303.534
36.02000 309.068
36.03000 312.904
36.04000 312.329
36.05000 311.527
36.06000 311.015
36.07000 299.772
36.08000 291.449
36.09000 292.535
36.10000 304.327
36.11000 316.035
36.12000 312.242
36.13000 297.187
36.14000 282.439
36.15000 290.418
36.16000 308.631
36.17000 325.185
36.18000 318.331
36.19000 303.908
36.20000 290.970
36.21000 289.684
36.22000 290.879
36.23000 291.891
36.24000 291.428
36.25000 290.876
36.26000 292.415
36.27000 300.657
36.28000 309.403
36.29000 313.986
36.30000 309.634
36.31000 304.982
36.32000 302.238
36.33000 294.503
36.34000 289.018
36.35000 288.778
36.36000 293.332
36.37000 297.848
36.38000 300.025
36.39000 300.806
36.40000 301.562
36.41000 302.190
36.42000 302.734
36.43000 303.296
36.44000 304.042
36.45000 304.837
36.46000 305.038
36.47000 301.565
36.48000 297.461
36.49000 294.119
36.50000 301.920
36.51000 309.234
36.52000 311.913
36.53000 302.334
36.54000 292.101
36.55000 286.633
36.56000 289.615
36.57000 292.760
36.58000 294.451
36.59000 302.214
36.60000 307.491
36.61000 306.658
36.62000 301.297
36.63000 295.949
36.64000 291.063
36.65000 286.404
36.66000 281.974
36.67000 285.582
36.68000 291.367
36.69000 296.295
36.70000 294.335
36.71000 290.878
36.72000 288.451
36.73000 291.152
36.74000 294.554
36.75000 297.203
36.76000 291.900
36.77000 287.187
36.78000 285.508
36.79000 290.468
36.80000 295.661
36.81000 298.359
36.82000 297.423
36.83000 296.455
36.84000 293.448
36.85000 288.539
36.86000 283.779
36.87000 289.191
36.88000 300.779
36.89000 311.991
36.90000 315.038
36.91000 314.768
36.92000 314.517
36.93000 311.181
36.94000 307.406
36.95000 304.138
36.96000 304.074
36.97000 304.573
36.98000 304.488
36.99000 302.032
37.00000 299.325
37.01000 297.322
37.02000 303.996
37.03000 309.547
37.04000 312.242
37.05000 309.775
37.06000 307.203
37.07000 306.786
37.08000 308.927
37.09000 311.067
37.10000 312.605
37.11000 313.680
37.12000 314.632
37.13000 311.170
37.14000 305.497
37.15000 300.538
37.16000 306.322
37.17000 315.714
37.18000 324.256
37.19000 318.143
37.20000 309.860
37.21000 302.199
37.22000 297.701
37.23000 293.645
37.24000 292.395
37.25000 300.483
37.26000 309.317
37.27000 315.482
37.28000 315.859
37.29000 315.982
37.30000 313.722
37.31000 307.920
37.32000 302.086
37.33000 299.696
37.34000 300.593
37.35000 301.483
37.36000 301.420
37.37000 300.780
37.38000 299.900
37.39000 293.629
37.40000 285.125
37.41000 277.885
37.42000 284.604
37.43000 295.184
37.44000 304.540
37.45000 295.979
37.46000 285.803
37.47000 278.340
37.48000 282.091
37.49000 287.063
37.50000 291.468
37.51000 294.319
37.52000 297.081
37.53000 298.884
37.54000 298.406
37.55000 298.020
37.56000 297.450
37.57000 296.658
37.58000 295.870
37.59000 296.326
37.60000 297.741
37.61000 299.131
37.62000 297.004
37.63000 293.214
37.64000 289.739
37.65000 291.156
37.66000 294.248
37.67000 296.820
37.68000 295.002
37.69000 292.191
37.70000 289.785
37.71000 288.936
37.72000 288.408
37.73000 288.093
37.74000 288.502
37.75000 288.970
37.76000 290.065
37.77000 292.585
37.78000 295.159
37.79000 296.716
37.80000 291.590
37.81000 287.888
37.82000 289.335
37.83000 295.802
37.84000 302.204
37.85000 303.394
37.86000 301.295
37.87000 299.258
37.88000 299.249
37.89000 300.053
37.90000 300.645
37.91000 298.825
37.92000 296.324
37.93000 294.983
37.94000 301.324
37.95000 309.074
37.96000 315.461
37.97000 318.920
37.98000 321.497
37.99000 321.727
38.00000 315.388
38.01000 308.658
38.02000 302.662
38.03000 298.041
38.04000 293.451
38.05000 290.911
38.06000 296.527
38.07000 300.402
38.08000 299.468
38.09000 294.748
38.10000 290.199
38.11000 292.479
38.12000 298.308
38.13000 303.879
38.14000 312.294
38.15000 321.045
38.16000 328.365
38.17000 323.300
38.18000 315.373
38.19000 308.954
38.20000 310.521
38.21000 313.258
38.22000 315.419
38.23000 309.310
38.24000 303.846
38.25000 303.351
38.26000 314.350
38.27000 325.812
38.28000 334.033
38.29000 337.251
38.30000 340.413
38.31000 343.488
38.32000 346.478
38.33000 349.520
38.34000 356.989
38.35000 367.306
38.36000 377.598
38.37000 387.252
38.38000 396.633
38.39000 405.430
38.40000 412.558
38.41000 418.613
38.42000 427.044
38.43000 451.578
38.44000 479.128
38.45000 502.668
38.46000 508.959
38.47000 513.274
38.48000 516.517
38.49000 566.218
38.50000 607.313
38.51000 644.095
38.52000 672.633
38.53000 700.970
38.54000 737.398
38.55000 784.036
38.56000 830.631
38.57000 887.239
38.58000 951.621
38.59000 1015.763
38.60000 1069.776
38.61000 1118.423
38.62000 1167.352
38.63000 1220.973
38.64000 1276.260
38.65000 1326.928
38.66000 1388.051
38.67000 1444.676
38.68000 1496.442
38.69000 1521.906
38.70000 1543.429
38.71000 1563.537
38.72000 1578.661
38.73000 1593.352
38.74000 1603.791
38.75000 1605.515
38.76000 1606.550
38.77000 1592.597
38.78000 1555.045
38.79000 1517.203
38.80000 1476.048
38.81000 1431.517
38.82000 1387.269
38.83000 1336.287
38.84000 1281.689
38.85000 1226.865
38.86000 1166.260
38.87000 1103.125
38.88000 1041.221
38.89000 994.149
38.90000 951.424
38.91000 913.312
38.92000 851.849
38.93000 794.482
38.94000 738.398
38.95000 687.937
38.96000 638.138
38.97000 593.388
38.98000 563.304
38.99000 534.152
39.00000 514.723
39.01000 487.429
39.02000 467.072
39.03000 446.408
39.04000 425.349
39.05000 404.294
39.06000 385.366
39.07000 368.184
39.08000 351.246
39.09000 343.760
39.10000 341.444
39.11000 339.038
39.12000 335.084
39.13000 330.568
39.14000 326.311
39.15000 324.405
39.16000 323.063
39.17000 321.904
39.18000 325.149
39.19000 328.480
39.20000 328.348
39.21000 315.776
39.22000 302.089
39.23000 292.866
39.24000 294.362
39.25000 296.327
39.26000 297.544
39.27000 301.113
39.28000 303.700
39.29000 305.329
39.30000 305.958
39.31000 306.549
39.32000 303.168
39.33000 297.130
39.34000 291.245
39.35000 291.881
39.36000 295.264
39.37000 298.096
39.38000 294.107
39.39000 288.080
39.40000 282.089
39.41000 276.354
39.42000 270.670
39.43000 265.931
39.44000 270.396
39.45000 275.018
39.46000 277.741
39.47000 274.846
39.48000 271.581
39.49000 269.881
39.50000 271.289
39.51000 272.781
39.52000 273.630
39.53000 277.587
39.54000 280.347
39.55000 279.195
39.56000 274.768
39.57000 270.390
39.58000 268.308
39.59000 267.489
39.60000 266.703
39.61000 273.261
39.62000 281.936
39.63000 289.447
39.64000 286.094
39.65000 280.078
39.66000 274.758
39.67000 273.378
39.68000 272.616
39.69000 272.006
39.70000 276.388
39.71000 280.303
39.72000 280.281
39.73000 270.629
39.74000 260.538
39.75000 257.243
39.76000 265.073
39.77000 273.061
39.78000 277.179
39.79000 277.210
39.80000 277.220
39.81000 276.001
39.82000 273.944
39.83000 271.815
39.84000 267.684
39.85000 262.643
39.86000 257.887
39.87000 261.932
39.88000 268.096
39.89000 273.170
39.90000 270.333
39.91000 265.917
39.92000 262.480
39.93000 263.513
39.94000 265.098
39.95000 266.307
39.96000 271.165
39.97000 275.187
39.98000 275.602
39.99000 268.720
40.00000 261.627
40.01000 257.765
40.02000 258.232
40.03000 258.721
40.04000 262.572
40.05000 269.283
40.06000 275.775
40.07000 271.139
40.08000 260.265
40.09000 249.848
40.10000 247.873
40.11000 249.070
40.12000 250.175
40.13000 250.144
40.14000 249.861
40.15000 249.903
40.16000 251.825
40.17000 254.049
40.18000 256.940
40.19000 262.325
40.20000 267.946
40.21000 272.010
40.22000 267.575
40.23000 263.862
40.24000 260.515
40.25000 257.776
40.26000 255.047
40.27000 252.248
40.28000 249.375
40.29000 246.516
40.30000 247.100
40.31000 250.047
40.32000 253.001
40.33000 256.166
40.34000 259.429
40.35000 262.391
40.36000 261.402
40.37000 259.187
40.38000 257.195
40.39000 254.090
40.40000 251.171
40.41000 249.168
40.42000 251.433
40.43000 254.238
40.44000 257.321
40.45000 261.256
40.46000 265.251
40.47000 267.967
40.48000 260.582
40.49000 254.840
40.50000 251.842
40.51000 252.595
40.52000 253.370
40.53000 253.768
40.54000 253.837
40.55000 253.905
40.56000 251.529
40.57000 247.848
40.58000 244.503
40.59000 247.614
40.60000 253.196
40.61000 258.200
40.62000 257.509
40.63000 255.365
40.64000 253.494
40.65000 249.133
40.66000 245.053
40.67000 242.256
40.68000 244.344
40.69000 246.908
40.70000 248.341
40.71000 246.903
40.72000 245.323
40.73000 244.322
40.74000 239.026
40.75000 235.133
40.76000 238.097
40.77000 248.671
40.78000 259.185
40.79000 260.607
40.80000 255.577
40.81000 250.656
40.82000 251.554
40.83000 255.049
40.84000 258.472
40.85000 260.911
40.86000 263.038
40.87000 263.956
40.88000 255.655
40.89000 245.438
40.90000 236.823
40.91000 241.632
40.92000 247.101
40.93000 250.492
40.94000 247.378
40.95000 243.793
40.96000 241.343
40.97000 241.277
40.98000 241.287
40.99000 241.293
41.00000 244.335
41.01000 246.488
41.02000 246.680
41.03000 245.123
41.04000 243.622
41.05000 245.319
41.06000 248.878
41.07000 252.313
41.08000 250.073
41.09000 245.880
41.10000 242.067
41.11000 242.094
41.12000 243.121
41.13000 244.833
41.14000 250.685
41.15000 257.230
41.16000 262.534
41.17000 260.700
41.18000 258.624
41.19000 257.041
41.20000 256.731
41.21000 256.486
41.22000 254.893
41.23000 250.964
41.24000 246.994
41.25000 244.884
41.26000 249.755
41.27000 253.040
41.28000 250.912
41.29000 244.867
41.30000 238.889
41.31000 235.093
41.32000 232.346
41.33000 229.740
41.34000 237.715
41.35000 248.215
41.36000 257.234
41.37000 254.700
41.38000 249.714
41.39000 245.333
41.40000 243.895
41.41000 242.847
41.42000 242.036
41.43000 249.568
41.44000 256.044
41.45000 258.903
41.46000 254.024
41.47000 248.888
41.48000 244.883
41.49000 242.490
41.50000 240.110
41.51000 239.301
41.52000 239.921
41.53000 240.513
41.54000 239.328
41.55000 237.089
41.56000 234.954
41.57000 234.964
41.58000 235.827
41.59000 236.629
41.60000 237.856
41.61000 239.064
41.62000 240.071
41.63000 239.832
41.64000 239.379
41.65000 240.242
41.66000 246.311
41.67000 252.916
41.68000 257.772
41.69000 250.329
41.70000 244.068
41.71000 238.365
41.72000 233.649
41.73000 228.952
41.74000 229.801
41.75000 237.069
41.76000 244.323
41.77000 247.881
41.78000 248.705
41.79000 249.447
41.80000 247.414
41.81000 244.023
41.82000 240.826
41.83000 240.443
41.84000 240.984
41.85000 241.475
41.86000 237.781
41.87000 233.723
41.88000 230.595
41.89000 232.083
41.90000 234.197
41.91000 235.532
41.92000 234.330
41.93000 232.933
41.94000 231.964
41.95000 232.005
41.96000 232.062
41.97000 232.793
41.98000 234.502
41.99000 236.220
42.00000 237.354
42.01000 237.947
42.02000 238.534
42.03000 239.166
42.04000 239.813
42.05000 240.526
42.06000 242.677
42.07000 245.410
42.08000 247.864
42.09000 247.338
42.10000 246.007
42.11000 244.835
42.12000 235.744
42.13000 226.718
42.14000 218.788
42.15000 215.290
42.16000 212.259
42.17000 213.924
42.18000 228.197
42.19000 243.164
42.20000 252.855
42.21000 240.395
42.22000 230.950
42.23000 226.629
42.24000 228.360
42.25000 230.103
42.26000 232.014
42.27000 234.050
42.28000 236.049
42.29000 234.156
42.30000 230.458
42.31000 226.974
42.32000 226.694
42.33000 227.486
42.34000 228.352
42.35000 229.829
42.36000 231.441
42.37000 232.814
42.38000 229.200
42.39000 225.575
42.40000 223.602
42.41000 227.101
42.42000 231.035
42.43000 233.920
42.44000 234.475
42.45000 234.945
42.46000 235.226
42.47000 237.861
42.48000 239.747
42.49000 242.040
42.50000 244.721
42.51000 247.342
42.52000 245.672
42.53000 241.356
42.54000 237.171
42.55000 240.195
42.56000 245.875
42.57000 250.532
42.58000 243.953
42.59000 234.277
42.60000 226.573
42.61000 231.576
42.62000 238.851
42.63000 244.819
42.64000 238.699
42.65000 232.602
42.66000 228.807
42.67000 231.309
42.68000 234.171
42.69000 236.178
42.70000 236.617
42.71000 237.022
42.72000 237.244
42.73000 236.846
42.74000 236.556
42.75000 232.751
42.76000 226.244
42.77000 219.956
42.78000 221.899
42.79000 228.026
42.80000 233.871
42.81000 234.489
42.82000 233.408
42.83000 232.083
42.84000 228.710
42.85000 224.875
42.86000 223.211
42.87000 232.767
42.88000 243.923
42.89000 252.682
42.90000 243.474
42.91000 234.932
42.92000 229.196
42.93000 229.808
42.94000 230.663
42.95000 231.118
42.96000 230.969
42.97000 230.815
42.98000 228.475
42.99000 224.014
43.00000 219.558
43.01000 215.528
43.02000 211.765
43.03000 208.316
43.04000 212.182
43.05000 219.123
43.06000 225.616
43.07000 227.172
43.08000 227.326
43.09000 227.599
43.10000 228.657
43.11000 229.860
43.12000 230.466
43.13000 228.570
43.14000 226.395
43.15000 224.771
43.16000 225.503
43.17000 226.181
43.18000 226.719
43.19000 226.995
43.20000 227.265
43.21000 228.492
43.22000 230.896
43.23000 233.299
43.24000 232.227
43.25000 228.449
43.26000 224.713
43.27000 222.641
43.28000 221.432
43.29000 220.339
43.30000 221.090
43.31000 222.484
43.32000 223.757
43.33000 226.311
43.34000 228.843
43.35000 231.577
43.36000 235.381
43.37000 239.342
43.38000 240.704
43.39000 233.114
43.40000 224.769
43.41000 218.882
43.42000 218.932
43.43000 219.149
43.44000 220.869
43.45000 224.899
43.46000 228.955
43.47000 228.239
43.48000 222.787
43.49000 217.374
43.50000 215.555
43.51000 216.030
43.52000 216.578
43.53000 218.888
43.54000 221.952
43.55000 224.808
43.56000 225.237
43.57000 224.971
43.58000 224.734
43.59000 220.975
43.60000 217.143
43.61000 215.149
43.62000 221.032
43.63000 227.814
43.64000 231.126
43.65000 224.579
43.66000 217.429
43.67000 212.702
43.68000 226.454
43.69000 236.930
43.70000 239.788
43.71000 233.071
43.72000 226.343
43.73000 226.566
43.74000 232.350
43.75000 238.045
43.76000 232.696
43.77000 221.860
43.78000 211.756
43.79000 213.760
43.80000 220.051
43.81000 225.353
43.82000 221.932
43.83000 216.464
43.84000 211.755
43.85000 215.231
43.86000 219.209
43.87000 221.590
43.88000 218.362
43.89000 214.648
43.90000 211.857
43.91000 211.236
43.92000 210.705
43.93000 210.379
43.94000 214.989
43.95000 218.335
43.96000 218.726
43.97000 216.121
43.98000 213.563
43.99000 215.264
44.00000 219.749
44.01000 224.114
44.02000 223.652
44.03000 221.207
44.04000 218.644
44.05000 214.673
44.06000 210.291
44.07000 206.783
44.08000 209.313
44.09000 212.993
44.10000 216.048
44.11000 215.326
44.12000 214.364
44.13000 215.310
44.14000 221.778
44.15000 228.594
44.16000 232.299
44.17000 229.963
44.18000 227.473
44.19000 226.071
44.20000 233.854
44.21000 239.262
44.22000 237.072
44.23000 228.676
44.24000 220.476
44.25000 220.971
44.26000 226.141
44.27000 231.099
44.28000 229.777
44.29000 226.427
44.30000 223.125
44.31000 220.255
44.32000 217.488
44.33000 215.155
44.34000 215.217
44.35000 215.643
44.36000 215.983
44.37000 218.442
44.38000 220.576
44.39000 221.673
44.40000 220.288
44.41000 218.795
44.42000 218.802
44.43000 221.210
44.44000 223.650
44.45000 224.891
44.46000 230.408
44.47000 234.037
44.48000 230.499
44.49000 222.183
44.50000 214.247
44.51000 216.359
44.52000 222.937
44.53000 229.129
44.54000 228.420
44.55000 225.894
44.56000 223.759
44.57000 224.379
44.58000 225.534
44.59000 226.912
44.60000 229.278
44.61000 231.763
44.62000 233.647
44.63000 229.981
44.64000 226.816
44.65000 227.964
44.66000 237.643
44.67000 247.552
44.68000 251.594
44.69000 247.957
44.70000 244.290
44.71000 244.219
44.72000 247.138
44.73000 250.021
44.74000 251.205
44.75000 251.458
44.76000 251.722
44.77000 252.182
44.78000 252.714
44.79000 253.204
44.80000 254.725
44.81000 256.310
44.82000 257.630
44.83000 257.453
44.84000 257.043
44.85000 257.910
44.86000 263.434
44.87000 269.386
44.88000 273.660
44.89000 278.614
44.90000 282.427
44.91000 284.985
44.92000 285.495
44.93000 285.977
44.94000 291.343
44.95000 301.881
44.96000 312.365
44.97000 317.467
44.98000 318.893
44.99000 320.152
45.00000 316.787
45.01000 311.329
45.02000 306.507
45.03000 309.764
45.04000 315.473
45.05000 320.591
45.06000 329.528
45.07000 338.000
45.08000 343.851
45.09000 337.775
45.10000 330.233
45.11000 325.245
45.12000 327.927
45.13000 331.128
45.14000 333.287
45.15000 327.794
45.16000 323.545
45.17000 322.328
45.18000 325.161
45.19000 328.006
45.20000 325.587
45.21000 318.687
45.22000 311.873
45.23000 307.956
45.24000 305.716
45.25000 303.738
45.26000 306.563
45.27000 311.186
45.28000 314.839
45.29000 309.218
45.30000 301.288
45.31000 294.391
45.32000 294.745
45.33000 296.034
45.34000 296.603
45.35000 294.495
45.36000 292.135
45.37000 288.791
45.38000 283.006
45.39000 277.107
45.40000 273.402
45.41000 279.932
45.42000 284.764
45.43000 280.871
45.44000 267.536
45.45000 254.296
45.46000 253.429
45.47000 261.136
45.48000 268.666
45.49000 268.931
45.50000 265.975
45.51000 263.172
45.52000 262.354
45.53000 262.150
45.54000 262.414
45.55000 266.142
45.56000 270.572
45.57000 274.291
45.58000 269.705
45.59000 265.015
45.60000 260.483
45.61000 256.432
45.62000 252.416
45.63000 249.898
45.64000 250.461
45.65000 251.115
45.66000 251.493
45.67000 252.651
45.68000 253.462
45.69000 251.116
45.70000 246.024
45.71000 240.995
45.72000 239.375
45.73000 239.694
45.74000 240.001
45.75000 240.369
45.76000 240.737
45.77000 240.840
45.78000 238.353
45.79000 235.207
45.80000 232.246
45.81000 230.371
45.82000 228.672
45.83000 227.302
45.84000 229.857
45.85000 232.240
45.86000 233.604
45.87000 232.389
45.88000 231.049
45.89000 227.917
45.90000 221.752
45.91000 215.538
45.92000 212.274
45.93000 220.014
45.94000 225.249
45.95000 228.200
45.96000 229.538
45.97000 230.648
45.98000 224.826
45.99000 215.748
46.00000 207.153
46.01000 207.705
46.02000 210.863
46.03000 213.795
46.04000 215.006
46.05000 215.860
46.06000 215.725
46.07000 210.906
46.08000 205.482
46.09000 201.306
46.10000 203.281
46.11000 205.196
46.12000 206.774
46.13000 207.650
46.14000 208.504
46.15000 207.565
46.16000 204.136
46.17000 200.692
46.18000 198.968
46.19000 198.772
46.20000 198.585
46.21000 198.931
46.22000 199.585
46.23000 200.152
46.24000 198.990
46.25000 197.156
46.26000 195.456
46.27000 202.845
46.28000 211.614
46.29000 218.443
46.30000 213.611
46.31000 206.835
46.32000 201.531
46.33000 201.924
46.34000 202.884
46.35000 203.585
46.36000 206.783
46.37000 209.346
46.38000 209.382
46.39000 205.055
46.40000 200.651
46.41000 199.230
46.42000 201.175
46.43000 203.115
46.44000 200.355
46.45000 194.260
46.46000 188.431
46.47000 191.068
46.48000 197.758
46.49000 204.291
46.50000 208.646
46.51000 212.301
46.52000 215.605
46.53000 210.555
46.54000 204.557
46.55000 200.795
46.56000 207.845
46.57000 216.324
46.58000 221.734
46.59000 217.387
46.60000 212.315
46.61000 208.827
46.62000 197.470
46.63000 188.756
46.64000 186.634
46.65000 193.857
46.66000 201.146
46.67000 205.077
46.68000 205.962
46.69000 206.838
46.70000 209.435
46.71000 212.972
46.72000 216.189
46.73000 212.857
46.74000 206.931
46.75000 201.016
46.76000 195.213
46.77000 189.439
46.78000 184.371
46.79000 193.592
46.80000 203.609
46.81000 210.611
46.82000 205.719
46.83000 199.611
46.84000 195.432
46.85000 196.321
46.86000 197.476
46.87000 198.218
46.88000 199.321
46.89000 200.131
46.90000 201.259
46.91000 202.753
46.92000 204.240
46.93000 204.506
46.94000 203.873
46.95000 203.252
46.96000 202.604
46.97000 201.969
46.98000 201.493
46.99000 203.313
47.00000 205.884
47.01000 207.832
47.02000 204.826
47.03000 200.751
47.04000 197.292
47.05000 193.875
47.06000 191.014
47.07000 189.663
47.08000 193.204
47.09000 197.120
47.10000 199.876
47.11000 200.110
47.12000 200.258
47.13000 200.345
47.14000 203.691
47.15000 206.076
47.16000 205.415
47.17000 201.933
47.18000 198.482
47.19000 197.162
47.20000 197.125
47.21000 197.090
47.22000 198.020
47.23000 199.267
47.24000 200.046
47.25000 195.843
47.26000 190.297
47.27000 185.459
47.28000 185.056
47.29000 185.426
47.30000 185.728
47.31000 186.867
47.32000 187.871
47.33000 188.686
47.34000 188.996
47.35000 189.278
47.36000 188.901
47.37000 187.342
47.38000 185.759
47.39000 184.903
47.40000 188.136
47.41000 190.339
47.42000 189.629
47.43000 186.733
47.44000 183.968
47.45000 185.872
47.46000 190.096
47.47000 194.118
47.48000 192.993
47.49000 190.364
47.50000 188.070
47.51000 188.505
47.52000 189.542
47.53000 190.694
47.54000 192.431
47.55000 194.250
47.56000 195.670
47.57000 193.379
47.58000 191.317
47.59000 189.805
47.60000 189.508
47.61000 189.255
47.62000 188.566
47.63000 187.232
47.64000 185.893
47.65000 185.169
47.66000 185.028
47.67000 184.922
47.68000 187.312
47.69000 191.235
47.70000 194.952
47.71000 194.095
47.72000 191.356
47.73000 188.801
47.74000 186.026
47.75000 183.457
47.76000 181.700
47.77000 185.159
47.78000 189.545
47.79000 192.301
47.80000 188.368
47.81000 183.713
47.82000 180.258
47.83000 185.995
47.84000 190.859
47.85000 193.180
47.86000 190.856
47.87000 188.432
47.88000 187.768
47.89000 189.218
47.90000 190.668
47.91000 189.357
47.92000 185.953
47.93000 182.664
47.94000 183.674
47.95000 186.861
47.96000 189.920
47.97000 191.030
47.98000 191.478
47.99000 191.886
48.00000 189.684
48.01000 187.214
48.02000 184.629
48.03000 181.455
48.04000 178.198
48.05000 177.394
48.06000 184.847
48.07000 192.971
48.08000 198.663
48.09000 193.276
48.10000 188.883
48.11000 185.324
48.12000 183.016
48.13000 180.722
48.14000 182.414
48.15000 187.962
48.16000 193.465
48.17000 193.353
48.18000 189.787
48.19000 186.247
48.20000 183.305
48.21000 180.615
48.22000 178.143
48.23000 178.144
48.24000 178.837
48.25000 179.450
48.26000 187.255
48.27000 195.142
48.28000 200.370
48.29000 194.474
48.30000 187.349
48.31000 181.237
48.32000 177.942
48.33000 174.812
48.34000 172.759
48.35000 175.878
48.36000 178.257
48.37000 179.018
48.38000 177.793
48.39000 176.569
48.40000 177.141
48.41000 179.116
48.42000 181.059
48.43000 183.986
48.44000 187.310
48.45000 190.366
48.46000 189.168
48.47000 186.498
48.48000 184.497
48.49000 188.232
48.50000 193.282
48.51000 197.613
48.52000 190.745
48.53000 183.570
48.54000 178.954
48.55000 183.123
48.56000 188.028
48.57000 190.442
48.58000 187.138
48.59000 183.607
48.60000 181.461
48.61000 186.241
48.62000 189.706
48.63000 190.156
48.64000 187.625
48.65000 185.110
48.66000 183.903
48.67000 183.531
48.68000 183.170
48.69000 179.233
48.70000 174.040
48.71000 169.367
48.72000 170.701
48.73000 173.749
48.74000 176.671
48.75000 178.755
48.76000 180.682
48.77000 182.274
48.78000 181.742
48.79000 181.105
48.80000 179.589
48.81000 175.585
48.82000 171.431
48.83000 169.752
48.84000 172.771
48.85000 175.903
48.86000 177.647
48.87000 177.930
48.88000 178.127
48.89000 179.548
48.90000 181.944
48.91000 184.301
48.92000 185.047
48.93000 184.945
48.94000 184.848
48.95000 182.595
48.96000 179.788
48.97000 176.451
48.98000 168.460
48.99000 159.380
49.00000 153.240
49.01000 162.886
49.02000 174.878
49.03000 184.371
49.04000 181.742
49.05000 178.790
49.06000 175.592
49.07000 171.816
49.08000 168.016
49.09000 168.679
49.10000 176.317
49.11000 184.039
49.12000 187.919
49.13000 182.760
49.14000 179.316
49.15000 175.951
49.16000 172.637
49.17000 169.342
49.18000 166.533
49.19000 163.935
49.20000 161.495
49.21000 167.269
49.22000 174.712
49.23000 180.792
49.24000 177.503
49.25000 172.436
49.26000 169.095
49.27000 173.274
49.28000 178.329
49.29000 182.140
49.30000 179.812
49.31000 177.688
49.32000 176.482
49.33000 177.053
49.34000 177.669
49.35000 177.823
49.36000 177.385
49.37000 176.945
49.38000 177.276
49.39000 178.230
49.40000 179.151
49.41000 178.598
49.42000 177.256
49.43000 175.983
49.44000 175.869
49.45000 176.173
49.46000 176.451
49.47000 178.805
49.48000 181.345
49.49000 182.883
49.50000 178.925
49.51000 174.131
49.52000 170.250
49.53000 169.627
49.54000 169.293
49.55000 169.054
49.56000 164.999
49.57000 161.782
49.58000 162.644
49.59000 170.006
49.60000 177.451
49.61000 182.044
49.62000 183.691
49.63000 185.329
49.64000 185.046
49.65000 183.508
49.66000 181.909
49.67000 178.700
49.68000 174.778
49.69000 171.337
49.70000 173.798
49.71000 178.009
49.72000 181.772
49.73000 180.181
49.74000 177.889
49.75000 176.550
49.76000 179.443
49.77000 182.840
49.78000 185.000
49.79000 183.527
49.80000 181.817
49.81000 180.673
49.82000 178.120
49.83000 176.199
49.84000 173.871
49.85000 171.014
49.86000 168.159
49.87000 167.455
49.88000 168.538
49.89000 169.606
49.90000 172.157
49.91000 175.424
49.92000 178.694
49.93000 181.990
49.94000 185.298
49.95000 188.201
49.96000 187.366
49.97000 185.622
49.98000 184.111
49.99000 187.227
50.00000 190.490
50.01000 191.091
50.02000 182.014
50.03000 172.053
50.04000 166.817
50.05000 173.056
50.06000 179.809
50.07000 184.011
50.08000 183.024
50.09000 182.261
50.10000 179.263
50.11000 173.906
50.12000 168.602
50.13000 169.093
50.14000 173.507
50.15000 177.813
50.16000 178.103
50.17000 176.648
50.18000 175.403
50.19000 176.811
50.20000 179.019
50.21000 181.013
50.22000 181.456
50.23000 181.593
50.24000 181.707
50.25000 180.168
50.26000 178.723
50.27000 178.532
50.28000 182.098
50.29000 185.916
50.30000 187.875
50.31000 186.101
50.32000 184.221
50.33000 183.146
50.34000 186.635
50.35000 189.085
50.36000 190.218
50.37000 190.234
50.38000 190.245
50.39000 189.988
50.40000 189.582
50.41000 189.191
50.42000 192.465
50.43000 196.813
50.44000 200.482
50.45000 197.688
50.46000 193.292
50.47000 190.152
50.48000 194.210
50.49000 199.412
50.50000 203.584
50.51000 210.629
50.52000 216.551
50.53000 220.459
50.54000 219.385
50.55000 218.078
50.56000 219.004
50.57000 223.626
50.58000 228.303
50.59000 230.730
50.60000 233.877
50.61000 235.960
50.62000 232.995
50.63000 226.544
50.64000 220.355
50.65000 221.711
50.66000 226.535
50.67000 231.092
50.68000 236.194
50.69000 241.030
50.70000 244.647
50.71000 239.277
50.72000 232.091
50.73000 227.224
50.74000 233.083
50.75000 240.288
50.76000 245.803
50.77000 244.817
50.78000 243.684
50.79000 240.986
50.80000 235.084
50.81000 229.088
50.82000 227.376
50.83000 231.478
50.84000 235.611
50.85000 235.847
50.86000 232.716
50.87000 229.531
50.88000 223.454
50.89000 215.737
50.90000 208.636
50.91000 213.165
50.92000 222.116
50.93000 230.391
50.94000 228.914
50.95000 225.374
50.96000 221.703
50.97000 217.270
50.98000 212.712
50.99000 208.755
51.00000 207.069
51.01000 205.601
51.02000 204.536
51.03000 205.488
51.04000 206.295
51.05000 204.422
51.06000 198.025
51.07000 191.555
51.08000 189.082
51.09000 191.009
51.10000 192.931
51.11000 192.883
51.12000 191.463
51.13000 190.053
51.14000 188.933
51.15000 187.949
51.16000 186.927
51.17000 185.402
51.18000 183.719
51.19000 182.203
51.20000 181.526
51.21000 181.083
51.22000 180.395
51.23000 178.546
51.24000 176.549
51.25000 175.608
51.26000 177.957
51.27000 180.540
51.28000 182.304
51.29000 186.598
51.30000 189.868
51.31000 190.187
51.32000 186.419
51.33000 182.627
51.34000 180.727
51.35000 180.499
51.36000 180.274
51.37000 176.447
51.38000 170.675
51.39000 165.195
51.40000 165.427
51.41000 167.873
51.42000 170.163
51.43000 170.902
51.44000 171.239
51.45000 171.535
51.46000 170.363
51.47000 169.150
51.48000 168.080
51.49000 167.556
51.50000 167.087
51.51000 167.728
51.52000 171.222
51.53000 174.859
51.54000 177.174
51.55000 170.234
51.56000 165.074
51.57000 164.394
51.58000 168.752
51.59000 173.091
51.60000 173.980
51.61000 172.392
51.62000 170.837
51.63000 169.939
51.64000 169.378
51.65000 168.786
51.66000 167.767
51.67000 166.610
51.68000 165.087
51.69000 160.720
51.70000 155.755
51.71000 151.559
51.72000 155.402
51.73000 159.502
51.74000 163.583
51.75000 167.605
51.76000 171.623
51.77000 174.834
51.78000 176.331
51.79000 177.772
51.80000 178.618
51.81000 173.082
51.82000 169.148
51.83000 166.872
51.84000 166.093
51.85000 165.303
51.86000 163.845
51.87000 161.995
51.88000 160.207
51.89000 161.687
51.90000 164.298
51.91000 166.790
51.92000 168.054
51.93000 168.995
51.94000 169.575
51.95000 167.948
51.96000 165.947
51.97000 164.321
51.98000 163.079
51.99000 162.097
52.00000 160.356
52.01000 156.627
52.02000 152.794
52.03000 152.134
52.04000 157.039
52.05000 162.046
52.06000 164.724
52.07000 171.328
52.08000 175.794
52.09000 173.071
52.10000 165.081
52.11000 157.226
52.12000 153.825
52.13000 152.590
52.14000 151.417
52.15000 158.503
52.16000 167.534
52.17000 174.927
52.18000 169.344
52.19000 160.972
52.20000 154.237
52.21000 155.558
52.22000 157.964
52.23000 159.832
52.24000 157.268
52.25000 154.960
52.26000 154.648
52.27000 158.653
52.28000 162.807
52.29000 164.466
52.30000 162.530
52.31000 160.565
52.32000 159.622
52.33000 159.621
52.34000 159.658
52.35000 162.222
52.36000 166.304
52.37000 170.153
52.38000 169.060
52.39000 165.980
52.40000 163.114
52.41000 162.446
52.42000 162.374
52.43000 162.524
52.44000 164.054
52.45000 165.823
52.46000 166.673
52.47000 163.839
52.48000 160.619
52.49000 158.245
52.50000 156.049
52.51000 154.356
52.52000 153.448
52.53000 153.943
52.54000 154.465
52.55000 156.238
52.56000 159.477
52.57000 162.708
52.58000 163.847
52.59000 163.425
52.60000 163.005
52.61000 162.639
52.62000 162.301
52.63000 162.126
52.64000 164.353
52.65000 167.378
52.66000 170.125
52.67000 165.945
52.68000 160.909
52.69000 156.788
52.70000 157.262
52.71000 158.370
52.72000 159.670
52.73000 161.604
52.74000 163.586
52.75000 164.966
52.76000 157.173
52.77000 151.049
52.78000 148.926
52.79000 152.679
52.80000 156.485
52.81000 159.223
52.82000 160.955
52.83000 162.672
52.84000 159.873
52.85000 154.417
52.86000 149.215
52.87000 149.632
52.88000 152.350
52.89000 155.051
52.90000 157.574
52.91000 160.049
52.92000 162.234
52.93000 159.007
52.94000 155.394
52.95000 152.875
52.96000 154.825
52.97000 157.254
52.98000 157.952
52.99000 153.947
53.00000 149.676
53.01000 146.899
53.02000 149.286
53.03000 151.115
53.04000 152.514
53.05000 153.398
53.06000 154.290
53.07000 157.090
53.08000 161.348
53.09000 165.529
53.10000 163.250
53.11000 157.901
53.12000 152.796
53.13000 151.425
53.14000 151.317
53.15000 151.424
53.16000 153.321
53.17000 155.619
53.18000 157.581
53.19000 156.009
53.20000 154.264
53.21000 153.380
53.22000 155.387
53.23000 157.628
53.24000 159.939
53.25000 162.406
53.26000 164.880
53.27000 166.369
53.28000 161.587
53.29000 158.141
53.30000 158.469
53.31000 162.428
53.32000 166.372
53.33000 169.160
53.34000 171.225
53.35000 173.229
53.36000 168.698
53.37000 161.817
53.38000 155.291
53.39000 152.736
53.40000 151.289
53.41000 150.723
53.42000 155.917
53.43000 162.156
53.44000 167.285
53.45000 168.883
53.46000 169.876
53.47000 171.283
53.48000 173.836
53.49000 176.456
53.50000 175.415
53.51000 167.582
53.52000 159.597
53.53000 155.201
53.54000 157.694
53.55000 159.411
53.56000 157.816
53.57000 153.645
53.58000 149.690
53.59000 154.177
53.60000 163.004
53.61000 171.434
53.62000 171.133
53.63000 168.054
53.64000 165.096
53.65000 163.167
53.66000 161.473
53.67000 159.831
53.68000 158.456
53.69000 157.121
53.70000 156.069
53.71000 160.078
53.72000 163.628
53.73000 167.466
53.74000 171.963
53.75000 176.487
53.76000 177.112
53.77000 171.784
53.78000 166.391
53.79000 162.761
53.80000 160.864
53.81000 158.990
53.82000 158.946
53.83000 160.067
53.84000 161.118
53.85000 160.503
53.86000 159.180
53.87000 157.941
53.88000 161.507
53.89000 165.995
53.90000 169.569
53.91000 167.038
53.92000 163.378
53.93000 160.587
53.94000 161.494
53.95000 162.819
53.96000 163.812
53.97000 161.441
53.98000 159.431
53.99000 160.138
54.00000 165.981
54.01000 171.946
54.02000 174.299
54.03000 172.148
54.04000 169.988
54.05000 166.156
54.06000 161.021
54.07000 155.922
54.08000 152.278
54.09000 149.398
54.10000 146.865
54.11000 149.996
54.12000 155.117
54.13000 159.805
54.14000 160.254
54.15000 159.775
54.16000 159.052
54.17000 157.021
54.18000 154.796
54.19000 153.712
54.20000 156.601
54.21000 159.831
54.22000 162.119
54.23000 159.509
54.24000 157.372
54.25000 155.398
54.26000 153.675
54.27000 151.956
54.28000 150.981
54.29000 150.757
54.30000 150.534
54.31000 150.707
54.32000 151.132
54.33000 151.678
54.34000 155.250
54.35000 160.133
54.36000 164.370
54.37000 160.967
54.38000 155.349
54.39000 150.346
54.40000 154.544
54.41000 159.703
54.42000 164.338
54.43000 166.700
54.44000 168.799
54.45000 169.401
54.46000 165.704
54.47000 161.738
54.48000 159.105
54.49000 154.076
54.50000 150.314
54.51000 148.166
54.52000 148.073
54.53000 147.996
54.54000 151.309
54.55000 157.370
54.56000 163.341
54.57000 162.099
54.58000 157.156
54.59000 152.543
54.60000 153.517
54.61000 156.492
54.62000 159.049
54.63000 157.861
54.64000 155.783
54.65000 153.989
54.66000 147.536
54.67000 141.462
54.68000 138.075
54.69000 144.238
54.70000 151.244
54.71000 155.448
54.72000 153.000
54.73000 150.266
54.74000 148.581
54.75000 151.333
54.76000 153.349
54.77000 156.978
54.78000 162.266
54.79000 167.532
54.80000 170.534
54.81000 172.038
54.82000 173.503
54.83000 172.124
54.84000 169.613
54.85000 166.882
54.86000 161.456
54.87000 155.234
54.88000 150.073
54.89000 152.336
54.90000 156.034
54.91000 159.110
54.92000 160.315
54.93000 161.128
54.94000 160.947
54.95000 157.855
54.96000 154.574
54.97000 154.874
54.98000 162.203
54.99000 169.719
55.00000 173.973
55.01000 172.026
55.02000 170.648
55.03000 166.632
55.04000 160.432
55.05000 154.361
55.06000 154.226
55.07000 157.322
55.08000 160.293
55.09000 164.301
55.10000 168.402
55.11000 172.165
55.12000 172.817
55.13000 172.715
55.14000 172.278
55.15000 169.972
55.16000 167.378
55.17000 165.308
55.18000 160.511
55.19000 156.438
55.20000 155.647
55.21000 162.800
55.22000 170.306
55.23000 173.074
55.24000 168.175
55.25000 163.171
55.26000 160.607
55.27000 160.566
55.28000 160.576
55.29000 164.639
55.30000 171.434
55.31000 177.999
55.32000 178.298
55.33000 175.779
55.34000 173.406
55.35000 174.636
55.36000 176.755
55.37000 178.964
55.38000 181.810
55.39000 184.782
55.40000 185.445
55.41000 175.679
55.42000 164.644
55.43000 156.247
55.44000 170.558
55.45000 183.010
55.46000 192.281
55.47000 195.184
55.48000 197.910
55.49000 200.358
55.50000 202.437
55.51000 204.514
55.52000 209.559
55.53000 217.093
55.54000 224.590
55.55000 230.304
55.56000 235.028
55.57000 239.641
55.58000 242.254
55.59000 244.124
55.60000 245.847
55.61000 259.850
55.62000 275.106
55.63000 288.742
55.64000 293.134
55.65000 296.063
55.66000 300.465
55.67000 310.306
55.68000 320.654
55.69000 328.111
55.70000 351.209
55.71000 369.461
55.72000 387.941
55.73000 406.799
55.74000 425.662
55.75000 452.313
55.76000 487.321
55.77000 522.159
55.78000 542.531
55.79000 552.832
55.80000 563.564
55.81000 586.592
55.82000 615.250
55.83000 643.460
55.84000 665.858
55.85000 686.471
55.86000 704.985
55.87000 725.029
55.88000 742.837
55.89000 761.265
55.90000 782.552
55.91000 804.195
55.92000 824.709
55.93000 841.788
55.94000 858.631
55.95000 870.039
55.96000 870.531
55.97000 870.660
55.98000 869.066
55.99000 865.143
56.00000 861.197
56.01000 849.916
56.02000 832.308
56.03000 814.913
56.04000 802.411
56.05000 792.918
56.06000 782.808
56.07000 761.091
56.08000 734.977
56.09000 709.766
56.10000 693.316
56.11000 679.074
56.12000 666.664
56.13000 641.558
56.14000 618.350
56.15000 595.270
56.16000 572.672
56.17000 550.120
56.18000 527.969
56.19000 506.824
56.20000 485.727
56.21000 472.419
56.22000 457.901
56.23000 447.374
56.24000 432.824
56.25000 413.864
56.26000 394.908
56.27000 376.743
56.28000 359.133
56.29000 341.917
56.30000 324.233
56.31000 307.071
56.32000 290.794
56.33000 286.337
56.34000 285.577
56.35000 283.853
56.36000 274.885
56.37000 264.427
56.38000 255.628
56.39000 249.669
56.40000 245.003
56.41000 239.417
56.42000 230.980
56.43000 222.340
56.44000 217.407
56.45000 220.177
56.46000 223.184
56.47000 224.932
56.48000 210.155
56.49000 199.711
56.50000 195.251
56.51000 196.060
56.52000 196.795
56.53000 193.416
56.54000 187.668
56.55000 182.125
56.56000 181.220
56.57000 182.052
56.58000 182.468
56.59000 178.739
56.60000 173.943
56.61000 169.663
56.62000 168.454
56.63000 167.754
56.64000 167.188
56.65000 168.664
56.66000 170.028
56.67000 171.434
56.68000 172.946
56.69000 174.464
56.70000 173.682
56.71000 168.957
56.72000 164.164
56.73000 161.631
56.74000 160.873
56.75000 160.366
56.76000 160.882
56.77000 162.131
56.78000 163.243
56.79000 160.077
56.80000 154.876
56.81000 149.946
56.82000 150.907
56.83000 153.523
56.84000 155.679
56.85000 154.299
56.86000 152.177
56.87000 150.410
56.88000 150.351
56.89000 150.515
56.90000 150.642
56.91000 151.388
56.92000 152.016
56.93000 152.913
56.94000 154.382
56.95000 155.870
56.96000 157.856
56.97000 160.544
56.98000 163.235
56.99000 163.132
57.00000 160.519
57.01000 157.924
57.02000 156.461
57.03000 155.661
57.04000 154.982
57.05000 156.741
57.06000 159.459
57.07000 161.981
57.08000 158.113
57.09000 153.118
57.10000 149.188
57.11000 151.750
57.12000 155.409
57.13000 157.827
57.14000 155.387
57.15000 152.455
57.16000 150.307
57.17000 149.366
57.18000 148.688
57.19000 149.295
57.20000 152.146
57.21000 155.039
57.22000 154.075
57.23000 148.700
57.24000 143.339
57.25000 142.210
57.26000 144.155
57.27000 146.058
57.28000 146.633
57.29000 146.563
57.30000 146.447
57.31000 145.679
57.32000 144.698
57.33000 143.809
57.34000 142.500
57.35000 141.267
57.36000 140.661
57.37000 143.125
57.38000 146.001
57.39000 148.818
57.40000 151.449
57.41000 154.065
57.42000 155.871
57.43000 151.987
57.44000 148.922
57.45000 145.940
57.46000 143.076
57.47000 140.214
57.48000 138.664
57.49000 138.318
57.50000 137.976
57.51000 139.893
57.52000 143.094
57.53000 146.206
57.54000 147.459
57.55000 147.967
57.56000 148.292
57.57000 146.703
57.58000 144.602
57.59000 142.754
57.60000 139.406
57.61000 136.301
57.62000 134.020
57.63000 135.027
57.64000 136.376
57.65000 137.805
57.66000 139.447
57.67000 141.100
57.68000 142.166
57.69000 149.727
57.70000 155.343
57.71000 155.213
57.72000 148.370
57.73000 141.534
57.74000 137.665
57.75000 136.006
57.76000 134.378
57.77000 137.288
57.78000 142.252
57.79000 147.037
57.80000 149.211
57.81000 150.520
57.82000 151.539
57.83000 150.207
57.84000 148.361
57.85000 146.791
57.86000 151.110
57.87000 155.417
57.88000 157.892
57.89000 154.359
57.90000 150.358
57.91000 147.438
57.92000 146.896
57.93000 146.439
57.94000 146.166
57.95000 141.534
57.96000 138.225
57.97000 137.470
57.98000 139.110
57.99000 140.723
58.00000 140.335
58.01000 138.727
58.02000 137.171
58.03000 142.629
58.04000 150.501
58.05000 157.152
58.06000 150.596
58.07000 140.440
58.08000 132.005
58.09000 134.524
58.10000 138.978
58.11000 142.623
58.12000 144.348
58.13000 145.593
58.14000 147.281
58.15000 150.163
58.16000 153.113
58.17000 153.467
58.18000 149.108
58.19000 144.652
58.20000 142.227
58.21000 141.856
58.22000 141.589
58.23000 137.690
58.24000 131.033
58.25000 124.642
58.26000 127.938
58.27000 136.107
58.28000 143.891
58.29000 144.081
58.30000 141.882
58.31000 139.981
58.32000 140.541
58.33000 141.649
58.34000 142.253
58.35000 140.275
58.36000 137.935
58.37000 136.102
58.38000 135.107
58.39000 134.367
58.40000 136.014
58.41000 143.007
58.42000 150.199
58.43000 154.089
58.44000 153.049
58.45000 151.963
58.46000 151.152
58.47000 150.604
58.48000 149.998
58.49000 145.077
58.50000 137.472
58.51000 130.243
58.52000 131.575
58.53000 136.466
58.54000 141.036
58.55000 141.043
58.56000 139.900
58.57000 138.277
58.58000 133.533
58.59000 128.226
58.60000 124.791
58.61000 129.129
58.62000 134.318
58.63000 138.182
58.64000 137.035
58.65000 135.917
58.66000 135.712
58.67000 137.197
58.68000 138.720
58.69000 138.632
58.70000 136.584
58.71000 134.536
58.72000 132.858
58.73000 131.476
58.74000 130.195
58.75000 132.826
58.76000 137.462
58.77000 141.491
58.78000 136.001
58.79000 127.240
58.80000 119.245
58.81000 118.124
58.82000 118.516
58.83000 119.635
58.84000 124.539
58.85000 129.987
58.86000 134.677
58.87000 136.779
58.88000 138.667
58.89000 139.995
58.90000 138.417
58.91000 137.137
58.92000 138.482
58.93000 143.824
58.94000 149.208
58.95000 151.839
58.96000 151.770
58.97000 151.702
58.98000 149.107
58.99000 144.980
59.00000 140.870
59.01000 137.167
59.02000 133.637
59.03000 130.329
59.04000 129.558
59.05000 129.506
59.06000 129.459
59.07000 131.892
59.08000 134.396
59.09000 135.917
59.10000 133.277
59.11000 130.170
59.12000 128.219
59.13000 129.517
59.14000 131.010
59.15000 131.993
59.16000 130.096
59.17000 128.648
59.18000 128.919
59.19000 131.324
59.20000 133.724
59.21000 132.953
59.22000 129.675
59.23000 126.449
59.24000 128.820
59.25000 133.948
59.26000 138.833
59.27000 139.803
59.28000 139.401
59.29000 138.934
59.30000 137.898
59.31000 136.731
59.32000 135.727
59.33000 134.706
59.34000 133.840
59.35000 132.820
59.36000 131.265
59.37000 129.663
59.38000 128.934
59.39000 130.232
59.40000 131.612
59.41000 132.455
59.42000 137.731
59.43000 141.541
59.44000 141.500
59.45000 137.601
59.46000 133.729
59.47000 132.123
59.48000 131.982
59.49000 131.845
59.50000 130.877
59.51000 129.614
59.52000 128.388
59.53000 127.599
59.54000 126.936
59.55000 126.274
59.56000 125.617
59.57000 124.962
59.58000 124.419
59.59000 128.518
59.60000 132.344
59.61000 134.759
59.62000 133.138
59.63000 131.265
59.64000 129.261
59.65000 127.002
59.66000 124.738
59.67000 123.470
59.68000 125.922
59.69000 127.631
59.70000 129.429
59.71000 131.298
59.72000 133.158
59.73000 134.620
59.74000 135.871
59.75000 137.068
59.76000 133.712
59.77000 129.066
59.78000 125.100
59.79000 127.217
59.80000 130.774
59.81000 133.336
59.82000 130.485
59.83000 126.819
59.84000 123.908
59.85000 122.583
59.86000 121.628
59.87000 122.655
59.88000 128.372
59.89000 134.288
59.90000 136.073
59.91000 131.321
59.92000 126.489
59.93000 124.044
59.94000 126.418
59.95000 128.011
59.96000 130.031
59.97000 132.332
59.98000 134.450
59.99000 131.849
60.00000 127.173
60.01000 122.777
60.02000 126.105
60.03000 131.218
60.04000 136.003
60.05000 138.495
60.06000 140.546
60.07000 141.315
60.08000 136.429
60.09000 130.874
60.10000 126.673
60.11000 130.615
60.12000 134.117
60.13000 135.518
60.14000 132.809
60.15000 129.992
60.16000 129.002
60.17000 130.379
60.18000 131.762
60.19000 131.374
60.20000 129.530
60.21000 127.734
60.22000 128.108
60.23000 129.660
60.24000 131.192
60.25000 132.378
60.26000 133.440
60.27000 134.416
60.28000 132.009
60.29000 129.131
60.30000 126.634
60.31000 126.257
60.32000 126.208
60.33000 126.463
60.34000 127.817
60.35000 129.272
60.36000 130.312
60.37000 130.087
60.38000 129.872
60.39000 130.018
60.40000 130.748
60.41000 131.485
60.42000 132.189
60.43000 132.858
60.44000 133.523
60.45000 132.457
60.46000 130.255
60.47000 128.156
60.48000 128.807
60.49000 130.691
60.50000 132.205
60.51000 129.100
60.52000 124.609
60.53000 120.589
60.54000 124.188
60.55000 128.634
60.56000 132.878
60.57000 136.207
60.58000 139.426
60.59000 140.259
60.60000 133.996
60.61000 127.263
60.62000 122.738
60.63000 130.041
60.64000 135.710
60.65000 138.848
60.66000 138.644
60.67000 138.422
60.68000 136.483
60.69000 133.101
60.70000 129.762
60.71000 129.826
60.72000 131.716
60.73000 133.518
60.74000 133.719
60.75000 133.327
60.76000 132.878
60.77000 131.896
60.78000 130.782
60.79000 129.815
60.80000 129.406
60.81000 129.131
60.82000 129.097
60.83000 129.943
60.84000 130.871
60.85000 130.870
60.86000 128.586
60.87000 126.197
60.88000 124.703
60.89000 128.737
60.90000 131.705
60.91000 133.101
60.92000 132.815
60.93000 132.512
60.94000 130.209
60.95000 126.535
60.96000 122.948
60.97000 124.456
60.98000 128.123
60.99000 131.381
61.00000 129.368
61.01000 125.743
61.02000 122.632
61.03000 123.277
61.04000 124.675
61.05000 125.846
61.06000 125.087
61.07000 124.256
61.08000 124.146
61.09000 126.220
61.10000 128.443
61.11000 131.048
61.12000 134.429
61.13000 137.833
61.14000 139.791
61.15000 131.008
61.16000 124.833
61.17000 125.591
61.18000 132.304
61.19000 138.926
61.20000 140.812
61.21000 140.032
61.22000 139.282
61.23000 136.705
61.24000 133.640
61.25000 130.680
61.26000 128.739
61.27000 127.054
61.28000 126.130
61.29000 129.630
61.30000 133.842
61.31000 137.230
61.32000 132.055
61.33000 127.195
61.34000 124.844
61.35000 128.768
61.36000 132.993
61.37000 136.636
61.38000 139.304
61.39000 141.956
61.40000 143.340
61.41000 141.330
61.42000 139.991
61.43000 141.495
61.44000 144.987
61.45000 148.404
61.46000 149.603
61.47000 149.770
61.48000 149.929
61.49000 147.704
61.50000 144.977
61.51000 143.918
61.52000 155.338
61.53000 169.311
61.54000 181.784
61.55000 187.225
61.56000 191.771
61.57000 195.262
61.58000 204.846
61.59000 212.763
61.60000 221.164
61.61000 230.569
61.62000 240.004
61.63000 250.187
61.64000 261.398
61.65000 272.609
61.66000 279.257
61.67000 281.898
61.68000 284.509
61.69000 285.429
61.70000 285.377
61.71000 285.343
61.72000 285.645
61.73000 286.078
61.74000 286.478
61.75000 278.184
61.76000 268.727
61.77000 258.769
61.78000 245.846
61.79000 232.434
61.80000 219.459
61.81000 208.154
61.82000 197.012
61.83000 188.901
61.84000 178.895
61.85000 171.119
61.86000 163.643
61.87000 156.678
61.88000 149.722
61.89000 146.864
61.90000 148.579
61.91000 150.291
61.92000 149.578
61.93000 147.161
61.94000 144.716
61.95000 141.389
61.96000 137.645
61.97000 134.252
61.98000 135.663
61.99000 138.600
62.00000 141.250
62.01000 144.358
62.02000 147.172
62.03000 148.610
62.04000 143.470
62.05000 137.472
62.06000 133.220
62.07000 134.461
62.08000 136.103
62.09000 137.228
62.10000 135.203
62.11000 133.609
62.12000 133.998
62.13000 137.165
62.14000 140.349
62.15000 142.153
62.16000 142.721
62.17000 143.283
62.18000 142.300
62.19000 140.456
62.20000 138.804
62.21000 141.018
62.22000 144.747
62.23000 148.027
62.24000 146.730
62.25000 144.238
62.26000 142.054
62.27000 139.395
62.28000 137.044
62.29000 135.028
62.30000 134.316
62.31000 133.736
62.32000 133.971
62.33000 136.325
62.34000 138.789
62.35000 140.364
62.36000 138.693
62.37000 137.433
62.38000 138.538
62.39000 142.336
62.40000 146.122
62.41000 147.618
62.42000 147.449
62.43000 147.283
62.44000 148.336
62.45000 149.914
62.46000 151.167
62.47000 147.822
62.48000 142.990
62.49000 139.098
62.50000 142.587
62.51000 147.649
62.52000 151.936
62.53000 146.529
62.54000 140.916
62.55000 136.320
62.56000 134.986
62.57000 133.897
62.58000 134.244
62.59000 137.678
62.60000 141.217
62.61000 143.305
62.62000 143.588
62.63000 143.778
62.64000 144.411
62.65000 145.448
62.66000 146.433
62.67000 144.096
62.68000 139.778
62.69000 135.603
62.70000 133.767
62.71000 132.916
62.72000 132.498
62.73000 136.617
62.74000 141.944
62.75000 146.393
62.76000 145.395
62.77000 143.460
62.78000 141.885
62.79000 135.963
62.80000 130.758
62.81000 128.806
62.82000 135.464
62.83000 142.583
62.84000 144.720
62.85000 138.017
62.86000 131.143
62.87000 127.445
62.88000 134.897
62.89000 139.982
62.90000 141.493
62.91000 140.352
62.92000 139.279
62.93000 140.500
62.94000 142.850
62.95000 145.085
62.96000 144.686
62.97000 143.514
62.98000 142.468
62.99000 142.434
63.00000 142.619
63.01000 142.682
63.02000 142.130
63.03000 141.495
63.04000 141.001
63.05000 145.181
63.06000 148.800
63.07000 149.761
63.08000 144.903
63.09000 139.839
63.10000 136.790
63.11000 136.679
63.12000 136.592
63.13000 140.842
63.14000 149.141
63.15000 157.317
63.16000 157.087
63.17000 151.746
63.18000 146.432
63.19000 141.669
63.20000 137.131
63.21000 132.901
63.22000 131.968
63.23000 131.934
63.24000 132.495
63.25000 136.837
63.26000 141.844
63.27000 145.379
63.28000 142.944
63.29000 139.875
63.30000 137.604
63.31000 138.958
63.32000 140.166
63.33000 140.902
63.34000 140.784
63.35000 140.650
63.36000 142.741
63.37000 147.476
63.38000 152.204
63.39000 152.797
63.40000 150.278
63.41000 147.911
63.42000 151.011
63.43000 156.850
63.44000 162.230
63.45000 160.699
63.46000 156.844
63.47000 153.337
63.48000 152.110
63.49000 151.472
63.50000 150.526
63.51000 148.010
63.52000 145.275
63.53000 143.272
63.54000 143.710
63.55000 144.343
63.56000 144.785
63.57000 146.703
63.58000 148.192
63.59000 148.585
63.60000 147.346
63.61000 146.093
63.62000 145.559
63.63000 145.713
63.64000 145.867
63.65000 146.683
63.66000 147.888
63.67000 148.988
63.68000 147.721
63.69000 145.473
63.70000 143.648
63.71000 146.495
63.72000 150.636
63.73000 154.298
63.74000 148.842
63.75000 142.711
63.76000 139.221
63.77000 146.661
63.78000 155.292
63.79000 160.254
63.80000 155.133
63.81000 149.432
63.82000 145.708
63.83000 145.115
63.84000 144.729
63.85000 144.473
63.86000 144.375
63.87000 144.284
63.88000 145.695
63.89000 148.267
63.90000 150.795
63.91000 153.470
63.92000 156.128
63.93000 158.578
63.94000 157.785
63.95000 155.880
63.96000 154.387
63.97000 156.368
63.98000 159.136
63.99000 161.506
64.00000 158.584
64.01000 155.480
64.02000 153.623
64.03000 156.003
64.04000 158.732
64.05000 160.579
64.06000 160.424
64.07000 160.192
64.08000 160.051
64.09000 150.086
64.10000 142.912
64.11000 140.969
64.12000 144.133
64.13000 147.296
64.14000 150.471
64.15000 153.652
64.16000 156.742
64.17000 159.059
64.18000 160.949
64.19000 162.480
64.20000 159.927
64.21000 156.221
64.22000 152.630
64.23000 149.802
64.24000 147.115
64.25000 144.900
64.26000 151.857
64.27000 158.428
64.28000 162.717
64.29000 160.617
64.30000 158.137
64.31000 155.825
64.32000 153.828
64.33000 151.839
64.34000 150.738
64.35000 157.146
64.36000 161.571
64.37000 162.646
64.38000 161.081
64.39000 159.623
64.40000 162.503
64.41000 167.641
64.42000 172.552
64.43000 170.212
64.44000 165.680
64.45000 161.425
64.46000 159.574
64.47000 158.279
64.48000 157.128
64.49000 156.736
64.50000 156.455
64.51000 156.233
64.52000 162.212
64.53000 167.432
64.54000 170.433
64.55000 168.296
64.56000 165.952
64.57000 164.058
64.58000 162.861
64.59000 161.673
64.60000 161.627
64.61000 162.723
64.62000 163.798
64.63000 163.149
64.64000 161.390
64.65000 159.695
64.66000 159.592
64.67000 160.175
64.68000 160.721
64.69000 163.954
64.70000 167.602
64.71000 171.631
64.72000 178.238
64.73000 185.329
64.74000 190.268
64.75000 185.947
64.76000 180.562
64.77000 176.514
64.78000 174.493
64.79000 173.011
64.80000 173.570
64.81000 178.034
64.82000 182.594
64.83000 181.151
64.84000 172.125
64.85000 163.088
64.86000 163.781
64.87000 172.263
64.88000 180.576
64.89000 181.668
64.90000 178.931
64.91000 176.536
64.92000 179.820
64.93000 185.124
64.94000 189.986
64.95000 192.291
64.96000 193.806
64.97000 194.850
64.98000 193.338
64.99000 191.443
65.00000 189.919
65.01000 189.705
65.02000 189.605
65.03000 189.535
65.04000 201.811
65.05000 211.553
65.06000 213.466
65.07000 203.039
65.08000 192.460
65.09000 191.126
65.10000 199.215
65.11000 207.254
65.12000 209.224
65.13000 207.238
65.14000 205.426
65.15000 208.047
65.16000 212.612
65.17000 217.323
65.18000 223.799
65.19000 230.793
65.20000 237.032
65.21000 232.304
65.22000 226.361
65.23000 222.631
65.24000 228.621
65.25000 235.755
65.26000 242.721
65.27000 249.197
65.28000 255.641
65.29000 259.938
65.30000 262.053
65.31000 263.578
65.32000 268.347
65.33000 277.299
65.34000 286.258
65.35000 291.312
65.36000 293.161
65.37000 294.983
65.38000 294.420
65.39000 292.621
65.40000 291.376
65.41000 299.679
65.42000 311.441
65.43000 322.448
65.44000 326.579
65.45000 329.054
65.46000 331.195
65.47000 334.212
65.48000 336.890
65.49000 340.983
65.50000 350.164
65.51000 359.801
65.52000 366.057
65.53000 364.186
65.54000 361.959
65.55000 360.580
65.56000 369.389
65.57000 375.822
65.58000 384.385
65.59000 395.170
65.60000 405.943
65.61000 415.532
65.62000 424.328
65.63000 432.904
65.64000 437.255
65.65000 439.610
65.66000 443.525
65.67000 466.818
65.68000 495.904
65.69000 526.720
65.70000 569.828
65.71000 615.341
65.72000 653.296
65.73000 712.176
65.74000 763.086
65.75000 811.820
65.76000 854.108
65.77000 895.971
65.78000 941.699
65.79000 995.105
65.80000 1048.722
65.81000 1079.239
65.82000 1107.078
65.83000 1126.464
65.84000 1140.917
65.85000 1151.235
65.86000 1161.527
65.87000 1170.566
65.88000 1178.914
65.89000 1186.935
65.90000 1173.442
65.91000 1153.376
65.92000 1132.122
65.93000 1099.751
65.94000 1064.651
65.95000 1027.180
65.96000 976.299
65.97000 923.314
65.98000 880.917
65.99000 793.157
66.00000 718.810
66.01000 651.493
66.02000 601.386
66.03000 552.065
66.04000 506.290
66.05000 466.327
66.06000 426.447
66.07000 405.881
66.08000 391.419
66.09000 381.660
66.10000 369.669
66.11000 356.155
66.12000 342.888
66.13000 336.504
66.14000 333.250
66.15000 330.181
66.16000 320.731
66.17000 310.286
66.18000 301.697
66.19000 306.605
66.20000 314.208
66.21000 321.009
66.22000 324.139
66.23000 326.815
66.24000 328.858
66.25000 328.391
66.26000 327.888
66.27000 331.017
66.28000 341.498
66.29000 352.191
66.30000 364.585
66.31000 379.260
66.32000 393.935
66.33000 403.633
66.34000 409.060
66.35000 414.609
66.36000 426.372
66.37000 441.622
66.38000 456.066
66.39000 455.575
66.40000 449.466
66.41000 443.826
66.42000 445.726
66.43000 449.120
66.44000 453.430
66.45000 463.034
66.46000 473.486
66.47000 478.255
66.48000 461.781
66.49000 443.290
66.50000 429.917
66.51000 416.977
66.52000 407.062
66.53000 395.814
66.54000 382.337
66.55000 368.827
66.56000 362.139
66.57000 362.872
66.58000 363.605
66.59000 355.369
66.60000 341.046
66.61000 327.076
66.62000 323.490
66.63000 324.715
66.64000 325.826
66.65000 325.428
66.66000 324.563
66.67000 323.784
66.68000 314.136
66.69000 304.098
66.70000 297.032
66.71000 303.843
66.72000 312.411
66.73000 319.205
66.74000 320.544
66.75000 321.500
66.76000 322.150
66.77000 323.891
66.78000 325.216
66.79000 328.485
66.80000 334.417
66.81000 340.356
66.82000 338.155
66.83000 328.844
66.84000 319.641
66.85000 318.692
66.86000 322.372
66.87000 325.855
66.88000 325.538
66.89000 323.766
66.90000 322.833
66.91000 330.179
66.92000 339.638
66.93000 347.897
66.94000 341.212
66.95000 333.394
66.96000 326.942
66.97000 325.693
66.98000 324.951
66.99000 325.352
67.00000 328.657
67.01000 332.105
67.02000 334.290
67.03000 340.813
67.04000 345.596
67.05000 345.896
67.06000 341.212
67.07000 336.552
67.08000 335.581
67.09000 337.232
67.10000 338.848
67.11000 346.362
67.12000 356.247
67.13000 365.221
67.14000 361.806
67.15000 354.470
67.16000 347.667
67.17000 344.921
67.18000 343.019
67.19000 341.415
67.20000 347.158
67.21000 352.750
67.22000 359.253
67.23000 368.609
67.24000 378.171
67.25000 384.229
67.26000 382.918
67.27000 381.372
67.28000 380.470
67.29000 382.066
67.30000 383.200
67.31000 382.712
67.32000 380.775
67.33000 378.830
67.34000 376.359
67.35000 373.581
67.36000 370.900
67.37000 375.558
67.38000 382.642
67.39000 388.827
67.40000 385.897
67.41000 380.595
67.42000 377.080
67.43000 384.351
67.44000 393.432
67.45000 400.791
67.46000 409.954
67.47000 417.566
67.48000 421.495
67.49000 415.891
67.50000 409.798
67.51000 407.335
67.52000 411.170
67.53000 415.117
67.54000 417.216
67.55000 427.094
67.56000 433.770
67.57000 432.148
67.58000 424.515
67.59000 417.178
67.60000 419.430
67.61000 426.294
67.62000 432.806
67.63000 434.671
67.64000 435.008
67.65000 436.087
67.66000 442.962
67.67000 451.068
67.68000 456.643
67.69000 449.912
67.70000 441.544
67.71000 435.063
67.72000 433.415
67.73000 432.394
67.74000 435.406
67.75000 447.054
67.76000 458.991
67.77000 463.910
67.78000 458.834
67.79000 453.685
67.80000 450.740
67.81000 449.805
67.82000 448.945
67.83000 452.781
67.84000 459.406
67.85000 466.089
67.86000 473.967
67.87000 482.321
67.88000 490.085
67.89000 486.652
67.90000 480.871
67.91000 476.393
67.92000 479.962
67.93000 484.910
67.94000 489.544
67.95000 492.936
67.96000 496.200
67.97000 498.600
67.98000 511.922
67.99000 522.676
68.00000 527.946
68.01000 523.521
68.02000 518.911
68.03000 516.048
68.04000 515.208
68.05000 514.373
68.06000 517.109
68.07000 522.442
68.08000 527.825
68.09000 534.912
68.10000 542.834
68.11000 550.113
68.12000 548.080
68.13000 542.986
68.14000 538.366
68.15000 544.003
68.16000 550.939
68.17000 559.265
68.18000 574.495
68.19000 590.665
68.20000 600.079
68.21000 587.502
68.22000 573.229
68.23000 563.337
68.24000 570.248
68.25000 575.894
68.26000 582.014
68.27000 588.823
68.28000 595.636
68.29000 595.523
68.30000 588.962
68.31000 582.462
68.32000 599.193
68.33000 629.381
68.34000 658.518
68.35000 664.992
68.36000 662.284
68.37000 660.033
68.38000 662.691
68.39000 666.676
68.40000 670.188
68.41000 685.790
68.42000 701.060
68.43000 712.277
68.44000 707.112
68.45000 700.216
68.46000 696.425
68.47000 700.980
68.48000 705.995
68.49000 709.244
68.50000 731.801
68.51000 748.594
68.52000 760.529
68.53000 766.720
68.54000 772.957
68.55000 790.910
68.56000 817.697
68.57000 843.992
68.58000 872.888
68.59000 902.015
68.60000 931.145
68.61000 960.320
68.62000 989.511
68.63000 1021.061
68.64000 1071.970
68.65000 1127.161
68.66000 1174.205
68.67000 1238.775
68.68000 1295.147
68.69000 1346.865
68.70000 1383.143
68.71000 1418.194
68.72000 1460.618
68.73000 1519.432
68.74000 1578.846
68.75000 1614.447
68.76000 1694.312
68.77000 1751.315
68.78000 1799.782
68.79000 1840.132
68.80000 1880.935
68.81000 1954.679
68.82000 2048.757
68.83000 2139.958
68.84000 2247.354
68.85000 2355.402
68.86000 2470.768
68.87000 2666.669
68.88000 2884.788
68.89000 3133.655
68.90000 3580.999
68.91000 4063.869
68.92000 4460.033
68.93000 5984.842
68.94000 7336.680
68.95000 9095.002
68.96000 11966.414
68.97000 14901.403
68.98000 18331.504
68.99000 22670.762
69.00000 27029.656
69.01000 29416.436
69.02000 36111.719
69.03000 40717.578
69.04000 44353.945
69.05000 47244.492
69.06000 50106.074
69.07000 51875.938
69.08000 53090.363
69.09000 54248.957
69.10000 54974.055
69.11000 55509.762
69.12000 56035.535
69.13000 56477.746
69.14000 56901.094
69.15000 57347.625
69.16000 57914.145
69.17000 58497.785
69.18000 58956.148
69.19000 58670.457
69.20000 58393.109
69.21000 57471.336
69.22000 55090.195
69.23000 52653.176
69.24000 49833.020
69.25000 46434.125
69.26000 43029.453
69.27000 40136.289
69.28000 37740.441
69.29000 35351.441
69.30000 33500.746
69.31000 31988.818
69.32000 30501.742
69.33000 29595.486
69.34000 28933.533
69.35000 28314.270
69.36000 27484.646
69.37000 26677.219
69.38000 25790.881
69.39000 24383.521
69.40000 22880.885
69.41000 21233.693
69.42000 18978.727
69.43000 16656.105
69.44000 14920.734
69.45000 12192.021
69.46000 10018.979
69.47000 8133.632
69.48000 6786.644
69.49000 5451.995
69.50000 4420.890
69.51000 3763.962
69.52000 3109.338
69.53000 2656.838
69.54000 2364.503
69.55000 2074.646
69.56000 1883.426
69.57000 1743.341
69.58000 1605.859
69.59000 1510.016
69.60000 1428.652
69.61000 1354.298
69.62000 1300.965
69.63000 1257.893
69.64000 1215.578
69.65000 1177.266
69.66000 1139.539
69.67000 1102.871
69.68000 1069.857
69.69000 1037.151
69.70000 1014.066
69.71000 981.549
69.72000 956.585
69.73000 931.804
69.74000 907.305
69.75000 882.810
69.76000 866.268
69.77000 857.629
69.78000 849.050
69.79000 838.979
69.80000 828.126
69.81000 817.052
69.82000 800.587
69.83000 781.811
69.84000 763.146
69.85000 745.773
69.86000 728.769
69.87000 713.652
69.88000 716.890
69.89000 722.675
69.90000 727.984
69.91000 731.250
69.92000 734.284
69.93000 730.926
69.94000 709.400
69.95000 686.762
69.96000 671.789
69.97000 677.555
69.98000 682.182
69.99000 677.023
70.00000 659.555
