20.00000 591.637
20.01000 589.541
20.02000 587.146
20.03000 584.496
20.04000 580.855
20.05000 577.116
20.06000 574.386
20.07000 563.485
20.08000 554.763
20.09000 552.739
20.10000 562.271
20.11000 572.005
20.12000 574.407
20.13000 568.540
20.14000 562.688
20.15000 559.593
20.16000 558.495
20.17000 557.376
20.18000 555.599
20.19000 553.506
20.20000 551.963
20.21000 558.049
20.22000 566.584
20.23000 574.297
20.24000 568.086
20.25000 560.035
20.26000 554.320
20.27000 559.895
20.28000 566.960
20.29000 574.141
20.30000 581.688
20.31000 589.263
20.32000 594.471
20.33000 574.609
20.34000 559.090
20.35000 551.630
20.36000 555.584
20.37000 559.618
20.38000 559.355
20.39000 555.198
20.40000 551.084
20.41000 554.115
20.42000 561.211
20.43000 567.969
20.44000 567.791
20.45000 564.870
20.46000 562.752
20.47000 568.926
20.48000 577.289
20.49000 584.630
20.50000 573.403
20.51000 561.040
20.52000 551.601
20.53000 553.687
20.54000 556.950
20.55000 559.723
20.56000 561.212
20.57000 562.634
20.58000 563.547
20.59000 555.273
20.60000 549.116
20.61000 546.227
20.62000 547.102
20.63000 547.979
20.64000 548.350
20.65000 548.350
20.66000 548.350
20.67000 549.156
20.68000 550.311
20.69000 551.576
20.70000 554.421
20.71000 557.783
20.72000 560.210
20.73000 555.214
20.74000 548.617
20.75000 543.020
20.76000 552.758
20.77000 562.662
20.78000 569.331
20.79000 565.524
20.80000 560.916
20.81000 557.137
20.82000 555.158
20.83000 553.242
20.84000 552.106
20.85000 563.117
20.86000 570.971
20.87000 568.711
20.88000 557.092
20.89000 545.647
20.90000 545.651
20.91000 552.550
20.92000 559.225
20.93000 556.323
20.94000 549.935
20.95000 544.441
20.96000 548.442
20.97000 554.999
20.98000 560.446
20.99000 558.934
21.00000 556.210
21.01000 553.987
21.02000 559.415
21.03000 564.511
21.04000 563.788
21.05000 547.507
21.06000 530.378
21.07000 523.180
21.08000 533.780
21.09000 544.735
21.10000 550.659
21.11000 552.534
21.12000 553.774
21.13000 547.318
21.14000 535.094
21.15000 523.309
21.16000 526.988
21.17000 538.348
21.18000 549.160
21.19000 545.365
21.20000 537.346
21.21000 530.515
21.22000 533.355
21.23000 538.323
21.24000 543.873
21.25000 552.359
21.26000 561.251
21.27000 568.193
21.28000 562.633
21.29000 557.412
21.30000 553.478
21.31000 552.387
21.32000 551.399
21.33000 550.817
21.34000 550.831
21.35000 550.850
21.36000 544.287
21.37000 531.506
21.38000 519.032
21.39000 528.337
21.40000 551.013
21.41000 572.729
21.42000 573.164
21.43000 564.860
21.44000 557.113
21.45000 551.262
21.46000 546.433
21.47000 542.196
21.48000 541.759
21.49000 541.999
21.50000 542.948
21.51000 546.806
21.52000 550.976
21.53000 554.071
21.54000 554.056
21.55000 553.908
21.56000 556.570
21.57000 564.365
21.58000 572.268
21.59000 574.370
21.60000 569.507
21.61000 564.641
21.62000 564.754
21.63000 568.650
21.64000 572.464
21.65000 573.221
21.66000 572.431
21.67000 571.583
21.68000 569.854
21.69000 567.826
21.70000 565.978
21.71000 571.733
21.72000 578.342
21.73000 584.661
21.74000 589.493
21.75000 594.115
21.76000 597.964
21.77000 599.211
21.78000 600.247
21.79000 600.973
21.80000 617.099
21.81000 629.735
21.82000 640.746
21.83000 649.313
21.84000 657.857
21.85000 670.462
21.86000 686.989
21.87000 703.385
21.88000 710.714
21.89000 712.339
21.90000 713.878
21.91000 713.403
21.92000 712.085
21.93000 711.647
21.94000 721.073
21.95000 733.258
21.96000 744.051
21.97000 766.977
21.98000 788.720
21.99000 806.924
22.00000 810.333
22.01000 812.106
22.02000 815.771
22.03000 824.683
22.04000 833.902
22.05000 839.946
22.06000 834.367
22.07000 830.073
22.08000 826.477
22.09000 823.737
22.10000 820.971
22.11000 810.563
22.12000 794.192
22.13000 778.092
22.14000 765.286
22.15000 754.540
22.16000 744.457
22.17000 744.896
22.18000 748.973
22.19000 750.500
22.20000 730.193
22.21000 704.885
22.22000 683.186
22.23000 677.208
22.24000 674.085
22.25000 667.677
22.26000 650.009
22.27000 631.399
22.28000 617.980
22.29000 616.471
22.30000 615.432
22.31000 614.800
22.32000 602.464
22.33000 593.568
22.34000 588.843
22.35000 588.235
22.36000 587.549
22.37000 580.337
22.38000 568.962
22.39000 557.909
22.40000 562.008
22.41000 572.039
22.42000 581.253
22.43000 581.030
22.44000 578.116
22.45000 576.108
22.46000 580.182
22.47000 585.384
22.48000 589.682
22.49000 573.906
22.50000 559.029
22.51000 547.683
22.52000 546.318
22.53000 545.558
22.54000 543.703
22.55000 539.768
22.56000 535.784
22.57000 533.567
22.58000 536.183
22.59000 537.998
22.60000 538.297
22.61000 537.387
22.62000 536.505
22.63000 536.752
22.64000 537.593
22.65000 538.397
22.66000 534.152
22.67000 528.541
22.68000 522.962
22.69000 517.663
22.70000 512.428
22.71000 509.046
22.72000 515.601
22.73000 523.630
22.74000 529.985
22.75000 523.159
22.76000 516.761
22.77000 515.381
22.78000 525.729
22.79000 536.561
22.80000 542.090
22.81000 539.341
22.82000 536.494
22.83000 535.064
22.84000 531.907
22.85000 529.837
22.86000 531.240
22.87000 534.902
22.88000 538.121
22.89000 530.207
22.90000 517.460
22.91000 505.492
22.92000 506.900
22.93000 511.729
22.94000 516.047
22.95000 516.855
22.96000 516.997
22.97000 516.319
22.98000 512.072
22.99000 507.409
23.00000 503.895
23.01000 492.837
23.02000 483.807
23.03000 480.827
23.04000 489.536
23.05000 498.540
23.06000 504.935
23.07000 508.001
23.08000 511.050
23.09000 510.557
23.10000 507.197
23.11000 503.946
23.12000 505.510
23.13000 509.652
23.14000 513.552
23.15000 513.346
23.16000 511.665
23.17000 510.123
23.18000 510.349
23.19000 510.925
23.20000 511.285
23.21000 510.461
23.22000 509.457
23.23000 508.649
23.24000 508.536
23.25000 508.485
23.26000 508.449
23.27000 519.655
23.28000 528.567
23.29000 529.858
23.30000 519.017
23.31000 508.019
23.32000 505.130
23.33000 510.600
23.34000 516.037
23.35000 513.321
23.36000 505.307
23.37000 497.615
23.38000 498.357
23.39000 502.831
23.40000 507.293
23.41000 511.609
23.42000 515.883
23.43000 519.702
23.44000 508.695
23.45000 496.603
23.46000 487.350
23.47000 490.697
23.48000 495.546
23.49000 500.736
23.50000 506.927
23.51000 513.184
23.52000 517.369
23.53000 507.036
23.54000 499.087
23.55000 493.862
23.56000 492.186
23.57000 490.524
23.58000 488.429
23.59000 485.974
23.60000 483.552
23.61000 488.018
23.62000 496.014
23.63000 503.898
23.64000 509.837
23.65000 515.064
23.66000 519.454
23.67000 516.105
23.68000 510.875
23.69000 506.344
23.70000 495.644
23.71000 485.727
23.72000 478.322
23.73000 480.041
23.74000 482.591
23.75000 487.582
23.76000 498.495
23.77000 509.674
23.78000 516.627
23.79000 509.695
23.80000 504.563
23.81000 499.631
23.82000 494.909
23.83000 490.242
23.84000 491.655
23.85000 497.179
23.86000 502.569
23.87000 504.072
23.88000 503.835
23.89000 502.952
23.90000 493.925
23.91000 482.438
23.92000 473.125
23.93000 479.443
23.94000 488.852
23.95000 496.715
23.96000 495.792
23.97000 494.136
23.98000 493.834
23.99000 497.584
24.00000 501.606
24.01000 504.153
24.02000 503.743
24.03000 503.249
24.04000 502.967
24.05000 508.981
24.06000 513.193
24.07000 512.741
24.08000 508.338
24.09000 503.903
24.10000 497.888
24.11000 490.995
24.12000 484.367
24.13000 489.279
24.14000 497.913
24.15000 505.527
24.16000 503.462
24.17000 498.997
24.18000 495.045
24.19000 494.029
24.20000 493.479
24.21000 493.038
24.22000 488.982
24.23000 485.424
24.24000 483.983
24.25000 487.777
24.26000 491.814
24.27000 494.413
24.28000 494.631
24.29000 494.814
24.30000 494.908
24.31000 486.383
24.32000 480.655
24.33000 478.195
24.34000 477.989
24.35000 477.734
24.36000 476.091
24.37000 473.811
24.38000 471.658
24.39000 475.290
24.40000 480.256
24.41000 484.605
24.42000 484.407
24.43000 483.292
24.44000 482.273
24.45000 481.702
24.46000 481.188
24.47000 480.795
24.48000 489.445
24.49000 496.766
24.50000 499.810
24.51000 494.111
24.52000 488.153
24.53000 484.814
24.54000 485.024
24.55000 485.255
24.56000 486.398
24.57000 488.328
24.58000 490.174
24.59000 487.621
24.60000 482.575
24.61000 477.725
24.62000 476.569
24.63000 476.817
24.64000 477.046
24.65000 485.196
24.66000 494.309
24.67000 502.429
24.68000 504.740
24.69000 506.108
24.70000 505.782
24.71000 499.062
24.72000 491.726
24.73000 486.405
24.74000 484.046
24.75000 482.343
24.76000 480.684
24.77000 479.100
24.78000 477.517
24.79000 475.328
24.80000 472.471
24.81000 469.627
24.82000 472.842
24.83000 480.243
24.84000 487.312
24.85000 484.430
24.86000 476.891
24.87000 469.638
24.88000 466.209
24.89000 463.980
24.90000 461.972
24.91000 469.754
24.92000 478.351
24.93000 484.383
24.94000 478.318
24.95000 470.700
24.96000 465.237
24.97000 466.470
24.98000 468.181
24.99000 469.349
25.00000 468.859
25.01000 468.455
25.02000 469.727
25.03000 473.318
25.04000 476.919
25.05000 476.169
25.06000 471.575
25.07000 467.032
25.08000 467.703
25.09000 471.299
25.10000 474.721
25.11000 474.737
25.12000 473.436
25.13000 472.069
25.14000 470.041
25.15000 467.842
25.16000 465.920
25.17000 463.488
25.18000 461.333
25.19000 459.632
25.20000 459.682
25.21000 459.906
25.22000 460.919
25.23000 463.954
25.24000 467.092
25.25000 469.088
25.26000 475.649
25.27000 480.474
25.28000 479.665
25.29000 472.529
25.30000 465.427
25.31000 464.344
25.32000 467.580
25.33000 470.748
25.34000 469.639
25.35000 466.617
25.36000 463.671
25.37000 461.795
25.38000 460.259
25.39000 459.532
25.40000 465.046
25.41000 471.873
25.42000 477.641
25.43000 470.366
25.44000 462.850
25.45000 456.585
25.46000 454.284
25.47000 452.274
25.48000 453.633
25.49000 462.141
25.50000 470.883
25.51000 476.014
25.52000 464.469
25.53000 456.250
25.54000 450.555
25.55000 447.135
25.56000 443.918
25.57000 452.977
25.58000 469.263
25.59000 484.995
25.60000 479.180
25.61000 465.692
25.62000 453.767
25.63000 457.906
25.64000 466.269
25.65000 473.430
25.66000 473.250
25.67000 471.824
25.68000 470.667
25.69000 468.799
25.70000 467.216
25.71000 467.080
25.72000 470.725
25.73000 474.567
25.74000 474.742
25.75000 468.493
25.76000 462.126
25.77000 458.722
25.78000 444.858
25.79000 435.461
25.80000 437.003
25.81000 446.552
25.82000 455.977
25.83000 461.269
25.84000 464.553
25.85000 467.673
25.86000 467.337
25.87000 465.988
25.88000 464.911
25.89000 465.992
25.90000 467.536
25.91000 468.229
25.92000 464.740
25.93000 460.688
25.94000 457.542
25.95000 458.648
25.96000 459.784
25.97000 459.371
25.98000 455.605
25.99000 451.725
26.00000 451.652
26.01000 457.057
26.02000 462.504
26.03000 462.700
26.04000 458.058
26.05000 453.474
26.06000 452.598
26.07000 453.948
26.08000 455.296
26.09000 456.636
26.10000 457.972
26.11000 459.215
26.12000 458.179
26.13000 456.691
26.14000 455.904
26.15000 459.495
26.16000 463.844
26.17000 467.045
26.18000 465.644
26.19000 463.763
26.20000 462.376
26.21000 459.893
26.22000 457.925
26.23000 459.433
26.24000 467.151
26.25000 474.991
26.26000 474.919
26.27000 465.583
26.28000 456.260
26.29000 456.147
26.30000 462.862
26.31000 469.336
26.32000 467.399
26.33000 461.299
26.34000 455.848
26.35000 459.956
26.36000 467.236
26.37000 473.848
26.38000 465.871
26.39000 456.002
26.40000 448.401
26.41000 452.184
26.42000 457.536
26.43000 460.494
26.44000 455.579
26.45000 450.048
26.46000 446.202
26.47000 444.928
26.48000 444.037
26.49000 444.838
26.50000 448.120
26.51000 451.424
26.52000 454.722
26.53000 458.016
26.54000 461.281
26.55000 461.849
26.56000 460.790
26.57000 459.925
26.58000 463.365
26.59000 468.565
26.60000 472.860
26.61000 467.322
26.62000 459.096
26.63000 451.837
26.64000 447.794
26.65000 444.797
26.66000 443.924
26.67000 451.716
26.68000 460.437
26.69000 464.830
26.70000 457.478
26.71000 449.466
26.72000 444.258
26.73000 447.278
26.74000 449.618
26.75000 447.652
26.76000 440.538
26.77000 433.438
26.78000 431.764
26.79000 434.223
26.80000 436.639
26.81000 439.682
26.82000 442.925
26.83000 446.132
26.84000 448.772
26.85000 451.220
26.86000 452.902
26.87000 448.212
26.88000 442.098
26.89000 436.877
26.90000 445.982
26.91000 455.353
26.92000 459.659
26.93000 446.991
26.94000 432.953
26.95000 427.170
26.96000 439.915
26.97000 453.354
26.98000 461.442
26.99000 453.800
27.00000 448.257
27.01000 447.227
27.02000 450.537
27.03000 453.752
27.04000 449.723
27.05000 441.179
27.06000 432.889
27.07000 434.778
27.08000 440.592
27.09000 446.060
27.10000 447.652
27.11000 448.166
27.12000 447.944
27.13000 442.924
27.14000 437.036
27.15000 432.195
27.16000 438.068
27.17000 443.862
27.18000 446.274
27.19000 439.333
27.20000 431.848
27.21000 428.290
27.22000 432.012
27.23000 435.896
27.24000 438.033
27.25000 446.051
27.26000 451.551
27.27000 448.503
27.28000 438.811
27.29000 429.334
27.30000 428.224
27.31000 431.413
27.32000 434.458
27.33000 441.964
27.34000 450.367
27.35000 458.062
27.36000 459.722
27.37000 460.006
27.38000 459.333
27.39000 453.655
27.40000 447.255
27.41000 442.217
27.42000 437.622
27.43000 433.970
27.44000 431.207
27.45000 430.476
27.46000 429.824
27.47000 430.246
27.48000 432.305
27.49000 434.381
27.50000 437.586
27.51000 441.901
27.52000 446.125
27.53000 442.906
27.54000 434.955
27.55000 427.372
27.56000 428.559
27.57000 433.472
27.58000 438.073
27.59000 435.918
27.60000 432.213
27.61000 428.265
27.62000 422.695
27.63000 416.826
27.64000 414.310
27.65000 426.036
27.66000 439.369
27.67000 449.357
27.68000 445.095
27.69000 441.097
27.70000 439.275
27.71000 441.564
27.72000 443.950
27.73000 440.075
27.74000 428.401
27.75000 416.725
27.76000 417.691
27.77000 428.636
27.78000 439.335
27.79000 439.973
27.80000 435.342
27.81000 431.357
27.82000 437.874
27.83000 448.080
27.84000 457.419
27.85000 455.577
27.86000 451.624
27.87000 448.362
27.88000 448.788
27.89000 449.758
27.90000 449.833
27.91000 446.791
27.92000 443.482
27.93000 441.139
27.94000 437.666
27.95000 434.992
27.96000 432.422
27.97000 430.012
27.98000 427.605
27.99000 427.161
28.00000 428.688
28.01000 430.205
28.02000 429.172
28.03000 426.526
28.04000 424.059
28.05000 426.026
28.06000 429.913
28.07000 433.538
28.08000 434.067
28.09000 433.698
28.10000 433.370
28.11000 433.835
28.12000 434.370
28.13000 435.769
28.14000 440.911
28.15000 446.486
28.16000 449.547
28.17000 445.387
28.18000 440.778
28.19000 437.719
28.20000 429.817
28.21000 423.888
28.22000 424.039
28.23000 431.923
28.24000 439.816
28.25000 441.239
28.26000 437.424
28.27000 433.665
28.28000 425.427
28.29000 415.116
28.30000 405.491
28.31000 407.431
28.32000 413.510
28.33000 419.239
28.34000 421.830
28.35000 423.676
28.36000 425.269
28.37000 417.770
28.38000 410.242
28.39000 405.444
28.40000 410.333
28.41000 416.075
28.42000 421.724
28.43000 427.151
28.44000 432.568
28.45000 435.907
28.46000 424.975
28.47000 416.999
28.48000 415.046
28.49000 419.278
28.50000 423.486
28.51000 425.386
28.52000 425.761
28.53000 426.125
28.54000 423.964
28.55000 420.842
28.56000 417.895
28.57000 417.076
28.58000 416.885
28.59000 416.448
28.60000 414.282
28.61000 411.784
28.62000 409.705
28.63000 415.755
28.64000 421.562
28.65000 426.242
28.66000 427.630
28.67000 428.805
28.68000 428.328
28.69000 424.607
28.70000 420.800
28.71000 418.647
28.72000 427.380
28.73000 433.463
28.74000 429.521
28.75000 417.295
28.76000 405.337
28.77000 405.759
28.78000 412.911
28.79000 419.776
28.80000 419.698
28.81000 417.259
28.82000 415.574
28.83000 420.826
28.84000 427.758
28.85000 433.469
28.86000 432.379
28.87000 430.238
28.88000 428.529
28.89000 421.003
28.90000 414.503
28.91000 411.466
28.92000 416.807
28.93000 422.519
28.94000 422.770
28.95000 414.188
28.96000 405.485
28.97000 401.029
28.98000 406.567
28.99000 410.260
29.00000 410.697
29.01000 408.942
29.02000 407.287
29.03000 408.363
29.04000 410.667
29.05000 412.838
29.06000 417.553
29.07000 422.570
29.08000 426.642
29.09000 423.951
29.10000 419.929
29.11000 416.005
29.12000 412.527
29.13000 409.103
29.14000 406.498
29.15000 405.989
29.16000 405.699
29.17000 407.898
29.18000 415.073
29.19000 422.386
29.20000 424.279
29.21000 418.995
29.22000 413.682
29.23000 410.437
29.24000 408.941
29.25000 407.496
29.26000 408.558
29.27000 411.010
29.28000 413.477
29.29000 416.216
29.30000 419.057
29.31000 421.675
29.32000 426.654
29.33000 431.635
29.34000 434.721
29.35000 427.018
29.36000 417.609
29.37000 410.090
29.38000 409.545
29.39000 409.650
29.40000 409.726
29.41000 405.343
29.42000 401.827
29.43000 403.941
29.44000 415.333
29.45000 426.863
29.46000 432.223
29.47000 430.968
29.48000 429.717
29.49000 424.074
29.50000 415.513
29.51000 407.180
29.52000 405.338
29.53000 406.468
29.54000 407.942
29.55000 413.875
29.56000 421.174
29.57000 427.729
29.58000 434.080
29.59000 439.601
29.60000 442.903
29.61000 435.988
29.62000 427.799
29.63000 421.569
29.64000 421.286
29.65000 421.413
29.66000 421.499
29.67000 417.074
29.68000 413.679
29.69000 414.627
29.70000 421.441
29.71000 428.280
29.72000 428.959
29.73000 424.332
29.74000 419.762
29.75000 421.146
29.76000 425.773
29.77000 430.308
29.78000 433.121
29.79000 435.284
29.80000 436.998
29.81000 434.370
29.82000 430.647
29.83000 427.404
29.84000 435.883
29.85000 444.745
29.86000 453.176
29.87000 459.983
29.88000 466.634
29.89000 469.655
29.90000 463.566
29.91000 457.040
29.92000 452.924
29.93000 450.874
29.94000 449.414
29.95000 449.831
29.96000 452.305
29.97000 454.759
29.98000 454.454
29.99000 452.216
30.00000 450.028
30.01000 450.487
30.02000 452.110
30.03000 453.742
30.04000 455.486
30.05000 457.266
30.06000 458.814
30.07000 458.628
30.08000 458.085
30.09000 457.629
30.10000 454.471
30.11000 451.551
30.12000 448.854
30.13000 446.850
30.14000 444.896
30.15000 443.913
30.16000 444.949
30.17000 446.047
30.18000 446.684
30.19000 457.011
30.20000 464.299
30.21000 466.190
30.22000 463.333
30.23000 460.449
30.24000 456.100
30.25000 450.907
30.26000 445.901
30.27000 445.582
30.28000 446.983
30.29000 448.245
30.30000 448.124
30.31000 447.647
30.32000 446.714
30.33000 443.061
30.34000 438.959
30.35000 435.645
30.36000 437.332
30.37000 439.105
30.38000 441.149
30.39000 443.887
30.40000 446.660
30.41000 444.314
30.42000 433.201
30.43000 421.939
30.44000 415.990
30.45000 423.204
30.46000 428.127
30.47000 435.578
30.48000 444.836
30.49000 453.664
30.50000 449.031
30.51000 438.005
30.52000 427.555
30.53000 427.881
30.54000 431.343
30.55000 435.284
30.56000 442.907
30.57000 451.302
30.58000 458.663
30.59000 461.065
30.60000 462.818
30.61000 464.172
30.62000 451.417
30.63000 440.487
30.64000 435.343
30.65000 442.437
30.66000 449.927
30.67000 455.118
30.68000 457.075
30.69000 459.010
30.70000 456.139
30.71000 448.960
30.72000 442.056
30.73000 451.588
30.74000 470.760
30.75000 489.033
30.76000 489.148
30.77000 482.130
30.78000 475.617
30.79000 478.820
30.80000 484.001
30.81000 489.203
30.82000 494.532
30.83000 499.882
30.84000 504.372
30.85000 505.496
30.86000 506.280
30.87000 506.855
30.88000 523.121
30.89000 536.309
30.90000 545.275
30.91000 546.869
30.92000 548.329
30.93000 554.700
30.94000 566.682
30.95000 578.628
30.96000 588.440
30.97000 596.625
30.98000 605.125
30.99000 623.982
31.00000 647.852
31.01000 672.433
31.02000 707.108
31.03000 745.059
31.04000 779.417
31.05000 815.795
31.06000 848.221
31.07000 883.380
31.08000 931.915
31.09000 982.243
31.10000 1035.694
31.11000 1099.186
31.12000 1163.438
31.13000 1207.783
31.14000 1312.388
31.15000 1392.526
31.16000 1484.603
31.17000 1593.794
31.18000 1703.127
31.19000 1831.974
31.20000 1978.728
31.21000 2124.062
31.22000 2258.134
31.23000 2382.824
31.24000 2507.725
31.25000 2637.067
31.26000 2768.186
31.27000 2899.237
31.28000 3029.585
31.29000 3159.745
31.30000 3274.208
31.31000 3395.833
31.32000 3501.543
31.33000 3600.098
31.34000 3670.110
31.35000 3737.158
31.36000 3791.514
31.37000 3812.177
31.38000 3831.029
31.39000 3843.180
31.40000 3807.801
31.41000 3781.285
31.42000 3729.488
31.43000 3648.195
31.44000 3566.748
31.45000 3464.364
31.46000 3346.403
31.47000 3230.686
31.48000 3102.406
31.49000 2972.825
31.50000 2842.730
31.51000 2705.093
31.52000 2564.961
31.53000 2425.851
31.54000 2294.987
31.55000 2165.923
31.56000 2056.170
31.57000 1918.016
31.58000 1798.714
31.59000 1682.554
31.60000 1576.688
31.61000 1471.625
31.62000 1375.291
31.63000 1298.121
31.64000 1221.633
31.65000 1176.054
31.66000 1083.760
31.67000 1018.068
31.68000 953.479
31.69000 889.925
31.70000 826.731
31.71000 788.332
31.72000 765.043
31.73000 742.488
31.74000 723.698
31.75000 707.376
31.76000 689.890
31.77000 659.826
31.78000 626.337
31.79000 596.271
31.80000 587.969
31.81000 583.507
31.82000 579.857
31.83000 567.004
31.84000 555.670
31.85000 543.014
31.86000 526.787
31.87000 510.359
31.88000 496.763
31.89000 488.300
31.90000 479.944
31.91000 475.397
31.92000 474.167
31.93000 473.292
31.94000 464.573
31.95000 449.901
31.96000 435.591
31.97000 434.480
31.98000 440.001
31.99000 445.262
32.00000 436.979
32.01000 425.070
32.02000 414.917
32.03000 419.286
32.04000 426.888
32.05000 433.901
32.06000 437.909
32.07000 441.495
32.08000 444.302
32.09000 438.919
32.10000 434.093
32.11000 429.194
32.12000 424.131
32.13000 419.062
32.14000 417.182
32.15000 420.057
32.16000 422.976
32.17000 421.547
32.18000 415.953
32.19000 410.359
32.20000 404.714
32.21000 399.039
32.22000 393.565
32.23000 392.696
32.24000 393.740
32.25000 394.715
32.26000 396.161
32.27000 397.590
32.28000 398.018
32.29000 391.929
32.30000 384.665
32.31000 379.121
32.32000 380.712
32.33000 383.082
32.34000 384.848
32.35000 387.650
32.36000 389.878
32.37000 388.801
32.38000 381.617
32.39000 374.298
32.40000 374.853
32.41000 384.982
32.42000 395.110
32.43000 399.585
32.44000 399.681
32.45000 399.812
32.46000 401.245
32.47000 403.346
32.48000 405.231
32.49000 403.746
32.50000 401.103
32.51000 398.692
32.52000 395.588
32.53000 392.696
32.54000 389.080
32.55000 381.694
32.56000 373.767
32.57000 367.376
32.58000 366.213
32.59000 365.482
32.60000 364.968
32.61000 374.613
32.62000 382.219
32.63000 389.011
32.64000 394.566
32.65000 400.109
32.66000 397.777
32.67000 387.737
32.68000 377.772
32.69000 375.562
32.70000 378.218
32.71000 380.987
32.72000 386.461
32.73000 393.080
32.74000 399.482
32.75000 403.416
32.76000 406.651
32.77000 409.522
32.78000 407.372
32.79000 404.708
32.80000 406.153
32.81000 424.982
32.82000 445.764
32.83000 464.910
32.84000 479.467
32.85000 493.749
32.86000 503.152
32.87000 514.034
32.88000 522.075
32.89000 530.657
32.90000 539.912
32.91000 549.151
32.92000 553.255
32.93000 553.299
32.94000 553.343
32.95000 550.796
32.96000 547.020
32.97000 543.741
32.98000 548.492
32.99000 556.055
33.00000 561.712
33.01000 550.806
33.02000 536.059
33.03000 523.388
33.04000 511.403
33.05000 501.351
33.06000 488.030
33.07000 463.375
33.08000 437.754
33.09000 417.872
33.10000 411.312
33.11000 405.293
33.12000 401.617
33.13000 387.605
33.14000 377.500
33.15000 368.908
33.16000 361.830
33.17000 354.862
33.18000 357.581
33.19000 366.556
33.20000 375.283
33.21000 373.254
33.22000 366.912
33.23000 361.290
33.24000 364.137
33.25000 369.429
33.26000 373.369
33.27000 368.117
33.28000 361.137
33.29000 355.356
33.30000 356.332
33.31000 357.780
33.32000 359.539
33.33000 362.191
33.34000 364.897
33.35000 363.245
33.36000 353.229
33.37000 343.006
33.38000 337.285
33.39000 340.893
33.40000 343.404
33.41000 341.778
33.42000 336.816
33.43000 331.852
33.44000 326.776
33.45000 321.641
33.46000 316.723
33.47000 327.247
33.48000 342.196
33.49000 355.066
33.50000 349.393
33.51000 339.335
33.52000 330.866
33.53000 331.040
33.54000 332.515
33.55000 333.685
33.56000 331.815
33.57000 330.095
33.58000 330.862
33.59000 337.508
33.60000 344.403
33.61000 349.743
33.62000 352.625
33.63000 355.476
33.64000 356.918
33.65000 348.833
33.66000 343.456
33.67000 341.233
33.68000 341.087
33.69000 340.946
33.70000 340.920
33.71000 340.945
33.72000 340.968
33.73000 342.067
33.74000 343.359
33.75000 344.434
33.76000 343.997
33.77000 343.270
33.78000 342.538
33.79000 341.784
33.80000 341.028
33.81000 340.456
33.82000 341.439
33.83000 342.287
33.84000 342.119
33.85000 339.963
33.86000 337.755
33.87000 338.010
33.88000 341.451
33.89000 344.899
33.90000 344.300
33.91000 340.380
33.92000 336.584
33.93000 338.392
33.94000 343.235
33.95000 347.591
33.96000 343.499
33.97000 336.339
33.98000 329.758
33.99000 325.826
34.00000 322.886
34.01000 321.881
34.02000 331.626
34.03000 343.025
34.04000 351.328
34.05000 348.468
34.06000 344.601
34.07000 341.835
34.08000 340.955
34.09000 340.347
34.10000 339.487
34.11000 338.223
34.12000 336.953
34.13000 334.829
34.14000 331.812
34.15000 328.812
34.16000 326.390
34.17000 324.381
34.18000 322.585
34.19000 326.514
34.20000 333.004
34.21000 339.353
34.22000 343.933
34.23000 347.982
34.24000 351.607
34.25000 345.041
34.26000 337.568
34.27000 331.108
34.28000 329.200
34.29000 327.844
34.30000 326.944
34.31000 327.402
34.32000 327.950
34.33000 328.318
34.34000 332.126
34.35000 335.025
34.36000 338.049
34.37000 341.239
34.38000 344.423
34.39000 344.604
34.40000 342.260
34.41000 339.948
34.42000 337.417
34.43000 334.838
34.44000 332.208
34.45000 328.670
34.46000 324.797
34.47000 321.238
34.48000 320.639
34.49000 320.769
34.50000 320.882
34.51000 321.057
34.52000 321.213
34.53000 320.928
34.54000 319.016
34.55000 316.954
34.56000 316.554
34.57000 320.233
34.58000 324.099
34.59000 326.516
34.60000 320.609
34.61000 316.260
34.62000 314.853
34.63000 316.586
34.64000 318.342
34.65000 322.597
34.66000 328.563
34.67000 334.387
34.68000 333.408
34.69000 329.504
34.70000 325.843
34.71000 325.309
34.72000 325.729
34.73000 325.953
34.74000 324.739
34.75000 323.238
34.76000 321.981
34.77000 329.552
34.78000 336.757
34.79000 340.675
34.80000 334.645
34.81000 327.936
34.82000 323.198
34.83000 322.460
34.84000 321.838
34.85000 321.480
34.86000 324.466
34.87000 326.570
34.88000 330.583
34.89000 336.233
34.90000 341.727
34.91000 339.148
34.92000 332.025
34.93000 325.170
34.94000 320.634
34.95000 317.198
34.96000 313.856
34.97000 311.425
34.98000 309.223
34.99000 307.241
35.00000 306.535
35.01000 306.034
35.02000 305.631
35.03000 304.841
35.04000 304.171
35.05000 305.269
35.06000 310.791
35.07000 316.523
35.08000 319.064
35.09000 316.264
35.10000 313.380
35.11000 311.875
35.12000 307.999
35.13000 305.427
35.14000 309.255
35.15000 317.552
35.16000 325.577
35.17000 325.604
35.18000 321.916
35.19000 318.428
35.20000 320.134
35.21000 323.188
35.22000 325.838
35.23000 325.462
35.24000 324.468
35.25000 322.463
35.26000 315.731
35.27000 308.398
35.28000 302.770
35.29000 313.039
35.30000 322.042
35.31000 327.378
35.32000 325.131
35.33000 322.651
35.34000 320.384
35.35000 318.408
35.36000 316.436
35.37000 314.648
35.38000 313.024
35.39000 311.425
35.40000 311.138
35.41000 311.604
35.42000 312.065
35.43000 312.424
35.44000 312.744
35.45000 313.040
35.46000 306.276
35.47000 298.571
35.48000 292.129
35.49000 293.171
35.50000 295.445
35.51000 299.267
35.52000 309.002
35.53000 319.316
35.54000 326.823
35.55000 324.138
35.56000 321.682
35.57000 317.371
35.58000 309.891
35.59000 302.358
35.60000 300.197
35.61000 304.022
35.62000 307.836
35.63000 311.065
35.64000 313.849
35.65000 316.504
35.66000 315.137
35.67000 311.867
35.68000 308.986
35.69000 311.437
35.70000 315.579
35.71000 319.316
35.72000 318.897
35.73000 317.766
35.74000 315.443
35.75000 307.424
35.76000 298.664
35.77000 293.835
35.78000 301.357
35.79000 309.779
35.80000 315.549
35.81000 306.675
35.82000 299.677
35.83000 297.095
35.84000 300.698
35.85000 304.340
35.86000 304.744
35.87000 302.252
35.88000 299.786
35.89000 301.216
35.90000 304.840
35.91000 308.524
35.92000 313.417
35.93000 318.783
35.94000 323.536
35.95000 322.064
35.96000 318.967
35.97000 316.254
35.98000 310.749
35.99000 305.623
36.00000 301.556
36.01000 301.611
36.02000 302.082
36.03000 303.526
36.04000 307.498
36.05000 311.600
36.06000 314.221
36.07000 304.159
36.08000 296.669
36.09000 291.372
36.10000 288.571
36.11000 285.797
36.12000 287.142
36.13000 291.477
36.14000 295.725
36.15000 299.748
36.16000 303.511
36.17000 306.745
36.18000 302.498
36.19000 295.831
36.20000 290.555
36.21000 296.176
36.22000 304.118
36.23000 310.843
36.24000 304.515
36.25000 297.757
36.26000 293.027
36.27000 294.794
36.28000 297.049
36.29000 301.261
36.30000 309.671
36.31000 318.223
36.32000 323.269
36.33000 315.163
36.34000 309.371
36.35000 305.577
36.36000 303.611
36.37000 301.649
36.38000 299.955
36.39000 298.419
36.40000 296.935
36.41000 298.032
36.42000 300.040
36.43000 301.597
36.44000 298.446
36.45000 294.041
36.46000 290.607
36.47000 293.178
36.48000 296.782
36.49000 299.717
36.50000 299.429
36.51000 298.923
36.52000 298.435
36.53000 297.998
36.54000 297.563
36.55000 296.499
36.56000 294.319
36.57000 292.118
36.58000 290.934
36.59000 291.793
36.60000 292.399
36.61000 296.013
36.62000 301.856
36.63000 307.600
36.64000 309.928
36.65000 310.578
36.66000 311.197
36.67000 314.027
36.68000 317.318
36.69000 319.334
36.70000 311.106
36.71000 300.651
36.72000 291.648
36.73000 289.874
36.74000 289.088
36.75000 288.476
36.76000 293.943
36.77000 298.671
36.78000 301.745
36.79000 301.196
36.80000 300.520
36.81000 302.041
36.82000 306.762
36.83000 311.510
36.84000 310.389
36.85000 303.792
36.86000 297.292
36.87000 297.366
36.88000 301.432
36.89000 305.469
36.90000 308.879
36.91000 312.035
36.92000 314.976
36.93000 307.022
36.94000 297.152
36.95000 289.396
36.96000 295.033
36.97000 303.023
36.98000 310.512
36.99000 315.970
37.00000 321.213
37.01000 325.092
37.02000 318.218
37.03000 312.422
37.04000 309.964
37.05000 313.533
37.06000 317.227
37.07000 317.539
37.08000 313.838
37.09000 310.140
37.10000 306.147
37.11000 301.958
37.12000 297.809
37.13000 295.091
37.14000 293.088
37.15000 291.258
37.16000 292.007
37.17000 293.624
37.18000 295.094
37.19000 291.134
37.20000 286.567
37.21000 284.027
37.22000 291.795
37.23000 301.004
37.24000 307.886
37.25000 307.028
37.26000 305.551
37.27000 304.520
37.28000 306.384
37.29000 307.872
37.30000 306.596
37.31000 301.214
37.32000 295.794
37.33000 295.011
37.34000 298.650
37.35000 302.259
37.36000 307.018
37.37000 312.389
37.38000 317.441
37.39000 315.314
37.40000 310.216
37.41000 305.022
37.42000 298.768
37.43000 292.220
37.44000 286.431
37.45000 291.003
37.46000 296.561
37.47000 300.355
37.48000 296.857
37.49000 292.565
37.50000 291.687
37.51000 300.182
37.52000 309.215
37.53000 315.112
37.54000 307.481
37.55000 301.663
37.56000 296.883
37.57000 293.360
37.58000 289.857
37.59000 290.442
37.60000 294.181
37.61000 297.856
37.62000 298.435
37.63000 297.469
37.64000 296.683
37.65000 298.715
37.66000 301.712
37.67000 304.449
37.68000 305.000
37.69000 305.057
37.70000 305.105
37.71000 302.341
37.72000 299.671
37.73000 296.915
37.74000 293.874
37.75000 290.808
37.76000 288.983
37.77000 289.971
37.78000 291.068
37.79000 291.731
37.80000 297.765
37.81000 302.104
37.82000 302.790
37.83000 299.915
37.84000 297.073
37.85000 296.935
37.86000 298.503
37.87000 300.026
37.88000 297.982
37.89000 294.614
37.90000 291.760
37.91000 294.743
37.92000 299.373
37.93000 303.339
37.94000 302.909
37.95000 301.674
37.96000 300.655
37.97000 300.649
37.98000 300.737
37.99000 300.802
38.00000 300.802
38.01000 300.797
38.02000 302.048
38.03000 305.653
38.04000 309.313
38.05000 311.339
38.06000 313.014
38.07000 314.155
38.08000 311.088
38.09000 304.709
38.10000 298.495
38.11000 298.936
38.12000 302.835
38.13000 306.563
38.14000 310.172
38.15000 313.492
38.16000 315.964
38.17000 311.104
38.18000 304.549
38.19000 300.382
38.20000 308.867
38.21000 319.206
38.22000 327.367
38.23000 326.084
38.24000 324.413
38.25000 325.324
38.26000 332.208
38.27000 339.332
38.28000 343.605
38.29000 343.474
38.30000 343.294
38.31000 349.849
38.32000 363.113
38.33000 376.285
38.34000 381.432
38.35000 381.416
38.36000 381.804
38.37000 392.081
38.38000 406.608
38.39000 420.230
38.40000 442.889
38.41000 465.889
38.42000 488.713
38.43000 510.340
38.44000 531.743
38.45000 552.869
38.46000 572.804
38.47000 592.603
38.48000 607.484
38.49000 657.967
38.50000 699.151
38.51000 741.922
38.52000 787.727
38.53000 833.606
38.54000 869.872
38.55000 894.008
38.56000 918.065
38.57000 952.369
38.58000 994.729
38.59000 1037.142
38.60000 1081.797
38.61000 1127.639
38.62000 1173.317
38.63000 1216.270
38.64000 1258.255
38.65000 1296.731
38.66000 1309.914
38.67000 1316.346
38.68000 1323.069
38.69000 1331.367
38.70000 1339.902
38.71000 1347.302
38.72000 1350.704
38.73000 1353.757
38.74000 1355.927
38.75000 1323.627
38.76000 1297.939
38.77000 1262.169
38.78000 1210.525
38.79000 1158.687
38.80000 1117.618
38.81000 1087.519
38.82000 1057.611
38.83000 1014.143
38.84000 962.538
38.85000 911.074
38.86000 863.227
38.87000 816.962
38.88000 771.173
38.89000 731.105
38.90000 692.714
38.91000 658.468
38.92000 609.421
38.93000 564.282
38.94000 523.981
38.95000 504.910
38.96000 488.334
38.97000 472.229
38.98000 457.493
38.99000 442.844
39.00000 433.080
39.01000 411.961
39.02000 396.108
39.03000 382.234
39.04000 370.909
39.05000 359.599
39.06000 350.774
39.07000 343.985
39.08000 337.293
39.09000 330.088
39.10000 322.822
39.11000 315.653
39.12000 310.150
39.13000 305.251
39.14000 301.018
39.15000 302.841
39.16000 306.120
39.17000 308.955
39.18000 306.657
39.19000 304.037
39.20000 301.728
39.21000 300.539
39.22000 299.450
39.23000 296.252
39.24000 287.990
39.25000 279.506
39.26000 274.252
39.27000 280.672
39.28000 285.400
39.29000 288.081
39.30000 288.631
39.31000 289.229
39.32000 294.794
39.33000 303.681
39.34000 312.344
39.35000 306.245
39.36000 294.140
39.37000 282.416
39.38000 275.418
39.39000 269.832
39.40000 264.733
39.41000 263.091
39.42000 262.125
39.43000 261.320
39.44000 269.344
39.45000 276.878
39.46000 282.198
39.47000 280.966
39.48000 279.303
39.49000 276.523
39.50000 271.523
39.51000 266.463
39.52000 263.584
39.53000 271.909
39.54000 277.733
39.55000 276.780
39.56000 270.153
39.57000 263.655
39.58000 263.284
39.59000 266.284
39.60000 269.167
39.61000 271.038
39.62000 272.442
39.63000 273.878
39.64000 275.628
39.65000 277.455
39.66000 279.016
39.67000 279.074
39.68000 278.897
39.69000 278.755
39.70000 278.121
39.71000 277.571
39.72000 277.276
39.73000 277.605
39.74000 277.961
39.75000 275.352
39.76000 267.889
39.77000 260.356
39.78000 256.474
39.79000 260.436
39.80000 263.085
39.81000 263.399
39.82000 262.120
39.83000 260.994
39.84000 264.128
39.85000 269.199
39.86000 273.982
39.87000 268.729
39.88000 261.113
39.89000 254.637
39.90000 256.437
39.91000 259.888
39.92000 262.228
39.93000 259.492
39.94000 256.129
39.95000 253.563
39.96000 254.825
39.97000 256.025
39.98000 257.972
39.99000 261.431
40.00000 264.933
40.01000 266.613
40.02000 265.849
40.03000 265.073
40.04000 263.780
40.05000 262.048
40.06000 260.303
40.07000 257.871
40.08000 255.053
40.09000 252.476
40.10000 254.324
40.11000 257.836
40.12000 261.077
40.13000 263.276
40.14000 265.014
40.15000 266.171
40.16000 263.974
40.17000 261.239
40.18000 259.560
40.19000 261.821
40.20000 264.455
40.21000 266.360
40.22000 261.655
40.23000 257.805
40.24000 256.571
40.25000 259.701
40.26000 262.899
40.27000 260.945
40.28000 253.393
40.29000 245.874
40.30000 246.727
40.31000 253.329
40.32000 259.672
40.33000 258.417
40.34000 253.645
40.35000 249.370
40.36000 251.656
40.37000 255.978
40.38000 259.866
40.39000 255.681
40.40000 250.574
40.41000 247.757
40.42000 255.616
40.43000 264.827
40.44000 270.275
40.45000 264.157
40.46000 257.228
40.47000 252.518
40.48000 250.626
40.49000 249.278
40.50000 250.702
40.51000 255.918
40.52000 261.151
40.53000 262.042
40.54000 259.143
40.55000 256.277
40.56000 252.279
40.57000 247.745
40.58000 243.596
40.59000 246.822
40.60000 252.871
40.61000 258.496
40.62000 259.932
40.63000 260.300
40.64000 260.621
40.65000 263.099
40.66000 265.522
40.67000 265.845
40.68000 258.176
40.69000 249.728
40.70000 243.686
40.71000 243.755
40.72000 244.125
40.73000 244.359
40.74000 246.604
40.75000 248.256
40.76000 249.867
40.77000 251.432
40.78000 252.980
40.79000 252.111
40.80000 249.529
40.81000 247.002
40.82000 249.100
40.83000 253.207
40.84000 257.110
40.85000 258.251
40.86000 258.519
40.87000 258.858
40.88000 259.730
40.89000 260.714
40.90000 261.543
40.91000 259.417
40.92000 257.322
40.93000 256.299
40.94000 258.637
40.95000 261.218
40.96000 261.054
40.97000 255.126
40.98000 249.014
40.99000 245.444
41.00000 244.436
41.01000 243.740
41.02000 244.881
41.03000 247.660
41.04000 250.392
41.05000 250.473
41.06000 249.010
41.07000 247.598
41.08000 253.136
41.09000 260.902
41.10000 267.555
41.11000 262.951
41.12000 255.419
41.13000 248.767
41.14000 247.423
41.15000 246.969
41.16000 246.601
41.17000 241.697
41.18000 237.333
41.19000 236.177
41.20000 243.317
41.21000 250.881
41.22000 253.687
41.23000 248.246
41.24000 242.658
41.25000 239.688
41.26000 240.717
41.27000 241.409
41.28000 240.519
41.29000 238.482
41.30000 236.660
41.31000 241.754
41.32000 250.170
41.33000 258.156
41.34000 256.451
41.35000 251.998
41.36000 247.803
41.37000 245.618
41.38000 243.859
41.39000 242.845
41.40000 245.449
41.41000 248.533
41.42000 250.921
41.43000 245.314
41.44000 240.388
41.45000 236.302
41.46000 234.015
41.47000 231.788
41.48000 233.410
41.49000 240.507
41.50000 247.643
41.51000 248.881
41.52000 244.752
41.53000 240.676
41.54000 239.884
41.55000 241.041
41.56000 242.154
41.57000 242.345
41.58000 242.170
41.59000 242.007
41.60000 242.099
41.61000 242.243
41.62000 241.835
41.63000 238.030
41.64000 233.642
41.65000 230.718
41.66000 233.587
41.67000 237.051
41.68000 239.598
41.69000 243.279
41.70000 246.173
41.71000 246.665
41.72000 242.914
41.73000 239.082
41.74000 238.735
41.75000 242.419
41.76000 246.096
41.77000 244.170
41.78000 238.154
41.79000 232.212
41.80000 228.763
41.81000 226.534
41.82000 224.835
41.83000 230.792
41.84000 239.264
41.85000 246.947
41.86000 245.475
41.87000 242.428
41.88000 239.888
41.89000 239.863
41.90000 240.180
41.91000 239.613
41.92000 236.166
41.93000 232.497
41.94000 229.955
41.95000 234.442
41.96000 238.005
41.97000 240.771
41.98000 242.384
41.99000 243.986
42.00000 244.473
42.01000 243.922
42.02000 243.376
42.03000 239.722
42.04000 234.299
42.05000 229.031
42.06000 227.089
42.07000 226.493
42.08000 226.319
42.09000 230.662
42.10000 236.226
42.11000 241.128
42.12000 237.022
42.13000 232.125
42.14000 228.366
42.15000 229.197
42.16000 230.514
42.17000 231.808
42.18000 233.045
42.19000 234.277
42.20000 235.076
42.21000 234.551
42.22000 234.148
42.23000 235.286
42.24000 238.245
42.25000 241.184
42.26000 239.370
42.27000 233.976
42.28000 228.682
42.29000 227.127
42.30000 227.427
42.31000 227.809
42.32000 229.423
42.33000 231.449
42.34000 233.029
42.35000 230.955
42.36000 228.074
42.37000 225.618
42.38000 237.719
42.39000 249.602
42.40000 256.126
42.41000 244.886
42.42000 232.236
42.43000 225.207
42.44000 230.659
42.45000 236.567
42.46000 240.105
42.47000 237.480
42.48000 235.576
42.49000 233.754
42.50000 232.008
42.51000 230.300
42.52000 231.224
42.53000 233.772
42.54000 236.243
42.55000 234.921
42.56000 232.189
42.57000 229.796
42.58000 231.135
42.59000 233.503
42.60000 236.161
42.61000 240.695
42.62000 245.565
42.63000 249.559
42.64000 241.241
42.65000 233.321
42.66000 227.692
42.67000 228.332
42.68000 229.329
42.69000 227.776
42.70000 221.545
42.71000 215.213
42.72000 211.748
42.73000 212.054
42.74000 212.287
42.75000 216.488
42.76000 223.738
42.77000 230.952
42.78000 236.806
42.79000 241.968
42.80000 246.892
42.81000 242.266
42.82000 234.952
42.83000 228.472
42.84000 229.008
42.85000 231.125
42.86000 233.054
42.87000 234.003
42.88000 234.812
42.89000 235.448
42.90000 240.171
42.91000 244.217
42.92000 246.949
42.93000 246.712
42.94000 246.362
42.95000 243.702
42.96000 237.557
42.97000 231.378
42.98000 227.772
42.99000 226.665
43.00000 225.595
43.01000 227.378
43.02000 230.956
43.03000 234.351
43.04000 233.483
43.05000 230.823
43.06000 228.334
43.07000 224.403
43.08000 220.463
43.09000 217.488
43.10000 220.880
43.11000 225.435
43.12000 229.465
43.13000 231.291
43.14000 232.871
43.15000 234.051
43.16000 237.508
43.17000 240.307
43.18000 238.905
43.19000 229.649
43.20000 220.214
43.21000 218.301
43.22000 225.651
43.23000 233.011
43.24000 235.618
43.25000 234.503
43.26000 233.346
43.27000 230.522
43.28000 226.836
43.29000 223.503
43.30000 225.799
43.31000 230.050
43.32000 233.935
43.33000 233.158
43.34000 231.514
43.35000 229.623
43.36000 226.425
43.37000 223.036
43.38000 221.203
43.39000 224.730
43.40000 228.707
43.41000 231.514
43.42000 224.762
43.43000 219.349
43.44000 217.094
43.45000 219.701
43.46000 222.361
43.47000 225.368
43.48000 228.718
43.49000 232.044
43.50000 229.554
43.51000 223.434
43.52000 217.684
43.53000 220.952
43.54000 228.081
43.55000 234.353
43.56000 230.648
43.57000 224.086
43.58000 218.253
43.59000 219.500
43.60000 221.728
43.61000 223.536
43.62000 223.540
43.63000 223.339
43.64000 224.281
43.65000 228.468
43.66000 232.854
43.67000 235.753
43.68000 227.130
43.69000 220.561
43.70000 221.227
43.71000 230.985
43.72000 240.744
43.73000 241.405
43.74000 234.783
43.75000 228.263
43.76000 228.770
43.77000 232.857
43.78000 236.550
43.79000 233.735
43.80000 228.616
43.81000 223.708
43.82000 220.660
43.83000 218.049
43.84000 215.800
43.85000 214.652
43.86000 213.819
43.87000 214.340
43.88000 219.616
43.89000 225.305
43.90000 228.535
43.91000 225.993
43.92000 223.211
43.93000 221.504
43.94000 226.595
43.95000 230.302
43.96000 228.412
43.97000 220.846
43.98000 213.358
43.99000 213.100
44.00000 217.568
44.01000 221.917
44.02000 222.217
44.03000 220.820
44.04000 219.808
44.05000 223.408
44.06000 228.354
44.07000 232.700
44.08000 232.904
44.09000 232.318
44.10000 231.832
44.11000 228.493
44.12000 225.457
44.13000 223.852
44.14000 226.388
44.15000 229.187
44.16000 231.140
44.17000 231.454
44.18000 231.725
44.19000 231.878
44.20000 226.771
44.21000 223.212
44.22000 220.104
44.23000 217.365
44.24000 214.723
44.25000 216.448
44.26000 220.522
44.27000 224.428
44.28000 225.840
44.29000 226.317
44.30000 226.653
44.31000 225.705
44.32000 224.451
44.33000 223.067
44.34000 220.970
44.35000 218.765
44.36000 217.010
44.37000 225.158
44.38000 232.437
44.39000 236.029
44.40000 230.798
44.41000 225.184
44.42000 222.867
44.43000 225.824
44.44000 228.849
44.45000 230.389
44.46000 230.570
44.47000 230.714
44.48000 233.145
44.49000 237.100
44.50000 240.921
44.51000 241.163
44.52000 239.815
44.53000 238.546
44.54000 238.822
44.55000 239.495
44.56000 239.429
44.57000 234.143
44.58000 227.841
44.59000 224.800
44.60000 236.302
44.61000 249.547
44.62000 259.595
44.63000 258.499
44.64000 257.067
44.65000 256.913
44.66000 259.290
44.67000 261.736
44.68000 264.063
44.69000 266.237
44.70000 268.408
44.71000 271.876
44.72000 276.413
44.73000 280.933
44.74000 284.678
44.75000 287.999
44.76000 291.239
44.77000 293.038
44.78000 294.308
44.79000 295.476
44.80000 303.763
44.81000 312.728
44.82000 322.613
44.83000 337.682
44.84000 353.560
44.85000 366.374
44.86000 368.009
44.87000 368.619
44.88000 369.058
44.89000 374.668
44.90000 379.138
44.91000 387.742
44.92000 403.084
44.93000 418.522
44.94000 431.123
44.95000 440.720
44.96000 450.265
44.97000 453.958
44.98000 453.678
44.99000 453.609
45.00000 459.397
45.01000 467.836
45.02000 475.472
45.03000 472.891
45.04000 467.211
45.05000 462.118
45.06000 457.176
45.07000 452.883
45.08000 447.943
45.09000 440.057
45.10000 431.808
45.11000 424.156
45.12000 418.299
45.13000 412.563
45.14000 408.693
45.15000 413.203
45.16000 416.735
45.17000 416.465
45.18000 411.117
45.19000 405.737
45.20000 397.107
45.21000 385.709
45.22000 374.455
45.23000 370.070
45.24000 369.535
45.25000 368.633
45.26000 360.970
45.27000 350.775
45.28000 341.039
45.29000 335.684
45.30000 331.420
45.31000 327.712
45.32000 324.211
45.33000 321.251
45.34000 318.594
45.35000 317.057
45.36000 315.626
45.37000 313.072
45.38000 307.728
45.39000 302.254
45.40000 298.816
45.41000 296.354
45.42000 294.586
45.43000 290.790
45.44000 284.803
45.45000 278.832
45.46000 275.106
45.47000 272.935
45.48000 270.814
45.49000 271.961
45.50000 274.503
45.51000 276.858
45.52000 276.777
45.53000 275.942
45.54000 275.622
45.55000 279.115
45.56000 283.382
45.57000 286.963
45.58000 272.191
45.59000 257.966
45.60000 247.229
45.61000 247.171
45.62000 247.859
45.63000 249.399
45.64000 252.692
45.65000 256.038
45.66000 257.972
45.67000 246.547
45.68000 238.495
45.69000 238.587
45.70000 245.757
45.71000 252.742
45.72000 249.782
45.73000 241.162
45.74000 232.857
45.75000 236.338
45.76000 243.831
45.77000 250.120
45.78000 244.610
45.79000 236.103
45.80000 229.605
45.81000 234.912
45.82000 242.146
45.83000 247.978
45.84000 242.888
45.85000 237.895
45.86000 233.186
45.87000 229.195
45.88000 225.240
45.89000 222.450
45.90000 221.636
45.91000 220.855
45.92000 220.444
45.93000 215.960
45.94000 212.943
45.95000 213.181
45.96000 215.721
45.97000 218.148
45.98000 217.115
45.99000 214.457
46.00000 211.941
46.01000 211.222
46.02000 211.081
46.03000 211.264
46.04000 213.910
46.05000 217.065
46.06000 219.614
46.07000 219.288
46.08000 218.592
46.09000 218.055
46.10000 215.226
46.11000 212.856
46.12000 211.824
46.13000 213.592
46.14000 215.448
46.15000 213.875
46.16000 207.535
46.17000 201.167
46.18000 198.415
46.19000 198.873
46.20000 199.388
46.21000 203.168
46.22000 208.843
46.23000 214.314
46.24000 215.754
46.25000 215.627
46.26000 215.510
46.27000 214.210
46.28000 212.764
46.29000 211.649
46.30000 212.519
46.31000 213.721
46.32000 213.980
46.33000 210.592
46.34000 206.841
46.35000 204.101
46.36000 200.023
46.37000 196.827
46.38000 194.614
46.39000 194.101
46.40000 193.618
46.41000 194.987
46.42000 198.447
46.43000 201.897
46.44000 205.845
46.45000 210.114
46.46000 214.257
46.47000 214.366
46.48000 212.543
46.49000 210.835
46.50000 210.727
46.51000 211.133
46.52000 211.501
46.53000 212.292
46.54000 213.067
46.55000 213.284
46.56000 210.801
46.57000 207.961
46.58000 203.462
46.59000 193.688
46.60000 183.523
46.61000 176.532
46.62000 188.216
46.63000 197.445
46.64000 199.968
46.65000 192.986
46.66000 185.936
46.67000 182.614
46.68000 182.673
46.69000 182.731
46.70000 185.813
46.71000 190.579
46.72000 195.172
46.73000 196.222
46.74000 195.871
46.75000 195.520
46.76000 195.184
46.77000 194.851
46.78000 194.559
46.79000 197.279
46.80000 200.057
46.81000 201.124
46.82000 195.442
46.83000 189.070
46.84000 185.076
46.85000 187.326
46.86000 189.905
46.87000 191.561
46.88000 191.804
46.89000 191.963
46.90000 193.988
46.91000 198.167
46.92000 202.318
46.93000 201.287
46.94000 196.444
46.95000 191.696
46.96000 188.891
46.97000 187.103
46.98000 185.638
46.99000 188.810
47.00000 193.501
47.01000 197.672
47.02000 197.711
47.03000 196.859
47.04000 196.136
47.05000 194.921
47.06000 193.846
47.07000 193.843
47.08000 197.317
47.09000 201.056
47.10000 202.206
47.11000 197.729
47.12000 193.058
47.13000 190.288
47.14000 190.575
47.15000 190.796
47.16000 190.985
47.17000 191.143
47.18000 191.313
47.19000 192.307
47.20000 193.796
47.21000 195.238
47.22000 193.814
47.23000 191.376
47.24000 188.894
47.25000 185.934
47.26000 182.846
47.27000 180.567
47.28000 183.371
47.29000 187.059
47.30000 190.071
47.31000 189.202
47.32000 188.159
47.33000 187.259
47.34000 186.745
47.35000 186.252
47.36000 188.096
47.37000 194.132
47.38000 200.252
47.39000 203.563
47.40000 196.052
47.41000 190.901
47.42000 186.651
47.43000 183.077
47.44000 179.622
47.45000 180.398
47.46000 183.276
47.47000 186.016
47.48000 187.331
47.49000 188.109
47.50000 188.770
47.51000 188.485
47.52000 187.992
47.53000 188.030
47.54000 190.746
47.55000 193.834
47.56000 196.245
47.57000 196.826
47.58000 197.174
47.59000 197.256
47.60000 196.750
47.61000 196.222
47.62000 193.659
47.63000 188.096
47.64000 182.507
47.65000 179.124
47.66000 177.829
47.67000 176.587
47.68000 179.156
47.69000 184.066
47.70000 188.760
47.71000 188.648
47.72000 186.561
47.73000 184.614
47.74000 189.563
47.75000 195.763
47.76000 200.273
47.77000 193.932
47.78000 185.659
47.79000 179.398
47.80000 181.392
47.81000 184.277
47.82000 186.418
47.83000 189.838
47.84000 192.551
47.85000 192.862
47.86000 188.781
47.87000 184.606
47.88000 183.235
47.89000 185.234
47.90000 187.234
47.91000 189.783
47.92000 192.735
47.93000 195.652
47.94000 197.314
47.95000 198.339
47.96000 199.145
47.97000 196.569
47.98000 192.845
47.99000 189.452
48.00000 183.612
48.01000 177.952
48.02000 173.936
48.03000 178.380
48.04000 184.025
48.05000 188.781
48.06000 190.548
48.07000 192.072
48.08000 193.139
48.09000 186.518
48.10000 181.290
48.11000 178.084
48.12000 177.920
48.13000 177.785
48.14000 180.064
48.15000 184.676
48.16000 189.252
48.17000 192.690
48.18000 195.367
48.19000 197.754
48.20000 193.403
48.21000 186.230
48.22000 179.841
48.23000 182.275
48.24000 187.179
48.25000 191.522
48.26000 190.048
48.27000 187.857
48.28000 186.110
48.29000 186.223
48.30000 186.541
48.31000 186.217
48.32000 184.110
48.33000 181.898
48.34000 180.448
48.35000 181.918
48.36000 183.048
48.37000 184.161
48.38000 185.252
48.39000 186.333
48.40000 184.442
48.41000 180.230
48.42000 176.087
48.43000 178.321
48.44000 183.666
48.45000 188.553
48.46000 186.164
48.47000 181.255
48.48000 176.775
48.49000 175.960
48.50000 175.985
48.51000 176.006
48.52000 181.700
48.53000 187.206
48.54000 190.743
48.55000 187.526
48.56000 183.742
48.57000 183.495
48.58000 191.370
48.59000 199.566
48.60000 204.548
48.61000 190.033
48.62000 179.520
48.63000 175.057
48.64000 176.573
48.65000 178.088
48.66000 179.415
48.67000 180.622
48.68000 181.795
48.69000 183.919
48.70000 186.324
48.71000 188.379
48.72000 186.390
48.73000 183.246
48.74000 180.648
48.75000 181.712
48.76000 183.457
48.77000 184.898
48.78000 181.815
48.79000 178.851
48.80000 178.314
48.81000 184.645
48.82000 191.393
48.83000 192.884
48.84000 184.395
48.85000 175.667
48.86000 170.808
48.87000 175.015
48.88000 177.944
48.89000 180.768
48.90000 183.510
48.91000 186.204
48.92000 186.904
48.93000 186.555
48.94000 186.221
48.95000 185.870
48.96000 185.538
48.97000 184.773
48.98000 180.207
48.99000 174.751
49.00000 171.145
49.01000 177.476
49.02000 185.283
49.03000 191.463
49.04000 187.172
49.05000 182.999
49.06000 181.337
49.07000 185.553
49.08000 190.012
49.09000 190.518
49.10000 184.843
49.11000 179.095
49.12000 176.207
49.13000 180.604
49.14000 183.485
49.15000 181.250
49.16000 175.683
49.17000 170.502
49.18000 175.012
49.19000 183.733
49.20000 191.922
49.21000 190.197
49.22000 185.993
49.23000 181.949
49.24000 178.999
49.25000 176.258
49.26000 173.884
49.27000 173.115
49.28000 172.533
49.29000 172.094
49.30000 175.165
49.31000 177.743
49.32000 178.074
49.33000 174.060
49.34000 169.936
49.35000 170.902
49.36000 178.373
49.37000 185.858
49.38000 190.483
49.39000 192.772
49.40000 194.845
49.41000 187.390
49.42000 174.829
49.43000 163.024
49.44000 164.087
49.45000 169.775
49.46000 174.996
49.47000 173.573
49.48000 170.890
49.49000 169.164
49.50000 172.684
49.51000 177.000
49.52000 180.225
49.53000 179.556
49.54000 178.541
49.55000 177.817
49.56000 176.670
49.57000 175.782
49.58000 175.159
49.59000 174.960
49.60000 174.765
49.61000 175.459
49.62000 177.069
49.63000 178.669
49.64000 179.795
49.65000 180.593
49.66000 181.361
49.67000 181.316
49.68000 180.912
49.69000 180.542
49.70000 180.592
49.71000 180.766
49.72000 180.922
49.73000 175.563
49.74000 169.962
49.75000 165.352
49.76000 165.145
49.77000 165.463
49.78000 166.978
49.79000 172.010
49.80000 177.270
49.81000 180.790
49.82000 178.837
49.83000 177.280
49.84000 176.844
49.85000 177.869
49.86000 178.901
49.87000 180.338
49.88000 182.113
49.89000 183.864
49.90000 182.325
49.91000 179.082
49.92000 176.014
49.93000 176.027
49.94000 177.168
49.95000 178.197
49.96000 178.180
49.97000 177.908
49.98000 177.673
49.99000 175.814
50.00000 174.017
50.01000 172.489
50.02000 171.937
50.03000 171.475
50.04000 172.464
50.05000 176.980
50.06000 181.654
50.07000 184.562
50.08000 189.734
50.09000 193.483
50.10000 192.887
50.11000 187.708
50.12000 182.551
50.13000 179.933
50.14000 179.035
50.15000 178.158
50.16000 179.772
50.17000 182.386
50.18000 184.588
50.19000 181.573
50.20000 176.981
50.21000 173.694
50.22000 179.800
50.23000 187.766
50.24000 194.423
50.25000 195.329
50.26000 195.497
50.27000 195.174
50.28000 193.382
50.29000 191.492
50.30000 189.938
50.31000 189.062
50.32000 188.205
50.33000 187.714
50.34000 194.817
50.35000 199.795
50.36000 200.339
50.37000 197.124
50.38000 194.045
50.39000 197.714
50.40000 205.139
50.41000 212.279
50.42000 214.638
50.43000 215.176
50.44000 215.896
50.45000 218.344
50.46000 221.222
50.47000 224.638
50.48000 231.135
50.49000 238.123
50.50000 243.728
50.51000 242.024
50.52000 240.090
50.53000 239.048
50.54000 240.216
50.55000 241.487
50.56000 244.770
50.57000 251.384
50.58000 258.050
50.59000 261.507
50.60000 274.896
50.61000 283.904
50.62000 289.127
50.63000 291.737
50.64000 294.312
50.65000 295.847
50.66000 296.905
50.67000 297.904
50.68000 296.506
50.69000 294.546
50.70000 291.852
50.71000 283.741
50.72000 274.537
50.73000 268.584
50.74000 277.677
50.75000 288.656
50.76000 297.060
50.77000 284.985
50.78000 274.336
50.79000 267.960
50.80000 270.330
50.81000 272.960
50.82000 271.722
50.83000 265.238
50.84000 258.728
50.85000 252.162
50.86000 245.560
50.87000 239.032
50.88000 236.429
50.89000 236.053
50.90000 235.553
50.91000 232.707
50.92000 228.969
50.93000 225.513
50.94000 221.901
50.95000 218.623
50.96000 215.491
50.97000 213.210
50.98000 211.067
50.99000 207.297
51.00000 197.376
51.01000 186.862
51.02000 179.234
51.03000 188.636
51.04000 196.497
51.05000 199.943
51.06000 195.938
51.07000 191.813
51.08000 189.788
51.09000 190.075
51.10000 190.361
51.11000 190.525
51.12000 190.600
51.13000 190.617
51.14000 188.884
51.15000 186.330
51.16000 184.096
51.17000 186.146
51.18000 189.542
51.19000 192.602
51.20000 189.605
51.21000 185.880
51.22000 183.542
51.23000 187.757
51.24000 192.812
51.25000 195.827
51.26000 192.494
51.27000 188.707
51.28000 186.122
51.29000 184.207
51.30000 182.791
51.31000 182.829
51.32000 184.882
51.33000 186.944
51.34000 186.343
51.35000 183.388
51.36000 180.465
51.37000 181.008
51.38000 183.497
51.39000 185.772
51.40000 183.840
51.41000 180.280
51.42000 176.816
51.43000 174.318
51.44000 172.071
51.45000 170.105
51.46000 171.687
51.47000 173.547
51.48000 175.862
51.49000 179.926
51.50000 184.163
51.51000 185.691
51.52000 180.259
51.53000 174.475
51.54000 170.795
51.55000 171.198
51.56000 171.542
51.57000 172.038
51.58000 172.704
51.59000 173.354
51.60000 171.462
51.61000 167.744
51.62000 164.104
51.63000 164.154
51.64000 165.894
51.65000 167.422
51.66000 166.013
51.67000 163.664
51.68000 161.892
51.69000 164.582
51.70000 168.210
51.71000 171.277
51.72000 166.926
51.73000 162.471
51.74000 159.517
51.75000 161.317
51.76000 163.468
51.77000 164.088
51.78000 161.456
51.79000 158.717
51.80000 157.110
51.81000 159.708
51.82000 161.561
51.83000 164.698
51.84000 168.994
51.85000 173.230
51.86000 173.881
51.87000 172.418
51.88000 171.006
51.89000 170.217
51.90000 169.706
51.91000 169.197
51.92000 168.715
51.93000 168.241
51.94000 167.569
51.95000 165.693
51.96000 163.612
51.97000 161.921
51.98000 162.127
51.99000 162.452
52.00000 162.898
52.01000 163.658
52.02000 164.434
52.03000 163.014
52.04000 157.740
52.05000 152.396
52.06000 149.538
52.07000 155.396
52.08000 159.394
52.09000 162.756
52.10000 165.652
52.11000 168.494
52.12000 169.561
52.13000 169.764
52.14000 169.957
52.15000 165.834
52.16000 160.727
52.17000 156.291
52.18000 157.175
52.19000 159.203
52.20000 161.418
52.21000 164.556
52.22000 167.819
52.23000 170.352
52.24000 170.127
52.25000 169.780
52.26000 169.179
52.27000 168.024
52.28000 166.851
52.29000 167.264
52.30000 169.959
52.31000 172.673
52.32000 172.275
52.33000 169.010
52.34000 165.793
52.35000 165.787
52.36000 167.708
52.37000 169.398
52.38000 166.191
52.39000 161.014
52.40000 156.196
52.41000 154.442
52.42000 153.600
52.43000 153.404
52.44000 157.252
52.45000 161.803
52.46000 165.469
52.47000 165.596
52.48000 165.353
52.49000 165.174
52.50000 165.387
52.51000 165.568
52.52000 167.737
52.53000 173.460
52.54000 179.253
52.55000 177.838
52.56000 167.974
52.57000 158.125
52.58000 154.699
52.59000 156.064
52.60000 157.432
52.61000 158.923
52.62000 160.475
52.63000 162.093
52.64000 164.671
52.65000 167.568
52.66000 170.199
52.67000 170.212
52.68000 169.715
52.69000 168.817
52.70000 165.899
52.71000 162.702
52.72000 160.714
52.73000 162.705
52.74000 165.007
52.75000 166.608
52.76000 160.469
52.77000 155.631
52.78000 154.231
52.79000 157.881
52.80000 161.575
52.81000 161.438
52.82000 157.693
52.83000 153.981
52.84000 153.966
52.85000 156.173
52.86000 158.382
52.87000 160.644
52.88000 162.928
52.89000 165.129
52.90000 166.433
52.91000 167.492
52.92000 168.426
52.93000 166.667
52.94000 164.737
52.95000 162.977
52.96000 161.910
52.97000 160.918
52.98000 160.298
52.99000 160.690
53.00000 161.138
53.01000 161.430
53.02000 161.884
53.03000 162.218
53.04000 161.198
53.05000 158.554
53.06000 155.926
53.07000 157.386
53.08000 161.964
53.09000 166.461
53.10000 169.386
53.11000 171.445
53.12000 173.108
53.13000 168.744
53.14000 162.338
53.15000 156.582
53.16000 156.231
53.17000 157.091
53.18000 157.825
53.19000 162.466
53.20000 166.839
53.21000 169.589
53.22000 166.891
53.23000 163.751
53.24000 161.722
53.25000 162.188
53.26000 162.747
53.27000 163.083
53.28000 163.911
53.29000 164.503
53.30000 163.478
53.31000 160.897
53.32000 158.382
53.33000 160.860
53.34000 166.454
53.35000 171.882
53.36000 172.931
53.37000 172.194
53.38000 171.560
53.39000 172.079
53.40000 172.920
53.41000 173.182
53.42000 169.663
53.43000 165.459
53.44000 162.002
53.45000 170.837
53.46000 179.210
53.47000 181.798
53.48000 168.377
53.49000 154.022
53.50000 147.939
53.51000 157.209
53.52000 166.823
53.53000 172.116
53.54000 162.316
53.55000 155.563
53.56000 154.794
53.57000 158.682
53.58000 162.464
53.59000 162.158
53.60000 159.749
53.61000 157.448
53.62000 155.769
53.63000 154.408
53.64000 153.519
53.65000 156.647
53.66000 160.693
53.67000 163.637
53.68000 160.815
53.69000 157.159
53.70000 154.281
53.71000 157.576
53.72000 160.629
53.73000 162.617
53.74000 162.169
53.75000 161.626
53.76000 161.397
53.77000 161.648
53.78000 161.904
53.79000 162.250
53.80000 162.686
53.81000 163.136
53.82000 164.739
53.83000 167.077
53.84000 169.389
53.85000 171.099
53.86000 172.554
53.87000 173.916
53.88000 170.801
53.89000 166.809
53.90000 162.891
53.91000 159.464
53.92000 156.127
53.93000 152.848
53.94000 149.813
53.95000 146.806
53.96000 144.553
53.97000 147.200
53.98000 149.497
53.99000 152.830
54.00000 158.120
54.01000 163.456
54.02000 165.650
54.03000 163.925
54.04000 162.191
54.05000 163.856
54.06000 168.199
54.07000 172.389
54.08000 170.271
54.09000 164.849
54.10000 159.705
54.11000 159.106
54.12000 160.105
54.13000 161.018
54.14000 157.947
54.15000 154.390
54.16000 151.802
54.17000 154.393
54.18000 157.750
54.19000 159.694
54.20000 156.713
54.21000 153.310
54.22000 150.900
54.23000 155.144
54.24000 158.578
54.25000 161.910
54.26000 165.087
54.27000 168.261
54.28000 169.163
54.29000 167.781
54.30000 166.408
54.31000 163.647
54.32000 160.042
54.33000 156.450
54.34000 153.153
54.35000 149.985
54.36000 147.317
54.37000 150.572
54.38000 155.545
54.39000 159.973
54.40000 161.800
54.41000 162.960
54.42000 163.603
54.43000 162.004
54.44000 160.144
54.45000 158.145
54.46000 155.743
54.47000 153.317
54.48000 151.706
54.49000 158.383
54.50000 163.472
54.51000 163.568
54.52000 157.310
54.53000 151.044
54.54000 150.307
54.55000 154.053
54.56000 157.743
54.57000 157.277
54.58000 154.670
54.59000 152.322
54.60000 154.335
54.61000 157.911
54.62000 161.412
54.63000 164.231
54.64000 166.888
54.65000 169.180
54.66000 166.950
54.67000 164.478
54.68000 162.442
54.69000 161.954
54.70000 161.602
54.71000 162.467
54.72000 166.222
54.73000 170.100
54.74000 172.491
54.75000 166.948
54.76000 162.898
54.77000 160.991
54.78000 161.289
54.79000 161.547
54.80000 157.815
54.81000 151.444
54.82000 145.238
54.83000 150.949
54.84000 161.408
54.85000 170.835
54.86000 167.678
54.87000 160.803
54.88000 154.898
54.89000 155.783
54.90000 157.980
54.91000 159.807
54.92000 163.455
54.93000 166.654
54.94000 168.278
54.95000 165.292
54.96000 162.008
54.97000 161.596
54.98000 166.826
54.99000 172.204
55.00000 175.249
55.01000 171.162
55.02000 168.298
55.03000 165.281
55.04000 162.138
55.05000 159.088
55.06000 160.349
55.07000 163.955
55.08000 167.416
55.09000 168.590
55.10000 168.907
55.11000 168.889
55.12000 165.781
55.13000 161.923
55.14000 158.754
55.15000 159.428
55.16000 160.697
55.17000 161.710
55.18000 165.081
55.19000 167.976
55.20000 170.658
55.21000 172.825
55.22000 174.970
55.23000 175.536
55.24000 173.548
55.25000 171.524
55.26000 170.488
55.27000 168.743
55.28000 167.612
55.29000 170.891
55.30000 177.145
55.31000 183.283
55.32000 186.229
55.33000 187.740
55.34000 189.165
55.35000 190.411
55.36000 191.503
55.37000 192.188
55.38000 189.956
55.39000 187.149
55.40000 185.673
55.41000 190.210
55.42000 195.478
55.43000 199.487
55.44000 199.713
55.45000 199.691
55.46000 199.782
55.47000 200.096
55.48000 200.417
55.49000 204.594
55.50000 213.883
55.51000 223.188
55.52000 233.573
55.53000 244.841
55.54000 256.064
55.55000 265.016
55.56000 272.707
55.57000 280.416
55.58000 288.441
55.59000 296.582
55.60000 304.087
55.61000 318.939
55.62000 333.862
55.63000 348.271
55.64000 359.741
55.65000 370.746
55.66000 382.786
55.67000 398.645
55.68000 414.860
55.69000 426.546
55.70000 452.021
55.71000 472.029
55.72000 492.651
55.73000 514.289
55.74000 535.942
55.75000 558.966
55.76000 583.463
55.77000 607.839
55.78000 633.251
55.79000 659.074
55.80000 684.781
55.81000 707.192
55.82000 728.094
55.83000 748.132
55.84000 756.980
55.85000 762.394
55.86000 767.257
55.87000 796.138
55.88000 825.639
55.89000 849.298
55.90000 846.031
55.91000 839.404
55.92000 834.161
55.93000 833.123
55.94000 832.375
55.95000 831.868
55.96000 829.363
55.97000 827.452
55.98000 819.317
55.99000 802.766
56.00000 786.168
56.01000 769.261
56.02000 752.087
56.03000 735.121
56.04000 717.693
56.05000 700.446
56.06000 682.829
56.07000 658.259
56.08000 631.055
56.09000 605.557
56.10000 596.621
56.11000 591.862
56.12000 587.715
56.13000 556.311
56.14000 525.708
56.15000 497.653
56.16000 479.193
56.17000 461.654
56.18000 444.388
56.19000 427.808
56.20000 411.262
56.21000 400.824
56.22000 382.696
56.23000 369.480
56.24000 355.418
56.25000 340.430
56.26000 325.457
56.27000 312.535
56.28000 301.051
56.29000 289.824
56.30000 283.589
56.31000 279.844
56.32000 275.624
56.33000 265.050
56.34000 252.488
56.35000 240.689
56.36000 234.629
56.37000 229.749
56.38000 225.642
56.39000 220.807
56.40000 216.698
56.41000 213.346
56.42000 212.341
56.43000 211.503
56.44000 208.860
56.45000 202.468
56.46000 195.960
56.47000 192.177
56.48000 194.512
56.49000 196.178
56.50000 197.803
56.51000 199.390
56.52000 200.865
56.53000 196.002
56.54000 187.490
56.55000 179.281
56.56000 177.607
56.57000 178.403
56.58000 179.278
56.59000 180.938
56.60000 182.799
56.61000 183.999
56.62000 181.263
56.63000 177.875
56.64000 175.136
56.65000 171.910
56.66000 169.247
56.67000 166.489
56.68000 163.488
56.69000 160.474
56.70000 160.223
56.71000 164.709
56.72000 169.275
56.73000 171.688
56.74000 173.280
56.75000 174.320
56.76000 169.296
56.77000 159.932
56.78000 150.822
56.79000 149.689
56.80000 152.349
56.81000 154.869
56.82000 157.478
56.83000 159.906
56.84000 162.245
56.85000 163.894
56.86000 165.398
56.87000 166.048
56.88000 162.597
56.89000 158.609
56.90000 155.530
56.91000 156.376
56.92000 157.276
56.93000 157.626
56.94000 156.813
56.95000 155.962
56.96000 154.133
56.97000 150.930
56.98000 147.718
56.99000 150.137
57.00000 157.611
57.01000 164.929
57.02000 162.909
57.03000 155.407
57.04000 148.288
57.05000 148.918
57.06000 152.595
57.07000 156.008
57.08000 155.530
57.09000 154.180
57.10000 153.087
57.11000 153.563
57.12000 154.304
57.13000 154.276
57.14000 151.236
57.15000 147.891
57.16000 145.439
57.17000 150.156
57.18000 154.086
57.19000 155.669
57.20000 153.150
57.21000 150.556
57.22000 149.252
57.23000 149.421
57.24000 149.592
57.25000 149.153
57.26000 148.275
57.27000 147.430
57.28000 147.666
57.29000 148.427
57.30000 149.182
57.31000 149.858
57.32000 150.509
57.33000 151.098
57.34000 152.133
57.35000 153.129
57.36000 153.595
57.37000 151.468
57.38000 148.993
57.39000 147.082
57.40000 146.987
57.41000 147.029
57.42000 147.058
57.43000 142.485
57.44000 138.932
57.45000 138.602
57.46000 142.900
57.47000 147.232
57.48000 148.630
57.49000 147.331
57.50000 146.045
57.51000 145.485
57.52000 145.363
57.53000 145.242
57.54000 145.138
57.55000 145.041
57.56000 145.049
57.57000 146.157
57.58000 147.558
57.59000 148.791
57.60000 143.594
57.61000 138.166
57.62000 133.699
57.63000 133.069
57.64000 132.837
57.65000 132.954
57.66000 134.000
57.67000 135.095
57.68000 135.802
57.69000 142.265
57.70000 147.068
57.71000 147.911
57.72000 144.129
57.73000 140.372
57.74000 142.613
57.75000 149.321
57.76000 155.902
57.77000 153.080
57.78000 145.889
57.79000 139.077
57.80000 137.815
57.81000 138.391
57.82000 138.752
57.83000 137.377
57.84000 135.624
57.85000 134.133
57.86000 140.662
57.87000 147.072
57.88000 150.978
57.89000 146.673
57.90000 141.729
57.91000 138.778
57.92000 140.210
57.93000 141.798
57.94000 142.744
57.95000 140.425
57.96000 138.761
57.97000 137.893
57.98000 137.772
57.99000 137.651
58.00000 137.567
58.01000 137.505
58.02000 137.445
58.03000 134.688
58.04000 131.038
58.05000 127.833
58.06000 129.446
58.07000 132.372
58.08000 135.800
58.09000 142.419
58.10000 149.601
58.11000 155.479
58.12000 148.956
58.13000 142.526
58.14000 138.680
58.15000 141.829
58.16000 145.370
58.17000 146.855
58.18000 144.612
58.19000 142.291
58.20000 141.027
58.21000 151.485
58.22000 158.648
58.23000 159.775
58.24000 156.315
58.25000 152.835
58.26000 148.611
58.27000 144.012
58.28000 139.629
58.29000 137.809
58.30000 136.925
58.31000 136.074
58.32000 135.504
58.33000 134.996
58.34000 134.898
58.35000 136.887
58.36000 139.171
58.37000 140.959
58.38000 144.160
58.39000 146.809
58.40000 147.838
58.41000 145.244
58.42000 142.515
58.43000 141.460
58.44000 142.901
58.45000 144.367
58.46000 143.957
58.47000 141.749
58.48000 139.521
58.49000 135.815
58.50000 131.190
58.51000 127.010
58.52000 132.998
58.53000 143.213
58.54000 152.757
58.55000 147.650
58.56000 139.322
58.57000 132.503
58.58000 135.501
58.59000 140.271
58.60000 143.730
58.61000 141.750
58.62000 139.173
58.63000 137.255
58.64000 138.682
58.65000 139.944
58.66000 141.401
58.67000 143.218
58.68000 145.043
58.69000 143.421
58.70000 137.602
58.71000 131.786
58.72000 130.564
58.73000 132.888
58.74000 135.129
58.75000 134.124
58.76000 131.456
58.77000 129.010
58.78000 130.035
58.79000 132.254
58.80000 134.279
58.81000 137.946
58.82000 141.531
58.83000 143.571
58.84000 137.552
58.85000 130.373
58.86000 125.379
58.87000 127.826
58.88000 130.889
58.89000 133.043
58.90000 135.906
58.91000 138.097
58.92000 138.824
58.93000 137.325
58.94000 135.803
58.95000 134.370
58.96000 133.026
58.97000 131.693
58.98000 131.868
58.99000 132.982
59.00000 134.098
59.01000 135.260
59.02000 136.440
59.03000 137.489
59.04000 137.022
59.05000 136.126
59.06000 135.330
59.07000 134.176
59.08000 133.118
59.09000 132.408
59.10000 133.167
59.11000 134.092
59.12000 134.339
59.13000 132.683
59.14000 130.913
59.15000 129.748
59.16000 133.551
59.17000 136.438
59.18000 137.156
59.19000 135.178
59.20000 133.204
59.21000 134.395
59.22000 138.091
59.23000 141.728
59.24000 139.570
59.25000 134.551
59.26000 129.775
59.27000 128.946
59.28000 129.499
59.29000 130.042
59.30000 130.507
59.31000 130.954
59.32000 131.337
59.33000 135.492
59.34000 139.478
59.35000 141.393
59.36000 136.121
59.37000 130.237
59.38000 126.760
59.39000 128.880
59.40000 131.226
59.41000 132.660
59.42000 132.008
59.43000 131.525
59.44000 133.908
59.45000 139.160
59.46000 144.364
59.47000 145.315
59.48000 143.516
59.49000 141.767
59.50000 138.696
59.51000 135.230
59.52000 132.106
59.53000 133.004
59.54000 135.063
59.55000 136.677
59.56000 135.254
59.57000 133.260
59.58000 131.609
59.59000 130.805
59.60000 130.223
59.61000 129.804
59.62000 129.849
59.63000 129.923
59.64000 130.241
59.65000 131.027
59.66000 131.824
59.67000 132.271
59.68000 133.575
59.69000 134.480
59.70000 135.076
59.71000 135.422
59.72000 135.711
59.73000 133.550
59.74000 130.085
59.75000 126.765
59.76000 127.007
59.77000 128.417
59.78000 129.630
59.79000 129.080
59.80000 128.113
59.81000 126.915
59.82000 124.465
59.83000 121.825
59.84000 119.730
59.85000 132.578
59.86000 143.975
59.87000 149.337
59.88000 140.414
59.89000 130.886
59.90000 125.469
59.91000 126.556
59.92000 127.724
59.93000 128.315
59.94000 130.677
59.95000 132.237
59.96000 131.715
59.97000 129.822
59.98000 128.076
59.99000 130.146
60.00000 133.893
60.01000 137.415
60.02000 137.051
60.03000 135.673
60.04000 134.267
60.05000 132.664
60.06000 131.024
60.07000 129.130
60.08000 126.118
60.09000 122.975
60.10000 120.597
60.11000 124.911
60.12000 128.632
60.13000 131.834
60.14000 134.022
60.15000 136.184
60.16000 136.612
60.17000 134.797
60.18000 132.975
60.19000 133.956
60.20000 137.236
60.21000 140.415
60.22000 139.015
60.23000 135.132
60.24000 131.453
60.25000 131.301
60.26000 132.432
60.27000 133.472
60.28000 133.700
60.29000 133.729
60.30000 134.152
60.31000 136.769
60.32000 139.724
60.33000 141.613
60.34000 139.655
60.35000 137.349
60.36000 135.698
60.37000 138.170
60.38000 140.197
60.39000 139.129
60.40000 133.069
60.41000 126.941
60.42000 125.998
60.43000 130.477
60.44000 134.932
60.45000 135.278
60.46000 132.894
60.47000 130.477
60.48000 127.174
60.49000 123.474
60.50000 120.181
60.51000 121.963
60.52000 125.268
60.53000 128.226
60.54000 129.848
60.55000 131.033
60.56000 131.768
60.57000 130.480
60.58000 128.946
60.59000 127.687
60.60000 127.246
60.61000 126.859
60.62000 126.599
60.63000 128.160
60.64000 129.358
60.65000 132.526
60.66000 138.297
60.67000 144.073
60.68000 145.667
60.69000 143.745
60.70000 141.847
60.71000 137.346
60.72000 131.564
60.73000 126.042
60.74000 125.173
60.75000 126.028
60.76000 126.667
60.77000 125.265
60.78000 123.360
60.79000 121.707
60.80000 122.075
60.81000 122.660
60.82000 123.644
60.83000 126.096
60.84000 128.684
60.85000 129.890
60.86000 127.698
60.87000 125.349
60.88000 123.881
60.89000 128.130
60.90000 131.257
60.91000 131.973
60.92000 130.113
60.93000 128.251
60.94000 126.199
60.95000 124.016
60.96000 121.885
60.97000 124.613
60.98000 129.343
60.99000 133.792
61.00000 134.617
61.01000 134.334
61.02000 134.126
61.03000 134.467
61.04000 134.918
61.05000 135.296
61.06000 140.677
61.07000 145.667
61.08000 149.157
61.09000 148.099
61.10000 146.731
61.11000 143.813
61.12000 137.750
61.13000 131.595
61.14000 128.055
61.15000 132.524
61.16000 135.680
61.17000 138.576
61.18000 141.249
61.19000 143.856
61.20000 143.017
61.21000 140.238
61.22000 137.564
61.23000 136.817
61.24000 136.799
61.25000 136.991
61.26000 139.215
61.27000 141.948
61.28000 144.050
61.29000 142.485
61.30000 140.329
61.31000 138.594
61.32000 138.937
61.33000 139.375
61.34000 139.834
61.35000 140.346
61.36000 140.860
61.37000 140.862
61.38000 140.009
61.39000 139.142
61.40000 138.689
61.41000 140.571
61.42000 141.831
61.43000 141.293
61.44000 139.498
61.45000 137.780
61.46000 138.358
61.47000 140.004
61.48000 141.560
61.49000 147.714
61.50000 154.686
61.51000 161.987
61.52000 171.754
61.53000 182.025
61.54000 193.266
61.55000 209.051
61.56000 225.415
61.57000 237.978
61.58000 252.258
61.59000 263.642
61.60000 274.038
61.61000 282.389
61.62000 290.677
61.63000 299.337
61.64000 308.509
61.65000 317.679
61.66000 319.952
61.67000 316.182
61.68000 312.449
61.69000 310.698
61.70000 310.084
61.71000 309.416
61.72000 307.689
61.73000 305.556
61.74000 303.581
61.75000 295.107
61.76000 285.993
61.77000 276.899
61.78000 267.925
61.79000 258.971
61.80000 247.890
61.81000 228.673
61.82000 208.658
61.83000 194.086
61.84000 182.620
61.85000 173.912
61.86000 167.360
61.87000 164.491
61.88000 161.685
61.89000 159.867
61.90000 159.154
61.91000 158.445
61.92000 157.476
61.93000 156.333
61.94000 155.110
61.95000 151.423
61.96000 146.568
61.97000 141.889
61.98000 139.611
61.99000 138.095
62.00000 136.727
62.01000 142.542
62.02000 148.969
62.03000 153.787
62.04000 150.908
62.05000 147.025
62.06000 144.316
62.07000 145.304
62.08000 146.562
62.09000 147.424
62.10000 145.490
62.11000 143.974
62.12000 143.350
62.13000 143.976
62.14000 144.611
62.15000 146.454
62.16000 149.377
62.17000 152.270
62.18000 152.594
62.19000 151.441
62.20000 150.367
62.21000 150.881
62.22000 152.018
62.23000 152.583
62.24000 147.332
62.25000 140.561
62.26000 134.628
62.27000 136.682
62.28000 139.600
62.29000 141.553
62.30000 139.748
62.31000 137.565
62.32000 136.238
62.33000 137.137
62.34000 138.151
62.35000 138.800
62.36000 134.426
62.37000 131.176
62.38000 132.944
62.39000 140.428
62.40000 147.869
62.41000 147.359
62.42000 141.066
62.43000 134.900
62.44000 138.357
62.45000 146.149
62.46000 153.311
62.47000 151.574
62.48000 146.957
62.49000 142.776
62.50000 142.018
62.51000 141.990
62.52000 141.966
62.53000 139.112
62.54000 136.404
62.55000 134.812
62.56000 136.793
62.57000 139.043
62.58000 139.238
62.59000 135.014
62.60000 130.642
62.61000 128.061
62.62000 131.946
62.63000 134.724
62.64000 136.903
62.65000 138.533
62.66000 140.148
62.67000 140.817
62.68000 140.923
62.69000 141.025
62.70000 140.208
62.71000 139.090
62.72000 138.357
62.73000 141.658
62.74000 146.033
62.75000 149.213
62.76000 144.990
62.77000 139.492
62.78000 135.015
62.79000 143.803
62.80000 152.105
62.81000 156.956
62.82000 152.675
62.83000 147.904
62.84000 145.751
62.85000 148.240
62.86000 150.820
62.87000 152.208
62.88000 153.936
62.89000 155.096
62.90000 152.212
62.91000 146.328
62.92000 140.506
62.93000 136.801
62.94000 134.137
62.95000 131.604
62.96000 136.365
62.97000 142.991
62.98000 149.350
62.99000 153.562
63.00000 157.307
63.01000 159.733
63.02000 155.589
63.03000 150.546
63.04000 146.619
63.05000 146.216
63.06000 146.113
63.07000 146.237
63.08000 146.858
63.09000 147.496
63.10000 146.625
63.11000 143.551
63.12000 140.459
63.13000 141.068
63.14000 145.132
63.15000 149.172
63.16000 151.484
63.17000 152.747
63.18000 153.737
63.19000 148.813
63.20000 141.484
63.21000 134.654
63.22000 138.507
63.23000 144.620
63.24000 149.899
63.25000 149.898
63.26000 148.969
63.27000 147.818
63.28000 145.765
63.29000 143.616
63.30000 142.026
63.31000 146.534
63.32000 150.294
63.33000 151.832
63.34000 149.351
63.35000 146.787
63.36000 144.976
63.37000 144.057
63.38000 143.143
63.39000 144.818
63.40000 148.430
63.41000 151.962
63.42000 152.619
63.43000 151.836
63.44000 151.004
63.45000 149.438
63.46000 147.627
63.47000 145.979
63.48000 147.902
63.49000 150.306
63.50000 152.128
63.51000 150.992
63.52000 149.442
63.53000 149.215
63.54000 153.389
63.55000 157.916
63.56000 161.076
63.57000 157.472
63.58000 154.561
63.59000 152.027
63.60000 150.052
63.61000 148.084
63.62000 150.902
63.63000 158.291
63.64000 165.619
63.65000 161.000
63.66000 149.199
63.67000 137.919
63.68000 138.409
63.69000 143.776
63.70000 148.287
63.71000 143.324
63.72000 135.737
63.73000 129.027
63.74000 138.590
63.75000 149.382
63.76000 157.353
63.77000 153.653
63.78000 148.682
63.79000 145.669
63.80000 148.036
63.81000 150.712
63.82000 152.460
63.83000 153.365
63.84000 154.016
63.85000 153.293
63.86000 150.904
63.87000 148.524
63.88000 149.154
63.89000 152.108
63.90000 155.012
63.91000 152.189
63.92000 146.635
63.93000 141.501
63.94000 142.923
63.95000 146.591
63.96000 149.677
63.97000 147.841
63.98000 144.889
63.99000 142.363
64.00000 149.163
64.01000 156.027
64.02000 160.678
64.03000 157.819
64.04000 154.343
64.05000 152.441
64.06000 154.118
64.07000 155.933
64.08000 157.031
64.09000 156.362
64.10000 155.872
64.11000 157.914
64.12000 162.426
64.13000 166.893
64.14000 167.766
64.15000 166.368
64.16000 165.011
64.17000 161.069
64.18000 156.290
64.19000 151.995
64.20000 153.203
64.21000 155.963
64.22000 158.648
64.23000 160.839
64.24000 162.939
64.25000 164.670
64.26000 160.964
64.27000 157.413
64.28000 156.731
64.29000 164.083
64.30000 171.913
64.31000 175.015
64.32000 169.241
64.33000 163.261
64.34000 159.950
64.35000 158.735
64.36000 157.904
64.37000 158.433
64.38000 160.031
64.39000 161.685
64.40000 165.566
64.41000 170.607
64.42000 175.426
64.43000 171.444
64.44000 164.882
64.45000 159.212
64.46000 161.270
64.47000 165.116
64.48000 168.916
64.49000 172.476
64.50000 176.000
64.51000 178.782
64.52000 175.469
64.53000 172.396
64.54000 169.105
64.55000 165.311
64.56000 161.497
64.57000 161.014
64.58000 165.679
64.59000 170.403
64.60000 173.773
64.61000 175.794
64.62000 177.762
64.63000 175.110
64.64000 169.483
64.65000 164.110
64.66000 164.976
64.67000 168.524
64.68000 171.852
64.69000 172.608
64.70000 172.624
64.71000 172.738
64.72000 173.521
64.73000 174.429
64.74000 175.313
64.75000 176.094
64.76000 176.864
64.77000 177.442
64.78000 174.070
64.79000 171.243
64.80000 170.084
64.81000 172.119
64.82000 174.232
64.83000 178.975
64.84000 187.041
64.85000 195.106
64.86000 198.107
64.87000 197.042
64.88000 195.943
64.89000 193.461
64.90000 190.244
64.91000 187.120
64.92000 185.534
64.93000 184.495
64.94000 183.543
64.95000 190.384
64.96000 198.114
64.97000 204.249
64.98000 201.743
64.99000 197.940
65.00000 194.801
65.01000 194.004
65.02000 193.410
65.03000 192.989
65.04000 201.205
65.05000 207.736
65.06000 213.877
65.07000 219.403
65.08000 224.921
65.09000 230.899
65.10000 237.347
65.11000 243.754
65.12000 247.036
65.13000 248.249
65.14000 249.451
65.15000 250.404
65.16000 251.247
65.17000 252.453
65.18000 258.037
65.19000 264.905
65.20000 271.033
65.21000 273.515
65.22000 275.068
65.23000 276.431
65.24000 276.961
65.25000 277.394
65.26000 281.131
65.27000 294.476
65.28000 308.434
65.29000 317.740
65.30000 314.596
65.31000 312.029
65.32000 310.472
65.33000 310.218
65.34000 309.986
65.35000 316.791
65.36000 329.372
65.37000 341.774
65.38000 347.631
65.39000 349.884
65.40000 352.409
65.41000 359.636
65.42000 368.565
65.43000 376.668
65.44000 377.238
65.45000 375.996
65.46000 374.922
65.47000 385.764
65.48000 396.529
65.49000 407.530
65.50000 419.380
65.51000 431.306
65.52000 437.592
65.53000 430.323
65.54000 422.461
65.55000 417.590
65.56000 425.204
65.57000 430.798
65.58000 444.325
65.59000 466.117
65.60000 487.828
65.61000 501.121
65.62000 508.776
65.63000 516.238
65.64000 522.668
65.65000 528.364
65.66000 536.031
65.67000 568.164
65.68000 607.612
65.69000 647.814
65.70000 693.382
65.71000 739.998
65.72000 778.874
65.73000 856.078
65.74000 923.923
65.75000 993.376
65.76000 1067.594
65.77000 1142.125
65.78000 1210.906
65.79000 1268.260
65.80000 1325.301
65.81000 1357.767
65.82000 1356.207
65.83000 1355.036
65.84000 1366.038
65.85000 1387.243
65.86000 1408.333
65.87000 1423.967
65.88000 1436.596
65.89000 1448.730
65.90000 1426.472
65.91000 1393.751
65.92000 1359.234
65.93000 1307.907
65.94000 1252.455
65.95000 1192.634
65.96000 1108.096
65.97000 1019.680
65.98000 948.932
65.99000 863.877
66.00000 794.035
66.01000 724.693
66.02000 656.576
66.03000 588.515
66.04000 533.020
66.05000 498.107
66.06000 463.490
66.07000 445.638
66.08000 415.317
66.09000 394.974
66.10000 384.097
66.11000 379.684
66.12000 375.355
66.13000 373.398
66.14000 372.518
66.15000 371.688
66.16000 358.034
66.17000 341.936
66.18000 327.734
66.19000 327.322
66.20000 329.664
66.21000 332.702
66.22000 338.927
66.23000 345.546
66.24000 350.597
66.25000 364.847
66.26000 376.570
66.27000 386.817
66.28000 394.076
66.29000 401.250
66.30000 410.870
66.31000 423.773
66.32000 436.683
66.33000 451.113
66.34000 466.809
66.35000 482.441
66.36000 494.791
66.37000 505.298
66.38000 515.492
66.39000 519.877
66.40000 522.077
66.41000 524.108
66.42000 514.840
66.43000 503.995
66.44000 495.287
66.45000 498.936
66.46000 504.567
66.47000 508.390
66.48000 505.455
66.49000 501.878
66.50000 499.292
66.51000 480.746
66.52000 465.933
66.53000 449.289
66.54000 429.590
66.55000 409.844
66.56000 397.085
66.57000 391.925
66.58000 386.793
66.59000 376.960
66.60000 363.998
66.61000 351.157
66.62000 341.859
66.63000 334.204
66.64000 327.332
66.65000 330.793
66.66000 337.463
66.67000 343.464
66.68000 347.783
66.69000 351.268
66.70000 353.673
66.71000 351.039
66.72000 347.766
66.73000 342.596
66.74000 331.589
66.75000 320.172
66.76000 312.407
66.77000 321.559
66.78000 328.774
66.79000 334.392
66.80000 337.824
66.81000 341.237
66.82000 340.077
66.83000 334.921
66.84000 329.825
66.85000 335.200
66.86000 346.289
66.87000 356.935
66.88000 359.075
66.89000 357.955
66.90000 356.175
66.91000 347.880
66.92000 337.923
66.93000 329.230
66.94000 334.088
66.95000 340.148
66.96000 346.420
66.97000 353.495
66.98000 360.648
66.99000 368.013
67.00000 375.913
67.01000 383.839
67.02000 388.862
67.03000 377.399
67.04000 368.884
67.05000 362.975
67.06000 359.960
67.07000 357.014
67.08000 363.756
67.09000 377.376
67.10000 390.703
67.11000 390.534
67.12000 384.259
67.13000 378.646
67.14000 382.030
67.15000 388.263
67.16000 393.634
67.17000 392.438
67.18000 389.875
67.19000 387.713
67.20000 386.189
67.21000 384.986
67.22000 384.853
67.23000 388.079
67.24000 391.548
67.25000 394.531
67.26000 396.492
67.27000 398.421
67.28000 399.548
67.29000 403.555
67.30000 406.388
67.31000 409.845
67.32000 413.858
67.33000 417.804
67.34000 417.825
67.35000 415.557
67.36000 413.369
67.37000 412.233
67.38000 411.551
67.39000 411.734
67.40000 420.689
67.41000 431.927
67.42000 441.653
67.43000 442.242
67.44000 441.299
67.45000 440.535
67.46000 438.453
67.47000 436.650
67.48000 434.644
67.49000 432.111
67.50000 429.551
67.51000 430.170
67.52000 436.301
67.53000 442.531
67.54000 445.844
67.55000 446.673
67.56000 447.234
67.57000 447.538
67.58000 447.656
67.59000 447.761
67.60000 447.426
67.61000 446.880
67.62000 446.362
67.63000 455.340
67.64000 466.448
67.65000 476.374
67.66000 477.069
67.67000 475.804
67.68000 477.325
67.69000 492.394
67.70000 509.265
67.71000 522.330
67.72000 495.455
67.73000 471.741
67.74000 458.329
67.75000 466.980
67.76000 476.367
67.77000 487.545
67.78000 501.272
67.79000 515.015
67.80000 519.212
67.81000 514.712
67.82000 510.275
67.83000 509.749
67.84000 511.548
67.85000 513.342
67.86000 515.041
67.87000 516.702
67.88000 518.247
67.89000 521.569
67.90000 524.993
67.91000 528.315
67.92000 531.002
67.93000 533.581
67.94000 536.211
67.95000 539.047
67.96000 541.904
67.97000 544.005
67.98000 544.772
67.99000 545.310
68.00000 544.822
68.01000 542.521
68.02000 540.185
68.03000 544.891
68.04000 557.756
68.05000 570.591
68.06000 576.690
68.07000 577.803
68.08000 579.041
68.09000 584.502
68.10000 592.034
68.11000 599.549
68.12000 606.828
68.13000 614.028
68.14000 620.559
68.15000 618.099
68.16000 614.210
68.17000 610.609
68.18000 608.441
68.19000 606.468
68.20000 606.767
68.21000 614.466
68.22000 622.734
68.23000 628.465
68.24000 640.310
68.25000 649.387
68.26000 653.246
68.27000 649.524
68.28000 645.740
68.29000 645.919
68.30000 649.786
68.31000 653.617
68.32000 663.660
68.33000 677.191
68.34000 690.057
68.35000 688.588
68.36000 681.310
68.37000 676.554
68.38000 698.789
68.39000 728.327
68.40000 754.356
68.41000 759.921
68.42000 761.627
68.43000 762.884
68.44000 762.329
68.45000 761.583
68.46000 764.577
68.47000 777.621
68.48000 791.219
68.49000 800.027
68.50000 842.458
68.51000 874.006
68.52000 886.895
68.53000 877.711
68.54000 868.630
68.55000 888.618
68.56000 930.523
68.57000 971.661
68.58000 996.501
68.59000 1012.614
68.60000 1031.172
68.61000 1086.346
68.62000 1153.783
68.63000 1220.372
68.64000 1280.000
68.65000 1338.089
68.66000 1387.603
68.67000 1460.857
68.68000 1525.262
68.69000 1588.652
68.70000 1648.668
68.71000 1708.416
68.72000 1770.310
68.73000 1836.975
68.74000 1903.815
68.75000 1943.865
68.76000 2027.111
68.77000 2086.510
68.78000 2156.054
68.79000 2235.247
68.80000 2314.708
68.81000 2413.679
68.82000 2524.694
68.83000 2632.314
68.84000 2813.680
68.85000 3014.293
68.86000 3223.588
68.87000 3528.445
68.88000 3859.667
68.89000 4246.388
68.90000 4991.370
68.91000 5800.479
68.92000 6464.300
68.93000 8758.707
68.94000 10786.813
68.95000 13300.375
68.96000 17143.279
68.97000 21062.109
68.98000 25583.018
68.99000 31209.502
69.00000 36859.863
69.01000 39953.805
69.02000 47839.168
69.03000 53263.652
69.04000 57633.148
69.05000 61191.043
69.06000 64713.926
69.07000 66916.945
69.08000 68448.453
69.09000 69909.555
69.10000 70575.961
69.11000 70942.766
69.12000 71336.859
69.13000 71960.453
69.14000 72635.859
69.15000 73301.648
69.16000 73917.672
69.17000 74526.602
69.18000 75004.836
69.19000 73783.594
69.20000 72695.086
69.21000 71004.063
69.22000 67948.594
69.23000 64840.875
69.24000 61432.875
69.25000 57571.301
69.26000 53705.223
69.27000 50286.242
69.28000 47302.012
69.29000 44326.926
69.30000 42070.148
69.31000 40265.430
69.32000 38485.586
69.33000 37287.148
69.34000 36333.254
69.35000 35440.875
69.36000 34273.449
69.37000 33142.613
69.38000 31903.592
69.39000 29950.277
69.40000 27866.346
69.41000 25639.885
69.42000 22814.180
69.43000 19921.773
69.44000 17760.678
69.45000 14576.592
69.46000 12047.186
69.47000 9832.582
69.48000 8207.059
69.49000 6595.037
69.50000 5321.901
69.51000 4466.509
69.52000 3613.931
69.53000 3053.241
69.54000 2723.376
69.55000 2396.411
69.56000 2184.884
69.57000 2033.204
69.58000 1883.714
69.59000 1769.263
69.60000 1666.996
69.61000 1573.539
69.62000 1501.473
69.63000 1441.837
69.64000 1383.958
69.65000 1335.359
69.66000 1288.114
69.67000 1242.696
69.68000 1203.571
69.69000 1164.977
69.70000 1137.737
69.71000 1107.502
69.72000 1084.466
69.73000 1059.631
69.74000 1032.025
69.75000 1004.389
69.76000 982.386
69.77000 965.980
69.78000 949.690
69.79000 935.638
69.80000 923.224
69.81000 910.524
69.82000 890.879
69.83000 868.258
69.84000 845.807
69.85000 825.339
69.86000 805.439
69.87000 787.747
69.88000 783.873
69.89000 782.751
69.90000 779.070
69.91000 764.411
69.92000 748.499
69.93000 737.575
69.94000 740.830
69.95000 744.953
69.96000 747.680
69.97000 728.663
69.98000 714.239
69.99000 706.467
70.00000 707.064
