20.00000 554.333
20.01000 562.002
20.02000 570.767
20.03000 576.962
20.04000 573.227
20.05000 568.505
20.06000 565.057
20.07000 562.688
20.08000 560.904
20.09000 556.039
20.10000 545.859
20.11000 535.587
20.12000 536.703
20.13000 550.663
20.14000 564.583
20.15000 566.044
20.16000 558.601
20.17000 551.223
20.18000 545.914
20.19000 541.595
20.20000 537.828
20.21000 541.726
20.22000 548.084
20.23000 553.830
20.24000 548.980
20.25000 542.745
20.26000 536.909
20.27000 532.995
20.28000 529.336
20.29000 528.236
20.30000 535.265
20.31000 542.897
20.32000 548.144
20.33000 545.948
20.34000 544.116
20.35000 546.524
20.36000 554.936
20.37000 563.388
20.38000 564.992
20.39000 560.394
20.40000 555.843
20.41000 556.927
20.42000 561.245
20.43000 565.384
20.44000 565.857
20.45000 564.880
20.46000 563.353
20.47000 556.142
20.48000 547.432
20.49000 539.786
20.50000 536.659
20.51000 534.633
20.52000 536.128
20.53000 551.499
20.54000 568.287
20.55000 577.892
20.56000 568.648
20.57000 558.414
20.58000 551.846
20.59000 540.779
20.60000 532.650
20.61000 534.635
20.62000 548.269
20.63000 561.855
20.64000 564.553
20.65000 559.252
20.66000 554.056
20.67000 547.733
20.68000 541.119
20.69000 535.094
20.70000 537.546
20.71000 542.769
20.72000 547.653
20.73000 549.837
20.74000 551.440
20.75000 552.800
20.76000 552.436
20.77000 551.934
20.78000 552.684
20.79000 557.486
20.80000 562.596
20.81000 565.615
20.82000 564.093
20.83000 562.413
20.84000 561.418
20.85000 558.885
20.86000 557.085
20.87000 553.975
20.88000 549.652
20.89000 545.375
20.90000 544.079
20.91000 544.579
20.92000 545.063
20.93000 545.736
20.94000 546.445
20.95000 547.081
20.96000 546.951
20.97000 546.614
20.98000 545.685
20.99000 541.044
21.00000 535.757
21.01000 531.441
21.02000 542.726
21.03000 553.295
21.04000 559.158
21.05000 552.439
21.06000 545.034
21.07000 541.107
21.08000 543.416
21.09000 545.849
21.10000 547.164
21.11000 540.228
21.12000 535.487
21.13000 534.165
21.14000 535.407
21.15000 536.792
21.16000 543.212
21.17000 552.133
21.18000 560.624
21.19000 561.151
21.20000 559.184
21.21000 556.310
21.22000 546.052
21.23000 534.170
21.24000 524.207
21.25000 523.906
21.26000 524.944
21.27000 525.753
21.28000 536.862
21.29000 546.369
21.30000 552.321
21.31000 550.417
21.32000 548.229
21.33000 546.610
21.34000 545.830
21.35000 545.057
21.36000 543.798
21.37000 542.078
21.38000 540.309
21.39000 535.024
21.40000 527.579
21.41000 520.560
21.42000 522.989
21.43000 529.298
21.44000 535.183
21.45000 533.996
21.46000 531.162
21.47000 528.788
21.48000 529.362
21.49000 530.461
21.50000 532.314
21.51000 537.257
21.52000 542.534
21.53000 546.450
21.54000 542.762
21.55000 539.563
21.56000 533.558
21.57000 522.429
21.58000 511.191
21.59000 510.831
21.60000 523.528
21.61000 536.220
21.62000 545.534
21.63000 552.221
21.64000 558.734
21.65000 558.741
21.66000 555.457
21.67000 552.040
21.68000 546.584
21.69000 540.437
21.70000 534.837
21.71000 532.567
21.72000 531.219
21.73000 531.617
21.74000 540.993
21.75000 551.641
21.76000 560.676
21.77000 564.288
21.78000 567.459
21.79000 569.681
21.80000 567.319
21.81000 565.402
21.82000 558.463
21.83000 543.980
21.84000 529.423
21.85000 530.249
21.86000 545.932
21.87000 561.489
21.88000 571.783
21.89000 578.658
21.90000 585.098
21.91000 581.470
21.92000 573.632
21.93000 566.817
21.94000 571.503
21.95000 579.405
21.96000 586.404
21.97000 600.305
21.98000 613.418
21.99000 621.905
22.00000 611.053
22.01000 598.064
22.02000 589.737
22.03000 594.349
22.04000 599.718
22.05000 603.238
22.06000 605.963
22.07000 607.954
22.08000 609.408
22.09000 610.204
22.10000 610.995
22.11000 610.817
22.12000 609.881
22.13000 608.961
22.14000 617.319
22.15000 630.034
22.16000 641.347
22.17000 630.447
22.18000 611.864
22.19000 594.975
22.20000 592.592
22.21000 593.531
22.22000 594.336
22.23000 598.294
22.24000 602.024
22.25000 605.278
22.26000 606.902
22.27000 608.389
22.28000 603.852
22.29000 585.491
22.30000 566.585
22.31000 555.098
22.32000 554.694
22.33000 554.492
22.34000 555.573
22.35000 557.922
22.36000 560.277
22.37000 563.199
22.38000 566.482
22.39000 569.673
22.40000 564.975
22.41000 557.317
22.42000 549.719
22.43000 542.817
22.44000 536.114
22.45000 531.242
22.46000 538.660
22.47000 548.359
22.48000 556.371
22.49000 539.567
22.50000 523.400
22.51000 512.642
22.52000 517.177
22.53000 522.639
22.54000 526.663
22.55000 527.961
22.56000 529.193
22.57000 529.878
22.58000 532.999
22.59000 535.150
22.60000 533.733
22.61000 529.475
22.62000 525.231
22.63000 521.564
22.64000 518.200
22.65000 514.982
22.66000 520.510
22.67000 528.531
22.68000 535.234
22.69000 530.372
22.70000 522.808
22.71000 515.938
22.72000 512.784
22.73000 510.181
22.74000 508.121
22.75000 534.745
22.76000 558.124
22.77000 567.361
22.78000 543.537
22.79000 518.351
22.80000 505.360
22.81000 511.413
22.82000 517.690
22.83000 520.842
22.84000 522.352
22.85000 523.345
22.86000 522.963
22.87000 521.686
22.88000 520.401
22.89000 518.943
22.90000 517.409
22.91000 515.969
22.92000 514.055
22.93000 512.184
22.94000 512.037
22.95000 523.722
22.96000 537.651
22.97000 546.799
22.98000 535.153
22.99000 521.088
23.00000 510.487
23.01000 514.078
23.02000 517.586
23.03000 517.930
23.04000 512.155
23.05000 506.227
23.06000 499.411
23.07000 491.464
23.08000 483.524
23.09000 485.279
23.10000 494.879
23.11000 504.445
23.12000 512.486
23.13000 519.711
23.14000 526.336
23.15000 522.768
23.16000 515.540
23.17000 508.906
23.18000 509.025
23.19000 510.565
23.20000 511.231
23.21000 507.106
23.22000 502.254
23.23000 499.798
23.24000 505.878
23.25000 512.714
23.26000 517.588
23.27000 509.008
23.28000 502.026
23.29000 494.621
23.30000 486.542
23.31000 478.455
23.32000 475.437
23.33000 477.645
23.34000 479.841
23.35000 486.358
23.36000 495.614
23.37000 504.608
23.38000 506.742
23.39000 505.842
23.40000 504.851
23.41000 502.734
23.42000 500.284
23.43000 498.095
23.44000 502.271
23.45000 506.984
23.46000 509.659
23.47000 503.294
23.48000 495.851
23.49000 491.818
23.50000 497.795
23.51000 504.421
23.52000 508.855
23.53000 504.291
23.54000 500.730
23.55000 496.976
23.56000 492.973
23.57000 488.976
23.58000 488.716
23.59000 491.556
23.60000 494.357
23.61000 499.241
23.62000 505.094
23.63000 510.544
23.64000 508.898
23.65000 504.656
23.66000 500.383
23.67000 495.831
23.68000 491.211
23.69000 487.210
23.70000 490.523
23.71000 494.309
23.72000 497.179
23.73000 496.727
23.74000 495.972
23.75000 496.653
23.76000 500.816
23.77000 505.136
23.78000 507.822
23.79000 496.440
23.80000 488.103
23.81000 491.191
23.82000 506.319
23.83000 521.278
23.84000 517.482
23.85000 500.999
23.86000 484.921
23.87000 484.580
23.88000 491.031
23.89000 497.290
23.90000 501.115
23.91000 504.204
23.92000 506.960
23.93000 507.316
23.94000 507.196
23.95000 507.097
23.96000 491.658
23.97000 477.286
23.98000 469.548
23.99000 481.655
24.00000 495.092
24.01000 501.346
24.02000 493.188
24.03000 484.625
24.04000 479.729
24.05000 479.143
24.06000 478.757
24.07000 483.324
24.08000 492.086
24.09000 500.609
24.10000 497.286
24.11000 487.377
24.12000 477.848
24.13000 479.335
24.14000 484.575
24.15000 489.467
24.16000 491.058
24.17000 491.830
24.18000 493.018
24.19000 496.579
24.20000 500.518
24.21000 503.677
24.22000 502.847
24.23000 501.873
24.24000 499.070
24.25000 491.744
24.26000 484.208
24.27000 480.336
24.28000 482.526
24.29000 484.807
24.30000 485.989
24.31000 481.803
24.32000 479.038
24.33000 483.646
24.34000 493.340
24.35000 502.575
24.36000 498.662
24.37000 488.711
24.38000 479.313
24.39000 474.928
24.40000 472.321
24.41000 470.342
24.42000 472.987
24.43000 476.565
24.44000 479.885
24.45000 482.013
24.46000 483.991
24.47000 485.505
24.48000 484.656
24.49000 483.856
24.50000 481.660
24.51000 476.609
24.52000 471.474
24.53000 470.537
24.54000 475.293
24.55000 480.077
24.56000 481.379
24.57000 479.673
24.58000 477.972
24.59000 476.525
24.60000 475.223
24.61000 473.956
24.62000 473.376
24.63000 473.056
24.64000 472.761
24.65000 475.232
24.66000 478.078
24.67000 480.787
24.68000 482.700
24.69000 484.484
24.70000 485.124
24.71000 481.448
24.72000 477.356
24.73000 474.388
24.74000 471.421
24.75000 469.141
24.76000 470.624
24.77000 478.453
24.78000 486.385
24.79000 490.541
24.80000 490.544
24.81000 490.544
24.82000 489.601
24.83000 488.012
24.84000 486.394
24.85000 483.951
24.86000 481.121
24.87000 478.216
24.88000 474.298
24.89000 470.063
24.90000 466.248
24.91000 469.168
24.92000 472.948
24.93000 474.469
24.94000 465.336
24.95000 454.837
24.96000 446.713
24.97000 445.973
24.98000 445.759
24.99000 445.613
25.00000 460.033
25.01000 471.153
25.02000 472.959
25.03000 461.884
25.04000 450.738
25.05000 450.742
25.06000 460.593
25.07000 470.335
25.08000 468.896
25.09000 461.186
25.10000 453.919
25.11000 455.362
25.12000 460.175
25.13000 464.798
25.14000 467.515
25.15000 469.740
25.16000 471.686
25.17000 461.251
25.18000 450.550
25.19000 444.519
25.20000 456.462
25.21000 470.184
25.22000 476.948
25.23000 465.859
25.24000 453.871
25.25000 446.245
25.26000 454.015
25.27000 459.854
25.28000 458.548
25.29000 449.218
25.30000 439.975
25.31000 444.860
25.32000 459.883
25.33000 474.590
25.34000 474.381
25.35000 467.350
25.36000 460.860
25.37000 461.841
25.38000 465.211
25.39000 468.327
25.40000 469.481
25.41000 470.223
25.42000 470.849
25.43000 474.134
25.44000 477.173
25.45000 477.740
25.46000 470.481
25.47000 462.646
25.48000 455.982
25.49000 451.802
25.50000 447.704
25.51000 445.299
25.52000 457.856
25.53000 466.777
25.54000 469.718
25.55000 467.264
25.56000 464.843
25.57000 464.463
25.58000 465.284
25.59000 466.077
25.60000 463.401
25.61000 459.590
25.62000 455.957
25.63000 454.153
25.64000 452.829
25.65000 451.840
25.66000 452.891
25.67000 454.289
25.68000 455.424
25.69000 465.857
25.70000 475.137
25.71000 479.822
25.72000 472.494
25.73000 464.539
25.74000 458.718
25.75000 456.638
25.76000 454.627
25.77000 453.552
25.78000 460.290
25.79000 464.862
25.80000 464.494
25.81000 460.512
25.82000 456.553
25.83000 453.353
25.84000 450.521
25.85000 447.831
25.86000 447.444
25.87000 447.779
25.88000 448.223
25.89000 449.524
25.90000 451.009
25.91000 452.658
25.92000 455.114
25.93000 457.679
25.94000 459.670
25.95000 461.686
25.96000 463.290
25.97000 465.289
25.98000 468.142
25.99000 471.023
26.00000 469.295
26.01000 460.933
26.02000 452.520
26.03000 449.352
26.04000 451.015
26.05000 452.665
26.06000 453.441
26.07000 453.693
26.08000 453.994
26.09000 455.352
26.10000 457.134
26.11000 458.792
26.12000 459.256
26.13000 459.386
26.14000 460.453
26.15000 467.367
26.16000 475.295
26.17000 481.053
26.18000 478.127
26.19000 474.293
26.20000 471.467
26.21000 459.965
26.22000 450.692
26.23000 446.466
26.24000 451.252
26.25000 456.216
26.26000 462.944
26.27000 471.738
26.28000 480.510
26.29000 481.356
26.30000 476.321
26.31000 471.229
26.32000 464.171
26.33000 456.139
26.34000 448.706
26.35000 450.088
26.36000 454.396
26.37000 458.309
26.38000 460.711
26.39000 462.541
26.40000 463.500
26.41000 460.087
26.42000 456.072
26.43000 451.276
26.44000 443.916
26.45000 436.355
26.46000 431.098
26.47000 430.175
26.48000 429.596
26.49000 432.164
26.50000 439.349
26.51000 446.575
26.52000 452.611
26.53000 457.528
26.54000 462.402
26.55000 460.765
26.56000 455.253
26.57000 449.904
26.58000 448.113
26.59000 447.778
26.60000 446.564
26.61000 435.796
26.62000 422.416
26.63000 410.607
26.64000 419.236
26.65000 429.806
26.66000 439.035
26.67000 442.796
26.68000 445.970
26.69000 449.391
26.70000 453.480
26.71000 457.606
26.72000 460.288
26.73000 457.692
26.74000 455.709
26.75000 455.707
26.76000 458.076
26.77000 460.407
26.78000 453.116
26.79000 438.494
26.80000 424.132
26.81000 423.858
26.82000 430.451
26.83000 436.335
26.84000 431.406
26.85000 422.820
26.86000 415.932
26.87000 423.154
26.88000 433.530
26.89000 442.391
26.90000 441.746
26.91000 440.073
26.92000 440.248
26.93000 446.614
26.94000 453.480
26.95000 455.096
26.96000 444.929
26.97000 434.320
26.98000 427.936
26.99000 435.530
27.00000 441.028
27.01000 445.510
27.02000 449.016
27.03000 452.435
27.04000 449.279
27.05000 442.023
27.06000 434.985
27.07000 433.869
27.08000 435.152
27.09000 436.887
27.10000 443.675
27.11000 451.871
27.12000 458.434
27.13000 454.340
27.14000 448.316
27.15000 443.364
27.16000 436.007
27.17000 429.744
27.18000 426.709
27.19000 432.600
27.20000 439.010
27.21000 440.673
27.22000 433.533
27.23000 426.197
27.24000 422.161
27.25000 435.899
27.26000 445.360
27.27000 446.713
27.28000 441.760
27.29000 436.729
27.30000 428.625
27.31000 418.943
27.32000 409.697
27.33000 416.634
27.34000 428.263
27.35000 439.036
27.36000 442.524
27.37000 444.351
27.38000 444.829
27.39000 438.256
27.40000 430.665
27.41000 424.689
27.42000 431.044
27.43000 436.958
27.44000 437.764
27.45000 426.891
27.46000 415.561
27.47000 413.683
27.48000 426.227
27.49000 438.925
27.50000 444.471
27.51000 442.987
27.52000 441.467
27.53000 436.974
27.54000 430.592
27.55000 424.523
27.56000 425.924
27.57000 430.497
27.58000 434.780
27.59000 430.433
27.60000 424.249
27.61000 418.703
27.62000 417.411
27.63000 416.906
27.64000 417.600
27.65000 423.385
27.66000 429.744
27.67000 434.509
27.68000 430.840
27.69000 427.579
27.70000 425.381
27.71000 425.189
27.72000 425.045
27.73000 429.930
27.74000 441.080
27.75000 452.228
27.76000 451.539
27.77000 441.504
27.78000 431.557
27.79000 425.219
27.80000 420.769
27.81000 416.679
27.82000 418.428
27.83000 422.228
27.84000 425.705
27.85000 426.049
27.86000 425.706
27.87000 426.073
27.88000 430.239
27.89000 434.966
27.90000 437.981
27.91000 435.035
27.92000 431.580
27.93000 429.133
27.94000 436.241
27.95000 441.940
27.96000 443.841
27.97000 439.834
27.98000 435.758
27.99000 433.264
28.00000 432.360
28.01000 431.462
28.02000 430.429
28.03000 429.325
28.04000 428.313
28.05000 429.612
28.06000 431.909
28.07000 433.916
28.08000 432.483
28.09000 430.053
28.10000 427.890
28.11000 422.960
28.12000 418.222
28.13000 414.658
28.14000 416.183
28.15000 418.297
28.16000 421.088
28.17000 425.824
28.18000 430.681
28.19000 433.904
28.20000 425.425
28.21000 418.943
28.22000 415.816
28.23000 416.955
28.24000 418.105
28.25000 417.554
28.26000 415.626
28.27000 413.727
28.28000 414.799
28.29000 417.377
28.30000 419.871
28.31000 420.937
28.32000 421.491
28.33000 421.558
28.34000 417.244
28.35000 411.891
28.36000 407.273
28.37000 415.800
28.38000 424.719
28.39000 430.524
28.40000 425.277
28.41000 419.056
28.42000 415.274
28.43000 417.278
28.44000 419.528
28.45000 420.915
28.46000 420.728
28.47000 420.579
28.48000 423.304
28.49000 428.979
28.50000 434.610
28.51000 435.934
28.52000 434.412
28.53000 432.929
28.54000 428.271
28.55000 422.495
28.56000 417.075
28.57000 415.998
28.58000 416.203
28.59000 417.211
28.60000 423.837
28.61000 431.546
28.62000 437.958
28.63000 424.703
28.64000 411.799
28.65000 401.975
28.66000 401.161
28.67000 400.928
28.68000 402.385
28.69000 407.157
28.70000 412.017
28.71000 414.767
28.72000 405.590
28.73000 399.183
28.74000 397.290
28.75000 399.128
28.76000 401.032
28.77000 406.012
28.78000 412.664
28.79000 419.048
28.80000 413.584
28.81000 404.438
28.82000 396.417
28.83000 398.732
28.84000 403.551
28.85000 408.033
28.86000 410.638
28.87000 412.952
28.88000 414.798
28.89000 409.130
28.90000 404.005
28.91000 400.759
28.92000 402.057
28.93000 403.556
28.94000 404.991
28.95000 406.326
28.96000 407.658
28.97000 408.341
28.98000 404.484
28.99000 401.890
29.00000 399.089
29.01000 396.148
29.02000 393.544
29.03000 400.083
29.04000 410.729
29.05000 420.760
29.06000 423.738
29.07000 424.522
29.08000 424.817
29.09000 421.606
29.10000 417.705
29.11000 413.911
29.12000 410.602
29.13000 407.351
29.14000 404.879
29.15000 405.515
29.16000 406.179
29.17000 408.294
29.18000 413.310
29.19000 418.408
29.20000 419.981
29.21000 416.889
29.22000 413.778
29.23000 416.442
29.24000 423.959
29.25000 431.253
29.26000 427.664
29.27000 418.046
29.28000 408.888
29.29000 408.071
29.30000 410.351
29.31000 412.453
29.32000 412.274
29.33000 411.610
29.34000 411.379
29.35000 413.619
29.36000 416.249
29.37000 416.492
29.38000 407.929
29.39000 398.545
29.40000 391.785
29.41000 398.743
29.42000 404.560
29.43000 409.065
29.44000 411.408
29.45000 413.720
29.46000 411.673
29.47000 404.954
29.48000 398.266
29.49000 393.060
29.50000 388.920
29.51000 385.131
29.52000 391.325
29.53000 402.088
29.54000 412.162
29.55000 413.351
29.56000 411.815
29.57000 410.436
29.58000 404.758
29.59000 399.035
29.60000 395.981
29.61000 405.217
29.62000 415.985
29.63000 421.529
29.64000 411.210
29.65000 399.799
29.66000 392.073
29.67000 397.828
29.68000 402.411
29.69000 402.910
29.70000 397.890
29.71000 392.846
29.72000 391.349
29.73000 392.910
29.74000 394.451
29.75000 397.797
29.76000 402.052
29.77000 406.512
29.78000 414.807
29.79000 424.555
29.80000 432.534
29.81000 423.377
29.82000 409.904
29.83000 398.166
29.84000 397.634
29.85000 398.728
29.86000 399.810
29.87000 400.845
29.88000 401.876
29.89000 403.112
29.90000 404.863
29.91000 406.640
29.92000 407.760
29.93000 405.590
29.94000 403.981
29.95000 404.812
29.96000 408.317
29.97000 411.812
29.98000 413.758
29.99000 414.619
30.00000 415.461
30.01000 415.816
30.02000 415.939
30.03000 416.038
30.04000 415.819
30.05000 415.500
30.06000 415.463
30.07000 417.537
30.08000 420.044
30.09000 422.154
30.10000 417.286
30.11000 412.483
30.12000 410.201
30.13000 415.718
30.14000 421.789
30.15000 426.171
30.16000 427.049
30.17000 427.819
30.18000 428.266
30.19000 420.304
30.20000 414.678
30.21000 410.376
30.22000 407.239
30.23000 404.236
30.24000 408.705
30.25000 417.474
30.26000 425.929
30.27000 422.334
30.28000 414.585
30.29000 407.297
30.30000 404.599
30.31000 403.079
30.32000 401.556
30.33000 400.006
30.34000 398.452
30.35000 397.196
30.36000 411.941
30.37000 425.214
30.38000 433.142
30.39000 427.405
30.40000 420.985
30.41000 415.667
30.42000 412.239
30.43000 408.842
30.44000 407.048
30.45000 413.669
30.46000 418.135
30.47000 417.365
30.48000 412.854
30.49000 408.313
30.50000 402.856
30.51000 396.963
30.52000 391.379
30.53000 398.135
30.54000 407.978
30.55000 416.635
30.56000 416.176
30.57000 413.807
30.58000 411.304
30.59000 408.159
30.60000 404.929
30.61000 402.436
30.62000 400.124
30.63000 398.301
30.64000 397.241
30.65000 397.793
30.66000 398.397
30.67000 394.875
30.68000 385.553
30.69000 376.194
30.70000 375.519
30.71000 382.640
30.72000 389.722
30.73000 394.512
30.74000 397.958
30.75000 401.469
30.76000 406.288
30.77000 411.621
30.78000 416.571
30.79000 418.784
30.80000 420.133
30.81000 421.145
30.82000 420.110
30.83000 418.729
30.84000 417.122
30.85000 414.633
30.86000 412.055
30.87000 410.166
30.88000 423.264
30.89000 433.978
30.90000 442.331
30.91000 446.562
30.92000 450.717
30.93000 455.315
30.94000 460.418
30.95000 465.504
30.96000 469.700
30.97000 473.217
30.98000 476.522
30.99000 472.857
31.00000 465.820
31.01000 459.977
31.02000 471.098
31.03000 487.725
31.04000 502.777
31.05000 503.653
31.06000 501.755
31.07000 502.039
31.08000 513.008
31.09000 525.407
31.10000 539.405
31.11000 558.539
31.12000 578.061
31.13000 591.535
31.14000 622.491
31.15000 646.198
31.16000 674.610
31.17000 709.768
31.18000 744.976
31.19000 774.341
31.20000 798.345
31.21000 822.117
31.22000 849.034
31.23000 877.234
31.24000 906.512
31.25000 958.447
31.26000 1019.448
31.27000 1077.276
31.28000 1101.759
31.29000 1117.334
31.30000 1131.031
31.31000 1192.493
31.32000 1252.472
31.33000 1311.090
31.34000 1364.284
31.35000 1416.916
31.36000 1463.922
31.37000 1495.999
31.38000 1527.272
31.39000 1547.431
31.40000 1556.899
31.41000 1563.661
31.42000 1566.445
31.43000 1564.586
31.44000 1562.684
31.45000 1553.655
31.46000 1539.326
31.47000 1525.269
31.48000 1499.158
31.49000 1468.270
31.50000 1437.086
31.51000 1401.554
31.52000 1364.585
31.53000 1325.193
31.54000 1266.246
31.55000 1203.032
31.56000 1149.276
31.57000 1125.055
31.58000 1108.116
31.59000 1084.908
31.60000 1041.162
31.61000 995.815
31.62000 951.316
31.63000 908.673
31.64000 866.097
31.65000 840.726
31.66000 808.038
31.67000 784.828
31.68000 756.486
31.69000 723.335
31.70000 690.390
31.71000 671.734
31.72000 661.786
31.73000 652.151
31.74000 620.507
31.75000 582.085
31.76000 545.849
31.77000 533.227
31.78000 527.034
31.79000 520.845
31.80000 514.671
31.81000 508.500
31.82000 503.451
31.83000 490.750
31.84000 479.676
31.85000 469.145
31.86000 460.082
31.87000 451.101
31.88000 447.183
31.89000 452.444
31.90000 457.896
31.91000 460.862
31.92000 445.774
31.93000 435.437
31.94000 433.242
31.95000 437.226
31.96000 441.036
31.97000 438.495
31.98000 432.762
31.99000 427.299
32.00000 423.662
32.01000 420.861
32.02000 418.130
32.03000 415.985
32.04000 413.970
32.05000 411.738
32.06000 408.399
32.07000 404.904
32.08000 402.168
32.09000 405.311
32.10000 408.199
32.11000 407.725
32.12000 399.733
32.13000 391.462
32.14000 388.203
32.15000 392.416
32.16000 396.700
32.17000 399.303
32.18000 400.295
32.19000 401.308
32.20000 403.858
32.21000 407.363
32.22000 410.603
32.23000 407.802
32.24000 402.492
32.25000 397.532
32.26000 398.747
32.27000 401.404
32.28000 403.478
32.29000 401.762
32.30000 399.363
32.31000 397.598
32.32000 398.462
32.33000 399.613
32.34000 400.470
32.35000 394.021
32.36000 388.674
32.37000 384.888
32.38000 383.989
32.39000 383.153
32.40000 379.232
32.41000 371.558
32.42000 363.893
32.43000 364.371
32.44000 371.117
32.45000 377.909
32.46000 386.518
32.47000 396.057
32.48000 404.823
32.49000 401.515
32.50000 394.061
32.51000 387.261
32.52000 382.346
32.53000 378.368
32.54000 375.412
32.55000 377.784
32.56000 380.921
32.57000 382.920
32.58000 381.043
32.59000 378.845
32.60000 377.300
32.61000 375.293
32.62000 373.759
32.63000 373.494
32.64000 375.158
32.65000 376.843
32.66000 380.838
32.67000 387.094
32.68000 393.303
32.69000 395.945
32.70000 396.323
32.71000 396.401
32.72000 389.386
32.73000 379.370
32.74000 369.946
32.75000 367.297
32.76000 366.565
32.77000 365.916
32.78000 365.049
32.79000 364.263
32.80000 364.772
32.81000 370.766
32.82000 377.376
32.83000 385.129
32.84000 396.094
32.85000 407.250
32.86000 414.595
32.87000 421.804
32.88000 427.112
32.89000 435.259
32.90000 446.930
32.91000 458.579
32.92000 460.823
32.93000 455.634
32.94000 450.527
32.95000 449.147
32.96000 449.693
32.97000 450.278
32.98000 451.499
32.99000 452.943
33.00000 453.669
33.01000 448.162
33.02000 441.209
33.03000 435.234
33.04000 430.768
33.05000 427.178
33.06000 422.245
33.07000 412.653
33.08000 402.665
33.09000 392.175
33.10000 380.521
33.11000 368.821
33.12000 361.677
33.13000 362.792
33.14000 363.656
33.15000 362.710
33.16000 359.953
33.17000 357.229
33.18000 357.397
33.19000 359.434
33.20000 361.415
33.21000 360.017
33.22000 357.300
33.23000 354.433
33.24000 349.804
33.25000 344.665
33.26000 340.573
33.27000 343.595
33.28000 347.956
33.29000 351.567
33.30000 337.157
33.31000 323.550
33.32000 315.796
33.33000 324.781
33.34000 334.802
33.35000 341.537
33.36000 341.964
33.37000 342.236
33.38000 342.388
33.39000 339.815
33.40000 338.030
33.41000 337.968
33.42000 339.295
33.43000 340.578
33.44000 339.977
33.45000 338.375
33.46000 336.841
33.47000 338.650
33.48000 341.449
33.49000 344.190
33.50000 346.414
33.51000 348.516
33.52000 349.355
33.53000 343.333
33.54000 336.277
33.55000 330.677
33.56000 330.425
33.57000 330.599
33.58000 331.592
33.59000 334.522
33.60000 337.533
33.61000 338.657
33.62000 336.797
33.63000 334.900
33.64000 333.941
33.65000 336.439
33.66000 338.074
33.67000 336.263
33.68000 332.183
33.69000 328.331
33.70000 330.365
33.71000 334.985
33.72000 339.328
33.73000 335.881
33.74000 330.643
33.75000 326.785
33.76000 332.544
33.77000 340.149
33.78000 346.283
33.79000 345.935
33.80000 344.820
33.81000 343.978
33.82000 339.059
33.83000 334.996
33.84000 332.149
33.85000 331.678
33.86000 331.268
33.87000 332.365
33.88000 335.407
33.89000 338.453
33.90000 337.793
33.91000 334.093
33.92000 330.466
33.93000 330.164
33.94000 331.663
33.95000 333.273
33.96000 336.793
33.97000 341.007
33.98000 344.881
33.99000 336.346
34.00000 326.052
34.01000 319.098
34.02000 330.685
34.03000 345.126
34.04000 356.219
34.05000 355.239
34.06000 353.170
34.07000 351.690
34.08000 337.973
34.09000 327.086
34.10000 321.500
34.11000 324.454
34.12000 327.523
34.13000 328.427
34.14000 327.068
34.15000 325.717
34.16000 327.945
34.17000 332.515
34.18000 336.859
34.19000 335.090
34.20000 330.584
34.21000 326.693
34.22000 330.460
34.23000 336.523
34.24000 341.950
34.25000 329.777
34.26000 316.144
34.27000 305.914
34.28000 310.984
34.29000 317.905
34.30000 323.352
34.31000 324.416
34.32000 325.191
34.33000 325.712
34.34000 321.051
34.35000 317.483
34.36000 315.064
34.37000 314.160
34.38000 313.266
34.39000 313.731
34.40000 315.337
34.41000 316.922
34.42000 320.955
34.43000 326.193
34.44000 331.147
34.45000 330.988
34.46000 328.937
34.47000 326.650
34.48000 322.145
34.49000 317.094
34.50000 312.711
34.51000 312.219
34.52000 312.323
34.53000 313.200
34.54000 316.922
34.55000 320.906
34.56000 322.862
34.57000 319.837
34.58000 316.584
34.59000 314.551
34.60000 320.470
34.61000 324.825
34.62000 326.634
34.63000 325.726
34.64000 324.793
34.65000 321.123
34.66000 315.579
34.67000 310.167
34.68000 307.939
34.69000 307.196
34.70000 306.992
34.71000 313.712
34.72000 322.548
34.73000 329.669
34.74000 324.268
34.75000 316.360
34.76000 309.737
34.77000 314.898
34.78000 320.404
34.79000 323.846
34.80000 321.039
34.81000 317.806
34.82000 316.288
34.83000 318.250
34.84000 320.314
34.85000 321.501
34.86000 320.357
34.87000 319.548
34.88000 318.439
34.89000 317.072
34.90000 315.736
34.91000 315.957
34.92000 317.056
34.93000 318.113
34.94000 316.177
34.95000 313.303
34.96000 310.696
34.97000 310.670
34.98000 311.291
34.99000 312.142
35.00000 314.322
35.01000 316.717
35.02000 318.642
35.03000 311.159
35.04000 304.364
35.05000 300.636
35.06000 304.577
35.07000 308.884
35.08000 312.716
35.09000 315.754
35.10000 318.780
35.11000 320.359
35.12000 322.603
35.13000 324.084
35.14000 320.784
35.15000 314.145
35.16000 307.544
35.17000 302.053
35.18000 297.078
35.19000 292.374
35.20000 293.718
35.21000 296.684
35.22000 298.804
35.23000 294.602
35.24000 289.107
35.25000 285.144
35.26000 288.349
35.27000 292.466
35.28000 295.625
35.29000 307.154
35.30000 316.733
35.31000 322.361
35.32000 319.817
35.33000 317.024
35.34000 313.849
35.35000 310.149
35.36000 306.449
35.37000 305.607
35.38000 307.269
35.39000 308.954
35.40000 311.926
35.41000 315.635
35.42000 319.169
35.43000 319.323
35.44000 318.178
35.45000 317.118
35.46000 311.846
35.47000 306.139
35.48000 301.429
35.49000 302.631
35.50000 304.805
35.51000 307.450
35.52000 311.887
35.53000 316.499
35.54000 319.856
35.55000 317.242
35.56000 315.001
35.57000 311.762
35.58000 306.819
35.59000 301.847
35.60000 299.920
35.61000 301.388
35.62000 302.851
35.63000 304.692
35.64000 306.780
35.65000 308.720
35.66000 306.055
35.67000 301.211
35.68000 296.953
35.69000 300.724
35.70000 307.041
35.71000 312.742
35.72000 308.226
35.73000 302.384
35.74000 297.011
35.75000 293.871
35.76000 291.023
35.77000 290.189
35.78000 295.683
35.79000 301.639
35.80000 305.719
35.81000 299.495
35.82000 294.586
35.83000 294.220
35.84000 300.217
35.85000 306.252
35.86000 305.387
35.87000 298.348
35.88000 291.383
35.89000 291.510
35.90000 295.686
35.91000 299.742
35.92000 301.407
35.93000 302.135
35.94000 302.304
35.95000 296.781
35.96000 289.772
35.97000 283.631
35.98000 289.607
35.99000 296.483
36.00000 302.359
36.01000 304.336
36.02000 305.921
36.03000 305.672
36.04000 300.661
36.05000 295.406
36.06000 292.047
36.07000 297.530
36.08000 301.636
36.09000 305.914
36.10000 310.386
36.11000 314.811
36.12000 311.503
36.13000 302.578
36.14000 293.833
36.15000 295.706
36.16000 302.431
36.17000 308.518
36.18000 305.621
36.19000 299.819
36.20000 295.020
36.21000 298.091
36.22000 302.838
36.23000 306.857
36.24000 309.675
36.25000 311.900
36.26000 312.654
36.27000 308.698
36.28000 304.387
36.29000 303.563
36.30000 310.223
36.31000 317.135
36.32000 321.212
36.33000 303.154
36.34000 290.288
36.35000 285.169
36.36000 287.133
36.37000 289.136
36.38000 293.642
36.39000 299.639
36.40000 305.437
36.41000 306.546
36.42000 305.829
36.43000 304.595
36.44000 297.962
36.45000 289.893
36.46000 283.194
36.47000 284.982
36.48000 288.230
36.49000 290.874
36.50000 291.951
36.51000 292.698
36.52000 293.244
36.53000 293.257
36.54000 293.241
36.55000 291.575
36.56000 286.984
36.57000 282.336
36.58000 279.837
36.59000 283.897
36.60000 286.658
36.61000 286.042
36.62000 282.921
36.63000 280.030
36.64000 285.023
36.65000 293.890
36.66000 302.321
36.67000 306.270
36.68000 308.557
36.69000 310.488
36.70000 309.559
36.71000 308.009
36.72000 306.407
36.73000 304.542
36.74000 302.642
36.75000 301.162
36.76000 300.047
36.77000 299.182
36.78000 298.316
36.79000 297.450
36.80000 296.583
36.81000 295.140
36.82000 292.858
36.83000 290.568
36.84000 290.809
36.85000 293.411
36.86000 295.953
36.87000 294.410
36.88000 290.387
36.89000 286.707
36.90000 290.461
36.91000 297.237
36.92000 303.550
36.93000 299.685
36.94000 293.688
36.95000 289.079
36.96000 293.251
36.97000 298.967
36.98000 302.860
36.99000 299.370
37.00000 295.097
37.01000 291.935
37.02000 300.521
37.03000 307.688
37.04000 312.540
37.05000 313.211
37.06000 313.796
37.07000 314.758
37.08000 316.166
37.09000 317.571
37.10000 312.424
37.11000 302.390
37.12000 292.684
37.13000 294.766
37.14000 302.750
37.15000 310.007
37.16000 306.319
37.17000 298.956
37.18000 292.258
37.19000 294.297
37.20000 297.815
37.21000 300.055
37.22000 295.793
37.23000 290.621
37.24000 285.530
37.25000 280.704
37.26000 275.898
37.27000 272.545
37.28000 276.044
37.29000 278.878
37.30000 283.899
37.31000 292.172
37.32000 300.473
37.33000 301.394
37.34000 295.274
37.35000 289.205
37.36000 290.606
37.37000 296.519
37.38000 302.046
37.39000 298.828
37.40000 291.991
37.41000 285.696
37.42000 285.404
37.43000 286.772
37.44000 287.982
37.45000 291.589
37.46000 295.078
37.47000 297.788
37.48000 297.279
37.49000 296.420
37.50000 294.417
37.51000 289.274
37.52000 283.950
37.53000 280.475
37.54000 288.009
37.55000 293.715
37.56000 296.921
37.57000 297.097
37.58000 297.278
37.59000 300.405
37.60000 305.805
37.61000 311.113
37.62000 311.818
37.63000 310.231
37.64000 308.354
37.65000 301.973
37.66000 294.051
37.67000 286.975
37.68000 287.032
37.69000 288.703
37.70000 290.134
37.71000 288.691
37.72000 287.126
37.73000 285.404
37.74000 283.149
37.75000 280.850
37.76000 280.061
37.77000 282.700
37.78000 285.471
37.79000 287.147
37.80000 290.160
37.81000 292.317
37.82000 293.778
37.83000 294.561
37.84000 295.362
37.85000 297.582
37.86000 300.697
37.87000 303.721
37.88000 304.494
37.89000 304.326
37.90000 303.863
37.91000 300.036
37.92000 295.261
37.93000 291.601
37.94000 295.329
37.95000 300.413
37.96000 304.602
37.97000 295.753
37.98000 287.272
37.99000 283.218
38.00000 291.549
38.01000 300.616
38.02000 304.752
38.03000 299.636
38.04000 294.307
38.05000 291.357
38.06000 292.335
38.07000 293.009
38.08000 291.321
38.09000 287.774
38.10000 284.358
38.11000 286.185
38.12000 290.738
38.13000 295.090
38.14000 296.044
38.15000 295.829
38.16000 295.613
38.17000 295.389
38.18000 295.164
38.19000 295.589
38.20000 299.466
38.21000 303.848
38.22000 307.308
38.23000 303.538
38.24000 300.022
38.25000 299.312
38.26000 305.093
38.27000 311.135
38.28000 315.141
38.29000 316.003
38.30000 316.829
38.31000 315.562
38.32000 312.208
38.33000 308.928
38.34000 312.061
38.35000 319.319
38.36000 326.501
38.37000 331.802
38.38000 336.294
38.39000 340.507
38.40000 348.735
38.41000 357.279
38.42000 365.720
38.43000 373.462
38.44000 381.073
38.45000 389.375
38.46000 400.647
38.47000 412.259
38.48000 420.986
38.49000 447.719
38.50000 469.486
38.51000 492.991
38.52000 519.817
38.53000 546.725
38.54000 576.648
38.55000 610.375
38.56000 644.061
38.57000 683.219
38.58000 726.591
38.59000 770.104
38.60000 819.624
38.61000 872.327
38.62000 924.862
38.63000 974.604
38.64000 1023.354
38.65000 1068.030
38.66000 1138.618
38.67000 1206.915
38.68000 1270.422
38.69000 1307.991
38.70000 1341.674
38.71000 1374.454
38.72000 1404.051
38.73000 1433.371
38.74000 1454.206
38.75000 1476.503
38.76000 1493.522
38.77000 1503.939
38.78000 1503.959
38.79000 1503.851
38.80000 1488.453
38.81000 1457.481
38.82000 1426.707
38.83000 1396.092
38.84000 1366.024
38.85000 1335.467
38.86000 1292.400
38.87000 1243.857
38.88000 1194.972
38.89000 1141.967
38.90000 1087.755
38.91000 1039.397
38.92000 978.215
38.93000 922.847
38.94000 868.649
38.95000 819.587
38.96000 771.129
38.97000 724.275
38.98000 682.081
38.99000 640.184
39.00000 612.260
39.01000 564.844
39.02000 529.368
39.03000 500.148
39.04000 478.986
39.05000 457.854
39.06000 436.826
39.07000 415.881
39.08000 395.235
39.09000 381.563
39.10000 371.942
39.11000 362.139
39.12000 349.231
39.13000 335.199
39.14000 322.172
39.15000 318.311
39.16000 316.653
39.17000 315.220
39.18000 309.362
39.19000 303.810
39.20000 299.756
39.21000 301.085
39.22000 302.897
39.23000 303.516
39.24000 301.270
39.25000 298.899
39.26000 297.430
39.27000 296.943
39.28000 296.602
39.29000 294.559
39.30000 290.745
39.31000 286.952
39.32000 285.293
39.33000 285.061
39.34000 284.836
39.35000 280.113
39.36000 273.692
39.37000 267.968
39.38000 270.894
39.39000 276.403
39.40000 280.668
39.41000 276.110
39.42000 269.828
39.43000 264.591
39.44000 261.787
39.45000 259.706
39.46000 259.829
39.47000 266.475
39.48000 273.550
39.49000 277.214
39.50000 274.104
39.51000 270.810
39.52000 268.936
39.53000 270.912
39.54000 272.297
39.55000 271.407
39.56000 268.611
39.57000 265.939
39.58000 269.221
39.59000 275.777
39.60000 282.076
39.61000 278.817
39.62000 272.468
39.63000 266.871
39.64000 268.311
39.65000 271.477
39.66000 273.758
39.67000 271.044
39.68000 267.546
39.69000 264.748
39.70000 266.309
39.71000 267.895
39.72000 267.640
39.73000 262.881
39.74000 257.917
39.75000 256.324
39.76000 260.247
39.77000 264.250
39.78000 266.313
39.79000 267.985
39.80000 269.105
39.81000 269.657
39.82000 269.819
39.83000 269.945
39.84000 269.027
39.85000 267.635
39.86000 266.322
39.87000 264.779
39.88000 263.301
39.89000 262.238
39.90000 264.189
39.91000 266.741
39.92000 268.508
39.93000 266.685
39.94000 264.418
39.95000 262.688
39.96000 258.288
39.97000 254.677
39.98000 252.317
39.99000 252.485
40.00000 252.726
40.01000 253.424
40.02000 254.734
40.03000 256.046
40.04000 258.368
40.05000 261.546
40.06000 264.646
40.07000 263.720
40.08000 260.539
40.09000 257.423
40.10000 255.516
40.11000 254.062
40.12000 252.721
40.13000 252.376
40.14000 252.291
40.15000 252.054
40.16000 250.942
40.17000 249.690
40.18000 247.932
40.19000 244.290
40.20000 240.469
40.21000 237.707
40.22000 249.332
40.23000 258.775
40.24000 263.111
40.25000 258.925
40.26000 254.608
40.27000 251.223
40.28000 248.851
40.29000 246.490
40.30000 248.052
40.31000 252.296
40.32000 256.316
40.33000 253.807
40.34000 248.276
40.35000 243.249
40.36000 244.869
40.37000 248.551
40.38000 251.864
40.39000 256.643
40.40000 261.093
40.41000 263.833
40.42000 258.608
40.43000 252.375
40.44000 247.591
40.45000 247.260
40.46000 247.241
40.47000 247.228
40.48000 246.367
40.49000 245.706
40.50000 245.892
40.51000 247.239
40.52000 248.594
40.53000 251.299
40.54000 255.183
40.55000 259.022
40.56000 256.752
40.57000 251.132
40.58000 245.888
40.59000 247.875
40.60000 252.629
40.61000 256.848
40.62000 255.797
40.63000 253.402
40.64000 251.311
40.65000 253.539
40.66000 256.052
40.67000 257.546
40.68000 255.166
40.69000 252.408
40.70000 250.451
40.71000 250.528
40.72000 250.705
40.73000 250.817
40.74000 252.432
40.75000 253.621
40.76000 253.334
40.77000 251.408
40.78000 249.482
40.79000 247.585
40.80000 245.708
40.81000 243.872
40.82000 241.885
40.83000 239.909
40.84000 237.698
40.85000 232.290
40.86000 225.870
40.87000 221.053
40.88000 228.445
40.89000 238.374
40.90000 246.747
40.91000 240.146
40.92000 233.013
40.93000 229.977
40.94000 239.773
40.95000 250.497
40.96000 255.488
40.97000 248.442
40.98000 241.012
40.99000 236.673
41.00000 239.243
41.01000 241.084
41.02000 244.182
41.03000 248.399
41.04000 252.552
41.05000 252.933
41.06000 251.117
41.07000 249.365
41.08000 251.912
41.09000 255.889
41.10000 258.787
41.11000 250.764
41.12000 239.901
41.13000 231.128
41.14000 234.960
41.15000 240.904
41.16000 245.721
41.17000 238.121
41.18000 230.918
41.19000 227.016
41.20000 231.656
41.21000 236.732
41.22000 238.485
41.23000 234.480
41.24000 230.372
41.25000 228.189
41.26000 232.260
41.27000 235.039
41.28000 238.507
41.29000 242.475
41.30000 246.286
41.31000 245.090
41.32000 241.488
41.33000 238.069
41.34000 240.110
41.35000 243.615
41.36000 246.736
41.37000 246.866
41.38000 246.360
41.39000 246.006
41.40000 246.389
41.41000 246.870
41.42000 247.242
41.43000 240.959
41.44000 235.575
41.45000 231.691
41.46000 231.012
41.47000 230.441
41.48000 230.925
41.49000 232.913
41.50000 234.911
41.51000 238.285
41.52000 242.909
41.53000 247.449
41.54000 246.782
41.55000 243.024
41.56000 239.476
41.57000 240.282
41.58000 242.818
41.59000 245.176
41.60000 239.313
41.61000 232.056
41.62000 226.511
41.63000 231.525
41.64000 238.348
41.65000 244.266
41.66000 246.604
41.67000 248.574
41.68000 250.022
41.69000 243.739
41.70000 238.563
41.71000 236.141
41.72000 238.582
41.73000 241.115
41.74000 242.409
41.75000 242.270
41.76000 242.130
41.77000 240.156
41.78000 236.854
41.79000 233.600
41.80000 231.978
41.81000 231.155
41.82000 230.527
41.83000 232.714
41.84000 235.826
41.85000 238.647
41.86000 232.600
41.87000 225.570
41.88000 220.556
41.89000 225.533
41.90000 231.868
41.91000 237.517
41.92000 240.931
41.93000 244.174
41.94000 246.420
41.95000 239.066
41.96000 233.279
41.97000 231.941
41.98000 237.057
41.99000 242.226
42.00000 241.604
42.01000 235.598
42.02000 229.647
42.03000 228.996
42.04000 231.502
42.05000 233.826
42.06000 232.256
42.07000 229.111
42.08000 226.756
42.09000 232.856
42.10000 241.242
42.11000 248.630
42.12000 245.039
42.13000 240.289
42.14000 236.336
42.15000 235.599
42.16000 235.202
42.17000 234.633
42.18000 233.606
42.19000 232.553
42.20000 231.871
42.21000 234.085
42.22000 235.748
42.23000 235.713
42.24000 233.670
42.25000 231.639
42.26000 232.885
42.27000 236.599
42.28000 240.245
42.29000 243.209
42.30000 245.742
42.31000 247.683
42.32000 240.778
42.33000 230.913
42.34000 222.670
42.35000 227.706
42.36000 235.677
42.37000 242.471
42.38000 232.631
42.39000 222.408
42.40000 215.528
42.41000 219.731
42.42000 224.813
42.43000 229.214
42.44000 232.099
42.45000 234.930
42.46000 236.625
42.47000 228.259
42.48000 222.255
42.49000 222.228
42.50000 227.881
42.51000 233.475
42.52000 234.872
42.53000 233.679
42.54000 232.523
42.55000 228.119
42.56000 222.681
42.57000 217.930
42.58000 220.735
42.59000 225.623
42.60000 230.026
42.61000 231.304
42.62000 232.024
42.63000 232.614
42.64000 231.630
42.65000 230.683
42.66000 229.314
42.67000 226.793
42.68000 224.205
42.69000 220.983
42.70000 216.596
42.71000 212.185
42.72000 209.770
42.73000 217.682
42.74000 223.137
42.75000 228.660
42.76000 234.236
42.77000 239.576
42.78000 236.032
42.79000 227.972
42.80000 220.283
42.81000 218.117
42.82000 217.854
42.83000 218.015
42.84000 221.734
42.85000 226.255
42.86000 229.867
42.87000 228.775
42.88000 227.012
42.89000 225.629
42.90000 226.616
42.91000 227.562
42.92000 226.869
42.93000 222.473
42.94000 217.934
42.95000 216.064
42.96000 218.221
42.97000 220.418
42.98000 222.634
42.99000 224.868
43.00000 227.037
43.01000 224.067
43.02000 217.866
43.03000 211.960
43.04000 212.923
43.05000 216.772
43.06000 220.372
43.07000 220.353
43.08000 219.412
43.09000 218.855
43.10000 220.827
43.11000 223.260
43.12000 226.448
43.13000 232.800
43.14000 239.505
43.15000 244.513
43.16000 236.986
43.17000 230.543
43.18000 226.808
43.19000 228.138
43.20000 229.584
43.21000 226.818
43.22000 218.867
43.23000 210.917
43.24000 213.340
43.25000 223.843
43.26000 234.104
43.27000 234.754
43.28000 230.425
43.29000 226.019
43.30000 220.390
43.31000 214.336
43.32000 208.804
43.33000 211.717
43.34000 216.030
43.35000 220.621
43.36000 226.676
43.37000 232.945
43.38000 237.578
43.39000 236.572
43.40000 235.093
43.41000 234.048
43.42000 228.067
43.43000 223.379
43.44000 221.308
43.45000 223.263
43.46000 225.263
43.47000 226.270
43.48000 226.293
43.49000 226.315
43.50000 228.575
43.51000 232.211
43.52000 235.430
43.53000 228.534
43.54000 217.307
43.55000 207.212
43.56000 210.300
43.57000 217.164
43.58000 223.266
43.59000 222.953
43.60000 221.643
43.61000 220.779
43.62000 221.825
43.63000 223.089
43.64000 222.768
43.65000 217.942
43.66000 212.841
43.67000 209.469
43.68000 216.173
43.69000 221.299
43.70000 224.902
43.71000 226.590
43.72000 228.264
43.73000 227.714
43.74000 225.382
43.75000 223.087
43.76000 217.949
43.77000 211.515
43.78000 205.459
43.79000 205.664
43.80000 208.086
43.81000 210.515
43.82000 213.006
43.83000 215.513
43.84000 217.671
43.85000 219.178
43.86000 220.372
43.87000 222.140
43.88000 225.919
43.89000 229.872
43.90000 232.747
43.91000 233.090
43.92000 233.328
43.93000 233.473
43.94000 226.077
43.95000 220.713
43.96000 220.609
43.97000 225.839
43.98000 230.976
43.99000 227.497
44.00000 218.386
44.01000 209.519
44.02000 212.186
44.03000 219.517
44.04000 225.999
44.05000 222.307
44.06000 215.645
44.07000 210.860
44.08000 219.034
44.09000 229.677
44.10000 238.511
44.11000 231.592
44.12000 224.349
44.13000 217.979
44.14000 214.132
44.15000 210.444
44.16000 209.660
44.17000 214.513
44.18000 219.509
44.19000 222.322
44.20000 223.532
44.21000 224.371
44.22000 225.984
44.23000 228.231
44.24000 230.357
44.25000 227.155
44.26000 221.087
44.27000 215.269
44.28000 214.643
44.29000 215.808
44.30000 217.182
44.31000 220.455
44.32000 224.182
44.33000 226.968
44.34000 224.567
44.35000 221.374
44.36000 218.833
44.37000 210.658
44.38000 203.664
44.39000 200.607
44.40000 206.974
44.41000 213.750
44.42000 218.816
44.43000 221.149
44.44000 223.446
44.45000 224.616
44.46000 220.295
44.47000 217.418
44.48000 216.661
44.49000 217.317
44.50000 217.964
44.51000 218.378
44.52000 218.689
44.53000 218.981
44.54000 221.419
44.55000 224.232
44.56000 226.524
44.57000 225.141
44.58000 223.043
44.59000 221.631
44.60000 223.285
44.61000 225.306
44.62000 226.839
44.63000 225.841
44.64000 224.926
44.65000 224.867
44.66000 226.500
44.67000 228.178
44.68000 227.260
44.69000 222.944
44.70000 218.617
44.71000 217.638
44.72000 219.445
44.73000 221.267
44.74000 223.804
44.75000 226.732
44.76000 229.468
44.77000 228.801
44.78000 226.883
44.79000 225.118
44.80000 230.525
44.81000 236.926
44.82000 241.827
44.83000 238.284
44.84000 233.424
44.85000 230.429
44.86000 234.241
44.87000 238.678
44.88000 241.863
44.89000 244.353
44.90000 246.233
44.91000 246.230
44.92000 243.157
44.93000 240.041
44.94000 240.691
44.95000 245.330
44.96000 249.945
44.97000 253.206
44.98000 255.516
44.99000 257.791
45.00000 259.095
45.01000 259.958
45.02000 260.911
45.03000 263.007
45.04000 265.449
45.05000 267.639
45.06000 268.731
45.07000 269.494
45.08000 270.699
45.09000 273.919
45.10000 277.387
45.11000 279.430
45.12000 277.194
45.13000 274.669
45.14000 272.966
45.15000 278.237
45.16000 282.306
45.17000 283.362
45.18000 280.393
45.19000 277.403
45.20000 273.593
45.21000 269.087
45.22000 264.637
45.23000 260.900
45.24000 257.647
45.25000 254.766
45.26000 258.702
45.27000 265.190
45.28000 270.627
45.29000 266.014
45.30000 258.899
45.31000 252.711
45.32000 255.423
45.33000 258.949
45.34000 261.171
45.35000 258.544
45.36000 255.461
45.37000 255.504
45.38000 263.315
45.39000 271.492
45.40000 276.625
45.41000 263.969
45.42000 254.625
45.43000 248.434
45.44000 245.653
45.45000 242.876
45.46000 240.271
45.47000 237.785
45.48000 235.357
45.49000 234.858
45.50000 235.232
45.51000 235.539
45.52000 234.965
45.53000 234.119
45.54000 233.834
45.55000 237.702
45.56000 242.414
45.57000 246.369
45.58000 243.572
45.59000 240.535
45.60000 236.374
45.61000 228.768
45.62000 220.923
45.63000 217.772
45.64000 224.262
45.65000 231.040
45.66000 234.959
45.67000 238.613
45.68000 241.171
45.69000 241.667
45.70000 240.370
45.71000 239.078
45.72000 238.049
45.73000 237.169
45.74000 236.321
45.75000 233.767
45.76000 230.756
45.77000 228.132
45.78000 229.309
45.79000 231.451
45.80000 233.132
45.81000 232.110
45.82000 230.647
45.83000 229.467
45.84000 229.815
45.85000 230.218
45.86000 231.103
45.87000 233.209
45.88000 235.375
45.89000 234.337
45.90000 227.870
45.91000 221.314
45.92000 217.872
45.93000 221.283
45.94000 223.582
45.95000 223.584
45.96000 221.963
45.97000 220.390
45.98000 220.294
45.99000 220.892
46.00000 221.458
46.01000 217.347
46.02000 212.209
46.03000 207.615
46.04000 207.146
46.05000 207.530
46.06000 207.163
46.07000 203.230
46.08000 198.838
46.09000 195.457
46.10000 205.149
46.11000 213.566
46.12000 215.367
46.13000 203.326
46.14000 190.850
46.15000 186.011
46.16000 191.786
46.17000 197.628
46.18000 203.066
46.19000 208.139
46.20000 213.176
46.21000 216.162
46.22000 217.959
46.23000 219.506
46.24000 216.110
46.25000 210.792
46.26000 205.864
46.27000 203.260
46.28000 201.458
46.29000 200.326
46.30000 203.224
46.31000 206.793
46.32000 209.438
46.33000 208.508
46.34000 207.221
46.35000 206.282
46.36000 205.908
46.37000 205.642
46.38000 204.492
46.39000 201.816
46.40000 199.114
46.41000 197.941
46.42000 198.492
46.43000 199.044
46.44000 201.835
46.45000 206.202
46.46000 210.291
46.47000 205.506
46.48000 196.472
46.49000 188.354
46.50000 192.996
46.51000 201.736
46.52000 209.636
46.53000 201.941
46.54000 192.272
46.55000 185.189
46.56000 190.619
46.57000 197.704
46.58000 202.230
46.59000 198.619
46.60000 194.405
46.61000 191.506
46.62000 192.635
46.63000 193.582
46.64000 194.554
46.65000 195.563
46.66000 196.572
46.67000 197.930
46.68000 199.604
46.69000 201.262
46.70000 203.007
46.71000 204.766
46.72000 206.352
46.73000 204.369
46.74000 200.973
46.75000 197.941
46.76000 198.682
46.77000 200.418
46.78000 201.943
46.79000 195.477
46.80000 188.751
46.81000 184.592
46.82000 190.560
46.83000 197.563
46.84000 201.643
46.85000 198.046
46.86000 194.045
46.87000 191.476
46.88000 201.278
46.89000 208.593
46.90000 208.521
46.91000 199.931
46.92000 191.360
46.93000 188.057
46.94000 188.627
46.95000 189.186
46.96000 190.685
46.97000 192.571
46.98000 194.369
46.99000 194.903
47.00000 195.024
47.01000 195.039
47.02000 194.214
47.03000 193.207
47.04000 192.353
47.05000 191.075
47.06000 189.954
47.07000 188.638
47.08000 186.686
47.09000 184.685
47.10000 184.190
47.11000 186.966
47.12000 189.854
47.13000 191.567
47.14000 199.032
47.15000 204.344
47.16000 203.883
47.17000 198.075
47.18000 192.295
47.19000 188.289
47.20000 185.352
47.21000 182.510
47.22000 186.853
47.23000 193.695
47.24000 200.254
47.25000 203.808
47.26000 206.553
47.27000 208.231
47.28000 203.215
47.29000 197.033
47.30000 191.986
47.31000 191.115
47.32000 190.761
47.33000 190.969
47.34000 192.681
47.35000 194.475
47.36000 194.396
47.37000 190.957
47.38000 187.450
47.39000 185.553
47.40000 188.842
47.41000 191.082
47.42000 189.809
47.43000 185.899
47.44000 182.047
47.45000 180.214
47.46000 179.384
47.47000 178.594
47.48000 185.018
47.49000 193.194
47.50000 200.567
47.51000 201.401
47.52000 200.796
47.53000 199.943
47.54000 197.842
47.55000 195.569
47.56000 193.794
47.57000 187.342
47.58000 181.901
47.59000 178.852
47.60000 181.094
47.61000 183.527
47.62000 185.884
47.63000 188.127
47.64000 190.370
47.65000 191.042
47.66000 190.229
47.67000 189.431
47.68000 189.710
47.69000 190.653
47.70000 191.556
47.71000 191.587
47.72000 191.260
47.73000 190.955
47.74000 190.098
47.75000 189.185
47.76000 188.447
47.77000 188.837
47.78000 189.428
47.79000 190.090
47.80000 191.049
47.81000 192.039
47.82000 192.774
47.83000 186.579
47.84000 181.461
47.85000 179.976
47.86000 185.133
47.87000 190.432
47.88000 191.507
47.89000 187.507
47.90000 183.505
47.91000 183.645
47.92000 186.933
47.93000 190.224
47.94000 193.590
47.95000 196.994
47.96000 199.910
47.97000 195.333
47.98000 188.210
47.99000 181.721
48.00000 182.910
48.01000 185.491
48.02000 187.705
48.03000 188.036
48.04000 188.100
48.05000 187.689
48.06000 185.681
48.07000 183.544
48.08000 182.046
48.09000 186.210
48.10000 189.523
48.11000 192.221
48.12000 193.996
48.13000 195.762
48.14000 196.135
48.15000 195.162
48.16000 194.196
48.17000 194.408
48.18000 195.341
48.19000 196.135
48.20000 193.704
48.21000 189.923
48.22000 186.188
48.23000 182.967
48.24000 179.892
48.25000 177.167
48.26000 177.317
48.27000 177.900
48.28000 178.134
48.29000 176.911
48.30000 175.527
48.31000 175.817
48.32000 180.759
48.33000 185.974
48.34000 189.394
48.35000 184.360
48.36000 180.517
48.37000 179.843
48.38000 183.055
48.39000 186.276
48.40000 189.325
48.41000 192.238
48.42000 195.103
48.43000 194.838
48.44000 193.018
48.45000 190.815
48.46000 182.527
48.47000 172.133
48.48000 163.499
48.49000 169.946
48.50000 179.851
48.51000 188.346
48.52000 184.574
48.53000 179.883
48.54000 177.276
48.55000 181.820
48.56000 186.961
48.57000 188.293
48.58000 180.872
48.59000 173.105
48.60000 168.384
48.61000 173.047
48.62000 176.448
48.63000 177.632
48.64000 176.624
48.65000 175.605
48.66000 173.669
48.67000 171.146
48.68000 168.695
48.69000 171.546
48.70000 176.403
48.71000 180.999
48.72000 182.555
48.73000 183.243
48.74000 184.179
48.75000 186.780
48.76000 189.690
48.77000 192.094
48.78000 191.752
48.79000 191.213
48.80000 189.937
48.81000 186.574
48.82000 183.085
48.83000 179.870
48.84000 177.176
48.85000 174.495
48.86000 173.002
48.87000 177.127
48.88000 179.979
48.89000 178.642
48.90000 173.964
48.91000 169.431
48.92000 170.876
48.93000 175.466
48.94000 179.857
48.95000 178.034
48.96000 174.293
48.97000 170.951
48.98000 171.114
48.99000 172.095
49.00000 172.955
49.01000 173.163
49.02000 173.273
49.03000 173.361
49.04000 179.054
49.05000 184.018
49.06000 188.163
49.07000 190.393
49.08000 192.544
49.09000 191.118
49.10000 184.100
49.11000 177.016
49.12000 173.457
49.13000 176.657
49.14000 178.782
49.15000 179.773
49.16000 180.028
49.17000 180.113
49.18000 175.949
49.19000 169.938
49.20000 164.294
49.21000 168.295
49.22000 174.501
49.23000 179.812
49.24000 178.967
49.25000 176.953
49.26000 175.398
49.27000 175.838
49.28000 176.511
49.29000 177.019
49.30000 174.770
49.31000 172.872
49.32000 173.659
49.33000 179.636
49.34000 185.745
49.35000 185.593
49.36000 177.442
49.37000 169.274
49.38000 168.244
49.39000 173.005
49.40000 177.568
49.41000 173.445
49.42000 164.668
49.43000 156.405
49.44000 156.896
49.45000 160.533
49.46000 163.871
49.47000 169.641
49.48000 175.304
49.49000 179.876
49.50000 178.463
49.51000 176.140
49.52000 174.494
49.53000 175.258
49.54000 176.236
49.55000 176.933
49.56000 179.229
49.57000 181.031
49.58000 180.244
49.59000 175.330
49.60000 170.362
49.61000 169.300
49.62000 172.271
49.63000 175.223
49.64000 174.001
49.65000 170.062
49.66000 166.332
49.67000 168.098
49.68000 172.296
49.69000 176.046
49.70000 174.289
49.71000 170.899
49.72000 167.871
49.73000 170.306
49.74000 173.351
49.75000 175.266
49.76000 172.163
49.77000 168.461
49.78000 167.402
49.79000 174.109
49.80000 181.321
49.81000 186.147
49.82000 183.855
49.83000 182.015
49.84000 180.703
49.85000 180.081
49.86000 179.462
49.87000 178.883
49.88000 178.336
49.89000 177.797
49.90000 178.217
49.91000 179.134
49.92000 179.996
49.93000 179.894
49.94000 179.438
49.95000 178.744
49.96000 175.840
49.97000 172.398
49.98000 169.416
49.99000 173.705
50.00000 178.315
50.01000 181.140
50.02000 177.472
50.03000 173.211
50.04000 170.393
50.05000 171.080
50.06000 171.923
50.07000 172.448
50.08000 178.605
50.09000 183.097
50.10000 182.956
50.11000 177.928
50.12000 172.955
50.13000 174.216
50.14000 179.697
50.15000 185.044
50.16000 184.555
50.17000 181.572
50.18000 178.953
50.19000 180.945
50.20000 184.330
50.21000 187.385
50.22000 188.061
50.23000 188.266
50.24000 188.438
50.25000 182.614
50.26000 177.170
50.27000 172.509
50.28000 170.191
50.29000 168.031
50.30000 167.498
50.31000 170.234
50.32000 173.061
50.33000 174.678
50.34000 174.753
50.35000 174.797
50.36000 172.680
50.37000 168.731
50.38000 164.896
50.39000 166.696
50.40000 171.633
50.41000 176.380
50.42000 178.137
50.43000 178.738
50.44000 179.307
50.45000 179.575
50.46000 179.769
50.47000 179.812
50.48000 178.994
50.49000 178.038
50.50000 177.272
50.51000 181.075
50.52000 184.502
50.53000 187.698
50.54000 190.325
50.55000 192.925
50.56000 191.819
50.57000 184.577
50.58000 177.243
50.59000 173.438
50.60000 171.717
50.61000 170.609
50.62000 175.941
50.63000 185.721
50.64000 195.096
50.65000 192.833
50.66000 185.222
50.67000 178.032
50.68000 180.018
50.69000 184.434
50.70000 187.905
50.71000 184.404
50.72000 179.494
50.73000 176.154
50.74000 180.074
50.75000 184.904
50.76000 188.600
50.77000 190.286
50.78000 191.507
50.79000 193.316
50.80000 196.331
50.81000 199.381
50.82000 199.127
50.83000 194.389
50.84000 189.629
50.85000 186.749
50.86000 185.500
50.87000 184.336
50.88000 187.666
50.89000 193.545
50.90000 199.161
50.91000 199.780
50.92000 198.499
50.93000 197.315
50.94000 194.299
50.95000 191.174
50.96000 187.969
50.97000 184.293
50.98000 180.540
50.99000 178.094
51.00000 180.586
51.01000 183.553
51.02000 185.706
51.03000 185.788
51.04000 185.774
51.05000 186.063
51.06000 186.862
51.07000 187.670
51.08000 185.639
51.09000 180.482
51.10000 175.346
51.11000 171.033
51.12000 167.338
51.13000 163.847
51.14000 166.518
51.15000 172.075
51.16000 177.181
51.17000 176.244
51.18000 173.409
51.19000 170.855
51.20000 175.328
51.21000 180.525
51.22000 183.864
51.23000 178.428
51.24000 171.864
51.25000 167.743
51.26000 171.217
51.27000 175.235
51.28000 177.977
51.29000 174.602
51.30000 171.935
51.31000 169.582
51.32000 167.663
51.33000 165.748
51.34000 166.718
51.35000 170.238
51.36000 173.718
51.37000 172.255
51.38000 168.034
51.39000 163.995
51.40000 163.520
51.41000 164.425
51.42000 165.303
51.43000 165.900
51.44000 166.425
51.45000 166.885
51.46000 165.352
51.47000 163.754
51.48000 162.081
51.49000 160.114
51.50000 158.118
51.51000 157.887
51.52000 162.189
51.53000 166.720
51.54000 169.604
51.55000 167.737
51.56000 166.320
51.57000 166.071
51.58000 167.133
51.59000 168.202
51.60000 169.976
51.61000 172.256
51.62000 174.489
51.63000 171.185
51.64000 165.474
51.65000 160.139
51.66000 160.010
51.67000 161.547
51.68000 163.162
51.69000 165.378
51.70000 167.720
51.71000 169.700
51.72000 167.451
51.73000 165.105
51.74000 162.495
51.75000 159.050
51.76000 155.543
51.77000 151.597
51.78000 146.716
51.79000 141.805
51.80000 138.921
51.81000 154.192
51.82000 165.043
51.83000 169.603
51.84000 168.483
51.85000 167.304
51.86000 162.628
51.87000 155.891
51.88000 149.382
51.89000 151.623
51.90000 156.989
51.91000 162.080
51.92000 164.333
51.93000 165.839
51.94000 167.178
51.95000 167.493
51.96000 167.635
51.97000 167.750
51.98000 166.171
51.99000 164.742
52.00000 163.464
52.01000 162.581
52.02000 161.718
52.03000 159.917
52.04000 156.470
52.05000 152.994
52.06000 151.134
52.07000 159.154
52.08000 164.600
52.09000 164.639
52.10000 160.716
52.11000 156.819
52.12000 153.754
52.13000 151.093
52.14000 148.566
52.15000 149.372
52.16000 151.121
52.17000 152.762
52.18000 153.545
52.19000 154.143
52.20000 154.484
52.21000 153.555
52.22000 152.455
52.23000 151.600
52.24000 154.678
52.25000 157.364
52.26000 160.049
52.27000 162.731
52.28000 165.413
52.29000 167.155
52.30000 167.545
52.31000 167.923
52.32000 166.492
52.33000 163.392
52.34000 160.303
52.35000 157.922
52.36000 155.965
52.37000 154.206
52.38000 156.613
52.39000 160.694
52.40000 164.493
52.41000 159.659
52.42000 153.196
52.43000 148.313
52.44000 153.299
52.45000 159.998
52.46000 166.087
52.47000 169.733
52.48000 173.124
52.49000 175.624
52.50000 168.521
52.51000 162.614
52.52000 160.354
52.53000 164.613
52.54000 169.001
52.55000 170.596
52.56000 168.917
52.57000 167.238
52.58000 165.039
52.59000 162.471
52.60000 159.980
52.61000 160.182
52.62000 161.717
52.63000 163.083
52.64000 161.954
52.65000 159.997
52.66000 158.219
52.67000 161.147
52.68000 164.646
52.69000 166.988
52.70000 163.523
52.71000 159.257
52.72000 157.454
52.73000 163.753
52.74000 170.688
52.75000 175.512
52.76000 170.739
52.77000 166.880
52.78000 165.860
52.79000 169.012
52.80000 172.199
52.81000 171.342
52.82000 166.675
52.83000 162.049
52.84000 157.454
52.85000 152.965
52.86000 148.722
52.87000 149.887
52.88000 153.266
52.89000 156.716
52.90000 160.943
52.91000 165.381
52.92000 169.299
52.93000 163.568
52.94000 157.147
52.95000 152.146
52.96000 152.952
52.97000 154.379
52.98000 155.504
52.99000 155.805
53.00000 156.060
53.01000 156.226
53.02000 159.199
53.03000 161.421
53.04000 161.430
53.05000 158.790
53.06000 156.154
53.07000 155.730
53.08000 156.993
53.09000 158.233
53.10000 158.210
53.11000 157.571
53.12000 156.980
53.13000 157.120
53.14000 157.506
53.15000 157.495
53.16000 154.170
53.17000 150.104
53.18000 146.631
53.19000 154.854
53.20000 163.171
53.21000 168.841
53.22000 165.632
53.23000 161.704
53.24000 158.506
53.25000 156.947
53.26000 155.449
53.27000 154.548
53.28000 159.538
53.29000 163.128
53.30000 165.966
53.31000 168.081
53.32000 170.149
53.33000 168.764
53.34000 165.222
53.35000 161.786
53.36000 161.158
53.37000 161.674
53.38000 162.274
53.39000 163.818
53.40000 165.626
53.41000 167.360
53.42000 168.609
53.43000 169.770
53.44000 170.725
53.45000 172.128
53.46000 173.321
53.47000 172.385
53.48000 165.558
53.49000 158.388
53.50000 155.837
53.51000 161.863
53.52000 168.079
53.53000 171.502
53.54000 164.157
53.55000 159.094
53.56000 157.721
53.57000 159.219
53.58000 160.672
53.59000 160.313
53.60000 159.024
53.61000 157.793
53.62000 156.050
53.63000 154.265
53.64000 152.671
53.65000 152.696
53.66000 153.091
53.67000 154.070
53.68000 158.109
53.69000 162.589
53.70000 166.117
53.71000 161.999
53.72000 158.190
53.73000 155.342
53.74000 154.696
53.75000 154.136
53.76000 155.037
53.77000 158.168
53.78000 161.322
53.79000 163.731
53.80000 165.404
53.81000 167.054
53.82000 166.752
53.83000 165.209
53.84000 163.631
53.85000 161.233
53.86000 158.486
53.87000 155.913
53.88000 154.545
53.89000 153.611
53.90000 151.963
53.91000 145.538
53.92000 138.229
53.93000 133.964
53.94000 142.642
53.95000 152.782
53.96000 160.381
53.97000 164.417
53.98000 167.400
53.99000 168.164
54.00000 164.728
54.01000 161.192
54.02000 158.130
54.03000 155.657
54.04000 153.190
54.05000 151.217
54.06000 149.642
54.07000 148.127
54.08000 149.039
54.09000 151.224
54.10000 153.222
54.11000 152.183
54.12000 150.077
54.13000 148.149
54.14000 148.250
54.15000 148.760
54.16000 149.436
54.17000 151.001
54.18000 152.698
54.19000 154.404
54.20000 156.139
54.21000 157.877
54.22000 159.107
54.23000 157.402
54.24000 156.015
54.25000 155.784
54.26000 157.353
54.27000 158.943
54.28000 158.923
54.29000 157.283
54.30000 155.653
54.31000 157.494
54.32000 161.524
54.33000 165.167
54.34000 159.168
54.35000 148.992
54.36000 139.748
54.37000 141.544
54.38000 146.541
54.39000 150.991
54.40000 148.945
54.41000 146.100
54.42000 144.668
54.43000 149.368
54.44000 154.779
54.45000 156.761
54.46000 148.891
54.47000 140.407
54.48000 134.774
54.49000 144.093
54.50000 151.258
54.51000 156.116
54.52000 158.040
54.53000 159.944
54.54000 158.695
54.55000 154.889
54.56000 151.139
54.57000 153.822
54.58000 159.759
54.59000 165.277
54.60000 163.737
54.61000 159.668
54.62000 155.909
54.63000 154.926
54.64000 154.603
54.65000 154.324
54.66000 155.418
54.67000 156.521
54.68000 156.462
54.69000 152.272
54.70000 147.717
54.71000 145.438
54.72000 148.566
54.73000 151.926
54.74000 153.997
54.75000 153.070
54.76000 152.377
54.77000 151.393
54.78000 150.108
54.79000 148.842
54.80000 149.451
54.81000 151.301
54.82000 153.103
54.83000 158.121
54.84000 164.258
54.85000 169.867
54.86000 169.025
54.87000 166.279
54.88000 163.501
54.89000 160.503
54.90000 157.462
54.91000 154.933
54.92000 156.617
54.93000 158.426
54.94000 159.229
54.95000 157.087
54.96000 154.755
54.97000 153.583
54.98000 154.690
54.99000 155.857
55.00000 156.518
55.01000 157.428
55.02000 158.066
55.03000 160.360
55.04000 164.026
55.05000 167.557
55.06000 164.872
55.07000 158.805
55.08000 152.982
55.09000 153.208
55.10000 155.483
55.11000 157.773
55.12000 160.206
55.13000 162.674
55.14000 164.179
55.15000 160.307
55.16000 155.604
55.17000 151.851
55.18000 151.002
55.19000 150.529
55.20000 152.663
55.21000 161.103
55.22000 169.823
55.23000 175.044
55.24000 174.600
55.25000 174.078
55.26000 173.811
55.27000 170.996
55.28000 169.119
55.29000 168.985
55.30000 170.025
55.31000 171.029
55.32000 171.033
55.33000 170.588
55.34000 170.168
55.35000 171.595
55.36000 173.410
55.37000 175.052
55.38000 175.450
55.39000 175.602
55.40000 175.790
55.41000 176.144
55.42000 176.518
55.43000 176.802
55.44000 176.596
55.45000 176.408
55.46000 176.870
55.47000 178.633
55.48000 180.433
55.49000 181.639
55.50000 182.058
55.51000 182.473
55.52000 186.979
55.53000 194.920
55.54000 202.777
55.55000 206.514
55.56000 207.966
55.57000 209.583
55.58000 214.174
55.59000 219.871
55.60000 225.123
55.61000 230.058
55.62000 234.406
55.63000 239.772
55.64000 250.939
55.65000 263.023
55.66000 273.407
55.67000 277.507
55.68000 281.020
55.69000 283.552
55.70000 310.226
55.71000 331.518
55.72000 348.185
55.73000 357.220
55.74000 366.141
55.75000 381.066
55.76000 402.435
55.77000 423.700
55.78000 444.590
55.79000 464.983
55.80000 485.340
55.81000 504.707
55.82000 523.620
55.83000 543.376
55.84000 574.055
55.85000 608.087
55.86000 638.651
55.87000 647.228
55.88000 650.859
55.89000 657.768
55.90000 679.779
55.91000 703.675
55.92000 727.770
55.93000 752.472
55.94000 777.215
55.95000 793.974
55.96000 810.997
55.97000 823.690
55.98000 830.693
55.99000 830.001
56.00000 829.270
56.01000 830.675
56.02000 833.924
56.03000 837.133
56.04000 835.382
56.05000 830.942
56.06000 826.178
56.07000 815.329
56.08000 802.174
56.09000 789.441
56.10000 780.807
56.11000 773.206
56.12000 766.583
56.13000 736.191
56.14000 706.935
56.15000 679.424
56.16000 658.483
56.17000 638.172
56.18000 621.133
56.19000 612.312
56.20000 603.887
56.21000 598.572
56.22000 568.945
56.23000 547.210
56.24000 523.150
56.25000 496.539
56.26000 469.989
56.27000 451.595
56.28000 438.923
56.29000 426.533
56.30000 409.256
56.31000 390.507
56.32000 371.897
56.33000 355.144
56.34000 338.972
56.35000 324.032
56.36000 318.345
56.37000 314.559
56.38000 311.374
56.39000 297.375
56.40000 284.547
56.41000 272.436
56.42000 262.545
56.43000 252.813
56.44000 243.354
56.45000 234.463
56.46000 225.589
56.47000 220.432
56.48000 213.959
56.49000 209.407
56.50000 204.031
56.51000 197.929
56.52000 191.884
56.53000 189.008
56.54000 187.957
56.55000 186.943
56.56000 186.330
56.57000 185.898
56.58000 185.374
56.59000 183.940
56.60000 182.271
56.61000 180.473
56.62000 177.897
56.63000 175.193
56.64000 173.007
56.65000 164.458
56.66000 156.994
56.67000 152.925
56.68000 157.542
56.69000 162.594
56.70000 166.059
56.71000 166.804
56.72000 167.503
56.73000 167.872
56.74000 166.249
56.75000 165.167
56.76000 167.372
56.77000 171.929
56.78000 176.397
56.79000 178.081
56.80000 178.442
56.81000 178.783
56.82000 173.747
56.83000 167.528
56.84000 161.647
56.85000 158.361
56.86000 155.619
56.87000 152.953
56.88000 150.649
56.89000 148.392
56.90000 146.650
56.91000 148.319
56.92000 149.841
56.93000 149.905
56.94000 146.883
56.95000 143.760
56.96000 143.020
56.97000 145.634
56.98000 148.269
56.99000 150.903
57.00000 153.532
57.01000 156.083
57.02000 153.948
57.03000 149.062
57.04000 144.323
57.05000 142.558
57.06000 141.963
57.07000 141.411
57.08000 145.760
57.09000 150.839
57.10000 154.983
57.11000 153.437
57.12000 150.929
57.13000 149.525
57.14000 152.444
57.15000 155.801
57.16000 158.261
57.17000 155.563
57.18000 153.272
57.19000 150.566
57.20000 147.133
57.21000 143.687
57.22000 143.217
57.23000 146.149
57.24000 149.074
57.25000 150.277
57.26000 150.222
57.27000 150.204
57.28000 151.383
57.29000 153.143
57.30000 154.888
57.31000 156.417
57.32000 157.876
57.33000 159.197
57.34000 154.484
57.35000 149.193
57.36000 144.571
57.37000 143.230
57.38000 142.328
57.39000 142.056
57.40000 143.806
57.41000 145.709
57.42000 147.023
57.43000 144.946
57.44000 143.298
57.45000 141.404
57.46000 139.157
57.47000 136.909
57.48000 138.846
57.49000 144.627
57.50000 150.353
57.51000 152.256
57.52000 151.880
57.53000 151.490
57.54000 150.813
57.55000 150.021
57.56000 149.405
57.57000 150.645
57.58000 152.380
57.59000 153.906
57.60000 152.949
57.61000 151.756
57.62000 150.636
57.63000 149.805
57.64000 149.004
57.65000 148.031
57.66000 146.604
57.67000 145.152
57.68000 144.216
57.69000 146.548
57.70000 148.298
57.71000 148.949
57.72000 148.317
57.73000 147.678
57.74000 146.001
57.75000 143.551
57.76000 141.148
57.77000 141.465
57.78000 143.065
57.79000 144.690
57.80000 146.675
57.81000 148.779
57.82000 150.474
57.83000 148.859
57.84000 146.522
57.85000 144.534
57.86000 144.429
57.87000 144.559
57.88000 144.240
57.89000 142.451
57.90000 140.547
57.91000 140.455
57.92000 144.344
57.93000 148.374
57.94000 150.777
57.95000 153.434
57.96000 155.319
57.97000 154.856
57.98000 152.188
57.99000 149.542
58.00000 148.368
58.01000 148.093
58.02000 147.826
58.03000 147.895
58.04000 148.090
58.05000 148.150
58.06000 146.760
58.07000 144.975
58.08000 143.379
58.09000 142.993
58.10000 142.820
58.11000 142.678
58.12000 143.151
58.13000 143.593
58.14000 143.954
58.15000 144.097
58.16000 144.229
58.17000 144.417
58.18000 144.709
58.19000 145.003
58.20000 145.163
58.21000 136.708
58.22000 130.915
58.23000 129.371
58.24000 131.053
58.25000 132.669
58.26000 131.839
58.27000 129.780
58.28000 127.817
58.29000 129.233
58.30000 131.603
58.31000 133.940
58.32000 136.013
58.33000 138.026
58.34000 139.822
58.35000 140.506
58.36000 141.035
58.37000 141.449
58.38000 135.390
58.39000 130.133
58.40000 126.871
58.41000 128.072
58.42000 129.440
58.43000 131.596
58.44000 134.927
58.45000 138.270
58.46000 140.303
58.47000 141.080
58.48000 141.825
58.49000 140.173
58.50000 137.030
58.51000 134.088
58.52000 135.745
58.53000 139.313
58.54000 142.646
58.55000 140.375
58.56000 136.901
58.57000 133.960
58.58000 134.491
58.59000 135.648
58.60000 136.717
58.61000 137.415
58.62000 138.072
58.63000 138.562
58.64000 138.597
58.65000 138.604
58.66000 138.211
58.67000 137.078
58.68000 135.928
58.69000 134.270
58.70000 131.996
58.71000 129.726
58.72000 129.184
58.73000 129.979
58.74000 130.778
58.75000 131.691
58.76000 132.662
58.77000 133.660
58.78000 135.066
58.79000 136.611
58.80000 138.020
58.81000 136.837
58.82000 135.265
58.83000 134.126
58.84000 135.249
58.85000 136.698
58.86000 137.659
58.87000 136.958
58.88000 136.119
58.89000 135.529
58.90000 141.992
58.91000 147.097
58.92000 146.887
58.93000 138.588
58.94000 130.205
58.95000 127.761
58.96000 131.137
58.97000 134.487
58.98000 135.292
58.99000 134.497
59.00000 133.694
59.01000 132.708
59.02000 131.644
59.03000 130.529
59.04000 128.815
59.05000 126.932
59.06000 125.262
59.07000 129.712
59.08000 134.547
59.09000 137.968
59.10000 135.400
59.11000 132.160
59.12000 129.199
59.13000 127.025
59.14000 124.899
59.15000 123.498
59.16000 128.166
59.17000 131.710
59.18000 131.678
59.19000 127.202
59.20000 122.733
59.21000 123.835
59.22000 129.345
59.23000 134.767
59.24000 137.230
59.25000 138.120
59.26000 138.832
59.27000 136.652
59.28000 133.460
59.29000 130.633
59.30000 130.985
59.31000 132.074
59.32000 133.011
59.33000 136.231
59.34000 139.239
59.35000 141.254
59.36000 139.823
59.37000 138.098
59.38000 135.941
59.39000 132.778
59.40000 129.575
59.41000 127.618
59.42000 131.163
59.43000 133.743
59.44000 134.395
59.45000 133.116
59.46000 131.846
59.47000 131.410
59.48000 131.513
59.49000 131.613
59.50000 131.793
59.51000 131.998
59.52000 132.177
59.53000 132.063
59.54000 131.865
59.55000 131.972
59.56000 134.160
59.57000 136.740
59.58000 138.876
59.59000 141.764
59.60000 144.218
59.61000 145.146
59.62000 141.702
59.63000 137.987
59.64000 134.370
59.65000 130.944
59.66000 127.522
59.67000 125.606
59.68000 124.745
59.69000 124.151
59.70000 123.815
59.71000 123.686
59.72000 123.622
59.73000 126.359
59.74000 130.586
59.75000 134.635
59.76000 133.725
59.77000 131.226
59.78000 128.911
59.79000 128.231
59.80000 127.939
59.81000 127.793
59.82000 128.446
59.83000 129.218
59.84000 129.831
59.85000 128.128
59.86000 126.593
59.87000 127.509
59.88000 134.227
59.89000 141.190
59.90000 144.277
59.91000 141.230
59.92000 138.107
59.93000 136.527
59.94000 130.700
59.95000 126.865
59.96000 129.380
59.97000 136.079
59.98000 142.460
59.99000 140.615
60.00000 135.153
60.01000 130.018
60.02000 126.259
60.03000 123.197
60.04000 120.626
60.05000 121.484
60.06000 123.001
60.07000 125.116
60.08000 129.867
60.09000 134.930
60.10000 138.759
60.11000 133.765
60.12000 129.404
60.13000 127.606
60.14000 130.822
60.15000 134.169
60.16000 136.335
60.17000 136.972
60.18000 137.601
60.19000 137.320
60.20000 136.290
60.21000 135.215
60.22000 132.031
60.23000 127.704
60.24000 123.813
60.25000 127.501
60.26000 133.944
60.27000 139.867
60.28000 142.188
60.29000 143.484
60.30000 143.930
60.31000 139.649
60.32000 134.640
60.33000 131.294
60.34000 133.950
60.35000 137.148
60.36000 139.437
60.37000 132.478
60.38000 126.851
60.39000 125.076
60.40000 129.513
60.41000 134.034
60.42000 136.215
60.43000 135.949
60.44000 135.684
60.45000 135.477
60.46000 135.312
60.47000 135.042
60.48000 131.969
60.49000 127.640
60.50000 123.700
60.51000 124.619
60.52000 126.996
60.53000 129.125
60.54000 133.016
60.55000 136.714
60.56000 139.330
60.57000 137.078
60.58000 134.236
60.59000 131.461
60.60000 128.883
60.61000 126.318
60.62000 124.594
60.63000 128.121
60.64000 130.850
60.65000 132.693
60.66000 133.369
60.67000 134.038
60.68000 134.454
60.69000 134.655
60.70000 134.854
60.71000 133.278
60.72000 130.791
60.73000 128.461
60.74000 128.948
60.75000 130.478
60.76000 131.883
60.77000 132.109
60.78000 132.044
60.79000 131.988
60.80000 137.183
60.81000 142.313
60.82000 145.220
60.83000 139.944
60.84000 133.908
60.85000 130.288
60.86000 132.602
60.87000 135.189
60.88000 136.807
60.89000 132.790
60.90000 129.832
60.91000 129.803
60.92000 132.904
60.93000 135.980
60.94000 136.091
60.95000 134.169
60.96000 132.293
60.97000 133.040
60.98000 134.899
60.99000 136.411
61.00000 133.444
61.01000 129.107
61.02000 125.814
61.03000 130.142
61.04000 135.998
61.05000 140.904
61.06000 136.586
61.07000 132.042
61.08000 128.392
61.09000 127.449
61.10000 126.691
61.11000 127.799
61.12000 132.696
61.13000 137.704
61.14000 140.585
61.15000 136.261
61.16000 133.211
61.17000 131.450
61.18000 130.795
61.19000 130.183
61.20000 131.752
61.21000 134.550
61.22000 137.243
61.23000 136.195
61.24000 133.887
61.25000 131.900
61.26000 133.018
61.27000 134.916
61.28000 136.342
61.29000 135.023
61.30000 133.262
61.31000 131.846
61.32000 135.184
61.33000 138.258
61.34000 139.142
61.35000 134.541
61.36000 129.678
61.37000 126.021
61.38000 124.385
61.39000 122.780
61.40000 121.943
61.41000 134.174
61.42000 142.411
61.43000 145.308
61.44000 144.473
61.45000 143.647
61.46000 143.108
61.47000 142.703
61.48000 142.319
61.49000 141.553
61.50000 140.739
61.51000 140.743
61.52000 146.865
61.53000 154.240
61.54000 161.551
61.55000 168.561
61.56000 175.532
61.57000 180.884
61.58000 195.197
61.59000 207.012
61.60000 217.363
61.61000 224.685
61.62000 231.915
61.63000 238.230
61.64000 243.289
61.65000 248.337
61.66000 253.041
61.67000 257.437
61.68000 261.723
61.69000 259.912
61.70000 254.602
61.71000 249.813
61.72000 255.099
61.73000 264.259
61.74000 272.739
61.75000 267.955
61.76000 260.601
61.77000 252.173
61.78000 237.380
61.79000 221.537
61.80000 208.373
61.81000 205.453
61.82000 203.538
61.83000 202.144
61.84000 192.843
61.85000 185.380
61.86000 179.081
61.87000 174.770
61.88000 170.493
61.89000 163.636
61.90000 153.901
61.91000 144.203
61.92000 140.793
61.93000 141.856
61.94000 142.926
61.95000 144.177
61.96000 145.515
61.97000 146.664
61.98000 145.221
61.99000 142.955
62.00000 140.909
62.01000 140.458
62.02000 140.355
62.03000 140.356
62.04000 140.857
62.05000 141.423
62.06000 141.202
62.07000 138.506
62.08000 135.630
62.09000 133.659
62.10000 134.144
62.11000 134.567
62.12000 136.632
62.13000 141.001
62.14000 145.380
62.15000 144.354
62.16000 138.485
62.17000 132.678
62.18000 131.184
62.19000 132.188
62.20000 133.291
62.21000 136.350
62.22000 140.175
62.23000 144.007
62.24000 147.894
62.25000 151.797
62.26000 155.217
62.27000 151.356
62.28000 146.992
62.29000 142.496
62.30000 137.489
62.31000 132.430
62.32000 129.245
62.33000 130.927
62.34000 132.861
62.35000 134.097
62.36000 137.417
62.37000 139.862
62.38000 141.222
62.39000 141.347
62.40000 141.466
62.41000 140.779
62.42000 139.504
62.43000 138.256
62.44000 138.636
62.45000 139.758
62.46000 140.822
62.47000 141.058
62.48000 141.027
62.49000 140.985
62.50000 140.856
62.51000 140.709
62.52000 140.584
62.53000 139.193
62.54000 137.885
62.55000 137.153
62.56000 138.265
62.57000 139.515
62.58000 141.488
62.59000 145.014
62.60000 148.593
62.61000 150.705
62.62000 145.277
62.63000 141.404
62.64000 139.943
62.65000 140.691
62.66000 141.467
62.67000 144.062
62.68000 147.742
62.69000 151.300
62.70000 149.941
62.71000 146.806
62.72000 143.770
62.73000 141.770
62.74000 140.047
62.75000 139.194
62.76000 143.734
62.77000 149.204
62.78000 153.658
62.79000 149.492
62.80000 145.360
62.81000 143.161
62.82000 146.079
62.83000 149.272
62.84000 149.728
62.85000 145.329
62.86000 140.836
62.87000 138.419
62.88000 136.845
62.89000 135.790
62.90000 138.440
62.91000 143.840
62.92000 149.087
62.93000 149.095
62.94000 146.527
62.95000 144.085
62.96000 142.100
62.97000 140.403
62.98000 139.231
62.99000 142.271
63.00000 146.229
63.01000 149.009
63.02000 145.923
63.03000 142.035
63.04000 139.007
63.05000 142.806
63.06000 146.254
63.07000 146.384
63.08000 139.250
63.09000 131.859
63.10000 130.174
63.11000 136.808
63.12000 143.512
63.13000 146.805
63.14000 146.909
63.15000 147.014
63.16000 147.119
63.17000 147.224
63.18000 147.305
63.19000 146.847
63.20000 146.170
63.21000 145.539
63.22000 143.656
63.23000 141.645
63.24000 140.149
63.25000 141.914
63.26000 144.254
63.27000 145.916
63.28000 144.828
63.29000 143.449
63.30000 142.428
63.31000 144.751
63.32000 146.698
63.33000 146.660
63.34000 143.034
63.35000 139.334
63.36000 138.099
63.37000 139.792
63.38000 141.484
63.39000 143.124
63.40000 144.711
63.41000 146.337
63.42000 149.330
63.43000 153.007
63.44000 156.386
63.45000 155.272
63.46000 152.648
63.47000 150.261
63.48000 147.332
63.49000 144.634
63.50000 142.350
63.51000 142.173
63.52000 142.291
63.53000 142.195
63.54000 141.386
63.55000 140.521
63.56000 139.916
63.57000 135.116
63.58000 131.374
63.59000 132.359
63.60000 140.372
63.61000 148.451
63.62000 151.182
63.63000 148.808
63.64000 146.453
63.65000 147.855
63.66000 151.517
63.67000 155.020
63.68000 154.965
63.69000 153.434
63.70000 151.536
63.71000 145.569
63.72000 138.477
63.73000 132.204
63.74000 133.061
63.75000 134.909
63.76000 137.083
63.77000 140.608
63.78000 144.281
63.79000 147.917
63.80000 151.455
63.81000 154.988
63.82000 157.295
63.83000 158.258
63.84000 158.944
63.85000 158.295
63.86000 156.029
63.87000 153.764
63.88000 152.878
63.89000 153.056
63.90000 153.231
63.91000 152.350
63.92000 150.976
63.93000 149.651
63.94000 149.082
63.95000 148.771
63.96000 148.423
63.97000 147.752
63.98000 147.008
63.99000 146.371
64.00000 147.705
64.01000 149.069
64.02000 149.444
64.03000 146.464
64.04000 143.209
64.05000 141.407
64.06000 142.911
64.07000 144.543
64.08000 145.530
64.09000 147.828
64.10000 149.476
64.11000 151.269
64.12000 153.204
64.13000 155.124
64.14000 155.841
64.15000 155.799
64.16000 155.758
64.17000 153.020
64.18000 149.340
64.19000 145.873
64.20000 144.838
64.21000 144.488
64.22000 144.557
64.23000 147.395
64.24000 150.743
64.25000 153.502
64.26000 154.155
64.27000 154.499
64.28000 155.902
64.29000 160.274
64.30000 164.823
64.31000 166.396
64.32000 162.379
64.33000 158.233
64.34000 155.937
64.35000 152.311
64.36000 149.818
64.37000 151.218
64.38000 155.686
64.39000 160.067
64.40000 160.982
64.41000 160.094
64.42000 159.245
64.43000 159.481
64.44000 160.053
64.45000 160.785
64.46000 162.903
64.47000 165.341
64.48000 167.077
64.49000 165.090
64.50000 162.556
64.51000 160.555
64.52000 160.782
64.53000 161.116
64.54000 161.320
64.55000 161.225
64.56000 161.117
64.57000 161.957
64.58000 164.260
64.59000 166.581
64.60000 168.017
64.61000 168.571
64.62000 169.090
64.63000 166.523
64.64000 161.969
64.65000 157.583
64.66000 157.317
64.67000 158.823
64.68000 160.235
64.69000 162.792
64.70000 165.423
64.71000 168.124
64.72000 171.310
64.73000 174.587
64.74000 176.029
64.75000 169.569
64.76000 162.202
64.77000 156.665
64.78000 159.269
64.79000 161.698
64.80000 164.142
64.81000 166.615
64.82000 169.089
64.83000 171.015
64.84000 172.249
64.85000 173.480
64.86000 176.455
64.87000 180.816
64.88000 185.041
64.89000 183.469
64.90000 178.824
64.91000 174.466
64.92000 174.895
64.93000 177.026
64.94000 178.979
64.95000 181.642
64.96000 184.163
64.97000 185.987
64.98000 184.032
64.99000 181.509
65.00000 179.081
65.01000 176.984
65.02000 174.917
65.03000 173.447
65.04000 181.081
65.05000 187.184
65.06000 190.356
65.07000 188.908
65.08000 187.404
65.09000 187.090
65.10000 187.989
65.11000 188.883
65.12000 189.882
65.13000 190.935
65.14000 191.845
65.15000 189.079
65.16000 184.703
65.17000 180.815
65.18000 182.812
65.19000 186.535
65.20000 189.857
65.21000 198.055
65.22000 206.001
65.23000 212.706
65.24000 213.958
65.25000 214.568
65.26000 215.590
65.27000 217.806
65.28000 220.099
65.29000 221.628
65.30000 224.208
65.31000 226.138
65.32000 225.695
65.33000 222.191
65.34000 218.684
65.35000 218.665
65.36000 221.509
65.37000 224.313
65.38000 229.566
65.39000 235.954
65.40000 241.815
65.41000 238.590
65.42000 232.073
65.43000 226.948
65.44000 234.515
65.45000 245.136
65.46000 254.318
65.47000 252.177
65.48000 248.881
65.49000 246.934
65.50000 249.840
65.51000 253.181
65.52000 255.679
65.53000 256.151
65.54000 256.535
65.55000 256.772
65.56000 275.971
65.57000 289.958
65.58000 300.541
65.59000 307.578
65.60000 314.554
65.61000 315.331
65.62000 311.958
65.63000 308.669
65.64000 318.479
65.65000 333.425
65.66000 348.383
65.67000 363.493
65.68000 378.649
65.69000 395.379
65.70000 423.292
65.71000 453.393
65.72000 478.495
65.73000 544.924
65.74000 604.135
65.75000 662.387
65.76000 717.800
65.77000 773.026
65.78000 823.422
65.79000 864.221
65.80000 904.758
65.81000 927.830
65.82000 965.462
65.83000 991.722
65.84000 1009.724
65.85000 1020.805
65.86000 1031.703
65.87000 1033.801
65.88000 1031.055
65.89000 1028.417
65.90000 1023.989
65.91000 1019.227
65.92000 1014.147
65.93000 1006.103
65.94000 997.330
65.95000 981.947
65.96000 929.165
65.97000 870.515
65.98000 823.584
65.99000 751.549
66.00000 691.429
66.01000 631.709
66.02000 572.968
66.03000 514.272
66.04000 465.251
66.05000 432.076
66.06000 399.130
66.07000 382.140
66.08000 366.601
66.09000 356.122
66.10000 344.230
66.11000 331.373
66.12000 318.689
66.13000 310.859
66.14000 305.236
66.15000 299.932
66.16000 301.249
66.17000 304.306
66.18000 306.307
66.19000 300.630
66.20000 293.419
66.21000 287.252
66.22000 285.858
66.23000 285.055
66.24000 284.442
66.25000 297.091
66.26000 307.769
66.27000 317.726
66.28000 326.223
66.29000 334.677
66.30000 344.902
66.31000 357.502
66.32000 370.105
66.33000 381.305
66.34000 391.283
66.35000 401.221
66.36000 409.135
66.37000 415.913
66.38000 422.498
66.39000 425.508
66.40000 427.173
66.41000 428.710
66.42000 423.585
66.43000 417.495
66.44000 413.397
66.45000 420.818
66.46000 430.089
66.47000 437.542
66.48000 438.208
66.49000 438.230
66.50000 438.246
66.51000 419.427
66.52000 404.299
66.53000 392.061
66.54000 384.648
66.55000 377.310
66.56000 369.178
66.57000 360.183
66.58000 351.230
66.59000 343.679
66.60000 337.178
66.61000 330.797
66.62000 327.947
66.63000 326.731
66.64000 325.369
66.65000 322.069
66.66000 318.167
66.67000 314.657
66.68000 308.727
66.69000 303.098
66.70000 298.667
66.71000 299.829
66.72000 301.700
66.73000 304.660
66.74000 310.967
66.75000 317.509
66.76000 321.958
66.77000 316.829
66.78000 312.783
66.79000 310.647
66.80000 311.127
66.81000 311.623
66.82000 313.228
66.83000 315.801
66.84000 318.344
66.85000 320.206
66.86000 321.643
66.87000 322.890
66.88000 320.480
66.89000 316.669
66.90000 313.054
66.91000 311.371
66.92000 310.181
66.93000 309.142
66.94000 319.978
66.95000 330.918
66.96000 339.578
66.97000 339.548
66.98000 338.671
66.99000 338.978
67.00000 342.296
67.01000 345.763
67.02000 347.960
67.03000 339.269
67.04000 332.833
67.05000 331.019
67.06000 334.339
67.07000 337.640
67.08000 337.849
67.09000 335.860
67.10000 333.915
67.11000 338.318
67.12000 345.421
67.13000 352.339
67.14000 356.755
67.15000 360.379
67.16000 363.757
67.17000 365.262
67.18000 366.376
67.19000 367.316
67.20000 362.158
67.21000 357.189
67.22000 354.659
67.23000 359.774
67.24000 365.443
67.25000 368.015
67.26000 364.076
67.27000 359.931
67.28000 357.508
67.29000 366.286
67.30000 372.508
67.31000 370.911
67.32000 362.339
67.33000 353.996
67.34000 359.020
67.35000 371.835
67.36000 384.204
67.37000 391.545
67.38000 396.609
67.39000 400.584
67.40000 393.523
67.41000 383.589
67.42000 375.916
67.43000 381.888
67.44000 390.150
67.45000 396.845
67.46000 400.989
67.47000 404.157
67.48000 405.554
67.49000 402.369
67.50000 398.949
67.51000 397.846
67.52000 400.764
67.53000 403.754
67.54000 405.344
67.55000 400.444
67.56000 397.128
67.57000 397.433
67.58000 400.363
67.59000 403.439
67.60000 411.258
67.61000 421.358
67.62000 430.942
67.63000 433.452
67.64000 433.662
67.65000 434.092
67.66000 436.238
67.67000 438.748
67.68000 440.617
67.69000 439.373
67.70000 437.715
67.71000 436.431
67.72000 437.421
67.73000 438.343
67.74000 439.677
67.75000 441.897
67.76000 444.147
67.77000 444.869
67.78000 443.415
67.79000 441.946
67.80000 441.643
67.81000 442.403
67.82000 443.172
67.83000 444.467
67.84000 446.074
67.85000 447.879
67.86000 453.789
67.87000 461.332
67.88000 468.343
67.89000 480.403
67.90000 492.497
67.91000 502.320
67.92000 498.125
67.93000 491.527
67.94000 486.501
67.95000 487.705
67.96000 489.551
67.97000 490.908
67.98000 493.563
67.99000 495.670
68.00000 502.296
68.01000 516.910
68.02000 531.677
68.03000 538.119
68.04000 534.916
68.05000 531.710
68.06000 527.969
68.07000 523.863
68.08000 519.859
68.09000 519.311
68.10000 520.457
68.11000 521.914
68.12000 527.891
68.13000 535.354
68.14000 542.122
68.15000 545.390
68.16000 547.604
68.17000 549.170
68.18000 547.524
68.19000 545.440
68.20000 545.384
68.21000 551.933
68.22000 558.991
68.23000 563.882
68.24000 572.773
68.25000 579.571
68.26000 583.450
68.27000 583.089
68.28000 582.694
68.29000 585.120
68.30000 590.172
68.31000 595.178
68.32000 598.560
68.33000 600.913
68.34000 603.445
68.35000 609.866
68.36000 617.863
68.37000 626.122
68.38000 637.196
68.39000 649.032
68.40000 659.462
68.41000 657.768
68.42000 654.477
68.43000 655.503
68.44000 673.976
68.45000 694.292
68.46000 708.172
68.47000 704.752
68.48000 700.378
68.49000 697.545
68.50000 709.694
68.51000 718.807
68.52000 732.631
68.53000 752.029
68.54000 771.405
68.55000 784.185
68.56000 791.993
68.57000 799.657
68.58000 820.627
68.59000 847.265
68.60000 873.836
68.61000 899.403
68.62000 924.634
68.63000 951.651
68.64000 993.315
68.65000 1038.219
68.66000 1076.494
68.67000 1128.127
68.68000 1173.127
68.69000 1215.896
68.70000 1251.266
68.71000 1286.047
68.72000 1331.359
68.73000 1400.082
68.74000 1469.662
68.75000 1511.354
68.76000 1541.622
68.77000 1563.044
68.78000 1600.085
68.79000 1651.982
68.80000 1704.015
68.81000 1765.871
68.82000 1833.793
68.83000 1899.638
68.84000 1975.877
68.85000 2052.150
68.86000 2133.196
68.87000 2266.773
68.88000 2414.843
68.89000 2579.631
68.90000 2852.339
68.91000 3144.365
68.92000 3383.953
68.93000 4434.511
68.94000 5368.866
68.95000 6651.433
68.96000 8887.521
68.97000 11178.073
68.98000 13993.262
68.99000 17771.826
69.00000 21571.199
69.01000 23651.602
69.02000 29787.871
69.03000 34010.375
69.04000 37594.266
69.05000 40686.883
69.06000 43750.117
69.07000 45705.824
69.08000 47098.047
69.09000 48426.266
69.10000 48987.457
69.11000 49265.375
69.12000 49559.918
69.13000 49994.285
69.14000 50460.223
69.15000 50942.477
69.16000 51509.164
69.17000 52087.898
69.18000 52542.414
69.19000 52629.762
69.20000 52675.598
69.21000 52194.219
69.22000 50518.922
69.23000 48797.910
69.24000 46506.488
69.25000 43353.457
69.26000 40191.770
69.27000 37362.406
69.28000 34856.219
69.29000 32358.684
69.30000 30541.242
69.31000 29151.805
69.32000 27782.439
69.33000 26882.189
69.34000 26179.256
69.35000 25521.654
69.36000 24888.338
69.37000 24319.197
69.38000 23682.645
69.39000 22600.986
69.40000 21437.934
69.41000 20135.771
69.42000 18248.740
69.43000 16296.605
69.44000 14838.046
69.45000 12215.942
69.46000 10118.162
69.47000 8262.871
69.48000 6861.343
69.49000 5470.215
69.50000 4386.508
69.51000 3681.758
69.52000 2979.419
69.53000 2516.732
69.54000 2243.573
69.55000 1972.608
69.56000 1788.981
69.57000 1650.632
69.58000 1515.487
69.59000 1431.606
69.60000 1365.551
69.61000 1305.186
69.62000 1243.945
69.63000 1189.368
69.64000 1136.643
69.65000 1093.698
69.66000 1052.182
69.67000 1017.491
69.68000 1006.332
69.69000 997.158
69.70000 990.682
69.71000 935.702
69.72000 892.506
69.73000 863.300
69.74000 855.640
69.75000 848.220
69.76000 840.550
69.77000 832.632
69.78000 824.771
69.79000 802.508
69.80000 771.507
69.81000 741.314
69.82000 730.794
69.83000 728.705
69.84000 726.376
69.85000 721.254
69.86000 715.332
69.87000 710.067
69.88000 709.482
69.89000 709.733
69.90000 706.860
69.91000 690.589
69.92000 672.787
69.93000 656.579
69.94000 644.903
69.95000 633.504
69.96000 625.965
69.97000 624.392
69.98000 623.338
69.99000 624.361
70.00000 627.999
