20.00000 541.758
20.01000 561.124
20.02000 583.256
20.03000 599.731
20.04000 594.349
20.05000 586.793
20.06000 581.276
20.07000 583.123
20.08000 584.834
20.09000 582.691
20.10000 573.898
20.11000 564.989
20.12000 558.171
20.13000 553.711
20.14000 549.270
20.15000 551.459
20.16000 558.359
20.17000 565.186
20.18000 569.667
20.19000 573.027
20.20000 575.866
20.21000 571.457
20.22000 564.724
20.23000 558.638
20.24000 553.761
20.25000 549.695
20.26000 546.221
20.27000 545.614
20.28000 545.384
20.29000 546.878
20.30000 553.851
20.31000 561.230
20.32000 566.303
20.33000 546.558
20.34000 531.133
20.35000 528.021
20.36000 542.347
20.37000 556.793
20.38000 561.486
20.39000 557.344
20.40000 553.245
20.41000 555.221
20.42000 560.666
20.43000 565.847
20.44000 565.619
20.45000 563.251
20.46000 561.202
20.47000 562.448
20.48000 564.563
20.49000 566.419
20.50000 558.791
20.51000 550.849
20.52000 545.424
20.53000 549.912
20.54000 555.413
20.55000 557.299
20.56000 549.702
20.57000 541.607
20.58000 536.412
20.59000 554.037
20.60000 567.198
20.61000 574.808
20.62000 576.026
20.63000 577.222
20.64000 576.015
20.65000 573.042
20.66000 570.128
20.67000 567.024
20.68000 563.947
20.69000 561.064
20.70000 560.966
20.71000 561.780
20.72000 562.734
20.73000 564.808
20.74000 567.122
20.75000 569.087
20.76000 558.029
20.77000 547.279
20.78000 541.471
20.79000 551.659
20.80000 563.071
20.81000 567.132
20.82000 555.242
20.83000 542.800
20.84000 535.424
20.85000 535.748
20.86000 536.023
20.87000 540.607
20.88000 549.177
20.89000 557.548
20.90000 552.808
20.91000 540.171
20.92000 527.943
20.93000 533.654
20.94000 545.881
20.95000 556.791
20.96000 553.714
20.97000 546.873
20.98000 541.451
20.99000 544.928
21.00000 549.954
21.01000 554.056
21.02000 549.865
21.03000 545.725
21.04000 543.917
21.05000 548.343
21.06000 553.110
21.07000 555.546
21.08000 553.807
21.09000 551.984
21.10000 550.998
21.11000 555.665
21.12000 558.831
21.13000 555.019
21.14000 545.977
21.15000 537.101
21.16000 534.069
21.17000 533.939
21.18000 533.816
21.19000 539.625
21.20000 546.830
21.21000 552.927
21.22000 549.986
21.23000 545.057
21.24000 541.743
21.25000 546.559
21.26000 552.501
21.27000 557.140
21.28000 548.192
21.29000 540.202
21.30000 535.448
21.31000 537.849
21.32000 540.508
21.33000 541.457
21.34000 539.884
21.35000 538.289
21.36000 541.549
21.37000 549.394
21.38000 557.079
21.39000 553.425
21.40000 542.809
21.41000 532.530
21.42000 529.714
21.43000 529.961
21.44000 530.192
21.45000 535.593
21.46000 541.770
21.47000 546.216
21.48000 539.557
21.49000 530.923
21.50000 523.327
21.51000 519.988
21.52000 517.107
21.53000 514.968
21.54000 528.243
21.55000 539.234
21.56000 545.055
21.57000 541.433
21.58000 537.612
21.59000 540.340
21.60000 550.930
21.61000 561.510
21.62000 564.960
21.63000 562.969
21.64000 560.980
21.65000 559.091
21.66000 557.253
21.67000 555.073
21.68000 547.669
21.69000 538.493
21.70000 530.134
21.71000 534.210
21.72000 540.293
21.73000 546.095
21.74000 550.461
21.75000 554.622
21.76000 558.841
21.77000 563.254
21.78000 567.682
21.79000 570.784
21.80000 562.973
21.81000 556.755
21.82000 553.337
21.83000 554.128
21.84000 554.960
21.85000 559.672
21.86000 568.132
21.87000 576.525
21.88000 578.117
21.89000 575.500
21.90000 572.947
21.91000 571.871
21.92000 571.413
21.93000 571.432
21.94000 576.802
21.95000 583.668
21.96000 589.750
21.97000 591.954
21.98000 593.250
21.99000 592.141
22.00000 580.977
22.01000 568.701
22.02000 562.033
22.03000 570.926
22.04000 580.731
22.05000 587.158
22.06000 586.807
22.07000 586.436
22.08000 589.966
22.09000 598.276
22.10000 606.568
22.11000 606.998
22.12000 601.292
22.13000 595.680
22.14000 599.874
22.15000 608.823
22.16000 616.834
22.17000 609.987
22.18000 598.001
22.19000 587.724
22.20000 592.075
22.21000 599.776
22.22000 606.379
22.23000 596.896
22.24000 586.916
22.25000 582.857
22.26000 599.097
22.27000 617.034
22.28000 624.839
22.29000 609.392
22.30000 593.027
22.31000 583.084
22.32000 580.269
22.33000 578.315
22.34000 582.614
22.35000 593.085
22.36000 603.376
22.37000 598.589
22.38000 584.184
22.39000 570.186
22.40000 567.503
22.41000 569.535
22.42000 571.128
22.43000 567.636
22.44000 562.695
22.45000 558.427
22.46000 558.673
22.47000 559.758
22.48000 560.654
22.49000 558.434
22.50000 556.314
22.51000 553.059
22.52000 546.598
22.53000 539.942
22.54000 536.653
22.55000 539.747
22.56000 542.994
22.57000 544.800
22.58000 539.649
22.59000 536.077
22.60000 533.681
22.61000 532.222
22.62000 530.809
22.63000 531.304
22.64000 532.802
22.65000 534.235
22.66000 534.654
22.67000 534.711
22.68000 534.813
22.69000 535.306
22.70000 535.892
22.71000 535.244
22.72000 527.984
22.73000 519.741
22.74000 513.218
22.75000 509.688
22.76000 507.059
22.77000 507.782
22.78000 516.346
22.79000 525.233
22.80000 526.860
22.81000 517.151
22.82000 507.308
22.83000 502.364
22.84000 501.932
22.85000 501.648
22.86000 501.745
22.87000 502.089
22.88000 502.715
22.89000 510.424
22.90000 521.209
22.91000 531.334
22.92000 525.522
22.93000 516.000
22.94000 507.381
22.95000 504.969
22.96000 503.734
22.97000 503.350
22.98000 506.672
22.99000 510.424
23.00000 513.252
23.01000 507.615
23.02000 502.785
23.03000 502.571
23.04000 511.277
23.05000 520.209
23.06000 522.129
23.07000 515.099
23.08000 508.048
23.09000 510.042
23.10000 519.353
23.11000 528.460
23.12000 528.563
23.13000 523.847
23.14000 519.081
23.15000 513.473
23.16000 507.564
23.17000 502.141
23.18000 496.985
23.19000 492.444
23.20000 489.477
23.21000 495.135
23.22000 502.103
23.23000 506.742
23.24000 503.086
23.25000 498.695
23.26000 495.564
23.27000 495.235
23.28000 495.075
23.29000 493.049
23.30000 488.051
23.31000 483.015
23.32000 486.555
23.33000 498.938
23.34000 511.247
23.35000 513.726
23.36000 509.740
23.37000 505.954
23.38000 507.447
23.39000 511.275
23.40000 514.513
23.41000 510.530
23.42000 504.409
23.43000 498.939
23.44000 500.200
23.45000 502.433
23.46000 503.961
23.47000 502.358
23.48000 500.381
23.49000 499.363
23.50000 501.156
23.51000 503.132
23.52000 504.454
23.53000 496.447
23.54000 490.326
23.55000 488.676
23.56000 492.851
23.57000 497.045
23.58000 498.436
23.59000 497.501
23.60000 496.579
23.61000 502.868
23.62000 512.807
23.63000 522.132
23.64000 520.691
23.65000 515.309
23.66000 509.902
23.67000 504.250
23.68000 498.539
23.69000 493.593
23.70000 488.756
23.71000 484.656
23.72000 481.734
23.73000 483.093
23.74000 484.842
23.75000 486.440
23.76000 487.672
23.77000 488.888
23.78000 489.644
23.79000 490.288
23.80000 490.750
23.81000 488.797
23.82000 484.301
23.83000 479.852
23.84000 480.721
23.85000 485.186
23.86000 489.542
23.87000 493.255
23.88000 496.527
23.89000 499.623
23.90000 500.509
23.91000 500.727
23.92000 500.491
23.93000 496.984
23.94000 492.830
23.95000 489.360
23.96000 492.007
23.97000 494.825
23.98000 496.985
23.99000 497.173
24.00000 497.230
24.01000 497.835
24.02000 499.541
24.03000 501.279
24.04000 502.273
24.05000 496.770
24.06000 492.906
24.07000 489.379
24.08000 486.136
24.09000 483.006
24.10000 485.455
24.11000 491.008
24.12000 496.346
24.13000 494.550
24.14000 490.375
24.15000 487.216
24.16000 493.690
24.17000 502.552
24.18000 508.742
24.19000 499.647
24.20000 488.125
24.21000 478.884
24.22000 489.590
24.23000 499.770
24.24000 504.965
24.25000 497.837
24.26000 490.134
24.27000 483.805
24.28000 479.745
24.29000 475.720
24.30000 473.633
24.31000 478.718
24.32000 482.172
24.33000 488.263
24.34000 496.171
24.35000 503.653
24.36000 498.887
24.37000 488.498
24.38000 478.686
24.39000 481.151
24.40000 486.880
24.41000 491.874
24.42000 491.463
24.43000 489.961
24.44000 487.788
24.45000 482.517
24.46000 476.859
24.47000 472.528
24.48000 473.352
24.49000 474.283
24.50000 473.793
24.51000 470.395
24.52000 466.912
24.53000 466.020
24.54000 468.642
24.55000 471.281
24.56000 474.501
24.57000 478.214
24.58000 481.837
24.59000 480.650
24.60000 476.736
24.61000 473.044
24.62000 473.516
24.63000 475.569
24.64000 477.467
24.65000 482.668
24.66000 488.085
24.67000 492.675
24.68000 492.429
24.69000 491.398
24.70000 490.350
24.71000 489.240
24.72000 488.124
24.73000 487.314
24.74000 481.239
24.75000 476.374
24.76000 473.280
24.77000 473.171
24.78000 473.109
24.79000 474.072
24.80000 476.162
24.81000 478.244
24.82000 476.336
24.83000 471.670
24.84000 467.285
24.85000 471.334
24.86000 479.330
24.87000 486.769
24.88000 486.729
24.89000 484.344
24.90000 482.196
24.91000 473.950
24.92000 465.614
24.93000 459.746
24.94000 465.520
24.95000 472.787
24.96000 477.114
24.97000 472.310
24.98000 466.853
24.99000 463.129
25.00000 470.283
25.01000 475.884
25.02000 481.215
25.03000 486.170
25.04000 491.117
25.05000 489.060
25.06000 480.818
25.07000 472.667
25.08000 467.743
25.09000 464.755
25.10000 461.980
25.11000 463.400
25.12000 466.442
25.13000 468.842
25.14000 464.825
25.15000 459.154
25.16000 454.194
25.17000 455.905
25.18000 458.319
25.19000 461.184
25.20000 465.783
25.21000 470.554
25.22000 472.335
25.23000 466.444
25.24000 460.167
25.25000 456.173
25.26000 461.325
25.27000 465.184
25.28000 466.103
25.29000 463.722
25.30000 461.357
25.31000 461.864
25.32000 464.432
25.33000 466.945
25.34000 464.181
25.35000 459.108
25.36000 454.611
25.37000 458.071
25.38000 464.075
25.39000 469.879
25.40000 474.137
25.41000 478.070
25.42000 481.393
25.43000 468.554
25.44000 456.041
25.45000 449.679
25.46000 462.785
25.47000 477.326
25.48000 484.098
25.49000 474.380
25.50000 464.123
25.51000 458.104
25.52000 452.970
25.53000 449.360
25.54000 451.150
25.55000 457.810
25.56000 464.464
25.57000 470.691
25.58000 476.665
25.59000 482.437
25.60000 477.271
25.61000 468.338
25.62000 460.374
25.63000 462.374
25.64000 466.993
25.65000 471.060
25.66000 471.754
25.67000 471.877
25.68000 471.976
25.69000 462.876
25.70000 454.691
25.71000 449.621
25.72000 452.697
25.73000 456.198
25.74000 457.498
25.75000 454.942
25.76000 452.315
25.77000 450.910
25.78000 465.493
25.79000 475.422
25.80000 480.759
25.81000 482.734
25.82000 484.505
25.83000 479.507
25.84000 471.222
25.85000 463.353
25.86000 462.487
25.87000 463.795
25.88000 464.793
25.89000 463.340
25.90000 461.361
25.91000 459.065
25.92000 455.208
25.93000 451.141
25.94000 447.983
25.95000 451.121
25.96000 453.996
25.97000 455.584
25.98000 454.388
25.99000 453.097
26.00000 453.057
26.01000 454.817
26.02000 456.591
26.03000 457.015
26.04000 456.194
26.05000 455.440
26.06000 459.072
26.07000 465.335
26.08000 471.073
26.09000 465.674
26.10000 455.804
26.11000 446.620
26.12000 448.118
26.13000 452.061
26.14000 455.309
26.15000 454.219
26.16000 452.377
26.17000 451.266
26.18000 453.078
26.19000 455.195
26.20000 456.757
26.21000 457.946
26.22000 458.852
26.23000 458.366
26.24000 455.396
26.25000 452.377
26.26000 451.009
26.27000 451.577
26.28000 452.146
26.29000 454.900
26.30000 459.254
26.31000 463.434
26.32000 461.554
26.33000 456.676
26.34000 451.397
26.35000 440.212
26.36000 427.066
26.37000 415.128
26.38000 427.510
26.39000 443.152
26.40000 455.752
26.41000 453.082
26.42000 448.308
26.43000 444.356
26.44000 443.108
26.45000 442.071
26.46000 441.351
26.47000 449.052
26.48000 455.085
26.49000 458.838
26.50000 459.245
26.51000 459.622
26.52000 461.835
26.53000 465.775
26.54000 469.680
26.55000 467.756
26.56000 462.372
26.57000 457.312
26.58000 459.370
26.59000 464.342
26.60000 468.646
26.61000 465.696
26.62000 460.764
26.63000 456.411
26.64000 450.158
26.65000 444.472
26.66000 439.678
26.67000 438.523
26.68000 437.757
26.69000 438.507
26.70000 443.370
26.71000 448.463
26.72000 451.774
26.73000 439.969
26.74000 431.086
26.75000 429.721
26.76000 437.345
26.77000 444.953
26.78000 444.807
26.79000 438.755
26.80000 432.811
26.81000 432.749
26.82000 435.553
26.83000 438.449
26.84000 442.743
26.85000 447.510
26.86000 451.224
26.87000 446.188
26.88000 439.195
26.89000 433.224
26.90000 444.329
26.91000 455.711
26.92000 462.446
26.93000 453.605
26.94000 443.507
26.95000 437.769
26.96000 441.816
26.97000 446.230
26.98000 448.886
26.99000 456.276
27.00000 461.564
27.01000 461.545
27.02000 456.422
27.03000 451.301
27.04000 446.426
27.05000 441.704
27.06000 437.122
27.07000 432.361
27.08000 427.776
27.09000 423.701
27.10000 425.331
27.11000 428.551
27.12000 431.175
27.13000 429.910
27.14000 427.941
27.15000 426.323
27.16000 436.819
27.17000 446.539
27.18000 452.920
27.19000 450.071
27.20000 446.685
27.21000 443.693
27.22000 441.434
27.23000 439.191
27.24000 437.957
27.25000 438.150
27.26000 438.273
27.27000 434.928
27.28000 428.889
27.29000 423.028
27.30000 424.121
27.31000 428.786
27.32000 433.241
27.33000 430.128
27.34000 424.814
27.35000 419.994
27.36000 419.393
27.37000 419.754
27.38000 420.939
27.39000 426.428
27.40000 432.540
27.41000 437.351
27.42000 441.360
27.43000 444.519
27.44000 445.655
27.45000 442.164
27.46000 438.492
27.47000 435.412
27.48000 433.235
27.49000 431.068
27.50000 430.184
27.51000 430.561
27.52000 430.911
27.53000 428.956
27.54000 425.537
27.55000 422.412
27.56000 426.299
27.57000 433.164
27.58000 439.593
27.59000 436.601
27.60000 431.445
27.61000 427.690
27.62000 433.293
27.63000 440.627
27.64000 444.680
27.65000 434.798
27.66000 423.345
27.67000 414.765
27.68000 418.023
27.69000 421.122
27.70000 425.388
27.71000 431.857
27.72000 438.377
27.73000 440.740
27.74000 437.921
27.75000 435.092
27.76000 430.325
27.77000 424.051
27.78000 417.955
27.79000 419.182
27.80000 424.244
27.81000 429.111
27.82000 430.813
27.83000 431.404
27.84000 431.945
27.85000 424.826
27.86000 416.910
27.87000 410.604
27.88000 412.900
27.89000 416.466
27.90000 419.976
27.91000 423.286
27.92000 426.579
27.93000 428.911
27.94000 432.000
27.95000 434.370
27.96000 434.176
27.97000 429.992
27.98000 425.761
27.99000 421.718
28.00000 417.862
28.01000 414.032
28.02000 418.026
28.03000 426.952
28.04000 435.436
28.05000 432.885
28.06000 425.558
28.07000 419.095
28.08000 422.839
28.09000 429.538
28.10000 435.504
28.11000 423.146
28.12000 409.402
28.13000 398.979
28.14000 402.949
28.15000 408.584
28.16000 412.013
28.17000 409.108
28.18000 405.808
28.19000 403.618
28.20000 421.472
28.21000 435.038
28.22000 438.878
28.23000 430.352
28.24000 421.811
28.25000 423.606
28.26000 433.770
28.27000 443.783
28.28000 439.544
28.29000 428.052
28.30000 416.976
28.31000 412.914
28.32000 411.362
28.33000 410.450
28.34000 415.274
28.35000 421.459
28.36000 426.795
28.37000 429.430
28.38000 431.319
28.39000 431.870
28.40000 427.670
28.41000 423.052
28.42000 418.810
28.43000 415.462
28.44000 412.152
28.45000 410.112
28.46000 410.936
28.47000 411.553
28.48000 413.689
28.49000 417.386
28.50000 421.087
28.51000 425.118
28.52000 429.366
28.53000 433.504
28.54000 430.592
28.55000 424.852
28.56000 418.760
28.57000 408.370
28.58000 396.712
28.59000 387.743
28.60000 397.588
28.61000 411.060
28.62000 422.267
28.63000 420.874
28.64000 418.482
28.65000 414.548
28.66000 406.098
28.67000 397.358
28.68000 393.879
28.69000 400.722
28.70000 407.838
28.71000 411.864
28.72000 408.619
28.73000 406.353
28.74000 409.468
28.75000 417.030
28.76000 424.349
28.77000 420.475
28.78000 410.515
28.79000 400.956
28.80000 403.326
28.81000 409.606
28.82000 415.307
28.83000 415.671
28.84000 414.743
28.85000 413.779
28.86000 412.611
28.87000 411.412
28.88000 410.455
28.89000 407.209
28.90000 404.420
28.91000 405.580
28.92000 416.285
28.93000 427.415
28.94000 431.695
28.95000 424.900
28.96000 417.953
28.97000 414.396
28.98000 415.598
28.99000 416.411
29.00000 417.758
29.01000 419.466
29.02000 420.946
29.03000 416.248
29.04000 408.776
29.05000 401.735
29.06000 397.985
29.07000 395.458
29.08000 394.746
29.09000 407.029
29.10000 421.871
29.11000 433.002
29.12000 427.390
29.13000 419.741
29.14000 413.923
29.15000 412.795
29.16000 412.153
29.17000 407.335
29.18000 394.166
29.19000 380.764
29.20000 376.481
29.21000 384.269
29.22000 392.108
29.23000 398.058
29.24000 402.403
29.25000 406.681
29.26000 407.717
29.27000 406.955
29.28000 406.355
29.29000 408.680
29.30000 412.092
29.31000 415.237
29.32000 415.782
29.33000 415.696
29.34000 415.530
29.35000 414.913
29.36000 414.225
29.37000 412.952
29.38000 409.518
29.39000 405.883
29.40000 403.264
29.41000 407.967
29.42000 411.828
29.43000 411.862
29.44000 405.586
29.45000 399.217
29.46000 398.128
29.47000 402.699
29.48000 407.249
29.49000 410.898
29.50000 413.893
29.51000 416.772
29.52000 416.364
29.53000 414.453
29.54000 412.465
29.55000 409.477
29.56000 406.183
29.57000 403.224
29.58000 409.682
29.59000 416.989
29.60000 422.628
29.61000 420.590
29.62000 417.595
29.63000 414.479
29.64000 410.995
29.65000 407.485
29.66000 405.109
29.67000 399.267
29.68000 394.838
29.69000 394.075
29.70000 398.262
29.71000 402.472
29.72000 403.664
29.73000 402.255
29.74000 400.864
29.75000 397.673
29.76000 393.571
29.77000 389.597
29.78000 388.034
29.79000 387.384
29.80000 386.835
29.81000 387.270
29.82000 387.952
29.83000 388.547
29.84000 388.790
29.85000 388.950
29.86000 391.071
29.87000 400.573
29.88000 410.783
29.89000 417.431
29.90000 415.141
29.91000 412.421
29.92000 410.706
29.93000 407.790
29.94000 405.665
29.95000 408.476
29.96000 416.692
29.97000 424.899
29.98000 431.470
29.99000 436.895
30.00000 442.199
30.01000 442.606
30.02000 440.809
30.03000 439.187
30.04000 439.896
30.05000 441.334
30.06000 441.865
30.07000 435.589
30.08000 427.915
30.09000 421.459
30.10000 422.781
30.11000 424.712
30.12000 426.186
30.13000 426.244
30.14000 426.202
30.15000 425.536
30.16000 423.576
30.17000 421.577
30.18000 420.415
30.19000 414.990
30.20000 411.165
30.21000 410.962
30.22000 413.943
30.23000 416.981
30.24000 423.157
30.25000 431.137
30.26000 438.833
30.27000 435.978
30.28000 429.467
30.29000 423.004
30.30000 417.014
30.31000 411.146
30.32000 406.111
30.33000 406.037
30.34000 406.783
30.35000 407.386
30.36000 408.358
30.37000 409.178
30.38000 410.266
30.39000 412.042
30.40000 413.853
30.41000 414.951
30.42000 414.829
30.43000 414.686
30.44000 414.611
30.45000 422.544
30.46000 427.889
30.47000 426.284
30.48000 419.710
30.49000 413.244
30.50000 410.174
30.51000 408.717
30.52000 407.337
30.53000 410.155
30.54000 413.984
30.55000 417.651
30.56000 420.082
30.57000 422.253
30.58000 423.689
30.59000 421.598
30.60000 419.046
30.61000 417.075
30.62000 417.634
30.63000 418.224
30.64000 417.335
30.65000 413.316
30.66000 409.196
30.67000 410.258
30.68000 418.603
30.69000 426.995
30.70000 431.574
30.71000 432.725
30.72000 433.778
30.73000 429.046
30.74000 420.919
30.75000 413.181
30.76000 413.305
30.77000 416.518
30.78000 419.499
30.79000 421.724
30.80000 423.549
30.81000 424.723
30.82000 421.935
30.83000 418.476
30.84000 417.429
30.85000 425.812
30.86000 435.149
30.87000 441.990
30.88000 436.319
30.89000 431.439
30.90000 430.427
30.91000 436.168
30.92000 442.033
30.93000 447.667
30.94000 453.039
30.95000 458.392
30.96000 458.706
30.97000 455.372
30.98000 452.321
30.99000 458.556
31.00000 469.284
31.01000 479.693
31.02000 485.591
31.03000 490.024
31.04000 494.037
31.05000 500.948
31.06000 507.581
31.07000 515.862
31.08000 532.204
31.09000 549.627
31.10000 567.844
31.11000 588.614
31.12000 609.576
31.13000 624.044
31.14000 659.292
31.15000 686.307
31.16000 717.704
31.17000 755.380
31.18000 793.103
31.19000 824.400
31.20000 849.802
31.21000 874.958
31.22000 913.340
31.23000 958.666
31.24000 1004.949
31.25000 1071.332
31.26000 1145.759
31.27000 1217.281
31.28000 1258.273
31.29000 1291.109
31.30000 1319.986
31.31000 1394.887
31.32000 1466.171
31.33000 1530.823
31.34000 1569.029
31.35000 1604.489
31.36000 1637.175
31.37000 1662.500
31.38000 1687.428
31.39000 1703.497
31.40000 1734.416
31.41000 1757.207
31.42000 1776.135
31.43000 1790.555
31.44000 1804.771
31.45000 1781.794
31.46000 1731.147
31.47000 1681.464
31.48000 1646.638
31.49000 1620.139
31.50000 1592.817
31.51000 1553.424
31.52000 1510.039
31.53000 1466.157
31.54000 1418.271
31.55000 1369.510
31.56000 1328.045
31.57000 1271.267
31.58000 1221.818
31.59000 1166.890
31.60000 1094.012
31.61000 1019.737
31.62000 957.054
31.63000 919.819
31.64000 883.489
31.65000 861.840
31.66000 812.961
31.67000 778.157
31.68000 751.493
31.69000 732.461
31.70000 713.360
31.71000 689.500
31.72000 662.739
31.73000 636.821
31.74000 615.799
31.75000 597.802
31.76000 580.557
31.77000 571.446
31.78000 564.549
31.79000 555.654
31.80000 534.056
31.81000 510.217
31.82000 490.711
31.83000 479.958
31.84000 471.914
31.85000 464.766
31.86000 460.046
31.87000 455.461
31.88000 453.461
31.89000 456.150
31.90000 458.936
31.91000 460.452
31.92000 438.290
31.93000 423.103
31.94000 418.438
31.95000 421.759
31.96000 424.978
31.97000 424.482
31.98000 422.121
31.99000 419.871
32.00000 419.842
32.01000 420.508
32.02000 420.898
32.03000 418.993
32.04000 416.576
32.05000 414.549
32.06000 414.508
32.07000 414.745
32.08000 414.931
32.09000 410.823
32.10000 407.267
32.11000 404.134
32.12000 401.946
32.13000 399.793
32.14000 399.782
32.15000 402.964
32.16000 406.177
32.17000 408.084
32.18000 408.739
32.19000 409.379
32.20000 408.865
32.21000 407.636
32.22000 406.391
32.23000 404.815
32.24000 403.101
32.25000 401.500
32.26000 405.229
32.27000 409.953
32.28000 412.754
32.29000 403.044
32.30000 391.078
32.31000 382.000
32.32000 384.903
32.33000 389.116
32.34000 392.254
32.35000 389.217
32.36000 386.577
32.37000 384.918
32.38000 385.074
32.39000 385.270
32.40000 383.071
32.41000 377.962
32.42000 372.857
32.43000 376.616
32.44000 387.181
32.45000 397.525
32.46000 399.415
32.47000 396.978
32.48000 394.143
32.49000 385.114
32.50000 373.958
32.51000 363.779
32.52000 362.250
32.53000 362.637
32.54000 363.578
32.55000 367.406
32.56000 371.650
32.57000 376.426
32.58000 383.017
32.59000 389.757
32.60000 394.495
32.61000 384.535
32.62000 376.557
32.63000 373.413
32.64000 377.620
32.65000 381.904
32.66000 382.027
32.67000 378.078
32.68000 374.159
32.69000 375.104
32.70000 379.063
32.71000 382.488
32.72000 373.273
32.73000 358.707
32.74000 345.860
32.75000 352.647
32.76000 364.992
32.77000 375.946
32.78000 376.074
32.79000 374.458
32.80000 372.559
32.81000 369.462
32.82000 366.230
32.83000 367.177
32.84000 379.854
32.85000 393.233
32.86000 402.041
32.87000 417.022
32.88000 428.163
32.89000 434.052
32.90000 433.423
32.91000 432.793
32.92000 437.308
32.93000 445.888
32.94000 454.332
32.95000 454.835
32.96000 451.310
32.97000 447.960
32.98000 447.433
32.99000 447.894
33.00000 447.986
33.01000 444.871
33.02000 441.012
33.03000 437.696
33.04000 434.194
33.05000 431.208
33.06000 426.928
33.07000 418.158
33.08000 409.006
33.09000 399.523
33.10000 389.273
33.11000 378.992
33.12000 372.715
33.13000 365.091
33.14000 359.628
33.15000 354.594
33.16000 349.988
33.17000 345.445
33.18000 346.481
33.19000 351.118
33.20000 355.628
33.21000 351.378
33.22000 343.742
33.23000 336.845
33.24000 338.631
33.25000 342.923
33.26000 346.740
33.27000 347.327
33.28000 347.307
33.29000 347.290
33.30000 345.219
33.31000 343.316
33.32000 342.938
33.33000 346.924
33.34000 351.181
33.35000 352.832
33.36000 349.483
33.37000 346.010
33.38000 344.066
33.39000 345.190
33.40000 345.968
33.41000 344.043
33.42000 339.937
33.43000 335.933
33.44000 336.287
33.45000 338.958
33.46000 341.517
33.47000 342.388
33.48000 342.638
33.49000 342.506
33.50000 338.962
33.51000 334.611
33.52000 330.879
33.53000 330.506
33.54000 330.639
33.55000 330.744
33.56000 332.618
33.57000 334.250
33.58000 334.920
33.59000 333.317
33.60000 331.617
33.61000 330.559
33.62000 330.514
33.63000 330.481
33.64000 330.465
33.65000 332.532
33.66000 333.897
33.67000 333.543
33.68000 332.057
33.69000 330.651
33.70000 331.336
33.71000 332.938
33.72000 334.444
33.73000 333.299
33.74000 331.542
33.75000 330.603
33.76000 335.364
33.77000 341.219
33.78000 345.701
33.79000 344.136
33.80000 341.858
33.81000 340.134
33.82000 337.162
33.83000 334.768
33.84000 333.941
33.85000 336.178
33.86000 338.495
33.87000 339.562
33.88000 339.014
33.89000 338.459
33.90000 339.074
33.91000 340.646
33.92000 342.061
33.93000 336.313
33.94000 326.684
33.95000 317.461
33.96000 315.279
33.97000 315.654
33.98000 315.998
33.99000 317.010
34.00000 318.056
34.01000 318.821
34.02000 318.017
34.03000 316.971
34.04000 316.785
34.05000 319.696
34.06000 322.886
34.07000 325.169
34.08000 321.064
34.09000 317.714
34.10000 316.401
34.11000 318.367
34.12000 320.377
34.13000 321.019
34.14000 320.232
34.15000 319.448
34.16000 317.378
34.17000 314.482
34.18000 311.768
34.19000 313.968
34.20000 318.369
34.21000 322.443
34.22000 322.450
34.23000 321.238
34.24000 320.153
34.25000 323.916
34.26000 328.030
34.27000 330.618
34.28000 326.354
34.29000 321.260
34.30000 318.361
34.31000 321.983
34.32000 326.036
34.33000 328.758
34.34000 320.924
34.35000 314.888
34.36000 314.820
34.37000 322.623
34.38000 330.451
34.39000 332.129
34.40000 328.638
34.41000 325.194
34.42000 322.423
34.43000 320.090
34.44000 317.841
34.45000 317.110
34.46000 316.942
34.47000 316.574
34.48000 314.326
34.49000 311.617
34.50000 309.265
34.51000 313.712
34.52000 318.413
34.53000 321.701
34.54000 319.798
34.55000 317.413
34.56000 317.450
34.57000 323.434
34.58000 329.691
34.59000 333.601
34.60000 326.859
34.61000 321.883
34.62000 320.312
34.63000 322.379
34.64000 324.411
34.65000 322.387
34.66000 317.586
34.67000 312.900
34.68000 309.143
34.69000 305.955
34.70000 303.423
34.71000 309.329
34.72000 317.813
34.73000 325.040
34.74000 323.091
34.75000 319.304
34.76000 316.132
34.77000 318.474
34.78000 320.989
34.79000 323.098
34.80000 323.976
34.81000 324.769
34.82000 324.628
34.83000 322.587
34.84000 320.491
34.85000 319.286
34.86000 317.850
34.87000 316.848
34.88000 318.181
34.89000 321.518
34.90000 324.766
34.91000 323.466
34.92000 319.608
34.93000 315.894
34.94000 315.763
34.95000 316.907
34.96000 317.699
34.97000 315.094
34.98000 311.637
34.99000 308.142
35.00000 304.426
35.01000 300.675
35.02000 297.658
35.03000 308.642
35.04000 318.631
35.05000 324.437
35.06000 319.782
35.07000 314.628
35.08000 309.481
35.09000 304.347
35.10000 299.213
35.11000 296.534
35.12000 303.724
35.13000 308.562
35.14000 309.792
35.15000 308.503
35.16000 307.379
35.17000 311.116
35.18000 317.113
35.19000 322.783
35.20000 318.125
35.21000 310.890
35.22000 304.764
35.23000 306.925
35.24000 310.780
35.25000 314.042
35.26000 314.533
35.27000 314.672
35.28000 314.778
35.29000 314.575
35.30000 314.397
35.31000 314.185
35.32000 313.902
35.33000 313.616
35.34000 311.858
35.35000 308.079
35.36000 304.289
35.37000 302.335
35.38000 301.990
35.39000 301.683
35.40000 303.493
35.41000 306.516
35.42000 309.460
35.43000 310.889
35.44000 311.736
35.45000 312.520
35.46000 314.070
35.47000 315.639
35.48000 316.572
35.49000 313.732
35.50000 310.272
35.51000 307.715
35.52000 308.608
35.53000 309.839
35.54000 310.735
35.55000 309.168
35.56000 307.869
35.57000 308.175
35.58000 311.223
35.59000 314.318
35.60000 315.913
35.61000 315.837
35.62000 315.761
35.63000 313.447
35.64000 309.576
35.65000 305.796
35.66000 304.802
35.67000 305.128
35.68000 305.389
35.69000 304.768
35.70000 303.867
35.71000 303.054
35.72000 309.825
35.73000 317.163
35.74000 322.174
35.75000 316.067
35.76000 308.512
35.77000 302.465
35.78000 301.159
35.79000 300.198
35.80000 299.540
35.81000 303.103
35.82000 305.873
35.83000 304.088
35.84000 295.926
35.85000 287.726
35.86000 288.648
35.87000 297.732
35.88000 306.720
35.89000 309.742
35.90000 309.288
35.91000 308.963
35.92000 311.220
35.93000 314.488
35.94000 317.105
35.95000 313.108
35.96000 307.384
35.97000 302.369
35.98000 304.887
35.99000 308.136
36.00000 309.012
36.01000 300.650
36.02000 291.357
36.03000 285.773
36.04000 289.818
36.05000 294.358
36.06000 297.259
36.07000 293.587
36.08000 290.829
36.09000 289.450
36.10000 289.643
36.11000 289.836
36.12000 289.954
36.13000 290.017
36.14000 290.079
36.15000 292.113
36.16000 294.984
36.17000 297.842
36.18000 300.520
36.19000 303.139
36.20000 305.422
36.21000 305.068
36.22000 304.153
36.23000 303.378
36.24000 297.647
36.25000 292.293
36.26000 288.299
36.27000 288.663
36.28000 289.353
36.29000 291.524
36.30000 296.874
36.31000 302.330
36.32000 305.549
36.33000 299.712
36.34000 295.542
36.35000 292.106
36.36000 289.342
36.37000 286.639
36.38000 287.845
36.39000 291.380
36.40000 294.798
36.41000 294.960
36.42000 293.888
36.43000 293.139
36.44000 295.763
36.45000 299.284
36.46000 302.323
36.47000 302.374
36.48000 301.911
36.49000 301.534
36.50000 299.778
36.51000 298.227
36.52000 299.814
36.53000 309.701
36.54000 320.031
36.55000 322.050
36.56000 309.335
36.57000 296.338
36.58000 289.348
36.59000 297.754
36.60000 303.500
36.61000 306.876
36.62000 308.495
36.63000 309.938
36.64000 305.382
36.65000 297.878
36.66000 290.742
36.67000 292.283
36.68000 296.352
36.69000 299.404
36.70000 294.283
36.71000 287.385
36.72000 282.868
36.73000 290.209
36.74000 299.170
36.75000 306.147
36.76000 299.817
36.77000 293.955
36.78000 290.249
36.79000 291.259
36.80000 292.436
36.81000 295.255
36.82000 300.466
36.83000 305.696
36.84000 307.331
36.85000 305.608
36.86000 303.886
36.87000 302.164
36.88000 300.442
36.89000 299.015
36.90000 303.968
36.91000 311.513
36.92000 318.543
36.93000 319.010
36.94000 317.820
36.95000 316.772
36.96000 316.623
36.97000 316.632
36.98000 315.619
36.99000 310.466
37.00000 304.874
37.01000 300.737
37.02000 306.807
37.03000 311.955
37.04000 313.347
37.05000 307.956
37.06000 302.425
37.07000 301.776
37.08000 306.917
37.09000 312.055
37.10000 314.375
37.11000 314.565
37.12000 314.712
37.13000 313.326
37.14000 311.172
37.15000 309.148
37.16000 309.084
37.17000 309.678
37.18000 310.218
37.19000 309.221
37.20000 308.038
37.21000 306.249
37.22000 301.384
37.23000 296.089
37.24000 291.673
37.25000 290.178
37.26000 288.917
37.27000 288.037
37.28000 300.118
37.29000 309.601
37.30000 311.004
37.31000 300.405
37.32000 289.695
37.33000 289.511
37.34000 299.369
37.35000 309.144
37.36000 312.543
37.37000 312.005
37.38000 311.330
37.39000 307.530
37.40000 302.438
37.41000 297.213
37.42000 290.522
37.43000 283.425
37.44000 277.150
37.45000 282.880
37.46000 289.692
37.47000 294.844
37.48000 293.127
37.49000 290.663
37.50000 289.901
37.51000 293.810
37.52000 297.988
37.53000 300.715
37.54000 302.100
37.55000 303.096
37.56000 304.516
37.57000 306.451
37.58000 308.363
37.59000 304.596
37.60000 296.448
37.61000 288.439
37.62000 287.931
37.63000 291.138
37.64000 294.262
37.65000 296.072
37.66000 297.434
37.67000 298.386
37.68000 295.877
37.69000 292.585
37.70000 289.768
37.71000 283.489
37.72000 277.774
37.73000 275.001
37.74000 282.202
37.75000 290.224
37.76000 295.461
37.77000 294.373
37.78000 293.041
37.79000 292.236
37.80000 295.201
37.81000 297.342
37.82000 296.158
37.83000 291.734
37.84000 287.375
37.85000 288.193
37.86000 292.277
37.87000 296.244
37.88000 298.848
37.89000 300.775
37.90000 302.456
37.91000 301.337
37.92000 299.429
37.93000 297.685
37.94000 297.034
37.95000 296.583
37.96000 296.212
37.97000 292.605
37.98000 289.340
37.99000 287.829
38.00000 291.224
38.01000 294.911
38.02000 294.366
38.03000 285.878
38.04000 277.207
38.05000 272.408
38.06000 288.038
38.07000 298.850
38.08000 305.827
38.09000 309.785
38.10000 313.585
38.11000 311.091
38.12000 305.325
38.13000 299.814
38.14000 301.676
38.15000 305.801
38.16000 309.495
38.17000 309.467
38.18000 308.580
38.19000 307.025
38.20000 301.937
38.21000 296.331
38.22000 291.906
38.23000 295.652
38.24000 299.212
38.25000 300.895
38.26000 298.234
38.27000 295.398
38.28000 296.366
38.29000 303.208
38.30000 310.116
38.31000 311.512
38.32000 307.416
38.33000 303.416
38.34000 307.717
38.35000 317.359
38.36000 326.850
38.37000 332.644
38.38000 336.849
38.39000 340.793
38.40000 358.944
38.41000 379.195
38.42000 397.970
38.43000 406.751
38.44000 413.658
38.45000 422.767
38.46000 441.343
38.47000 461.003
38.48000 475.780
38.49000 500.702
38.50000 520.676
38.51000 541.506
38.52000 563.970
38.53000 586.474
38.54000 619.966
38.55000 667.322
38.56000 714.647
38.57000 759.417
38.58000 801.955
38.59000 844.814
38.60000 901.315
38.61000 965.041
38.62000 1028.276
38.63000 1083.327
38.64000 1135.472
38.65000 1183.260
38.66000 1239.053
38.67000 1290.419
38.68000 1340.826
38.69000 1386.046
38.70000 1430.490
38.71000 1473.698
38.72000 1512.558
38.73000 1551.039
38.74000 1578.385
38.75000 1571.078
38.76000 1564.410
38.77000 1554.984
38.78000 1541.217
38.79000 1527.397
38.80000 1504.312
38.81000 1471.792
38.82000 1439.478
38.83000 1403.991
38.84000 1366.967
38.85000 1328.932
38.86000 1265.008
38.87000 1189.752
38.88000 1116.267
38.89000 1064.117
38.90000 1018.218
38.91000 977.276
38.92000 921.584
38.93000 870.671
38.94000 820.382
38.95000 772.829
38.96000 725.598
38.97000 679.380
38.98000 636.103
38.99000 593.013
39.00000 564.293
39.01000 534.799
39.02000 512.948
39.03000 488.091
39.04000 459.364
39.05000 430.652
39.06000 414.085
39.07000 407.479
39.08000 400.966
39.09000 384.277
39.10000 362.731
39.11000 342.144
39.12000 338.071
39.13000 339.975
39.14000 341.281
39.15000 337.149
39.16000 331.710
39.17000 327.008
39.18000 319.796
39.19000 313.341
39.20000 307.905
39.21000 306.124
39.22000 304.671
39.23000 301.560
39.24000 294.469
39.25000 287.203
39.26000 282.704
39.27000 281.268
39.28000 280.265
39.29000 281.723
39.30000 285.742
39.31000 289.726
39.32000 290.077
39.33000 287.998
39.34000 285.971
39.35000 283.541
39.36000 281.050
39.37000 278.713
39.38000 278.284
39.39000 278.425
39.40000 279.021
39.41000 282.844
39.42000 287.298
39.43000 291.011
39.44000 281.872
39.45000 273.012
39.46000 267.637
39.47000 272.579
39.48000 278.199
39.49000 281.653
39.50000 280.807
39.51000 279.845
39.52000 279.297
39.53000 274.305
39.54000 270.823
39.55000 273.349
39.56000 280.904
39.57000 288.317
39.58000 288.938
39.59000 285.823
39.60000 282.830
39.61000 279.158
39.62000 275.486
39.63000 272.051
39.64000 270.830
39.65000 270.152
39.66000 270.311
39.67000 275.195
39.68000 280.819
39.69000 285.319
39.70000 280.303
39.71000 275.538
39.72000 273.761
39.73000 279.290
39.74000 285.153
39.75000 285.725
39.76000 277.640
39.77000 269.431
39.78000 265.199
39.79000 278.518
39.80000 287.443
39.81000 290.871
39.82000 290.551
39.83000 289.979
39.84000 282.403
39.85000 271.644
39.86000 261.494
39.87000 262.732
39.88000 267.044
39.89000 270.675
39.90000 269.356
39.91000 267.050
39.92000 264.649
39.93000 261.810
39.94000 258.918
39.95000 256.711
39.96000 251.358
39.97000 246.972
39.98000 247.244
39.99000 256.938
40.00000 266.902
40.01000 269.369
40.02000 261.784
40.03000 254.154
40.04000 252.880
40.05000 257.029
40.06000 261.104
40.07000 261.459
40.08000 259.727
40.09000 257.952
40.10000 255.385
40.11000 252.522
40.12000 249.878
40.13000 247.104
40.14000 244.588
40.15000 243.080
40.16000 247.394
40.17000 252.642
40.18000 256.808
40.19000 256.930
40.20000 256.669
40.21000 256.480
40.22000 257.833
40.23000 258.926
40.24000 259.062
40.25000 257.599
40.26000 256.111
40.27000 255.700
40.28000 256.459
40.29000 257.215
40.30000 257.723
40.31000 258.055
40.32000 258.303
40.33000 256.103
40.34000 252.770
40.35000 249.771
40.36000 251.174
40.37000 253.943
40.38000 256.433
40.39000 255.785
40.40000 254.657
40.41000 254.563
40.42000 259.289
40.43000 264.625
40.44000 268.149
40.45000 266.104
40.46000 263.669
40.47000 262.013
40.48000 258.444
40.49000 255.736
40.50000 253.694
40.51000 252.562
40.52000 251.435
40.53000 250.418
40.54000 249.498
40.55000 248.588
40.56000 243.024
40.57000 235.000
40.58000 227.533
40.59000 230.757
40.60000 238.074
40.61000 244.940
40.62000 247.354
40.63000 248.633
40.64000 249.750
40.65000 251.746
40.66000 253.577
40.67000 254.063
40.68000 249.422
40.69000 244.282
40.70000 240.990
40.71000 242.391
40.72000 244.022
40.73000 245.056
40.74000 239.876
40.75000 236.045
40.76000 236.506
40.77000 241.731
40.78000 246.932
40.79000 248.269
40.80000 246.865
40.81000 245.491
40.82000 246.513
40.83000 248.576
40.84000 250.404
40.85000 249.026
40.86000 246.634
40.87000 244.277
40.88000 242.185
40.89000 240.149
40.90000 238.431
40.91000 237.975
40.92000 237.730
40.93000 237.641
40.94000 238.038
40.95000 238.471
40.96000 238.225
40.97000 236.550
40.98000 234.831
40.99000 233.826
41.00000 244.952
41.01000 252.829
41.02000 253.420
41.03000 247.516
41.04000 241.641
41.05000 237.412
41.06000 234.143
41.07000 230.988
41.08000 238.179
41.09000 248.751
41.10000 258.229
41.11000 256.650
41.12000 252.196
41.13000 247.944
41.14000 244.916
41.15000 242.093
41.16000 239.806
41.17000 243.825
41.18000 247.612
41.19000 249.796
41.20000 247.832
41.21000 245.656
41.22000 243.089
41.23000 239.842
41.24000 236.584
41.25000 234.852
41.26000 242.789
41.27000 248.160
41.28000 247.774
41.29000 243.222
41.30000 238.809
41.31000 238.904
41.32000 241.165
41.33000 243.310
41.34000 239.683
41.35000 234.621
41.36000 230.677
41.37000 235.453
41.38000 242.078
41.39000 246.542
41.40000 240.503
41.41000 233.069
41.42000 227.314
41.43000 231.580
41.44000 235.561
41.45000 239.307
41.46000 242.548
41.47000 245.772
41.48000 245.228
41.49000 239.324
41.50000 233.382
41.51000 229.305
41.52000 226.928
41.53000 224.609
41.54000 225.853
41.55000 229.212
41.56000 232.382
41.57000 231.634
41.58000 229.328
41.59000 227.186
41.60000 236.301
41.61000 247.220
41.62000 255.723
41.63000 249.329
41.64000 240.383
41.65000 233.789
41.66000 236.501
41.67000 240.170
41.68000 242.867
41.69000 241.332
41.70000 239.970
41.71000 238.614
41.72000 237.267
41.73000 235.920
41.74000 237.534
41.75000 242.576
41.76000 247.606
41.77000 246.351
41.78000 240.503
41.79000 234.781
41.80000 233.305
41.81000 233.909
41.82000 234.627
41.83000 237.002
41.84000 239.921
41.85000 242.568
41.86000 237.217
41.87000 230.968
41.88000 225.602
41.89000 224.609
41.90000 224.210
41.91000 225.158
41.92000 230.481
41.93000 236.142
41.94000 240.064
41.95000 235.120
41.96000 231.165
41.97000 231.424
41.98000 237.798
41.99000 244.221
42.00000 244.145
42.01000 238.025
42.02000 231.961
42.03000 230.613
42.04000 232.087
42.05000 233.518
42.06000 234.020
42.07000 234.147
42.08000 234.023
42.09000 231.215
42.10000 227.681
42.11000 224.567
42.12000 222.277
42.13000 220.428
42.14000 219.101
42.15000 219.884
42.16000 220.891
42.17000 223.066
42.18000 228.380
42.19000 233.867
42.20000 237.420
42.21000 240.593
42.22000 242.909
42.23000 242.584
42.24000 239.137
42.25000 235.679
42.26000 231.209
42.27000 225.978
42.28000 220.842
42.29000 220.935
42.30000 223.541
42.31000 226.202
42.32000 229.678
42.33000 233.427
42.34000 237.069
42.35000 239.839
42.36000 242.416
42.37000 244.612
42.38000 236.531
42.39000 228.532
42.40000 222.639
42.41000 223.731
42.42000 225.379
42.43000 226.107
42.44000 224.797
42.45000 223.412
42.46000 222.582
42.47000 233.682
42.48000 241.640
42.49000 243.137
42.50000 238.496
42.51000 233.931
42.52000 234.905
42.53000 239.295
42.54000 243.550
42.55000 242.715
42.56000 239.936
42.57000 237.121
42.58000 233.901
42.59000 230.571
42.60000 227.508
42.61000 226.171
42.62000 225.142
42.63000 224.299
42.64000 223.568
42.65000 222.978
42.66000 222.959
42.67000 224.502
42.68000 226.134
42.69000 227.480
42.70000 228.299
42.71000 229.107
42.72000 229.549
42.73000 236.607
42.74000 241.429
42.75000 236.930
42.76000 225.267
42.77000 213.882
42.78000 212.952
42.79000 217.338
42.80000 221.521
42.81000 226.181
42.82000 230.657
42.83000 234.588
42.84000 233.941
42.85000 232.262
42.86000 230.508
42.87000 228.373
42.88000 226.183
42.89000 224.464
42.90000 225.033
42.91000 225.638
42.92000 226.008
42.93000 225.846
42.94000 225.664
42.95000 225.092
42.96000 223.931
42.97000 222.765
42.98000 222.015
42.99000 221.671
43.00000 221.325
43.01000 220.909
43.02000 220.449
43.03000 220.027
43.04000 220.506
43.05000 221.364
43.06000 222.167
43.07000 218.791
43.08000 214.659
43.09000 211.542
43.10000 215.123
43.11000 219.927
43.12000 223.338
43.13000 220.896
43.14000 217.802
43.15000 215.492
43.16000 217.419
43.17000 219.116
43.18000 220.835
43.19000 222.595
43.20000 224.356
43.21000 223.390
43.22000 219.068
43.23000 214.745
43.24000 215.713
43.25000 220.803
43.26000 225.822
43.27000 228.003
43.28000 228.714
43.29000 229.173
43.30000 225.584
43.31000 220.590
43.32000 216.027
43.33000 214.572
43.34000 213.916
43.35000 213.592
43.36000 215.024
43.37000 216.713
43.38000 217.272
43.39000 213.943
43.40000 210.286
43.41000 207.705
43.42000 209.983
43.43000 211.859
43.44000 213.269
43.45000 213.964
43.46000 214.651
43.47000 215.646
43.48000 216.946
43.49000 218.238
43.50000 219.961
43.51000 221.929
43.52000 223.816
43.53000 223.725
43.54000 222.788
43.55000 221.686
43.56000 218.677
43.57000 215.121
43.58000 211.960
43.59000 215.562
43.60000 219.782
43.61000 223.831
43.62000 227.147
43.63000 230.380
43.64000 231.857
43.65000 228.347
43.66000 224.533
43.67000 222.011
43.68000 217.797
43.69000 214.658
43.70000 214.411
43.71000 217.797
43.72000 221.185
43.73000 221.057
43.74000 218.114
43.75000 215.217
43.76000 214.216
43.77000 214.216
43.78000 214.287
43.79000 215.536
43.80000 217.202
43.81000 218.806
43.82000 219.852
43.83000 220.767
43.84000 221.556
43.85000 218.863
43.86000 216.141
43.87000 214.538
43.88000 216.861
43.89000 219.524
43.90000 220.877
43.91000 219.151
43.92000 217.298
43.93000 216.161
43.94000 219.603
43.95000 222.109
43.96000 220.845
43.97000 215.758
43.98000 210.747
43.99000 212.704
44.00000 219.216
44.01000 225.555
44.02000 226.801
44.03000 225.872
44.04000 224.866
44.05000 222.936
44.06000 220.735
44.07000 218.423
44.08000 215.338
44.09000 212.106
44.10000 209.424
44.11000 214.327
44.12000 219.114
44.13000 222.544
44.14000 222.048
44.15000 221.305
44.16000 221.125
44.17000 222.038
44.18000 222.980
44.19000 223.510
44.20000 219.460
44.21000 216.643
44.22000 216.466
44.23000 218.446
44.24000 220.298
44.25000 216.460
44.26000 209.561
44.27000 202.946
44.28000 208.435
44.29000 217.636
44.30000 225.281
44.31000 218.825
44.32000 208.991
44.33000 201.529
44.34000 207.128
44.35000 214.721
44.36000 220.763
44.37000 214.996
44.38000 209.498
44.39000 206.305
44.40000 208.628
44.41000 211.190
44.42000 212.996
44.43000 213.592
44.44000 214.172
44.45000 214.467
44.46000 218.637
44.47000 221.416
44.48000 222.376
44.49000 222.125
44.50000 221.800
44.51000 219.547
44.52000 216.436
44.53000 213.507
44.54000 212.321
44.55000 211.710
44.56000 210.963
44.57000 209.258
44.58000 207.367
44.59000 207.772
44.60000 218.417
44.61000 230.289
44.62000 239.295
44.63000 230.978
44.64000 223.556
44.65000 220.309
44.66000 225.323
44.67000 230.559
44.68000 233.709
44.69000 234.129
44.70000 234.537
44.71000 231.360
44.72000 225.211
44.73000 219.184
44.74000 218.879
44.75000 221.711
44.76000 224.391
44.77000 224.384
44.78000 223.389
44.79000 222.474
44.80000 225.036
44.81000 228.086
44.82000 230.559
44.83000 229.785
44.84000 228.505
44.85000 227.518
44.86000 227.602
44.87000 227.784
44.88000 227.914
44.89000 228.295
44.90000 228.594
44.91000 228.274
44.92000 226.942
44.93000 225.596
44.94000 228.263
44.95000 235.180
44.96000 242.062
44.97000 242.776
44.98000 239.341
44.99000 236.032
45.00000 236.219
45.01000 237.988
45.02000 239.993
45.03000 244.988
45.04000 250.891
45.05000 256.183
45.06000 261.096
45.07000 265.323
45.08000 268.836
45.09000 269.099
45.10000 268.961
45.11000 268.830
45.12000 268.714
45.13000 268.600
45.14000 268.523
45.15000 275.569
45.16000 280.963
45.17000 278.840
45.18000 266.679
45.19000 254.484
45.20000 252.439
45.21000 259.035
45.22000 265.549
45.23000 265.433
45.24000 261.713
45.25000 258.105
45.26000 256.548
45.27000 255.758
45.28000 255.286
45.29000 257.854
45.30000 261.178
45.31000 264.069
45.32000 266.208
45.33000 267.931
45.34000 268.635
45.35000 265.548
45.36000 262.105
45.37000 258.785
45.38000 255.776
45.39000 252.782
45.40000 250.901
45.41000 249.946
45.42000 249.265
45.43000 249.612
45.44000 251.071
45.45000 252.507
45.46000 251.172
45.47000 247.914
45.48000 244.731
45.49000 240.270
45.50000 235.434
45.51000 231.167
45.52000 234.361
45.53000 239.861
45.54000 244.468
45.55000 242.458
45.56000 239.105
45.57000 236.291
45.58000 240.100
45.59000 243.966
45.60000 247.390
45.61000 249.457
45.62000 251.430
45.63000 250.736
45.64000 244.564
45.65000 238.228
45.66000 234.566
45.67000 228.824
45.68000 224.797
45.69000 225.698
45.70000 230.882
45.71000 236.014
45.72000 238.407
45.73000 239.241
45.74000 240.044
45.75000 239.193
45.76000 237.801
45.77000 236.468
45.78000 235.724
45.79000 235.128
45.80000 234.367
45.81000 232.632
45.82000 230.737
45.83000 229.210
45.84000 236.223
45.85000 242.590
45.86000 244.892
45.87000 236.906
45.88000 228.418
45.89000 221.172
45.90000 216.030
45.91000 210.922
45.92000 208.239
45.93000 216.025
45.94000 221.302
45.95000 226.037
45.96000 230.390
45.97000 234.568
45.98000 233.416
45.99000 229.759
46.00000 226.297
46.01000 225.134
46.02000 224.730
46.03000 223.423
46.04000 215.274
46.05000 205.709
46.06000 197.860
46.07000 198.147
46.08000 199.485
46.09000 200.515
46.10000 201.115
46.11000 201.566
46.12000 202.926
46.13000 206.190
46.14000 209.513
46.15000 211.167
46.16000 210.499
46.17000 209.816
46.18000 207.062
46.19000 202.477
46.20000 197.978
46.21000 198.460
46.22000 201.830
46.23000 205.008
46.24000 204.359
46.25000 202.223
46.26000 200.244
46.27000 194.017
46.28000 187.422
46.29000 182.621
46.30000 188.598
46.31000 196.374
46.32000 203.114
46.33000 205.847
46.34000 208.181
46.35000 209.886
46.36000 206.162
46.37000 203.078
46.38000 203.702
46.39000 210.726
46.40000 217.862
46.41000 218.397
46.42000 211.479
46.43000 204.580
46.44000 200.835
46.45000 199.376
46.46000 197.956
46.47000 197.769
46.48000 198.172
46.49000 198.362
46.50000 195.578
46.51000 191.839
46.52000 188.460
46.53000 194.743
46.54000 202.067
46.55000 207.632
46.56000 204.680
46.57000 200.602
46.58000 198.026
46.59000 200.225
46.60000 202.778
46.61000 204.534
46.62000 205.562
46.63000 206.314
46.64000 205.521
46.65000 202.537
46.66000 199.538
46.67000 197.711
46.68000 196.948
46.69000 196.192
46.70000 194.650
46.71000 192.685
46.72000 190.913
46.73000 193.100
46.74000 196.855
46.75000 199.928
46.76000 195.940
46.77000 190.088
46.78000 184.951
46.79000 194.143
46.80000 204.142
46.81000 211.256
46.82000 206.991
46.83000 201.561
46.84000 197.691
46.85000 197.914
46.86000 198.353
46.87000 198.634
46.88000 200.580
46.89000 202.021
46.90000 200.663
46.91000 196.078
46.92000 191.532
46.93000 194.394
46.94000 202.705
46.95000 210.852
46.96000 208.644
46.97000 201.656
46.98000 195.033
46.99000 193.664
47.00000 194.014
47.01000 194.649
47.02000 197.559
47.03000 200.959
47.04000 203.845
47.05000 199.428
47.06000 194.894
47.07000 190.771
47.08000 187.983
47.09000 185.296
47.10000 185.642
47.11000 192.572
47.12000 199.731
47.13000 203.976
47.14000 200.393
47.15000 197.814
47.16000 195.021
47.17000 192.032
47.18000 189.058
47.19000 187.045
47.20000 185.611
47.21000 184.224
47.22000 187.964
47.23000 193.451
47.24000 198.072
47.25000 193.477
47.26000 186.399
47.27000 180.568
47.28000 182.561
47.29000 185.918
47.30000 188.658
47.31000 192.410
47.32000 195.568
47.33000 197.805
47.34000 197.583
47.35000 197.226
47.36000 195.800
47.37000 192.456
47.38000 189.073
47.39000 187.242
47.40000 185.893
47.41000 184.978
47.42000 185.779
47.43000 187.866
47.44000 189.893
47.45000 189.798
47.46000 188.647
47.47000 187.552
47.48000 189.271
47.49000 191.731
47.50000 193.672
47.51000 191.371
47.52000 188.136
47.53000 185.922
47.54000 188.855
47.55000 192.502
47.56000 195.349
47.57000 193.676
47.58000 192.056
47.59000 190.369
47.60000 188.534
47.61000 186.694
47.62000 185.122
47.63000 183.945
47.64000 182.772
47.65000 182.681
47.66000 183.614
47.67000 184.545
47.68000 185.407
47.69000 186.226
47.70000 186.997
47.71000 186.728
47.72000 186.031
47.73000 185.380
47.74000 186.076
47.75000 187.042
47.76000 187.366
47.77000 183.569
47.78000 179.037
47.79000 175.168
47.80000 174.018
47.81000 173.161
47.82000 172.524
47.83000 176.403
47.84000 179.615
47.85000 182.207
47.86000 183.665
47.87000 185.098
47.88000 184.849
47.89000 182.579
47.90000 180.311
47.91000 181.311
47.92000 184.791
47.93000 188.170
47.94000 187.759
47.95000 185.428
47.96000 183.310
47.97000 184.457
47.98000 186.713
47.99000 188.768
48.00000 193.016
48.01000 197.215
48.02000 200.417
48.03000 198.487
48.04000 195.829
48.05000 193.276
48.06000 191.073
48.07000 188.899
48.08000 187.376
48.09000 188.720
48.10000 189.818
48.11000 188.087
48.12000 182.101
48.13000 176.073
48.14000 175.176
48.15000 179.241
48.16000 183.274
48.17000 187.632
48.18000 192.114
48.19000 196.328
48.20000 194.343
48.21000 189.762
48.22000 185.490
48.23000 184.695
48.24000 184.873
48.25000 185.031
48.26000 181.033
48.27000 176.920
48.28000 173.564
48.29000 173.376
48.30000 173.539
48.31000 174.032
48.32000 175.441
48.33000 176.904
48.34000 177.863
48.35000 182.325
48.36000 185.665
48.37000 185.883
48.38000 182.272
48.39000 178.662
48.40000 177.808
48.41000 179.106
48.42000 180.383
48.43000 175.010
48.44000 166.492
48.45000 158.848
48.46000 165.095
48.47000 176.150
48.48000 186.172
48.49000 187.344
48.50000 186.487
48.51000 185.752
48.52000 184.818
48.53000 184.005
48.54000 181.833
48.55000 174.999
48.56000 167.775
48.57000 165.867
48.58000 176.171
48.59000 186.958
48.60000 193.514
48.61000 183.684
48.62000 176.539
48.63000 174.998
48.64000 178.996
48.65000 182.954
48.66000 183.609
48.67000 182.156
48.68000 180.744
48.69000 181.771
48.70000 183.736
48.71000 185.486
48.72000 184.741
48.73000 183.285
48.74000 182.220
48.75000 183.777
48.76000 185.822
48.77000 187.511
48.78000 183.757
48.79000 180.153
48.80000 176.189
48.81000 171.207
48.82000 166.162
48.83000 165.442
48.84000 172.932
48.85000 180.619
48.86000 184.898
48.87000 175.562
48.88000 169.101
48.89000 170.416
48.90000 177.929
48.91000 185.268
48.92000 185.316
48.93000 181.530
48.94000 177.907
48.95000 176.254
48.96000 175.362
48.97000 174.359
48.98000 172.377
48.99000 170.168
49.00000 168.690
49.01000 171.145
49.02000 174.184
49.03000 176.590
49.04000 174.875
49.05000 173.211
49.06000 172.464
49.07000 173.862
49.08000 175.348
49.09000 175.595
49.10000 173.906
49.11000 172.195
49.12000 171.334
49.13000 171.172
49.14000 171.053
49.15000 170.033
49.16000 168.425
49.17000 167.094
49.18000 172.710
49.19000 181.346
49.20000 189.455
49.21000 186.880
49.22000 181.697
49.23000 176.868
49.24000 174.470
49.25000 172.534
49.26000 170.449
49.27000 167.718
49.28000 164.912
49.29000 162.796
49.30000 171.446
49.31000 178.750
49.32000 181.422
49.33000 175.134
49.34000 168.619
49.35000 167.572
49.36000 173.513
49.37000 179.471
49.38000 180.001
49.39000 176.129
49.40000 172.320
49.41000 171.255
49.42000 171.660
49.43000 172.207
49.44000 175.151
49.45000 178.956
49.46000 182.448
49.47000 178.788
49.48000 174.002
49.49000 170.197
49.50000 171.769
49.51000 174.159
49.52000 174.556
49.53000 167.848
49.54000 160.509
49.55000 155.276
49.56000 160.758
49.57000 165.290
49.58000 168.260
49.59000 168.739
49.60000 169.187
49.61000 169.089
49.62000 168.428
49.63000 167.770
49.64000 168.884
49.65000 171.144
49.66000 173.281
49.67000 172.219
49.68000 169.740
49.69000 167.445
49.70000 167.408
49.71000 168.041
49.72000 168.607
49.73000 170.501
49.74000 172.376
49.75000 173.958
49.76000 174.243
49.77000 174.373
49.78000 174.757
49.79000 175.887
49.80000 177.067
49.81000 177.856
49.82000 176.440
49.83000 175.346
49.84000 171.709
49.85000 164.755
49.86000 157.803
49.87000 158.427
49.88000 165.342
49.89000 172.164
49.90000 173.614
49.91000 172.173
49.92000 170.858
49.93000 171.781
49.94000 173.523
49.95000 175.105
49.96000 175.216
49.97000 174.969
49.98000 174.754
49.99000 178.685
50.00000 182.577
50.01000 185.891
50.02000 187.104
50.03000 188.125
50.04000 187.742
50.05000 183.950
50.06000 180.004
50.07000 177.549
50.08000 175.981
50.09000 174.860
50.10000 175.136
50.11000 176.885
50.12000 178.606
50.13000 177.280
50.14000 173.891
50.15000 170.584
50.16000 166.887
50.17000 163.187
50.18000 160.044
50.19000 163.957
50.20000 170.001
50.21000 175.039
50.22000 172.833
50.23000 169.192
50.24000 166.149
50.25000 176.954
50.26000 187.332
50.27000 193.941
50.28000 189.264
50.29000 183.829
50.30000 179.405
50.31000 177.010
50.32000 174.672
50.33000 173.334
50.34000 175.082
50.35000 176.310
50.36000 175.609
50.37000 173.272
50.38000 171.061
50.39000 175.123
50.40000 182.676
50.41000 189.939
50.42000 187.133
50.43000 180.983
50.44000 175.414
50.45000 175.370
50.46000 176.697
50.47000 178.721
50.48000 184.732
50.49000 191.377
50.50000 196.708
50.51000 193.142
50.52000 189.580
50.53000 186.975
50.54000 186.739
50.55000 186.615
50.56000 186.056
50.57000 184.778
50.58000 183.490
50.59000 182.822
50.60000 184.722
50.61000 186.006
50.62000 187.461
50.63000 189.032
50.64000 190.660
50.65000 193.907
50.66000 197.897
50.67000 201.667
50.68000 204.351
50.69000 206.508
50.70000 207.513
50.71000 200.035
50.72000 190.842
50.73000 183.869
50.74000 187.167
50.75000 191.752
50.76000 195.262
50.77000 200.056
50.78000 203.910
50.79000 205.887
50.80000 204.025
50.81000 202.049
50.82000 198.115
50.83000 191.526
50.84000 184.925
50.85000 187.423
50.86000 197.778
50.87000 207.954
50.88000 208.629
50.89000 203.915
50.90000 199.221
50.91000 194.921
50.92000 190.770
50.93000 186.933
50.94000 188.036
50.95000 190.148
50.96000 192.371
50.97000 195.236
50.98000 198.205
50.99000 198.529
51.00000 188.853
51.01000 178.213
51.02000 170.494
51.03000 179.063
51.04000 186.257
51.05000 190.123
51.06000 188.373
51.07000 186.532
51.08000 184.037
51.09000 180.823
51.10000 177.623
51.11000 177.599
51.12000 179.788
51.13000 181.913
51.14000 182.071
51.15000 181.309
51.16000 180.453
51.17000 178.324
51.18000 175.796
51.19000 173.518
51.20000 168.151
51.21000 162.882
51.22000 158.302
51.23000 156.976
51.24000 156.068
51.25000 156.578
51.26000 161.497
51.27000 166.732
51.28000 170.306
51.29000 170.936
51.30000 171.339
51.31000 171.123
51.32000 170.050
51.33000 168.973
51.34000 167.879
51.35000 166.770
51.36000 165.675
51.37000 165.316
51.38000 165.383
51.39000 165.566
51.40000 168.039
51.41000 171.400
51.42000 174.302
51.43000 172.607
51.44000 169.726
51.45000 167.207
51.46000 166.640
51.47000 166.432
51.48000 165.830
51.49000 163.711
51.50000 161.440
51.51000 161.629
51.52000 168.132
51.53000 174.954
51.54000 179.295
51.55000 172.854
51.56000 168.038
51.57000 165.417
51.58000 165.263
51.59000 165.098
51.60000 162.845
51.61000 159.094
51.62000 155.421
51.63000 155.324
51.64000 156.871
51.65000 158.339
51.66000 158.717
51.67000 158.747
51.68000 158.797
51.69000 158.994
51.70000 159.223
51.71000 159.417
51.72000 161.990
51.73000 164.404
51.74000 164.776
51.75000 158.681
51.76000 152.107
51.77000 148.478
51.78000 151.101
51.79000 153.929
51.80000 155.590
51.81000 164.713
51.82000 171.175
51.83000 169.278
51.84000 159.831
51.85000 150.550
51.86000 151.350
51.87000 158.089
51.88000 164.600
51.89000 166.538
51.90000 166.664
51.91000 166.697
51.92000 165.770
51.93000 164.590
51.94000 163.113
51.95000 159.813
51.96000 156.204
51.97000 153.273
51.98000 151.929
51.99000 150.966
52.00000 152.112
52.01000 158.781
52.02000 165.740
52.03000 168.995
52.04000 165.757
52.05000 162.398
52.06000 160.602
52.07000 158.574
52.08000 157.199
52.09000 157.342
52.10000 158.597
52.11000 159.843
52.12000 160.780
52.13000 161.567
52.14000 162.314
52.15000 159.537
52.16000 155.911
52.17000 153.098
52.18000 156.718
52.19000 161.720
52.20000 165.758
52.21000 165.047
52.22000 163.696
52.23000 162.648
52.24000 162.013
52.25000 161.534
52.26000 161.954
52.27000 164.319
52.28000 166.751
52.29000 165.887
52.30000 160.275
52.31000 154.627
52.32000 152.967
52.33000 154.985
52.34000 156.989
52.35000 158.077
52.36000 158.615
52.37000 159.097
52.38000 158.377
52.39000 157.174
52.40000 156.055
52.41000 156.222
52.42000 156.685
52.43000 156.064
52.44000 148.665
52.45000 140.090
52.46000 134.707
52.47000 142.113
52.48000 150.857
52.49000 157.306
52.50000 158.531
52.51000 159.260
52.52000 160.285
52.53000 161.837
52.54000 163.399
52.55000 164.569
52.56000 165.278
52.57000 165.985
52.58000 160.837
52.59000 151.383
52.60000 142.217
52.61000 143.114
52.62000 148.995
52.63000 154.758
52.64000 158.794
52.65000 162.256
52.66000 165.400
52.67000 163.090
52.68000 159.992
52.69000 157.285
52.70000 156.538
52.71000 156.062
52.72000 156.043
52.73000 157.525
52.74000 159.124
52.75000 160.237
52.76000 156.417
52.77000 153.403
52.78000 153.130
52.79000 156.883
52.80000 160.671
52.81000 159.225
52.82000 152.849
52.83000 146.528
52.84000 147.566
52.85000 153.004
52.86000 158.255
52.87000 159.414
52.88000 158.896
52.89000 158.244
52.90000 156.130
52.91000 153.617
52.92000 151.398
52.93000 151.227
52.94000 151.392
52.95000 151.460
52.96000 151.132
52.97000 150.760
52.98000 150.957
52.99000 152.698
53.00000 154.526
53.01000 155.715
53.02000 160.676
53.03000 164.369
53.04000 164.111
53.05000 159.123
53.06000 154.138
53.07000 151.986
53.08000 151.996
53.09000 152.006
53.10000 152.548
53.11000 153.331
53.12000 154.260
53.13000 157.415
53.14000 161.325
53.15000 164.152
53.16000 157.977
53.17000 149.786
53.18000 142.791
53.19000 148.547
53.20000 154.913
53.21000 159.325
53.22000 157.183
53.23000 154.511
53.24000 153.353
53.25000 155.595
53.26000 157.964
53.27000 159.391
53.28000 159.612
53.29000 159.760
53.30000 160.794
53.31000 162.679
53.32000 164.553
53.33000 165.542
53.34000 165.980
53.35000 166.404
53.36000 163.217
53.37000 158.765
53.38000 154.897
53.39000 157.552
53.40000 162.026
53.41000 165.619
53.42000 163.452
53.43000 160.241
53.44000 157.600
53.45000 163.657
53.46000 169.421
53.47000 172.209
53.48000 166.759
53.49000 160.830
53.50000 157.922
53.51000 160.622
53.52000 163.447
53.53000 165.002
53.54000 168.332
53.55000 170.621
53.56000 170.749
53.57000 169.197
53.58000 167.601
53.59000 164.317
53.60000 160.166
53.61000 156.201
53.62000 158.466
53.63000 162.568
53.64000 166.194
53.65000 165.760
53.66000 164.399
53.67000 162.387
53.68000 156.970
53.69000 151.060
53.70000 146.406
53.71000 154.281
53.72000 161.427
53.73000 165.285
53.74000 161.616
53.75000 157.652
53.76000 156.284
53.77000 158.880
53.78000 161.519
53.79000 161.796
53.80000 159.747
53.81000 157.692
53.82000 155.061
53.83000 152.063
53.84000 149.281
53.85000 151.672
53.86000 156.261
53.87000 160.560
53.88000 158.564
53.89000 155.119
53.90000 151.855
53.91000 149.799
53.92000 147.966
53.93000 146.881
53.94000 148.978
53.95000 151.434
53.96000 153.275
53.97000 153.145
53.98000 152.951
53.99000 152.890
54.00000 153.081
54.01000 153.279
54.02000 154.345
54.03000 156.493
54.04000 158.641
54.05000 161.208
54.06000 164.094
54.07000 166.892
54.08000 166.074
54.09000 163.361
54.10000 160.593
54.11000 156.935
54.12000 152.963
54.13000 149.327
54.14000 152.620
54.15000 156.984
54.16000 159.595
54.17000 152.830
54.18000 144.679
54.19000 140.595
54.20000 150.691
54.21000 162.001
54.22000 170.012
54.23000 165.000
54.24000 160.785
54.25000 158.388
54.26000 158.824
54.27000 159.292
54.28000 160.330
54.29000 161.938
54.30000 163.536
54.31000 163.348
54.32000 162.022
54.33000 160.678
54.34000 158.879
54.35000 156.883
54.36000 154.951
54.37000 153.780
54.38000 152.830
54.39000 151.984
54.40000 152.831
54.41000 153.844
54.42000 154.685
54.43000 154.779
54.44000 154.787
54.45000 155.091
54.46000 156.248
54.47000 157.458
54.48000 158.261
54.49000 153.416
54.50000 149.731
54.51000 148.406
54.52000 150.087
54.53000 151.775
54.54000 151.843
54.55000 150.599
54.56000 149.373
54.57000 151.193
54.58000 154.536
54.59000 157.763
54.60000 159.024
54.61000 159.581
54.62000 160.082
54.63000 160.086
54.64000 159.972
54.65000 159.873
54.66000 156.634
54.67000 153.482
54.68000 151.824
54.69000 155.472
54.70000 159.588
54.71000 163.278
54.72000 165.957
54.73000 168.592
54.74000 170.216
54.75000 158.626
54.76000 150.187
54.77000 147.487
54.78000 150.688
54.79000 153.866
54.80000 154.882
54.81000 154.468
54.82000 154.065
54.83000 154.175
54.84000 154.495
54.85000 154.963
54.86000 157.231
54.87000 160.031
54.88000 163.023
54.89000 167.363
54.90000 171.963
54.91000 175.790
54.92000 167.495
54.93000 159.436
54.94000 153.415
54.95000 153.362
54.96000 153.695
54.97000 154.447
54.98000 156.023
54.99000 157.621
55.00000 158.525
55.01000 156.177
55.02000 154.538
55.03000 154.950
55.04000 157.059
55.05000 159.136
55.06000 159.712
55.07000 159.473
55.08000 159.244
55.09000 161.081
55.10000 163.504
55.11000 165.817
55.12000 167.110
55.13000 168.157
55.14000 168.535
55.15000 165.183
55.16000 161.254
55.17000 158.119
55.18000 158.598
55.19000 159.249
55.20000 159.314
55.21000 157.957
55.22000 156.536
55.23000 158.681
55.24000 166.594
55.25000 174.588
55.26000 178.683
55.27000 165.828
55.28000 157.256
55.29000 156.169
55.30000 160.131
55.31000 164.048
55.32000 166.746
55.33000 168.896
55.34000 170.922
55.35000 171.456
55.36000 171.532
55.37000 171.474
55.38000 170.442
55.39000 169.218
55.40000 168.431
55.41000 169.615
55.42000 171.040
55.43000 172.123
55.44000 178.039
55.45000 182.948
55.46000 185.133
55.47000 181.869
55.48000 178.454
55.49000 180.840
55.50000 190.915
55.51000 201.017
55.52000 203.811
55.53000 200.441
55.54000 197.233
55.55000 202.013
55.56000 211.223
55.57000 220.281
55.58000 226.603
55.59000 231.907
55.60000 236.797
55.61000 243.543
55.62000 249.994
55.63000 256.675
55.64000 264.672
55.65000 272.877
55.66000 282.864
55.67000 299.428
55.68000 316.607
55.69000 328.987
55.70000 351.181
55.71000 368.534
55.72000 383.930
55.73000 396.100
55.74000 408.221
55.75000 422.113
55.76000 437.906
55.77000 453.622
55.78000 475.327
55.79000 500.854
55.80000 526.280
55.81000 548.826
55.82000 570.054
55.83000 591.668
55.84000 618.272
55.85000 646.408
55.86000 671.678
55.87000 695.548
55.88000 716.187
55.89000 736.739
55.90000 756.889
55.91000 776.987
55.92000 797.558
55.93000 819.563
55.94000 841.666
55.95000 856.637
55.96000 869.149
55.97000 878.422
55.98000 882.119
55.99000 878.278
56.00000 874.408
56.01000 879.532
56.02000 892.412
56.03000 905.137
56.04000 901.191
56.05000 888.157
56.06000 875.484
56.07000 869.573
56.08000 866.223
56.09000 861.272
56.10000 840.795
56.11000 816.403
56.12000 795.149
56.13000 781.263
56.14000 770.417
56.15000 755.913
56.16000 727.632
56.17000 698.029
56.18000 671.050
56.19000 650.660
56.20000 630.587
56.21000 617.925
56.22000 585.797
56.23000 562.307
56.24000 539.852
56.25000 518.531
56.26000 497.196
56.27000 473.773
56.28000 448.887
56.29000 424.556
56.30000 401.359
56.31000 379.630
56.32000 358.634
56.33000 347.430
56.34000 339.289
56.35000 330.570
56.36000 317.518
56.37000 303.575
56.38000 291.843
56.39000 285.973
56.40000 281.703
56.41000 276.204
56.42000 266.897
56.43000 257.319
56.44000 249.169
56.45000 243.986
56.46000 238.894
56.47000 235.935
56.48000 227.176
56.49000 220.999
56.50000 213.262
56.51000 204.151
56.52000 195.101
56.53000 189.414
56.54000 185.665
56.55000 182.050
56.56000 179.899
56.57000 178.407
56.58000 176.780
56.59000 173.803
56.60000 170.480
56.61000 168.968
56.62000 178.250
56.63000 189.317
56.64000 198.264
56.65000 182.655
56.66000 167.991
56.67000 157.321
56.68000 156.872
56.69000 156.934
56.70000 157.312
56.71000 158.232
56.72000 159.162
56.73000 159.653
56.74000 152.738
56.75000 148.083
56.76000 150.163
56.77000 157.061
56.78000 163.693
56.79000 161.961
56.80000 156.253
56.81000 150.843
56.82000 153.591
56.83000 158.519
56.84000 162.728
56.85000 161.406
56.86000 158.923
56.87000 156.511
56.88000 154.440
56.89000 152.413
56.90000 150.848
56.91000 150.949
56.92000 151.127
56.93000 151.342
56.94000 151.637
56.95000 151.936
56.96000 153.822
56.97000 157.944
56.98000 162.080
56.99000 162.570
57.00000 159.786
57.01000 157.021
57.02000 155.474
57.03000 154.643
57.04000 153.804
57.05000 152.805
57.06000 151.743
57.07000 150.757
57.08000 147.471
57.09000 143.966
57.10000 141.597
57.11000 146.153
57.12000 151.880
57.13000 156.303
57.14000 155.622
57.15000 154.424
57.16000 153.546
57.17000 152.276
57.18000 151.279
57.19000 149.397
57.20000 145.968
57.21000 142.511
57.22000 141.487
57.23000 143.246
57.24000 145.001
57.25000 147.237
57.26000 149.802
57.27000 152.248
57.28000 150.789
57.29000 147.437
57.30000 144.503
57.31000 147.505
57.32000 152.436
57.33000 156.901
57.34000 149.421
57.35000 140.579
57.36000 134.403
57.37000 141.293
57.38000 149.935
57.39000 155.908
57.40000 153.296
57.41000 150.033
57.42000 147.781
57.43000 150.218
57.44000 152.169
57.45000 152.878
57.46000 151.805
57.47000 150.718
57.48000 148.143
57.49000 144.202
57.50000 140.300
57.51000 140.144
57.52000 142.188
57.53000 144.230
57.54000 146.239
57.55000 148.235
57.56000 149.888
57.57000 147.934
57.58000 145.017
57.59000 142.451
57.60000 143.065
57.61000 144.067
57.62000 144.168
57.63000 140.673
57.64000 136.805
57.65000 133.945
57.66000 133.767
57.67000 133.733
57.68000 133.711
57.69000 141.220
57.70000 146.812
57.71000 149.300
57.72000 148.162
57.73000 147.019
57.74000 145.637
57.75000 144.078
57.76000 142.549
57.77000 144.147
57.78000 147.173
57.79000 149.801
57.80000 146.583
57.81000 141.430
57.82000 137.165
57.83000 140.069
57.84000 144.540
57.85000 148.342
57.86000 145.953
57.87000 143.232
57.88000 141.037
57.89000 140.568
57.90000 140.234
57.91000 140.292
57.92000 141.211
57.93000 142.161
57.94000 142.728
57.95000 142.777
57.96000 142.808
57.97000 141.552
57.98000 139.088
57.99000 136.636
58.00000 134.995
58.01000 133.850
58.02000 132.740
58.03000 134.532
58.04000 137.349
58.05000 139.972
58.06000 140.509
58.07000 140.476
58.08000 140.173
58.09000 138.146
58.10000 135.814
58.11000 133.906
58.12000 134.764
58.13000 135.709
58.14000 136.500
58.15000 136.871
58.16000 137.218
58.17000 138.342
58.18000 140.876
58.19000 143.440
58.20000 144.835
58.21000 139.663
58.22000 136.111
58.23000 133.741
58.24000 132.269
58.25000 130.932
58.26000 134.473
58.27000 140.467
58.28000 146.180
58.29000 143.876
58.30000 139.233
58.31000 135.325
58.32000 137.506
58.33000 141.046
58.34000 144.015
58.35000 144.071
58.36000 143.716
58.37000 143.439
58.38000 145.762
58.39000 147.784
58.40000 147.704
58.41000 142.916
58.42000 137.953
58.43000 136.149
58.44000 139.060
58.45000 142.016
58.46000 141.495
58.47000 137.642
58.48000 133.812
58.49000 131.800
58.50000 130.919
58.51000 130.082
58.52000 130.238
58.53000 130.808
58.54000 131.341
58.55000 136.618
58.56000 142.602
58.57000 147.618
58.58000 146.325
58.59000 143.893
58.60000 141.508
58.61000 139.313
58.62000 137.139
58.63000 135.519
58.64000 136.829
58.65000 137.981
58.66000 138.182
58.67000 136.624
58.68000 135.027
58.69000 133.934
58.70000 133.457
58.71000 132.982
58.72000 133.752
58.73000 135.478
58.74000 137.173
58.75000 137.663
58.76000 137.535
58.77000 137.355
58.78000 136.355
58.79000 135.072
58.80000 133.902
58.81000 133.489
58.82000 133.274
58.83000 133.358
58.84000 134.995
58.85000 136.855
58.86000 138.204
58.87000 137.811
58.88000 137.273
58.89000 136.895
58.90000 139.076
58.91000 140.804
58.92000 140.980
58.93000 138.794
58.94000 136.583
58.95000 134.914
58.96000 133.776
58.97000 132.647
58.98000 134.105
58.99000 137.152
59.00000 140.018
59.01000 138.589
59.02000 135.340
59.03000 132.347
59.04000 132.273
59.05000 133.027
59.06000 133.695
59.07000 136.108
59.08000 138.478
59.09000 139.990
59.10000 137.871
59.11000 135.344
59.12000 132.882
59.13000 130.605
59.14000 128.338
59.15000 126.846
59.16000 126.862
59.17000 126.900
59.18000 126.690
59.19000 126.172
59.20000 125.653
59.21000 125.281
59.22000 125.025
59.23000 124.772
59.24000 129.698
59.25000 137.086
59.26000 143.916
59.27000 141.694
59.28000 136.302
59.29000 131.188
59.30000 128.498
59.31000 126.371
59.32000 124.543
59.33000 128.304
59.34000 132.182
59.35000 134.906
59.36000 133.625
59.37000 132.003
59.38000 131.205
59.39000 132.324
59.40000 133.521
59.41000 134.252
59.42000 138.352
59.43000 141.313
59.44000 138.087
59.45000 128.665
59.46000 119.325
59.47000 117.252
59.48000 119.875
59.49000 122.426
59.50000 125.635
59.51000 128.959
59.52000 132.328
59.53000 136.231
59.54000 140.288
59.55000 143.081
59.56000 137.256
59.57000 129.809
59.58000 123.641
59.59000 126.884
59.60000 130.456
59.61000 131.460
59.62000 125.110
59.63000 118.304
59.64000 114.418
59.65000 116.142
59.66000 118.005
59.67000 119.048
59.68000 119.346
59.69000 119.552
59.70000 120.421
59.71000 121.825
59.72000 123.265
59.73000 126.226
59.74000 129.996
59.75000 133.608
59.76000 133.297
59.77000 131.700
59.78000 130.172
59.79000 129.248
59.80000 128.467
59.81000 128.321
59.82000 131.626
59.83000 135.452
59.84000 138.489
59.85000 137.862
59.86000 137.098
59.87000 137.373
59.88000 140.105
59.89000 142.942
59.90000 142.458
59.91000 136.718
59.92000 130.913
59.93000 127.977
59.94000 126.667
59.95000 125.816
59.96000 127.459
59.97000 130.745
59.98000 133.924
59.99000 134.338
60.00000 133.535
60.01000 132.781
60.02000 132.395
60.03000 132.141
60.04000 132.055
60.05000 133.149
60.06000 134.468
60.07000 135.442
60.08000 134.889
60.09000 134.155
60.10000 133.600
60.11000 130.997
60.12000 128.853
60.13000 126.947
60.14000 125.507
60.15000 124.080
60.16000 126.864
60.17000 135.097
60.18000 143.341
60.19000 143.977
60.20000 138.360
60.21000 132.831
60.22000 131.346
60.23000 132.054
60.24000 132.721
60.25000 132.685
60.26000 132.392
60.27000 132.124
60.28000 130.278
60.29000 128.289
60.30000 126.766
60.31000 127.831
60.32000 129.294
60.33000 130.712
60.34000 131.967
60.35000 133.207
60.36000 134.094
60.37000 135.871
60.38000 137.258
60.39000 136.683
60.40000 132.946
60.41000 129.166
60.42000 128.703
60.43000 131.708
60.44000 134.698
60.45000 134.808
60.46000 133.007
60.47000 131.216
60.48000 129.705
60.49000 128.319
60.50000 127.053
60.51000 127.274
60.52000 127.942
60.53000 128.540
60.54000 132.602
60.55000 136.739
60.56000 139.249
60.57000 134.433
60.58000 128.730
60.59000 123.984
60.60000 122.086
60.61000 120.377
60.62000 119.228
60.63000 122.249
60.64000 124.579
60.65000 125.711
60.66000 125.262
60.67000 124.806
60.68000 125.032
60.69000 125.830
60.70000 126.618
60.71000 128.845
60.72000 131.785
60.73000 134.483
60.74000 132.839
60.75000 129.586
60.76000 126.755
60.77000 127.892
60.78000 130.007
60.79000 131.843
60.80000 134.122
60.81000 136.124
60.82000 137.536
60.83000 136.776
60.84000 135.815
60.85000 135.005
60.86000 134.566
60.87000 134.145
60.88000 133.882
60.89000 133.344
60.90000 132.953
60.91000 131.845
60.92000 129.971
60.93000 128.128
60.94000 129.794
60.95000 133.867
60.96000 137.843
60.97000 138.108
60.98000 136.742
60.99000 135.372
61.00000 133.955
61.01000 132.525
61.02000 131.090
61.03000 129.631
61.04000 128.168
61.05000 126.942
61.06000 127.694
61.07000 128.524
61.08000 130.387
61.09000 135.380
61.10000 140.587
61.11000 142.455
61.12000 137.540
61.13000 132.428
61.14000 129.488
61.15000 136.475
61.16000 141.394
61.17000 141.782
61.18000 138.277
61.19000 134.865
61.20000 136.302
61.21000 140.469
61.22000 144.479
61.23000 146.111
61.24000 146.800
61.25000 147.087
61.26000 143.501
61.27000 138.941
61.28000 134.840
61.29000 133.403
61.30000 132.395
61.31000 131.584
61.32000 132.363
61.33000 133.118
61.34000 134.004
61.35000 135.215
61.36000 136.442
61.37000 136.770
61.38000 135.591
61.39000 134.388
61.40000 133.760
61.41000 140.808
61.42000 145.535
61.43000 144.765
61.44000 140.152
61.45000 135.719
61.46000 136.637
61.47000 140.042
61.48000 143.262
61.49000 146.855
61.50000 150.264
61.51000 153.590
61.52000 156.299
61.53000 158.882
61.54000 163.003
61.55000 174.327
61.56000 186.569
61.57000 195.967
61.58000 212.191
61.59000 225.396
61.60000 234.336
61.61000 234.448
61.62000 234.289
61.63000 236.887
61.64000 243.272
61.65000 249.677
61.66000 253.609
61.67000 255.369
61.68000 257.139
61.69000 259.480
61.70000 262.149
61.71000 264.690
61.72000 264.745
61.73000 263.844
61.74000 263.010
61.75000 257.590
61.76000 251.662
61.77000 244.834
61.78000 232.671
61.79000 219.629
61.80000 207.720
61.81000 200.141
61.82000 192.987
61.83000 187.778
61.84000 176.237
61.85000 167.111
61.86000 158.692
61.87000 151.485
61.88000 144.297
61.89000 140.326
61.90000 139.943
61.91000 139.565
61.92000 138.591
61.93000 137.207
61.94000 135.793
61.95000 133.466
61.96000 130.707
61.97000 128.054
61.98000 126.853
61.99000 126.113
62.00000 125.445
62.01000 128.752
62.02000 132.388
62.03000 135.826
62.04000 138.324
62.05000 140.700
62.06000 141.619
62.07000 137.958
62.08000 133.964
62.09000 131.226
62.10000 136.867
62.11000 141.295
62.12000 142.887
62.13000 140.505
62.14000 138.097
62.15000 135.739
62.16000 133.426
62.17000 131.138
62.18000 134.153
62.19000 140.132
62.20000 145.876
62.21000 146.874
62.22000 146.012
62.23000 144.980
62.24000 142.203
62.25000 138.970
62.26000 136.138
62.27000 134.078
62.28000 132.422
62.29000 132.228
62.30000 137.735
62.31000 143.816
62.32000 147.774
62.33000 146.220
62.34000 144.381
62.35000 143.205
62.36000 141.265
62.37000 139.842
62.38000 138.653
62.39000 137.731
62.40000 136.812
62.41000 136.234
62.42000 135.904
62.43000 135.581
62.44000 137.548
62.45000 140.504
62.46000 143.263
62.47000 143.258
62.48000 142.358
62.49000 141.261
62.50000 138.622
62.51000 135.654
62.52000 133.140
62.53000 131.641
62.54000 130.500
62.55000 131.414
62.56000 138.915
62.57000 146.913
62.58000 150.477
62.59000 144.516
62.60000 138.233
62.61000 134.525
62.62000 132.496
62.63000 131.072
62.64000 130.487
62.65000 130.668
62.66000 130.901
62.67000 134.433
62.68000 139.930
62.69000 145.246
62.70000 143.231
62.71000 138.568
62.72000 134.569
62.73000 137.536
62.74000 142.358
62.75000 145.989
62.76000 142.240
62.77000 137.220
62.78000 133.132
62.79000 132.563
62.80000 132.396
62.81000 133.450
62.82000 137.735
62.83000 142.194
62.84000 144.120
62.85000 141.552
62.86000 138.897
62.87000 137.469
62.88000 134.364
62.89000 132.260
62.90000 133.796
62.91000 138.033
62.92000 142.190
62.93000 143.629
62.94000 143.730
62.95000 143.826
62.96000 143.603
62.97000 143.299
62.98000 143.110
62.99000 143.846
63.00000 144.782
63.01000 145.511
63.02000 145.207
63.03000 144.761
63.04000 144.414
63.05000 142.459
63.06000 140.803
63.07000 139.675
63.08000 139.707
63.09000 139.779
63.10000 141.047
63.11000 144.058
63.12000 147.083
63.13000 146.058
63.14000 141.250
63.15000 136.495
63.16000 135.418
63.17000 136.576
63.18000 137.811
63.19000 140.723
63.20000 144.317
63.21000 147.667
63.22000 147.166
63.23000 145.767
63.24000 143.974
63.25000 139.686
63.26000 134.959
63.27000 131.842
63.28000 135.258
63.29000 139.369
63.30000 142.411
63.31000 143.734
63.32000 144.687
63.33000 144.154
63.34000 140.935
63.35000 137.660
63.36000 136.223
63.37000 136.969
63.38000 137.717
63.39000 139.244
63.40000 141.346
63.41000 143.486
63.42000 147.022
63.43000 151.257
63.44000 155.211
63.45000 154.938
63.46000 153.243
63.47000 151.701
63.48000 152.996
63.49000 154.699
63.50000 154.935
63.51000 147.709
63.52000 139.438
63.53000 133.809
63.54000 136.976
63.55000 140.847
63.56000 143.549
63.57000 142.869
63.58000 142.260
63.59000 141.537
63.60000 140.641
63.61000 139.744
63.62000 141.177
63.63000 144.833
63.64000 148.459
63.65000 150.958
63.66000 152.725
63.67000 154.258
63.68000 150.503
63.69000 144.558
63.70000 139.233
63.71000 140.784
63.72000 144.238
63.73000 147.292
63.74000 148.829
63.75000 149.922
63.76000 151.033
63.77000 152.218
63.78000 153.412
63.79000 155.224
63.80000 158.736
63.81000 162.346
63.82000 164.704
63.83000 157.825
63.84000 152.627
63.85000 149.157
63.86000 147.784
63.87000 146.429
63.88000 148.624
63.89000 153.558
63.90000 158.409
63.91000 158.561
63.92000 156.389
63.93000 154.442
63.94000 156.005
63.95000 158.769
63.96000 161.005
63.97000 158.786
63.98000 155.556
63.99000 152.791
64.00000 157.776
64.01000 162.919
64.02000 165.911
64.03000 161.607
64.04000 156.703
64.05000 153.544
64.06000 154.355
64.07000 155.319
64.08000 155.902
64.09000 155.239
64.10000 154.757
64.11000 155.899
64.12000 158.625
64.13000 161.304
64.14000 160.228
64.15000 156.779
64.16000 153.431
64.17000 153.235
64.18000 154.312
64.19000 155.237
64.20000 154.431
64.21000 153.137
64.22000 151.633
64.23000 148.734
64.24000 145.579
64.25000 142.978
64.26000 147.054
64.27000 151.023
64.28000 153.409
64.29000 151.365
64.30000 149.056
64.31000 147.749
64.32000 148.320
64.33000 148.935
64.34000 149.276
64.35000 154.487
64.36000 158.084
64.37000 158.695
64.38000 156.954
64.39000 155.308
64.40000 157.510
64.41000 161.714
64.42000 165.733
64.43000 165.846
64.44000 164.683
64.45000 163.230
64.46000 159.274
64.47000 154.738
64.48000 151.433
64.49000 154.656
64.50000 158.836
64.51000 162.137
64.52000 159.162
64.53000 156.347
64.54000 155.110
64.55000 157.527
64.56000 160.091
64.57000 160.908
64.58000 159.024
64.59000 157.110
64.60000 159.658
64.61000 166.657
64.62000 173.589
64.63000 174.654
64.64000 171.942
64.65000 169.242
64.66000 166.851
64.67000 164.592
64.68000 162.474
64.69000 161.937
64.70000 161.863
64.71000 162.511
64.72000 168.065
64.73000 174.539
64.74000 179.185
64.75000 175.961
64.76000 171.835
64.77000 168.732
64.78000 167.081
64.79000 165.859
64.80000 165.674
64.81000 167.473
64.82000 169.321
64.83000 171.098
64.84000 172.785
64.85000 174.468
64.86000 176.842
64.87000 179.759
64.88000 182.613
64.89000 182.795
64.90000 181.562
64.91000 180.403
64.92000 180.490
64.93000 181.021
64.94000 181.507
64.95000 177.197
64.96000 172.352
64.97000 168.058
64.98000 166.753
64.99000 165.897
65.00000 166.254
65.01000 170.896
65.02000 175.912
65.03000 179.477
65.04000 183.583
65.05000 186.726
65.06000 187.348
65.07000 183.995
65.08000 180.594
65.09000 181.429
65.10000 186.582
65.11000 191.703
65.12000 195.016
65.13000 197.113
65.14000 199.161
65.15000 199.980
65.16000 200.261
65.17000 200.633
65.18000 202.105
65.19000 203.899
65.20000 205.499
65.21000 205.042
65.22000 204.301
65.23000 204.157
65.24000 206.635
65.25000 209.421
65.26000 212.576
65.27000 216.802
65.28000 221.097
65.29000 223.961
65.30000 219.496
65.31000 216.049
65.32000 217.706
65.33000 225.942
65.34000 234.183
65.35000 233.780
65.36000 226.281
65.37000 218.888
65.38000 222.809
65.39000 232.555
65.40000 241.985
65.41000 245.956
65.42000 247.950
65.43000 250.605
65.44000 259.285
65.45000 269.414
65.46000 278.172
65.47000 270.811
65.48000 262.455
65.49000 258.438
65.50000 270.024
65.51000 283.010
65.52000 291.754
65.53000 290.299
65.54000 288.397
65.55000 287.219
65.56000 296.944
65.57000 304.042
65.58000 310.430
65.59000 316.079
65.60000 321.738
65.61000 328.405
65.62000 335.748
65.63000 342.906
65.64000 354.152
65.65000 366.628
65.66000 379.164
65.67000 392.433
65.68000 405.922
65.69000 422.372
65.70000 459.870
65.71000 501.485
65.72000 536.190
65.73000 586.333
65.74000 629.450
65.75000 677.095
65.76000 738.146
65.77000 800.080
65.78000 853.139
65.79000 888.563
65.80000 923.504
65.81000 943.392
65.82000 988.943
65.83000 1020.747
65.84000 1039.598
65.85000 1047.593
65.86000 1055.597
65.87000 1064.054
65.88000 1072.761
65.89000 1081.126
65.90000 1073.280
65.91000 1060.333
65.92000 1045.619
65.93000 1014.374
65.94000 979.072
65.95000 942.889
65.96000 901.722
65.97000 859.772
65.98000 826.206
65.99000 746.354
66.00000 678.331
66.01000 614.333
66.02000 560.186
66.03000 506.489
66.04000 460.301
66.05000 426.413
66.06000 392.703
66.07000 375.318
66.08000 360.337
66.09000 350.266
66.10000 342.586
66.11000 336.537
66.12000 330.408
66.13000 322.023
66.14000 312.612
66.15000 303.733
66.16000 302.139
66.17000 302.713
66.18000 303.530
66.19000 306.121
66.20000 309.067
66.21000 311.617
66.22000 312.361
66.23000 312.881
66.24000 313.278
66.25000 321.311
66.26000 328.051
66.27000 334.412
66.28000 340.004
66.29000 345.574
66.30000 354.150
66.31000 366.757
66.32000 379.376
66.33000 389.410
66.34000 397.217
66.35000 405.122
66.36000 418.027
66.37000 433.738
66.38000 448.422
66.39000 444.072
66.40000 432.564
66.41000 421.940
66.42000 419.212
66.43000 418.537
66.44000 419.158
66.45000 427.264
66.46000 436.571
66.47000 442.377
66.48000 435.101
66.49000 426.584
66.50000 420.424
66.51000 411.016
66.52000 403.679
66.53000 396.412
66.54000 389.265
66.55000 382.120
66.56000 375.244
66.57000 368.661
66.58000 362.109
66.59000 353.477
66.60000 343.508
66.61000 333.637
66.62000 326.646
66.63000 320.988
66.64000 315.606
66.65000 313.861
66.66000 313.246
66.67000 312.692
66.68000 307.072
66.69000 301.243
66.70000 296.763
66.71000 298.584
66.72000 301.204
66.73000 303.163
66.74000 303.094
66.75000 302.883
66.76000 302.739
66.77000 300.339
66.78000 298.496
66.79000 299.371
66.80000 303.964
66.81000 308.574
66.82000 307.471
66.83000 301.380
66.84000 295.358
66.85000 294.842
66.86000 297.411
66.87000 300.031
66.88000 303.637
66.89000 307.622
66.90000 311.471
66.91000 313.971
66.92000 316.128
66.93000 318.010
66.94000 321.077
66.95000 323.868
66.96000 326.949
66.97000 331.136
66.98000 335.430
66.99000 337.154
67.00000 332.341
67.01000 327.207
67.02000 323.953
67.03000 331.337
67.04000 336.823
67.05000 338.222
67.06000 335.081
67.07000 331.982
67.08000 335.265
67.09000 343.082
67.10000 350.731
67.11000 353.383
67.12000 353.665
67.13000 353.897
67.14000 353.438
67.15000 352.760
67.16000 352.479
67.17000 355.227
67.18000 358.606
67.19000 361.455
67.20000 363.972
67.21000 366.038
67.22000 367.061
67.23000 364.813
67.24000 362.328
67.25000 360.363
67.26000 359.489
67.27000 358.650
67.28000 358.160
67.29000 364.209
67.30000 368.494
67.31000 369.697
67.32000 368.151
67.33000 366.667
67.34000 368.814
67.35000 373.076
67.36000 377.191
67.37000 379.638
67.38000 381.331
67.39000 382.758
67.40000 381.497
67.41000 379.537
67.42000 378.637
67.43000 384.142
67.44000 390.722
67.45000 396.055
67.46000 407.633
67.47000 417.575
67.48000 423.736
67.49000 420.108
67.50000 415.979
67.51000 410.968
67.52000 404.429
67.53000 397.862
67.54000 394.370
67.55000 396.320
67.56000 397.660
67.57000 400.645
67.58000 404.819
67.59000 408.960
67.60000 411.986
67.61000 414.476
67.62000 416.838
67.63000 418.309
67.64000 419.400
67.65000 420.814
67.66000 424.744
67.67000 429.209
67.68000 432.988
67.69000 433.433
67.70000 433.434
67.71000 433.436
67.72000 434.547
67.73000 435.495
67.74000 436.929
67.75000 439.404
67.76000 441.914
67.77000 443.448
67.78000 443.589
67.79000 443.721
67.80000 447.358
67.81000 454.185
67.82000 460.951
67.83000 463.885
67.84000 464.541
67.85000 465.422
67.86000 470.954
67.87000 478.337
67.88000 485.199
67.89000 477.946
67.90000 468.018
67.91000 461.221
67.92000 473.752
67.93000 489.597
67.94000 502.238
67.95000 502.180
67.96000 500.815
67.97000 499.811
67.98000 501.765
67.99000 503.398
68.00000 503.499
68.01000 500.895
68.02000 498.238
68.03000 496.006
68.04000 494.266
68.05000 492.532
68.06000 499.828
68.07000 513.688
68.08000 527.386
68.09000 535.543
68.10000 540.986
68.11000 545.721
68.12000 540.211
68.13000 531.332
68.14000 523.280
68.15000 526.917
68.16000 532.361
68.17000 538.622
68.18000 548.933
68.19000 559.796
68.20000 567.140
68.21000 563.027
68.22000 558.030
68.23000 554.567
68.24000 559.043
68.25000 562.622
68.26000 564.670
68.27000 564.496
68.28000 564.306
68.29000 568.937
68.30000 578.057
68.31000 587.093
68.32000 598.343
68.33000 610.684
68.34000 622.965
68.35000 633.964
68.36000 644.444
68.37000 653.842
68.38000 651.658
68.39000 646.340
68.40000 641.654
68.41000 648.493
68.42000 656.127
68.43000 664.153
68.44000 673.764
68.45000 683.543
68.46000 690.518
68.47000 689.958
68.48000 688.983
68.49000 688.351
68.50000 717.449
68.51000 739.183
68.52000 752.290
68.53000 755.191
68.54000 758.109
68.55000 768.164
68.56000 783.601
68.57000 798.754
68.58000 813.532
68.59000 827.606
68.60000 843.483
68.61000 886.347
68.62000 938.248
68.63000 988.354
68.64000 1023.729
68.65000 1055.844
68.66000 1083.219
68.67000 1123.724
68.68000 1159.338
68.69000 1199.391
68.70000 1254.176
68.71000 1310.133
68.72000 1363.957
68.73000 1413.042
68.74000 1461.953
68.75000 1491.261
68.76000 1541.916
68.77000 1578.029
68.78000 1627.391
68.79000 1689.356
68.80000 1751.323
68.81000 1813.468
68.82000 1875.724
68.83000 1936.077
68.84000 2030.535
68.85000 2133.334
68.86000 2238.690
68.87000 2372.177
68.88000 2513.424
68.89000 2678.802
68.90000 2999.945
68.91000 3348.968
68.92000 3635.319
68.93000 4800.309
68.94000 5834.597
68.95000 7244.738
68.96000 9684.091
68.97000 12182.229
68.98000 15180.468
68.99000 19097.031
69.00000 23033.428
69.01000 25188.861
69.02000 31181.758
69.03000 35305.418
69.04000 38805.980
69.05000 41827.195
69.06000 44815.254
69.07000 46553.453
69.08000 47655.758
69.09000 48707.387
69.10000 49264.398
69.11000 49624.730
69.12000 49991.484
69.13000 50412.285
69.14000 50845.285
69.15000 51290.816
69.16000 51801.207
69.17000 52320.852
69.18000 52728.961
69.19000 52675.520
69.20000 52602.516
69.21000 51982.047
69.22000 50121.797
69.23000 48214.070
69.24000 45817.484
69.25000 42682.465
69.26000 39540.031
69.27000 36762.191
69.28000 34338.879
69.29000 31924.008
69.30000 30172.957
69.31000 28839.668
69.32000 27528.473
69.33000 26733.604
69.34000 26155.914
69.35000 25615.477
69.36000 24974.063
69.37000 24365.563
69.38000 23685.244
69.39000 22530.736
69.40000 21289.516
69.41000 19900.215
69.42000 17888.311
69.43000 15807.103
69.44000 14252.104
69.45000 11619.920
69.46000 9518.263
69.47000 7700.820
69.48000 6415.221
69.49000 5141.811
69.50000 4156.829
69.51000 3527.389
69.52000 2900.149
69.53000 2467.381
69.54000 2188.702
69.55000 1912.776
69.56000 1746.453
69.57000 1636.949
69.58000 1529.255
69.59000 1450.505
69.60000 1381.822
69.61000 1319.055
69.62000 1263.192
69.63000 1214.984
69.64000 1168.309
69.65000 1129.735
69.66000 1092.343
69.67000 1057.829
69.68000 1033.236
69.69000 1009.480
69.70000 992.712
69.71000 957.954
69.72000 931.029
69.73000 910.145
69.74000 898.562
69.75000 887.083
69.76000 864.113
69.77000 829.730
69.78000 795.590
69.79000 775.946
69.80000 765.769
69.81000 755.586
69.82000 745.271
69.83000 734.900
69.84000 725.502
69.85000 727.446
69.86000 732.641
69.87000 737.260
69.88000 713.502
69.89000 688.286
69.90000 668.401
69.91000 671.382
69.92000 676.975
69.93000 679.060
69.94000 671.173
69.95000 662.676
69.96000 657.056
69.97000 655.494
69.98000 654.414
69.99000 644.883
70.00000 624.720
