20.00000 577.435
20.01000 573.208
20.02000 568.377
20.03000 564.996
20.04000 567.214
20.05000 569.989
20.06000 572.015
20.07000 568.911
20.08000 566.317
20.09000 566.999
20.10000 573.332
20.11000 579.765
20.12000 582.153
20.13000 579.982
20.14000 577.814
20.15000 570.596
20.16000 559.837
20.17000 549.426
20.18000 550.063
20.19000 555.985
20.20000 561.707
20.21000 564.650
20.22000 566.701
20.23000 568.555
20.24000 565.057
20.25000 560.986
20.26000 557.907
20.27000 559.620
20.28000 561.967
20.29000 563.485
20.30000 562.373
20.31000 561.066
20.32000 560.168
20.33000 556.567
20.34000 553.798
20.35000 556.066
20.36000 565.465
20.37000 574.909
20.38000 574.458
20.39000 565.043
20.40000 555.724
20.41000 557.187
20.42000 564.849
20.43000 571.935
20.44000 567.211
20.45000 557.815
20.46000 549.040
20.47000 546.680
20.48000 546.012
20.49000 545.427
20.50000 548.636
20.51000 551.948
20.52000 554.498
20.53000 554.042
20.54000 553.280
20.55000 555.167
20.56000 564.009
20.57000 573.216
20.58000 579.124
20.59000 576.897
20.60000 575.162
20.61000 569.560
20.62000 559.504
20.63000 549.467
20.64000 543.699
20.65000 541.068
20.66000 538.488
20.67000 539.628
20.68000 542.469
20.69000 545.064
20.70000 544.123
20.71000 542.025
20.72000 541.300
20.73000 551.482
20.74000 564.014
20.75000 574.648
20.76000 567.867
20.77000 560.207
20.78000 555.133
20.79000 558.434
20.80000 562.376
20.81000 564.545
20.82000 562.867
20.83000 561.057
20.84000 559.983
20.85000 554.227
20.86000 550.131
20.87000 552.330
20.88000 560.352
20.89000 568.243
20.90000 567.516
20.91000 561.599
20.92000 555.873
20.93000 553.924
20.94000 553.521
20.95000 552.980
20.96000 550.967
20.97000 548.558
20.98000 545.922
20.99000 541.857
21.00000 537.543
21.01000 534.022
21.02000 531.689
21.03000 529.882
21.04000 530.238
21.05000 536.374
21.06000 542.825
21.07000 546.585
21.08000 545.520
21.09000 544.360
21.10000 543.732
21.11000 546.318
21.12000 548.081
21.13000 547.577
21.14000 545.375
21.15000 543.286
21.16000 545.225
21.17000 549.163
21.18000 552.912
21.19000 550.676
21.20000 546.761
21.21000 542.633
21.22000 536.777
21.23000 530.541
21.24000 526.014
21.25000 530.096
21.26000 535.369
21.27000 539.486
21.28000 559.906
21.29000 577.217
21.30000 584.494
21.31000 569.591
21.32000 553.885
21.33000 543.048
21.34000 539.382
21.35000 535.780
21.36000 537.783
21.37000 545.081
21.38000 552.259
21.39000 550.868
21.40000 544.218
21.41000 537.986
21.42000 541.036
21.43000 547.896
21.44000 554.297
21.45000 553.593
21.46000 551.189
21.47000 548.658
21.48000 545.305
21.49000 541.806
21.50000 538.734
21.51000 537.411
21.52000 536.276
21.53000 535.433
21.54000 537.941
21.55000 540.036
21.56000 541.508
21.57000 541.841
21.58000 542.150
21.59000 545.388
21.60000 552.144
21.61000 558.890
21.62000 561.666
21.63000 561.408
21.64000 560.893
21.65000 550.903
21.66000 536.118
21.67000 522.446
21.68000 525.835
21.69000 535.016
21.70000 543.379
21.71000 548.650
21.72000 552.703
21.73000 555.330
21.74000 550.621
21.75000 544.872
21.76000 540.188
21.77000 539.084
21.78000 538.271
21.79000 537.702
21.80000 547.333
21.81000 554.908
21.82000 560.663
21.83000 563.684
21.84000 566.678
21.85000 566.488
21.86000 563.224
21.87000 559.986
21.88000 564.816
21.89000 574.521
21.90000 583.989
21.91000 587.988
21.92000 589.699
21.93000 591.482
21.94000 594.072
21.95000 596.889
21.96000 599.384
21.97000 603.097
21.98000 606.501
21.99000 607.054
22.00000 595.692
22.01000 583.014
22.02000 575.002
22.03000 579.938
22.04000 585.633
22.05000 589.366
22.06000 602.879
22.07000 612.977
22.08000 615.685
22.09000 609.336
22.10000 603.002
22.11000 606.481
22.12000 617.617
22.13000 628.569
22.14000 628.803
22.15000 623.682
22.16000 618.932
22.17000 620.058
22.18000 623.217
22.19000 624.925
22.20000 614.212
22.21000 600.654
22.22000 589.030
22.23000 583.274
22.24000 579.131
22.25000 575.031
22.26000 571.079
22.27000 567.140
22.28000 565.151
22.29000 567.638
22.30000 570.301
22.31000 571.919
22.32000 574.671
22.33000 576.643
22.34000 575.460
22.35000 571.160
22.36000 566.856
22.37000 562.099
22.38000 557.054
22.39000 552.152
22.40000 547.187
22.41000 542.444
22.42000 538.213
22.43000 539.901
22.44000 543.277
22.45000 546.067
22.46000 544.924
22.47000 543.050
22.48000 541.503
22.49000 531.072
22.50000 521.646
22.51000 517.112
22.52000 526.414
22.53000 536.554
22.54000 543.422
22.55000 544.086
22.56000 544.602
22.57000 544.889
22.58000 544.822
22.59000 544.761
22.60000 540.653
22.61000 533.320
22.62000 526.130
22.63000 524.847
22.64000 526.668
22.65000 528.411
22.66000 526.161
22.67000 522.755
22.68000 519.474
22.69000 517.286
22.70000 515.353
22.71000 514.777
22.72000 521.476
22.73000 529.254
22.74000 535.410
22.75000 534.495
22.76000 533.270
22.77000 529.462
22.78000 519.614
22.79000 509.518
22.80000 504.772
22.81000 508.384
22.82000 512.094
22.83000 513.958
22.84000 511.812
22.85000 510.371
22.86000 508.268
22.87000 505.734
22.88000 503.141
22.89000 499.048
22.90000 494.303
22.91000 489.849
22.92000 500.034
22.93000 513.200
22.94000 524.853
22.95000 526.119
22.96000 525.416
22.97000 524.383
22.98000 521.914
22.99000 519.279
23.00000 517.292
23.01000 520.699
23.02000 523.631
23.03000 521.399
23.04000 509.186
23.05000 496.721
23.06000 490.772
23.07000 493.141
23.08000 495.536
23.09000 499.603
23.10000 505.009
23.11000 510.298
23.12000 510.451
23.13000 507.855
23.14000 505.484
23.15000 506.906
23.16000 509.692
23.17000 512.248
23.18000 499.118
23.19000 484.076
23.20000 473.969
23.21000 490.903
23.22000 511.941
23.23000 526.507
23.24000 518.012
23.25000 507.475
23.26000 499.963
23.27000 497.916
23.28000 496.535
23.29000 495.344
23.30000 494.456
23.31000 493.573
23.32000 499.092
23.33000 511.213
23.34000 523.262
23.35000 522.408
23.36000 513.127
23.37000 504.242
23.38000 505.746
23.39000 511.847
23.40000 517.698
23.41000 520.484
23.42000 522.361
23.43000 524.038
23.44000 510.781
23.45000 496.711
23.46000 486.947
23.47000 496.292
23.48000 507.916
23.49000 516.300
23.50000 515.171
23.51000 513.426
23.52000 512.258
23.53000 501.016
23.54000 492.480
23.55000 492.319
23.56000 503.064
23.57000 513.846
23.58000 519.539
23.59000 521.011
23.60000 522.463
23.61000 520.429
23.62000 516.603
23.63000 512.532
23.64000 504.151
23.65000 494.194
23.66000 485.414
23.67000 487.505
23.68000 492.239
23.69000 496.338
23.70000 499.000
23.71000 501.075
23.72000 500.887
23.73000 492.487
23.74000 483.337
23.75000 479.809
23.76000 489.922
23.77000 500.645
23.78000 507.314
23.79000 510.420
23.80000 512.621
23.81000 511.490
23.82000 506.847
23.83000 502.230
23.84000 500.474
23.85000 500.653
23.86000 500.828
23.87000 498.028
23.88000 494.071
23.89000 490.279
23.90000 488.559
23.91000 487.465
23.92000 487.322
23.93000 494.012
23.94000 502.054
23.95000 508.774
23.96000 509.751
23.97000 509.980
23.98000 509.055
23.99000 504.678
24.00000 500.069
24.01000 493.052
24.02000 481.204
24.03000 469.220
24.04000 462.367
24.05000 471.797
24.06000 478.431
24.07000 482.061
24.08000 483.147
24.09000 484.216
24.10000 484.438
24.11000 484.190
24.12000 483.952
24.13000 487.790
24.14000 492.811
24.15000 497.869
24.16000 503.274
24.17000 508.765
24.18000 512.685
24.19000 507.625
24.20000 501.137
24.21000 495.935
24.22000 495.866
24.23000 496.199
24.24000 495.917
24.25000 494.112
24.26000 492.236
24.27000 493.359
24.28000 499.445
24.29000 505.606
24.30000 508.800
24.31000 495.147
24.32000 485.964
24.33000 481.078
24.34000 479.156
24.35000 477.310
24.36000 477.689
24.37000 479.089
24.38000 480.411
24.39000 481.724
24.40000 482.927
24.41000 483.866
24.42000 482.868
24.43000 481.479
24.44000 481.346
24.45000 487.016
24.46000 493.412
24.47000 498.307
24.48000 500.767
24.49000 502.575
24.50000 501.562
24.51000 494.783
24.52000 487.833
24.53000 481.061
24.54000 474.532
24.55000 468.009
24.56000 471.982
24.57000 485.010
24.58000 497.757
24.59000 495.650
24.60000 485.126
24.61000 475.446
24.62000 481.707
24.63000 494.023
24.64000 505.406
24.65000 500.798
24.66000 493.033
24.67000 485.809
24.68000 481.747
24.69000 478.199
24.70000 475.330
24.71000 475.029
24.72000 474.975
24.73000 474.936
24.74000 473.172
24.75000 471.752
24.76000 471.373
24.77000 472.748
24.78000 474.152
24.79000 474.714
24.80000 474.350
24.81000 473.987
24.82000 476.206
24.83000 480.201
24.84000 484.156
24.85000 486.914
24.86000 489.113
24.87000 490.778
24.88000 485.281
24.89000 477.539
24.90000 470.564
24.91000 473.001
24.92000 476.840
24.93000 480.646
24.94000 484.300
24.95000 487.935
24.96000 489.866
24.97000 486.511
24.98000 482.777
24.99000 480.230
25.00000 481.240
25.01000 482.078
25.02000 481.225
25.03000 478.035
25.04000 474.829
25.05000 471.343
25.06000 467.608
25.07000 463.915
25.08000 462.716
25.09000 462.953
25.10000 463.360
25.11000 467.119
25.12000 472.174
25.13000 477.041
25.14000 480.023
25.15000 482.519
25.16000 484.702
25.17000 483.079
25.18000 481.147
25.19000 479.913
25.20000 481.366
25.21000 483.085
25.22000 484.680
25.23000 485.959
25.24000 487.222
25.25000 488.025
25.26000 484.786
25.27000 482.381
25.28000 477.668
25.29000 470.361
25.30000 463.145
25.31000 470.004
25.32000 486.963
25.33000 503.567
25.34000 493.867
25.35000 472.506
25.36000 452.441
25.37000 450.315
25.38000 453.922
25.39000 457.528
25.40000 461.126
25.41000 464.722
25.42000 467.760
25.43000 465.834
25.44000 463.678
25.45000 461.763
25.46000 460.613
25.47000 459.520
25.48000 458.401
25.49000 457.230
25.50000 456.058
25.51000 455.369
25.52000 462.957
25.53000 468.340
25.54000 464.809
25.55000 453.238
25.56000 441.856
25.57000 441.915
25.58000 448.710
25.59000 455.274
25.60000 454.472
25.61000 450.978
25.62000 447.983
25.63000 450.109
25.64000 453.582
25.65000 457.398
25.66000 463.304
25.67000 469.565
25.68000 474.650
25.69000 466.930
25.70000 459.571
25.71000 455.899
25.72000 461.867
25.73000 468.339
25.74000 470.770
25.75000 466.119
25.76000 461.337
25.77000 458.781
25.78000 464.804
25.79000 468.889
25.80000 468.038
25.81000 463.575
25.82000 459.288
25.83000 460.832
25.84000 465.209
25.85000 469.366
25.86000 465.724
25.87000 460.015
25.88000 454.425
25.89000 449.772
25.90000 445.320
25.91000 442.690
25.92000 449.016
25.93000 456.548
25.94000 462.395
25.95000 464.250
25.96000 465.484
25.97000 466.546
25.98000 467.238
25.99000 467.918
26.00000 465.437
26.01000 458.410
26.02000 451.347
26.03000 448.926
26.04000 450.780
26.05000 452.623
26.06000 453.785
26.07000 454.539
26.08000 455.145
26.09000 452.617
26.10000 448.829
26.11000 445.304
26.12000 444.249
26.13000 443.894
26.14000 443.642
26.15000 444.034
26.16000 444.538
26.17000 445.437
26.18000 447.918
26.19000 450.564
26.20000 452.515
26.21000 451.607
26.22000 450.783
26.23000 449.822
26.24000 448.616
26.25000 447.405
26.26000 448.962
26.27000 453.761
26.28000 458.551
26.29000 459.837
26.30000 458.515
26.31000 457.374
26.32000 462.554
26.33000 470.862
26.34000 478.400
26.35000 474.590
26.36000 467.013
26.37000 460.132
26.38000 456.976
26.39000 454.910
26.40000 453.727
26.41000 456.981
26.42000 460.845
26.43000 462.569
26.44000 457.257
26.45000 451.392
26.46000 447.315
26.47000 450.814
26.48000 453.656
26.49000 456.237
26.50000 458.435
26.51000 460.630
26.52000 462.663
26.53000 464.544
26.54000 466.408
26.55000 465.505
26.56000 462.960
26.57000 460.421
26.58000 458.018
26.59000 455.671
26.60000 453.135
26.61000 448.552
26.62000 443.410
26.63000 438.872
26.64000 439.015
26.65000 439.855
26.66000 439.452
26.67000 433.980
26.68000 427.965
26.69000 425.427
26.70000 432.324
26.71000 439.751
26.72000 444.579
26.73000 451.314
26.74000 456.278
26.75000 459.544
26.76000 460.778
26.77000 461.993
26.78000 459.828
26.79000 455.089
26.80000 450.433
26.81000 444.916
26.82000 439.169
26.83000 433.698
26.84000 432.433
26.85000 432.592
26.86000 433.354
26.87000 439.134
26.88000 446.037
26.89000 451.931
26.90000 453.136
26.91000 453.593
26.92000 453.267
26.93000 450.314
26.94000 447.149
26.95000 444.854
26.96000 444.511
26.97000 444.242
26.98000 444.080
26.99000 440.634
27.00000 438.161
27.01000 438.877
27.02000 442.659
27.03000 446.373
27.04000 444.947
27.05000 440.316
27.06000 435.822
27.07000 437.212
27.08000 440.855
27.09000 443.867
27.10000 439.831
27.11000 433.831
27.12000 429.715
27.13000 437.900
27.14000 448.313
27.15000 456.874
27.16000 448.997
27.17000 441.039
27.18000 434.743
27.19000 433.041
27.20000 431.607
27.21000 432.515
27.22000 437.766
27.23000 443.114
27.24000 446.056
27.25000 446.878
27.26000 447.463
27.27000 453.922
27.28000 464.948
27.29000 475.437
27.30000 465.128
27.31000 444.134
27.32000 424.086
27.33000 423.359
27.34000 428.870
27.35000 434.049
27.36000 436.384
27.37000 438.071
27.38000 439.585
27.39000 440.189
27.40000 440.661
27.41000 441.033
27.42000 437.035
27.43000 433.541
27.44000 431.818
27.45000 434.146
27.46000 436.633
27.47000 436.241
27.48000 431.456
27.49000 426.624
27.50000 426.476
27.51000 430.931
27.52000 435.341
27.53000 435.972
27.54000 434.203
27.55000 432.678
27.56000 437.007
27.57000 443.823
27.58000 450.206
27.59000 444.243
27.60000 435.630
27.61000 428.872
27.62000 434.504
27.63000 442.427
27.64000 447.711
27.65000 441.784
27.66000 434.592
27.67000 429.204
27.68000 424.014
27.69000 419.972
27.70000 418.301
27.71000 421.110
27.72000 424.026
27.73000 421.395
27.74000 411.856
27.75000 402.314
27.76000 402.743
27.77000 411.043
27.78000 419.185
27.79000 420.792
27.80000 418.980
27.81000 417.377
27.82000 419.188
27.83000 422.199
27.84000 424.954
27.85000 430.700
27.86000 436.429
27.87000 441.122
27.88000 440.278
27.89000 438.617
27.90000 437.222
27.91000 436.752
27.92000 436.361
27.93000 436.084
27.94000 431.112
27.95000 427.188
27.96000 421.719
27.97000 413.847
27.98000 405.948
27.99000 407.738
28.00000 419.262
28.01000 430.709
28.02000 434.777
28.03000 434.073
28.04000 433.590
28.05000 438.609
28.06000 446.008
28.07000 452.627
28.08000 450.026
28.09000 444.754
28.10000 440.060
28.11000 429.888
28.12000 420.151
28.13000 413.193
28.14000 418.275
28.15000 424.750
28.16000 430.812
28.17000 435.690
28.18000 440.495
28.19000 443.683
28.20000 433.927
28.21000 426.477
28.22000 420.307
28.23000 415.763
28.24000 411.236
28.25000 411.124
28.26000 414.587
28.27000 417.999
28.28000 422.738
28.29000 428.023
28.30000 433.142
28.31000 435.437
28.32000 436.722
28.33000 438.194
28.34000 441.343
28.35000 444.889
28.36000 447.949
28.37000 446.148
28.38000 443.998
28.39000 441.229
28.40000 436.266
28.41000 431.110
28.42000 427.387
28.43000 427.064
28.44000 426.887
28.45000 426.777
28.46000 428.509
28.47000 429.768
28.48000 428.940
28.49000 425.969
28.50000 422.962
28.51000 416.432
28.52000 407.574
28.53000 398.946
28.54000 400.642
28.55000 406.597
28.56000 412.397
28.57000 416.299
28.58000 419.641
28.59000 422.113
28.60000 418.496
28.61000 413.705
28.62000 409.719
28.63000 416.601
28.64000 423.365
28.65000 427.681
28.66000 424.837
28.67000 421.531
28.68000 417.671
28.69000 412.722
28.70000 407.745
28.71000 404.929
28.72000 403.303
28.73000 402.180
28.74000 403.066
28.75000 405.611
28.76000 408.213
28.77000 413.425
28.78000 420.055
28.79000 426.419
28.80000 429.344
28.81000 430.906
28.82000 431.933
28.83000 428.050
28.84000 422.976
28.85000 419.872
28.86000 427.746
28.87000 437.316
28.88000 444.952
28.89000 430.482
28.90000 417.183
28.91000 408.316
28.92000 410.163
28.93000 412.486
28.94000 412.924
28.95000 410.313
28.96000 407.660
28.97000 406.302
28.98000 411.398
28.99000 414.831
29.00000 419.018
29.01000 423.714
29.02000 428.221
29.03000 427.584
29.04000 424.638
29.05000 421.862
29.06000 419.527
29.07000 417.511
29.08000 415.796
29.09000 416.245
29.10000 417.119
29.11000 417.407
29.12000 415.054
29.13000 412.380
29.14000 410.345
29.15000 407.549
29.16000 405.309
29.17000 407.796
29.18000 419.733
29.19000 431.934
29.20000 434.407
29.21000 424.001
29.22000 413.544
29.23000 411.437
29.24000 416.363
29.25000 421.200
29.26000 421.690
29.27000 419.770
29.28000 418.055
29.29000 420.042
29.30000 423.404
29.31000 426.502
29.32000 419.920
29.33000 411.887
29.34000 405.486
29.35000 408.382
29.36000 412.749
29.37000 415.666
29.38000 413.237
29.39000 410.309
29.40000 408.199
29.41000 410.030
29.42000 411.572
29.43000 412.887
29.44000 413.825
29.45000 414.758
29.46000 416.318
29.47000 418.552
29.48000 420.774
29.49000 413.317
29.50000 399.373
29.51000 385.940
29.52000 387.068
29.53000 394.859
29.54000 402.361
29.55000 406.140
29.56000 408.776
29.57000 411.144
29.58000 412.224
29.59000 412.942
29.60000 412.206
29.61000 404.776
29.62000 396.510
29.63000 391.417
29.64000 395.958
29.65000 401.161
29.66000 404.684
29.67000 402.550
29.68000 400.836
29.69000 402.442
29.70000 408.534
29.71000 414.648
29.72000 418.777
29.73000 421.196
29.74000 423.585
29.75000 418.007
29.76000 408.183
29.77000 398.993
29.78000 401.703
29.79000 408.916
29.80000 415.455
29.81000 415.460
29.82000 413.820
29.83000 412.392
29.84000 408.721
29.85000 405.276
29.86000 403.834
29.87000 409.929
29.88000 416.747
29.89000 420.579
29.90000 416.919
29.91000 412.899
29.92000 410.363
29.93000 419.086
29.94000 425.531
29.95000 425.137
29.96000 417.253
29.97000 409.452
29.98000 413.169
29.99000 424.958
30.00000 436.484
30.01000 443.959
30.02000 449.313
30.03000 453.648
30.04000 444.385
30.05000 430.873
30.06000 418.520
30.07000 414.864
30.08000 412.992
30.09000 411.418
30.10000 409.851
30.11000 408.545
30.12000 409.069
30.13000 415.256
30.14000 421.846
30.15000 425.280
30.16000 422.162
30.17000 418.843
30.18000 416.915
30.19000 414.725
30.20000 413.184
30.21000 410.302
30.22000 406.239
30.23000 402.294
30.24000 404.945
30.25000 411.392
30.26000 417.608
30.27000 417.994
30.28000 416.244
30.29000 414.446
30.30000 412.172
30.31000 409.775
30.32000 407.841
30.33000 408.654
30.34000 409.920
30.35000 410.944
30.36000 412.569
30.37000 413.938
30.38000 414.533
30.39000 413.151
30.40000 411.670
30.41000 413.019
30.42000 419.215
30.43000 425.494
30.44000 428.810
30.45000 427.267
30.46000 426.213
30.47000 424.783
30.48000 423.082
30.49000 421.363
30.50000 419.102
30.51000 416.582
30.52000 414.194
30.53000 416.148
30.54000 419.222
30.55000 421.843
30.56000 420.989
30.57000 419.407
30.58000 417.687
30.59000 415.310
30.60000 412.846
30.61000 410.945
30.62000 411.102
30.63000 411.346
30.64000 411.187
30.65000 410.175
30.66000 409.136
30.67000 411.913
30.68000 420.055
30.69000 428.230
30.70000 432.146
30.71000 432.236
30.72000 432.310
30.73000 431.500
30.74000 430.172
30.75000 428.983
30.76000 430.621
30.77000 433.369
30.78000 435.920
30.79000 435.058
30.80000 433.476
30.81000 432.735
30.82000 437.115
30.83000 442.360
30.84000 446.907
30.85000 448.724
30.86000 450.264
30.87000 451.393
30.88000 438.486
30.89000 427.958
30.90000 426.134
30.91000 439.504
30.92000 453.151
30.93000 465.718
30.94000 477.053
30.95000 488.346
30.96000 491.893
30.97000 489.808
30.98000 487.850
30.99000 490.076
31.00000 494.327
31.01000 498.690
31.02000 504.643
31.03000 511.114
31.04000 516.971
31.05000 524.810
31.06000 532.088
31.07000 540.748
31.08000 556.174
31.09000 572.506
31.10000 589.738
31.11000 609.860
31.12000 630.200
31.13000 644.239
31.14000 692.217
31.15000 729.134
31.16000 759.337
31.17000 779.916
31.18000 800.430
31.19000 840.833
31.20000 899.488
31.21000 957.575
31.22000 997.377
31.23000 1025.645
31.24000 1054.688
31.25000 1099.992
31.26000 1151.805
31.27000 1202.390
31.28000 1240.070
31.29000 1274.303
31.30000 1304.408
31.31000 1353.055
31.32000 1397.665
31.33000 1438.658
31.34000 1465.224
31.35000 1490.291
31.36000 1514.552
31.37000 1536.674
31.38000 1558.681
31.39000 1572.867
31.40000 1557.843
31.41000 1546.455
31.42000 1532.348
31.43000 1515.067
31.44000 1497.768
31.45000 1477.983
31.46000 1456.350
31.47000 1435.129
31.48000 1416.623
31.49000 1400.081
31.50000 1382.129
31.51000 1343.531
31.52000 1298.104
31.53000 1253.661
31.54000 1217.160
31.55000 1182.392
31.56000 1152.826
31.57000 1094.553
31.58000 1042.304
31.59000 992.437
31.60000 950.374
31.61000 908.919
31.62000 869.219
31.63000 833.372
31.64000 797.662
31.65000 776.382
31.66000 746.170
31.67000 724.702
31.68000 696.657
31.69000 662.446
31.70000 628.453
31.71000 609.568
31.72000 599.891
31.73000 590.518
31.74000 576.533
31.75000 561.524
31.76000 546.189
31.77000 527.325
31.78000 507.501
31.79000 489.693
31.80000 484.704
31.81000 481.976
31.82000 479.745
31.83000 474.458
31.84000 469.859
31.85000 463.439
31.86000 452.094
31.87000 440.475
31.88000 434.891
31.89000 440.252
31.90000 445.839
31.91000 448.879
31.92000 445.217
31.93000 442.683
31.94000 437.328
31.95000 429.833
31.96000 422.517
31.97000 421.718
31.98000 424.193
31.99000 426.552
32.00000 422.374
32.01000 416.458
32.02000 411.586
32.03000 415.342
32.04000 421.020
32.05000 424.323
32.06000 415.500
32.07000 404.975
32.08000 396.735
32.09000 398.641
32.10000 400.814
32.11000 401.535
32.12000 399.010
32.13000 396.363
32.14000 394.502
32.15000 393.811
32.16000 393.131
32.17000 395.094
32.18000 399.587
32.19000 403.987
32.20000 401.414
32.21000 394.509
32.22000 387.927
32.23000 388.694
32.24000 392.514
32.25000 396.083
32.26000 392.049
32.27000 386.474
32.28000 381.250
32.29000 378.302
32.30000 375.765
32.31000 374.443
32.32000 378.165
32.33000 382.439
32.34000 385.621
32.35000 386.987
32.36000 387.969
32.37000 388.178
32.38000 386.959
32.39000 385.708
32.40000 384.366
32.41000 382.914
32.42000 381.464
32.43000 383.007
32.44000 386.845
32.45000 390.652
32.46000 393.276
32.47000 395.295
32.48000 397.359
32.49000 400.118
32.50000 403.116
32.51000 405.852
32.52000 399.589
32.53000 392.220
32.54000 386.222
32.55000 387.367
32.56000 389.539
32.57000 390.349
32.58000 386.528
32.59000 382.323
32.60000 379.367
32.61000 365.067
32.62000 353.900
32.63000 352.077
32.64000 364.459
32.65000 376.990
32.66000 383.732
32.67000 384.807
32.68000 385.874
32.69000 382.993
32.70000 377.702
32.71000 372.484
32.72000 369.022
32.73000 366.302
32.74000 363.866
32.75000 364.675
32.76000 366.403
32.77000 367.936
32.78000 370.918
32.79000 373.732
32.80000 378.095
32.81000 389.012
32.82000 400.663
32.83000 411.510
32.84000 420.097
32.85000 428.549
32.86000 434.113
32.87000 435.471
32.88000 436.398
32.89000 436.951
32.90000 437.039
32.91000 437.114
32.92000 433.787
32.93000 427.773
32.94000 421.855
32.95000 420.389
32.96000 421.219
32.97000 422.435
32.98000 429.903
32.99000 439.557
33.00000 447.513
33.01000 440.692
33.02000 430.445
33.03000 421.641
33.04000 418.572
33.05000 416.690
33.06000 410.992
33.07000 392.056
33.08000 371.993
33.09000 359.038
33.10000 362.585
33.11000 366.801
33.12000 369.375
33.13000 359.301
33.14000 351.994
33.15000 349.707
33.16000 352.443
33.17000 355.116
33.18000 352.311
33.19000 345.969
33.20000 339.801
33.21000 339.664
33.22000 342.008
33.23000 344.107
33.24000 343.321
33.25000 341.702
33.26000 340.437
33.27000 341.575
33.28000 343.165
33.29000 344.482
33.30000 342.496
33.31000 340.544
33.32000 337.447
33.33000 331.079
33.34000 324.508
33.35000 321.138
33.36000 323.913
33.37000 326.839
33.38000 328.477
33.39000 338.505
33.40000 345.456
33.41000 346.500
33.42000 342.781
33.43000 339.187
33.44000 341.006
33.45000 345.701
33.46000 350.198
33.47000 347.189
33.48000 341.887
33.49000 336.496
33.50000 330.316
33.51000 323.950
33.52000 318.291
33.53000 316.477
33.54000 315.242
33.55000 314.261
33.56000 323.098
33.57000 330.902
33.58000 335.843
33.59000 334.016
33.60000 331.902
33.61000 331.465
33.62000 333.680
33.63000 335.927
33.64000 337.063
33.65000 334.993
33.66000 333.676
33.67000 338.852
33.68000 348.305
33.69000 357.229
33.70000 352.548
33.71000 341.889
33.72000 331.869
33.73000 332.176
33.74000 335.229
33.75000 338.182
33.76000 340.437
33.77000 342.558
33.78000 343.973
33.79000 342.280
33.80000 340.220
33.81000 338.662
33.82000 334.079
33.83000 330.333
33.84000 327.089
33.85000 324.827
33.86000 322.591
33.87000 321.736
33.88000 322.666
33.89000 323.602
33.90000 324.596
33.91000 325.633
33.92000 326.742
33.93000 331.156
33.94000 337.359
33.95000 343.330
33.96000 345.289
33.97000 345.791
33.98000 346.252
33.99000 344.815
34.00000 343.124
34.01000 341.396
34.02000 339.465
34.03000 337.504
34.04000 334.408
34.05000 327.225
34.06000 319.672
34.07000 314.268
34.08000 322.225
34.09000 328.751
34.10000 330.087
34.11000 323.063
34.12000 315.927
34.13000 314.663
34.14000 319.536
34.15000 324.382
34.16000 325.811
34.17000 324.957
34.18000 324.092
34.19000 322.939
34.20000 321.657
34.21000 320.704
34.22000 323.863
34.23000 328.254
34.24000 332.185
34.25000 331.420
34.26000 329.948
34.27000 327.948
34.28000 323.567
34.29000 318.899
34.30000 316.685
34.31000 321.760
34.32000 327.318
34.33000 331.052
34.34000 334.445
34.35000 336.958
34.36000 335.046
34.37000 327.297
34.38000 319.530
34.39000 316.496
34.40000 317.440
34.41000 318.371
34.42000 319.278
34.43000 320.146
34.44000 320.875
34.45000 319.101
34.46000 316.400
34.47000 314.435
34.48000 319.375
34.49000 326.013
34.50000 331.774
34.51000 331.681
34.52000 330.816
34.53000 329.034
34.54000 323.876
34.55000 318.405
34.56000 314.622
34.57000 314.981
34.58000 315.531
34.59000 315.874
34.60000 328.936
34.61000 338.495
34.62000 339.083
34.63000 330.091
34.64000 321.164
34.65000 319.941
34.66000 323.992
34.67000 327.948
34.68000 330.940
34.69000 333.381
34.70000 335.329
34.71000 330.926
34.72000 324.583
34.73000 319.670
34.74000 325.191
34.75000 332.801
34.76000 339.175
34.77000 329.347
34.78000 319.505
34.79000 311.822
34.80000 310.675
34.81000 309.975
34.82000 311.192
34.83000 316.303
34.84000 321.527
34.85000 324.531
34.86000 321.938
34.87000 320.104
34.88000 318.230
34.89000 316.323
34.90000 314.442
34.91000 313.924
34.92000 314.171
34.93000 314.410
34.94000 312.748
34.95000 310.517
34.96000 308.878
34.97000 312.957
34.98000 318.470
34.99000 323.783
35.00000 327.932
35.01000 331.893
35.02000 335.078
35.03000 325.888
35.04000 317.480
35.05000 312.339
35.06000 315.368
35.07000 318.788
35.08000 319.664
35.09000 316.284
35.10000 312.836
35.11000 311.037
35.12000 314.904
35.13000 317.494
35.14000 316.581
35.15000 313.222
35.16000 309.938
35.17000 308.873
35.18000 308.840
35.19000 308.808
35.20000 310.261
35.21000 312.020
35.22000 313.787
35.23000 315.605
35.24000 317.433
35.25000 317.380
35.26000 308.515
35.27000 298.531
35.28000 290.868
35.29000 300.056
35.30000 308.258
35.31000 313.565
35.32000 312.883
35.33000 312.019
35.34000 312.780
35.35000 315.772
35.36000 318.777
35.37000 317.318
35.38000 311.959
35.39000 306.729
35.40000 308.664
35.41000 314.706
35.42000 320.390
35.43000 319.150
35.44000 315.250
35.45000 311.641
35.46000 304.866
35.47000 298.047
35.48000 293.061
35.49000 298.940
35.50000 306.606
35.51000 311.398
35.52000 305.211
35.53000 297.948
35.54000 292.661
35.55000 306.442
35.56000 317.777
35.57000 322.431
35.58000 315.681
35.59000 308.740
35.60000 306.361
35.61000 309.064
35.62000 311.761
35.63000 312.957
35.64000 313.084
35.65000 313.068
35.66000 308.652
35.67000 302.153
35.68000 295.851
35.69000 292.237
35.70000 289.475
35.71000 286.983
35.72000 293.805
35.73000 301.506
35.74000 307.616
35.75000 306.127
35.76000 303.647
35.77000 300.499
35.78000 295.248
35.79000 289.845
35.80000 286.143
35.81000 303.522
35.82000 317.044
35.83000 322.934
35.84000 318.138
35.85000 313.272
35.86000 312.178
35.87000 314.459
35.88000 316.716
35.89000 316.868
35.90000 315.814
35.91000 314.759
35.92000 313.714
35.93000 312.671
35.94000 311.874
35.95000 313.572
35.96000 315.921
35.97000 317.980
35.98000 311.913
35.99000 305.535
36.00000 300.361
36.01000 299.882
36.02000 299.874
36.03000 301.155
36.04000 305.783
36.05000 310.584
36.06000 313.652
36.07000 312.644
36.08000 311.857
36.09000 308.835
36.10000 303.271
36.11000 297.726
36.12000 295.846
36.13000 296.631
36.14000 297.399
36.15000 295.630
36.16000 292.752
36.17000 289.968
36.18000 288.506
36.19000 287.471
36.20000 287.685
36.21000 297.699
36.22000 309.800
36.23000 320.047
36.24000 314.431
36.25000 307.956
36.26000 303.871
36.27000 307.441
36.28000 311.587
36.29000 314.101
36.30000 313.111
36.31000 312.003
36.32000 311.350
36.33000 305.291
36.34000 300.985
36.35000 297.141
36.36000 293.720
36.37000 290.356
36.38000 290.625
36.39000 293.058
36.40000 295.410
36.41000 297.090
36.42000 298.422
36.43000 300.091
36.44000 305.281
36.45000 311.408
36.46000 316.496
36.47000 315.143
36.48000 312.683
36.49000 310.680
36.50000 302.519
36.51000 295.332
36.52000 291.098
36.53000 294.672
36.54000 298.663
36.55000 303.414
36.56000 309.510
36.57000 315.632
36.58000 318.925
36.59000 309.623
36.60000 303.275
36.61000 300.683
36.62000 300.875
36.63000 301.165
36.64000 304.795
36.65000 310.065
36.66000 315.077
36.67000 307.819
36.68000 297.368
36.69000 288.638
36.70000 293.727
36.71000 301.820
36.72000 308.128
36.73000 305.549
36.74000 301.757
36.75000 298.805
36.76000 300.655
36.77000 302.424
36.78000 302.010
36.79000 296.819
36.80000 291.459
36.81000 290.799
36.82000 296.982
36.83000 303.221
36.84000 311.754
36.85000 322.422
36.86000 332.905
36.87000 330.816
36.88000 321.093
36.89000 311.747
36.90000 310.564
36.91000 312.699
36.92000 314.688
36.93000 314.353
36.94000 313.479
36.95000 312.462
36.96000 310.537
36.97000 308.452
36.98000 307.385
36.99000 310.443
37.00000 313.938
37.01000 316.524
37.02000 317.311
37.03000 317.845
37.04000 317.815
37.05000 316.765
37.06000 315.695
37.07000 314.158
37.08000 312.069
37.09000 309.984
37.10000 309.457
37.11000 310.105
37.12000 310.799
37.13000 313.134
37.14000 316.292
37.15000 318.853
37.16000 312.444
37.17000 303.023
37.18000 294.454
37.19000 298.229
37.20000 303.990
37.21000 308.627
37.22000 307.545
37.23000 305.663
37.24000 304.370
37.25000 305.039
37.26000 305.865
37.27000 306.441
37.28000 304.241
37.29000 302.502
37.30000 300.407
37.31000 297.779
37.32000 295.148
37.33000 296.867
37.34000 302.736
37.35000 308.556
37.36000 308.968
37.37000 306.087
37.38000 303.277
37.39000 302.060
37.40000 301.504
37.41000 301.088
37.42000 302.234
37.43000 303.811
37.44000 305.206
37.45000 305.439
37.46000 305.460
37.47000 305.556
37.48000 305.960
37.49000 306.397
37.50000 306.914
37.51000 307.651
37.52000 308.399
37.53000 308.888
37.54000 304.544
37.55000 301.278
37.56000 300.718
37.57000 303.437
37.58000 306.147
37.59000 304.793
37.60000 300.303
37.61000 295.891
37.62000 299.116
37.63000 305.999
37.64000 312.199
37.65000 307.774
37.66000 299.714
37.67000 293.222
37.68000 299.968
37.69000 309.711
37.70000 318.048
37.71000 310.073
37.72000 301.376
37.73000 295.521
37.74000 299.307
37.75000 303.885
37.76000 305.792
37.77000 301.633
37.78000 297.240
37.79000 294.583
37.80000 295.225
37.81000 295.707
37.82000 296.867
37.83000 298.688
37.84000 300.526
37.85000 303.763
37.86000 307.883
37.87000 311.883
37.88000 306.298
37.89000 297.158
37.90000 288.997
37.91000 291.953
37.92000 298.043
37.93000 302.909
37.94000 299.666
37.95000 294.936
37.96000 291.037
37.97000 297.179
37.98000 303.156
37.99000 307.038
38.00000 305.059
38.01000 302.732
38.02000 302.153
38.03000 304.856
38.04000 307.635
38.05000 309.173
38.06000 310.070
38.07000 310.690
38.08000 311.800
38.09000 313.296
38.10000 314.594
38.11000 307.935
38.12000 297.138
38.13000 286.818
38.14000 289.335
38.15000 295.841
38.16000 301.853
38.17000 303.593
38.18000 304.346
38.19000 305.130
38.20000 306.072
38.21000 307.037
38.22000 307.799
38.23000 308.027
38.24000 308.173
38.25000 309.908
38.26000 315.320
38.27000 320.879
38.28000 323.389
38.29000 321.187
38.30000 318.932
38.31000 317.808
38.32000 317.810
38.33000 317.867
38.34000 322.724
38.35000 330.668
38.36000 338.697
38.37000 348.812
38.38000 359.823
38.39000 370.149
38.40000 374.223
38.41000 376.298
38.42000 380.131
38.43000 395.889
38.44000 413.881
38.45000 433.107
38.46000 457.646
38.47000 482.794
38.48000 501.695
38.49000 528.030
38.50000 548.978
38.51000 575.308
38.52000 611.925
38.53000 648.793
38.54000 694.503
38.55000 751.367
38.56000 808.177
38.57000 856.417
38.58000 897.598
38.59000 938.765
38.60000 979.355
38.61000 1019.639
38.62000 1060.729
38.63000 1115.227
38.64000 1174.489
38.65000 1228.798
38.66000 1294.392
38.67000 1355.173
38.68000 1410.595
38.69000 1436.999
38.70000 1459.056
38.71000 1482.051
38.72000 1508.351
38.73000 1534.940
38.74000 1553.834
38.75000 1566.081
38.76000 1575.192
38.77000 1568.455
38.78000 1536.766
38.79000 1504.771
38.80000 1474.738
38.81000 1446.702
38.82000 1418.844
38.83000 1376.225
38.84000 1324.680
38.85000 1272.924
38.86000 1215.784
38.87000 1156.286
38.88000 1096.546
38.89000 1033.881
38.90000 970.359
38.91000 913.697
38.92000 868.094
38.93000 830.257
38.94000 789.303
38.95000 734.676
38.96000 678.441
38.97000 626.522
38.98000 587.136
38.99000 548.547
39.00000 522.827
39.01000 499.165
39.02000 481.686
39.03000 460.096
39.04000 433.211
39.05000 406.336
39.06000 392.429
39.07000 389.156
39.08000 385.930
39.09000 373.924
39.10000 357.659
39.11000 341.985
39.12000 336.494
39.13000 334.688
39.14000 332.307
39.15000 324.687
39.16000 315.807
39.17000 308.131
39.18000 303.518
39.19000 299.997
39.20000 298.104
39.21000 302.060
39.22000 306.540
39.23000 306.733
39.24000 296.637
39.25000 286.091
39.26000 279.559
39.27000 280.192
39.28000 280.716
39.29000 282.539
39.30000 285.714
39.31000 288.869
39.32000 289.871
39.33000 289.434
39.34000 289.008
39.35000 291.368
39.36000 294.806
39.37000 297.706
39.38000 293.934
39.39000 288.170
39.40000 283.195
39.41000 283.821
39.42000 285.542
39.43000 286.977
39.44000 284.962
39.45000 282.946
39.46000 279.867
39.47000 273.639
39.48000 267.203
39.49000 263.240
39.50000 264.185
39.51000 265.264
39.52000 265.878
39.53000 264.948
39.54000 264.302
39.55000 267.194
39.56000 273.048
39.57000 278.734
39.58000 276.389
39.59000 269.627
39.60000 263.130
39.61000 264.768
39.62000 269.110
39.63000 273.202
39.64000 274.962
39.65000 276.150
39.66000 276.915
39.67000 275.286
39.68000 273.282
39.69000 271.678
39.70000 267.332
39.71000 263.614
39.72000 260.935
39.73000 260.798
39.74000 260.777
39.75000 262.570
39.76000 267.332
39.77000 272.136
39.78000 274.612
39.79000 268.975
39.80000 265.201
39.81000 264.190
39.82000 265.064
39.83000 266.029
39.84000 269.522
39.85000 274.163
39.86000 278.542
39.87000 275.127
39.88000 269.823
39.89000 265.183
39.90000 265.374
39.91000 266.529
39.92000 267.190
39.93000 265.597
39.94000 263.725
39.95000 262.298
39.96000 268.965
39.97000 274.652
39.98000 277.997
39.99000 276.602
40.00000 275.071
40.01000 271.588
40.02000 265.488
40.03000 259.379
40.04000 257.854
40.05000 260.240
40.06000 262.535
40.07000 260.187
40.08000 255.236
40.09000 250.448
40.10000 248.677
40.11000 248.040
40.12000 247.453
40.13000 256.924
40.14000 267.671
40.15000 275.538
40.16000 266.782
40.17000 255.362
40.18000 246.570
40.19000 247.589
40.20000 249.538
40.21000 250.947
40.22000 260.010
40.23000 267.242
40.24000 269.373
40.25000 262.992
40.26000 256.481
40.27000 254.281
40.28000 256.767
40.29000 259.243
40.30000 256.638
40.31000 250.566
40.32000 244.840
40.33000 249.243
40.34000 258.335
40.35000 266.792
40.36000 266.882
40.37000 264.377
40.38000 262.123
40.39000 261.728
40.40000 261.714
40.41000 261.070
40.42000 257.486
40.43000 253.531
40.44000 250.632
40.45000 250.979
40.46000 251.554
40.47000 251.945
40.48000 248.531
40.49000 245.896
40.50000 247.304
40.51000 254.240
40.52000 261.204
40.53000 263.224
40.54000 260.928
40.55000 258.659
40.56000 255.141
40.57000 251.012
40.58000 247.028
40.59000 245.842
40.60000 245.727
40.61000 245.597
40.62000 245.324
40.63000 245.014
40.64000 244.743
40.65000 243.008
40.66000 241.317
40.67000 240.365
40.68000 242.222
40.69000 244.354
40.70000 247.287
40.71000 252.255
40.72000 257.325
40.73000 260.536
40.74000 252.594
40.75000 246.699
40.76000 245.141
40.77000 248.395
40.78000 251.642
40.79000 253.408
40.80000 254.122
40.81000 254.821
40.82000 253.596
40.83000 251.550
40.84000 249.884
40.85000 253.393
40.86000 258.538
40.87000 262.296
40.88000 255.487
40.89000 246.482
40.90000 238.889
40.91000 244.117
40.92000 249.870
40.93000 254.140
40.94000 253.761
40.95000 253.046
40.96000 255.042
40.97000 262.730
40.98000 270.599
40.99000 275.195
41.00000 265.803
41.01000 259.134
41.02000 256.923
41.03000 258.686
41.04000 260.306
41.05000 253.682
41.06000 242.257
41.07000 231.231
41.08000 231.797
41.09000 236.588
41.10000 241.047
41.11000 242.149
41.12000 242.378
41.13000 242.688
41.14000 243.484
41.15000 244.362
41.16000 245.073
41.17000 243.408
41.18000 241.859
41.19000 240.919
41.20000 241.553
41.21000 242.269
41.22000 244.697
41.23000 250.094
41.24000 255.544
41.25000 258.440
41.26000 248.330
41.27000 241.470
41.28000 239.177
41.29000 240.190
41.30000 241.224
41.31000 242.933
41.32000 244.967
41.33000 246.896
41.34000 247.926
41.35000 248.608
41.36000 248.832
41.37000 245.475
41.38000 241.358
41.39000 238.468
41.40000 241.536
41.41000 245.395
41.42000 248.383
41.43000 246.877
41.44000 245.415
41.45000 244.633
41.46000 245.306
41.47000 246.027
41.48000 246.172
41.49000 245.497
41.50000 244.816
41.51000 243.528
41.52000 241.689
41.53000 239.888
41.54000 240.469
41.55000 242.464
41.56000 244.243
41.57000 241.568
41.58000 237.122
41.59000 232.991
41.60000 235.353
41.61000 239.038
41.62000 242.511
41.63000 244.671
41.64000 246.607
41.65000 247.427
41.66000 243.830
41.67000 239.780
41.68000 236.802
41.69000 232.294
41.70000 228.745
41.71000 226.966
41.72000 228.316
41.73000 229.725
41.74000 232.757
41.75000 237.669
41.76000 242.568
41.77000 245.306
41.78000 246.441
41.79000 247.446
41.80000 244.039
41.81000 238.473
41.82000 233.125
41.83000 230.939
41.84000 229.790
41.85000 228.749
41.86000 236.102
41.87000 244.193
41.88000 250.342
41.89000 246.855
41.90000 242.059
41.91000 238.210
41.92000 237.439
41.93000 236.906
41.94000 236.536
41.95000 236.289
41.96000 236.105
41.97000 237.387
41.98000 240.794
41.99000 244.217
42.00000 242.993
42.01000 237.448
42.02000 231.955
42.03000 231.627
42.04000 234.368
42.05000 236.962
42.06000 236.400
42.07000 234.558
42.08000 232.889
42.09000 233.059
42.10000 233.727
42.11000 234.315
42.12000 236.708
42.13000 239.042
42.14000 241.193
42.15000 242.603
42.16000 243.935
42.17000 243.712
42.18000 239.315
42.19000 234.689
42.20000 231.694
42.21000 237.326
42.22000 241.574
42.23000 242.177
42.24000 238.474
42.25000 234.784
42.26000 235.455
42.27000 239.411
42.28000 243.293
42.29000 240.796
42.30000 235.317
42.31000 230.376
42.32000 233.480
42.33000 239.275
42.34000 244.242
42.35000 242.423
42.36000 239.104
42.37000 236.276
42.38000 236.042
42.39000 236.150
42.40000 236.084
42.41000 235.445
42.42000 234.761
42.43000 233.595
42.44000 231.358
42.45000 229.082
42.46000 227.719
42.47000 227.908
42.48000 228.052
42.49000 227.902
42.50000 227.475
42.51000 227.051
42.52000 226.873
42.53000 226.846
42.54000 226.820
42.55000 227.571
42.56000 228.587
42.57000 229.520
42.58000 229.551
42.59000 229.334
42.60000 229.669
42.61000 233.566
42.62000 238.101
42.63000 241.821
42.64000 239.872
42.65000 237.769
42.66000 235.766
42.67000 234.037
42.68000 232.324
42.69000 231.023
42.70000 230.480
42.71000 229.952
42.72000 229.664
42.73000 232.265
42.74000 234.049
42.75000 233.607
42.76000 231.454
42.77000 229.354
42.78000 229.200
42.79000 230.036
42.80000 230.833
42.81000 230.875
42.82000 230.675
42.83000 230.503
42.84000 230.578
42.85000 230.707
42.86000 230.586
42.87000 229.166
42.88000 227.562
42.89000 226.302
42.90000 229.312
42.91000 231.999
42.92000 232.803
42.93000 229.345
42.94000 225.725
42.95000 225.326
42.96000 229.789
42.97000 234.300
42.98000 235.349
42.99000 233.038
43.00000 230.738
43.01000 229.353
43.02000 228.543
43.03000 227.881
43.04000 230.660
43.05000 234.887
43.06000 238.840
43.07000 234.226
43.08000 227.849
43.09000 222.256
43.10000 221.837
43.11000 222.364
43.12000 222.598
43.13000 221.607
43.14000 220.479
43.15000 219.636
43.16000 220.060
43.17000 220.449
43.18000 221.243
43.19000 222.795
43.20000 224.365
43.21000 227.534
43.22000 232.672
43.23000 237.806
43.24000 235.924
43.25000 228.577
43.26000 221.442
43.27000 222.700
43.28000 228.305
43.29000 233.432
43.30000 230.919
43.31000 225.753
43.32000 221.031
43.33000 222.984
43.34000 226.082
43.35000 228.159
43.36000 224.848
43.37000 220.750
43.38000 218.363
43.39000 221.864
43.40000 225.861
43.41000 228.682
43.42000 228.410
43.43000 228.110
43.44000 226.000
43.45000 221.106
43.46000 216.182
43.47000 215.949
43.48000 220.372
43.49000 224.763
43.50000 222.422
43.51000 215.872
43.52000 209.588
43.53000 209.767
43.54000 212.714
43.55000 215.479
43.56000 216.129
43.57000 216.173
43.58000 216.213
43.59000 215.837
43.60000 215.445
43.61000 216.301
43.62000 222.511
43.63000 229.331
43.64000 233.351
43.65000 229.414
43.66000 224.992
43.67000 222.068
43.68000 220.911
43.69000 220.089
43.70000 219.048
43.71000 217.732
43.72000 216.422
43.73000 217.327
43.74000 220.005
43.75000 222.642
43.76000 225.097
43.77000 227.385
43.78000 229.436
43.79000 227.584
43.80000 224.349
43.81000 221.412
43.82000 221.092
43.83000 221.386
43.84000 221.640
43.85000 219.373
43.86000 217.135
43.87000 215.009
43.88000 213.281
43.89000 211.587
43.90000 211.213
43.91000 213.937
43.92000 216.790
43.93000 218.540
43.94000 218.253
43.95000 218.029
43.96000 215.735
43.97000 211.341
43.98000 207.005
43.99000 208.073
44.00000 212.672
44.01000 217.148
44.02000 222.696
44.03000 228.426
44.04000 233.397
44.05000 229.295
44.06000 222.544
44.07000 216.180
44.08000 212.492
44.09000 209.314
44.10000 206.676
44.11000 205.332
44.12000 204.348
44.13000 205.792
44.14000 214.268
44.15000 223.189
44.16000 227.758
44.17000 223.878
44.18000 219.782
44.19000 217.477
44.20000 219.118
44.21000 220.275
44.22000 224.216
44.23000 230.432
44.24000 236.428
44.25000 232.690
44.26000 223.717
44.27000 215.113
44.28000 212.732
44.29000 212.604
44.30000 212.698
44.31000 214.800
44.32000 217.383
44.33000 219.822
44.34000 221.470
44.35000 222.997
44.36000 224.212
44.37000 225.095
44.38000 225.783
44.39000 226.175
44.40000 225.858
44.41000 225.511
44.42000 223.781
44.43000 219.840
44.44000 215.871
44.45000 213.851
44.46000 208.363
44.47000 204.751
44.48000 208.037
44.49000 215.920
44.50000 223.546
44.51000 224.351
44.52000 222.123
44.53000 220.027
44.54000 214.545
44.55000 208.613
44.56000 203.410
44.57000 203.356
44.58000 204.304
44.59000 205.291
44.60000 206.448
44.61000 207.626
44.62000 208.519
44.63000 214.839
44.64000 220.082
44.65000 223.797
44.66000 224.488
44.67000 225.098
44.68000 224.565
44.69000 222.538
44.70000 220.506
44.71000 222.624
44.72000 228.187
44.73000 233.571
44.74000 230.486
44.75000 222.759
44.76000 215.566
44.77000 217.831
44.78000 223.571
44.79000 228.855
44.80000 235.025
44.81000 240.736
44.82000 244.988
44.83000 241.037
44.84000 235.806
44.85000 232.624
44.86000 236.924
44.87000 241.909
44.88000 245.489
44.89000 252.477
44.90000 257.939
44.91000 261.154
44.92000 260.703
44.93000 260.201
44.94000 261.049
44.95000 263.330
44.96000 265.598
44.97000 264.370
44.98000 260.811
44.99000 257.472
45.00000 260.262
45.01000 265.827
45.02000 271.145
45.03000 273.334
45.04000 274.575
45.05000 275.688
45.06000 275.682
45.07000 275.483
45.08000 275.619
45.09000 277.277
45.10000 279.121
45.11000 278.711
45.12000 271.523
45.13000 263.877
45.14000 258.719
45.15000 256.764
45.16000 255.377
45.17000 257.037
45.18000 262.767
45.19000 268.508
45.20000 268.535
45.21000 263.698
45.22000 258.921
45.23000 263.259
45.24000 272.442
45.25000 280.958
45.26000 277.218
45.27000 268.890
45.28000 261.153
45.29000 259.064
45.30000 258.382
45.31000 257.788
45.32000 257.642
45.33000 257.578
45.34000 257.265
45.35000 256.022
45.36000 254.691
45.37000 252.282
45.38000 247.198
45.39000 241.988
45.40000 238.717
45.41000 246.264
45.42000 251.838
45.43000 253.149
45.44000 249.846
45.45000 246.554
45.46000 244.871
45.47000 244.303
45.48000 243.748
45.49000 241.743
45.50000 239.184
45.51000 236.709
45.52000 235.346
45.53000 234.327
45.54000 233.089
45.55000 230.232
45.56000 227.047
45.57000 224.373
45.58000 225.818
45.59000 227.452
45.60000 229.550
45.61000 233.069
45.62000 236.686
45.63000 237.427
45.64000 232.262
45.65000 226.920
45.66000 223.832
45.67000 219.194
45.68000 215.942
45.69000 215.974
45.70000 218.861
45.71000 221.685
45.72000 221.097
45.73000 218.568
45.74000 216.131
45.75000 217.589
45.76000 220.355
45.77000 222.809
45.78000 222.211
45.79000 220.839
45.80000 219.967
45.81000 222.037
45.82000 224.589
45.83000 226.645
45.84000 224.821
45.85000 223.034
45.86000 221.526
45.87000 220.727
45.88000 219.962
45.89000 219.908
45.90000 221.058
45.91000 222.228
45.92000 222.842
45.93000 218.709
45.94000 215.911
45.95000 213.863
45.96000 212.343
45.97000 210.868
45.98000 210.737
45.99000 211.239
46.00000 211.713
46.01000 205.229
46.02000 197.245
46.03000 190.659
46.04000 194.671
46.05000 200.879
46.06000 207.170
46.07000 213.862
46.08000 220.605
46.09000 225.796
46.10000 217.897
46.11000 210.898
46.12000 206.451
46.13000 207.346
46.14000 208.409
46.15000 210.038
46.16000 212.455
46.17000 214.876
46.18000 214.891
46.19000 212.772
46.20000 210.642
46.21000 207.826
46.22000 204.613
46.23000 201.457
46.24000 199.404
46.25000 197.780
46.26000 196.275
46.27000 195.130
46.28000 194.182
46.29000 193.336
46.30000 193.098
46.31000 192.961
46.32000 192.893
46.33000 193.092
46.34000 193.317
46.35000 193.481
46.36000 198.772
46.37000 203.052
46.38000 206.121
46.39000 207.097
46.40000 208.037
46.41000 208.023
46.42000 206.931
46.43000 205.842
46.44000 205.342
46.45000 205.267
46.46000 205.217
46.47000 205.974
46.48000 207.117
46.49000 207.907
46.50000 203.784
46.51000 198.084
46.52000 192.932
46.53000 195.433
46.54000 199.056
46.55000 201.921
46.56000 201.118
46.57000 199.830
46.58000 199.043
46.59000 199.847
46.60000 200.770
46.61000 201.404
46.62000 195.770
46.63000 191.388
46.64000 190.513
46.65000 194.610
46.66000 198.743
46.67000 201.927
46.68000 204.251
46.69000 206.551
46.70000 206.127
46.71000 204.137
46.72000 202.301
46.73000 203.625
46.74000 206.200
46.75000 208.260
46.76000 205.001
46.77000 200.336
46.78000 196.240
46.79000 198.227
46.80000 200.825
46.81000 202.349
46.82000 199.641
46.83000 196.499
46.84000 193.204
46.85000 189.504
46.86000 185.783
46.87000 183.394
46.88000 181.450
46.89000 180.038
46.90000 183.361
46.91000 192.142
46.92000 200.881
46.93000 200.737
46.94000 194.061
46.95000 187.516
46.96000 187.450
46.97000 190.429
46.98000 193.208
46.99000 193.109
47.00000 192.069
47.01000 190.991
47.02000 189.610
47.03000 188.164
47.04000 186.936
47.05000 184.631
47.06000 182.575
47.07000 181.745
47.08000 184.890
47.09000 188.340
47.10000 191.526
47.11000 194.139
47.12000 196.732
47.13000 198.271
47.14000 194.605
47.15000 191.983
47.16000 192.022
47.17000 194.524
47.18000 196.999
47.19000 197.651
47.20000 197.204
47.21000 196.772
47.22000 194.077
47.23000 190.668
47.24000 188.133
47.25000 194.882
47.26000 204.133
47.27000 211.132
47.28000 204.000
47.29000 194.405
47.30000 186.573
47.31000 190.377
47.32000 194.489
47.33000 196.294
47.34000 191.926
47.35000 187.220
47.36000 184.200
47.37000 184.204
47.38000 184.268
47.39000 184.303
47.40000 184.679
47.41000 184.930
47.42000 183.981
47.43000 182.130
47.44000 180.279
47.45000 178.393
47.46000 176.491
47.47000 174.680
47.48000 176.077
47.49000 178.360
47.50000 180.649
47.51000 182.990
47.52000 185.342
47.53000 187.821
47.54000 190.938
47.55000 194.145
47.56000 196.648
47.57000 191.046
47.58000 186.068
47.59000 183.454
47.60000 186.076
47.61000 188.888
47.62000 191.563
47.63000 194.037
47.64000 196.509
47.65000 196.008
47.66000 192.694
47.67000 189.374
47.68000 185.588
47.69000 181.515
47.70000 177.690
47.71000 179.368
47.72000 183.307
47.73000 186.983
47.74000 187.224
47.75000 186.587
47.76000 186.149
47.77000 186.991
47.78000 188.060
47.79000 188.969
47.80000 189.221
47.81000 189.403
47.82000 189.537
47.83000 183.843
47.84000 179.161
47.85000 178.094
47.86000 183.633
47.87000 189.313
47.88000 190.719
47.89000 186.989
47.90000 183.257
47.91000 184.266
47.92000 188.875
47.93000 193.416
47.94000 195.385
47.95000 196.053
47.96000 196.284
47.97000 189.809
47.98000 181.055
47.99000 173.081
48.00000 174.645
48.01000 177.929
48.02000 181.346
48.03000 185.444
48.04000 189.639
48.05000 191.990
48.06000 188.133
48.07000 183.771
48.08000 180.716
48.09000 180.588
48.10000 180.576
48.11000 180.759
48.12000 181.234
48.13000 181.713
48.14000 181.614
48.15000 180.956
48.16000 180.304
48.17000 182.608
48.18000 186.692
48.19000 190.560
48.20000 189.430
48.21000 186.207
48.22000 183.027
48.23000 180.332
48.24000 177.773
48.25000 175.506
48.26000 179.089
48.27000 183.110
48.28000 186.130
48.29000 184.964
48.30000 183.335
48.31000 182.339
48.32000 183.102
48.33000 183.967
48.34000 184.535
48.35000 176.937
48.36000 171.214
48.37000 168.998
48.38000 171.082
48.39000 173.173
48.40000 173.992
48.41000 173.818
48.42000 173.647
48.43000 172.997
48.44000 172.129
48.45000 171.446
48.46000 173.707
48.47000 176.988
48.48000 179.660
48.49000 177.117
48.50000 173.379
48.51000 170.173
48.52000 175.476
48.53000 180.998
48.54000 186.346
48.55000 191.095
48.56000 195.794
48.57000 197.425
48.58000 192.011
48.59000 186.319
48.60000 182.859
48.61000 172.697
48.62000 165.390
48.63000 164.697
48.64000 170.540
48.65000 176.325
48.66000 177.303
48.67000 175.210
48.68000 173.176
48.69000 173.865
48.70000 175.624
48.71000 177.187
48.72000 176.483
48.73000 175.133
48.74000 174.375
48.75000 177.595
48.76000 181.554
48.77000 184.825
48.78000 180.581
48.79000 176.380
48.80000 172.164
48.81000 167.909
48.82000 163.652
48.83000 165.333
48.84000 178.285
48.85000 191.508
48.86000 198.869
48.87000 182.756
48.88000 171.593
48.89000 169.760
48.90000 175.366
48.91000 180.907
48.92000 183.801
48.93000 185.301
48.94000 186.737
48.95000 186.906
48.96000 186.648
48.97000 186.040
48.98000 182.364
48.99000 177.970
49.00000 173.974
49.01000 172.120
49.02000 170.585
49.03000 169.369
49.04000 170.499
49.05000 171.571
49.06000 172.180
49.07000 171.710
49.08000 171.194
49.09000 171.011
49.10000 171.346
49.11000 171.688
49.12000 171.860
49.13000 174.944
49.14000 176.999
49.15000 178.630
49.16000 179.984
49.17000 181.220
49.18000 179.484
49.19000 176.457
49.20000 173.615
49.21000 178.148
49.22000 184.239
49.23000 189.097
49.24000 185.487
49.25000 180.268
49.26000 175.905
49.27000 175.264
49.28000 175.057
49.29000 174.901
49.30000 172.807
49.31000 171.072
49.32000 170.097
49.33000 170.593
49.34000 171.126
49.35000 174.484
49.36000 181.451
49.37000 188.422
49.38000 188.734
49.39000 183.645
49.40000 178.596
49.41000 175.257
49.42000 172.834
49.43000 170.475
49.44000 169.195
49.45000 168.302
49.46000 167.482
49.47000 170.852
49.48000 174.747
49.49000 177.905
49.50000 177.009
49.51000 175.498
49.52000 173.420
49.53000 169.322
49.54000 165.045
49.55000 161.995
49.56000 170.329
49.57000 177.058
49.58000 178.151
49.59000 170.266
49.60000 162.264
49.61000 161.233
49.62000 167.396
49.63000 173.523
49.64000 176.096
49.65000 176.305
49.66000 176.431
49.67000 174.350
49.68000 171.292
49.69000 168.366
49.70000 167.064
49.71000 166.243
49.72000 165.510
49.73000 164.142
49.74000 162.843
49.75000 162.867
49.76000 168.769
49.77000 175.372
49.78000 180.690
49.79000 182.233
49.80000 183.530
49.81000 184.399
49.82000 176.359
49.83000 170.220
49.84000 169.353
49.85000 175.362
49.86000 181.392
49.87000 183.328
49.88000 181.863
49.89000 180.418
49.90000 177.654
49.91000 174.268
49.92000 171.110
49.93000 171.974
49.94000 174.310
49.95000 176.367
49.96000 175.828
49.97000 174.657
49.98000 173.642
49.99000 174.278
50.00000 175.037
50.01000 175.677
50.02000 175.884
50.03000 176.053
50.04000 175.296
50.05000 172.292
50.06000 169.188
50.07000 167.257
50.08000 171.857
50.09000 175.236
50.10000 173.357
50.11000 165.932
50.12000 158.600
50.13000 161.466
50.14000 171.236
50.15000 180.768
50.16000 182.332
50.17000 180.392
50.18000 178.867
50.19000 182.588
50.20000 187.894
50.21000 191.577
50.22000 183.566
50.23000 173.240
50.24000 164.611
50.25000 170.356
50.26000 176.586
50.27000 180.168
50.28000 175.821
50.29000 170.942
50.30000 168.885
50.31000 172.493
50.32000 176.260
50.33000 178.416
50.34000 169.601
50.35000 163.415
50.36000 161.373
50.37000 162.847
50.38000 164.374
50.39000 168.557
50.40000 174.218
50.41000 179.662
50.42000 182.534
50.43000 184.325
50.44000 185.705
50.45000 183.179
50.46000 179.683
50.47000 176.896
50.48000 178.170
50.49000 180.090
50.50000 181.630
50.51000 182.510
50.52000 183.173
50.53000 182.950
50.54000 180.535
50.55000 178.019
50.56000 178.580
50.57000 184.239
50.58000 189.973
50.59000 192.949
50.60000 196.523
50.61000 198.935
50.62000 201.183
50.63000 203.317
50.64000 205.281
50.65000 202.319
50.66000 197.094
50.67000 192.158
50.68000 188.824
50.69000 186.217
50.70000 183.812
50.71000 182.898
50.72000 182.284
50.73000 182.683
50.74000 187.762
50.75000 193.428
50.76000 197.765
50.77000 202.265
50.78000 205.824
50.79000 207.548
50.80000 205.516
50.81000 203.372
50.82000 199.708
50.83000 193.982
50.84000 188.248
50.85000 186.138
50.86000 187.165
50.87000 188.123
50.88000 185.415
50.89000 180.629
50.90000 176.142
50.91000 177.339
50.92000 180.695
50.93000 183.797
50.94000 188.032
50.95000 192.092
50.96000 195.258
50.97000 193.193
50.98000 190.278
50.99000 187.874
51.00000 187.400
51.01000 187.112
51.02000 186.903
51.03000 184.134
51.04000 181.910
51.05000 179.360
51.06000 176.259
51.07000 173.148
51.08000 174.259
51.09000 180.016
51.10000 185.751
51.11000 185.584
51.12000 181.305
51.13000 177.177
51.14000 177.619
51.15000 180.200
51.16000 182.522
51.17000 181.349
51.18000 179.080
51.19000 177.035
51.20000 175.252
51.21000 173.734
51.22000 173.640
51.23000 180.263
51.24000 187.749
51.25000 191.402
51.26000 183.141
51.27000 174.026
51.28000 167.805
51.29000 168.991
51.30000 170.051
51.31000 169.820
51.32000 167.803
51.33000 165.776
51.34000 165.055
51.35000 165.489
51.36000 165.918
51.37000 166.016
51.38000 165.925
51.39000 165.978
51.40000 168.846
51.41000 172.805
51.42000 176.484
51.43000 177.365
51.44000 177.522
51.45000 177.660
51.46000 171.502
51.47000 165.329
51.48000 160.220
51.49000 159.211
51.50000 158.609
51.51000 159.186
51.52000 162.793
51.53000 166.552
51.54000 168.944
51.55000 171.782
51.56000 173.850
51.57000 170.708
51.58000 161.709
51.59000 152.792
51.60000 157.183
51.61000 171.133
51.62000 184.792
51.63000 182.027
51.64000 171.844
51.65000 162.273
51.66000 161.196
51.67000 162.835
51.68000 164.616
51.69000 167.487
51.70000 170.589
51.71000 173.210
51.72000 169.948
51.73000 166.573
51.74000 163.756
51.75000 162.706
51.76000 161.787
51.77000 160.759
51.78000 159.498
51.79000 158.231
51.80000 157.486
51.81000 157.960
51.82000 158.299
51.83000 155.593
51.84000 150.137
51.85000 144.799
51.86000 146.620
51.87000 152.658
51.88000 158.492
51.89000 156.760
51.90000 152.314
51.91000 148.532
51.92000 151.593
51.93000 156.454
51.94000 160.446
51.95000 159.118
51.96000 156.887
51.97000 155.075
51.98000 159.126
51.99000 162.918
52.00000 164.937
52.01000 162.318
52.02000 159.456
52.03000 157.744
52.04000 158.048
52.05000 158.391
52.06000 158.574
52.07000 160.023
52.08000 161.003
52.09000 160.395
52.10000 158.622
52.11000 156.963
52.12000 159.091
52.13000 163.058
52.14000 166.828
52.15000 165.346
52.16000 162.396
52.17000 159.437
52.18000 156.404
52.19000 153.355
52.20000 151.257
52.21000 153.838
52.22000 157.050
52.23000 159.544
52.24000 162.718
52.25000 165.283
52.26000 166.213
52.27000 163.602
52.28000 160.870
52.29000 157.664
52.30000 153.775
52.31000 149.882
52.32000 151.081
52.33000 156.973
52.34000 162.761
52.35000 161.747
52.36000 156.648
52.37000 151.837
52.38000 153.123
52.39000 156.862
52.40000 160.341
52.41000 163.718
52.42000 166.746
52.43000 169.255
52.44000 168.519
52.45000 167.221
52.46000 166.548
52.47000 168.386
52.48000 170.487
52.49000 172.036
52.50000 169.752
52.51000 167.821
52.52000 164.911
52.53000 160.251
52.54000 155.555
52.55000 155.045
52.56000 159.440
52.57000 163.830
52.58000 164.881
52.59000 163.447
52.60000 161.967
52.61000 158.900
52.62000 155.046
52.63000 151.594
52.64000 154.075
52.65000 158.528
52.66000 162.572
52.67000 162.461
52.68000 161.557
52.69000 160.935
52.70000 161.724
52.71000 162.708
52.72000 162.455
52.73000 158.136
52.74000 153.497
52.75000 150.271
52.76000 155.617
52.77000 159.879
52.78000 161.084
52.79000 157.799
52.80000 154.475
52.81000 155.596
52.82000 160.906
52.83000 166.169
52.84000 163.809
52.85000 156.915
52.86000 150.377
52.87000 151.676
52.88000 156.185
52.89000 160.507
52.90000 162.801
52.91000 164.540
52.92000 166.075
52.93000 161.087
52.94000 155.785
52.95000 152.537
52.96000 157.689
52.97000 163.741
52.98000 168.034
52.99000 167.546
53.00000 166.790
53.01000 166.298
53.02000 164.181
53.03000 162.604
53.04000 164.070
53.05000 169.176
53.06000 174.263
53.07000 173.638
53.08000 168.656
53.09000 163.762
53.10000 161.065
53.11000 159.533
53.12000 157.965
53.13000 155.849
53.14000 153.548
53.15000 151.816
53.16000 154.823
53.17000 158.890
53.18000 162.363
53.19000 164.555
53.20000 166.248
53.21000 167.642
53.22000 168.031
53.23000 168.338
53.24000 167.726
53.25000 165.050
53.26000 162.297
53.27000 160.639
53.28000 164.805
53.29000 167.808
53.30000 170.040
53.31000 171.530
53.32000 173.014
53.33000 174.005
53.34000 174.689
53.35000 175.353
53.36000 175.366
53.37000 175.122
53.38000 174.741
53.39000 172.838
53.40000 170.510
53.41000 168.392
53.42000 167.641
53.43000 167.137
53.44000 166.723
53.45000 166.107
53.46000 165.583
53.47000 164.795
53.48000 163.275
53.49000 161.714
53.50000 160.858
53.51000 161.314
53.52000 161.799
53.53000 162.066
53.54000 167.546
53.55000 171.323
53.56000 173.290
53.57000 173.849
53.58000 174.281
53.59000 169.748
53.60000 162.663
53.61000 155.897
53.62000 157.277
53.63000 161.172
53.64000 165.085
53.65000 169.158
53.66000 173.268
53.67000 175.450
53.68000 167.535
53.69000 158.160
53.70000 150.778
53.71000 153.857
53.72000 157.023
53.73000 158.564
53.74000 156.387
53.75000 154.064
53.76000 152.819
53.77000 153.220
53.78000 153.638
53.79000 155.899
53.80000 159.972
53.81000 164.021
53.82000 166.019
53.83000 166.712
53.84000 167.465
53.85000 169.643
53.86000 172.428
53.87000 175.035
53.88000 172.737
53.89000 169.377
53.90000 166.498
53.91000 166.839
53.92000 167.777
53.93000 168.734
53.94000 169.774
53.95000 170.824
53.96000 171.610
53.97000 165.781
53.98000 160.918
53.99000 156.243
54.00000 151.925
54.01000 147.616
54.02000 147.287
54.03000 151.923
54.04000 156.564
54.05000 160.489
54.06000 163.829
54.07000 167.082
54.08000 166.796
54.09000 164.656
54.10000 162.566
54.11000 161.314
54.12000 160.356
54.13000 159.479
54.14000 160.998
54.15000 162.845
54.16000 164.071
54.17000 161.973
54.18000 159.382
54.19000 157.503
54.20000 158.105
54.21000 158.920
54.22000 159.497
54.23000 159.644
54.24000 159.742
54.25000 160.288
54.26000 161.532
54.27000 162.783
54.28000 161.663
54.29000 158.157
54.30000 154.674
54.31000 157.542
54.32000 164.424
54.33000 170.903
54.34000 167.327
54.35000 159.397
54.36000 152.196
54.37000 153.635
54.38000 157.578
54.39000 161.090
54.40000 157.738
54.41000 153.697
54.42000 151.651
54.43000 158.258
54.44000 165.868
54.45000 169.841
54.46000 163.365
54.47000 156.236
54.48000 151.503
54.49000 158.214
54.50000 163.387
54.51000 164.401
54.52000 160.124
54.53000 155.837
54.54000 154.712
54.55000 156.150
54.56000 157.568
54.57000 156.381
54.58000 153.879
54.59000 151.569
54.60000 152.507
54.61000 154.608
54.62000 156.320
54.63000 154.549
54.64000 151.949
54.65000 149.706
54.66000 155.285
54.67000 161.023
54.68000 165.381
54.69000 164.837
54.70000 163.862
54.71000 162.106
54.72000 158.497
54.73000 154.809
54.74000 152.535
54.75000 155.295
54.76000 157.322
54.77000 157.718
54.78000 156.439
54.79000 155.148
54.80000 152.799
54.81000 149.749
54.82000 146.778
54.83000 149.679
54.84000 154.915
54.85000 159.732
54.86000 159.421
54.87000 157.597
54.88000 156.019
54.89000 156.169
54.90000 156.653
54.91000 157.056
54.92000 160.824
54.93000 164.275
54.94000 166.516
54.95000 165.218
54.96000 163.691
54.97000 161.958
54.98000 159.820
54.99000 157.672
55.00000 156.456
55.01000 163.835
55.02000 168.980
55.03000 168.391
55.04000 163.059
55.05000 157.836
55.06000 157.674
55.07000 160.266
55.08000 162.754
55.09000 166.433
55.10000 170.278
55.11000 173.383
55.12000 169.669
55.13000 164.301
55.14000 160.291
55.15000 163.853
55.16000 168.587
55.17000 172.365
55.18000 171.332
55.19000 170.146
55.20000 169.335
55.21000 169.432
55.22000 169.569
55.23000 169.190
55.24000 167.976
55.25000 166.750
55.26000 166.122
55.27000 169.365
55.28000 171.517
55.29000 170.570
55.30000 167.535
55.31000 164.755
55.32000 168.966
55.33000 176.319
55.34000 183.248
55.35000 183.331
55.36000 181.520
55.37000 180.168
55.38000 182.104
55.39000 184.689
55.40000 186.404
55.41000 184.190
55.42000 181.498
55.43000 179.450
55.44000 180.862
55.45000 182.155
55.46000 185.687
55.47000 193.700
55.48000 201.838
55.49000 206.087
55.50000 205.185
55.51000 204.258
55.52000 208.619
55.53000 217.422
55.54000 226.241
55.55000 235.830
55.56000 245.847
55.57000 255.453
55.58000 257.617
55.59000 257.013
55.60000 256.457
55.61000 267.652
55.62000 280.278
55.63000 291.267
55.64000 292.920
55.65000 293.095
55.66000 298.199
55.67000 321.502
55.68000 346.503
55.69000 364.520
55.70000 379.257
55.71000 390.431
55.72000 405.099
55.73000 425.528
55.74000 446.044
55.75000 463.829
55.76000 478.683
55.77000 493.463
55.78000 510.093
55.79000 527.787
55.80000 545.564
55.81000 565.670
55.82000 586.844
55.83000 608.314
55.84000 633.629
55.85000 660.124
55.86000 683.920
55.87000 709.367
55.88000 731.923
55.89000 752.640
55.90000 764.886
55.91000 776.074
55.92000 789.501
55.93000 809.732
55.94000 830.432
55.95000 844.452
55.96000 853.547
55.97000 860.218
55.98000 863.985
55.99000 863.826
56.00000 863.636
56.01000 856.341
56.02000 842.919
56.03000 829.658
56.04000 818.931
56.05000 809.867
56.06000 800.919
56.07000 794.124
56.08000 788.144
56.09000 780.439
56.10000 755.987
56.11000 727.312
56.12000 702.327
56.13000 686.932
56.14000 675.103
56.15000 660.847
56.16000 637.453
56.17000 613.182
56.18000 587.973
56.19000 560.407
56.20000 532.728
56.21000 515.267
56.22000 495.272
56.23000 480.765
56.24000 460.276
56.25000 433.232
56.26000 406.260
56.27000 389.413
56.28000 379.671
56.29000 370.145
56.30000 363.417
56.31000 358.219
56.32000 352.378
56.33000 337.946
56.34000 320.828
56.35000 304.031
56.36000 289.654
56.37000 275.774
56.38000 264.095
56.39000 256.029
56.40000 249.687
56.41000 243.303
56.42000 236.788
56.43000 230.263
56.44000 225.601
56.45000 224.809
56.46000 224.137
56.47000 223.747
56.48000 207.911
56.49000 196.727
56.50000 190.236
56.51000 187.877
56.52000 185.585
56.53000 187.048
56.54000 190.672
56.55000 194.167
56.56000 190.002
56.57000 183.305
56.58000 177.436
56.59000 179.829
56.60000 184.346
56.61000 187.575
56.62000 183.125
56.63000 177.405
56.64000 172.782
56.65000 167.316
56.66000 162.802
56.67000 159.538
56.68000 159.471
56.69000 159.564
56.70000 160.844
56.71000 164.159
56.72000 167.509
56.73000 169.279
56.74000 167.115
56.75000 165.619
56.76000 160.645
56.77000 153.183
56.78000 145.993
56.79000 147.346
56.80000 152.761
56.81000 157.893
56.82000 159.266
56.83000 159.426
56.84000 159.249
56.85000 156.476
56.86000 153.157
56.87000 151.062
56.88000 154.838
56.89000 159.382
56.90000 162.892
56.91000 156.478
56.92000 150.815
56.93000 146.175
56.94000 143.698
56.95000 141.291
56.96000 140.897
56.97000 143.334
56.98000 145.790
56.99000 147.437
57.00000 148.357
57.01000 149.254
57.02000 148.783
57.03000 147.510
57.04000 146.354
57.05000 147.566
57.06000 149.709
57.07000 151.698
57.08000 149.553
57.09000 146.643
57.10000 144.710
57.11000 148.727
57.12000 153.751
57.13000 157.209
57.14000 154.541
57.15000 151.252
57.16000 148.842
57.17000 153.362
57.18000 157.130
57.19000 157.458
57.20000 151.772
57.21000 145.977
57.22000 144.155
57.23000 146.877
57.24000 149.595
57.25000 151.581
57.26000 153.021
57.27000 154.375
57.28000 152.930
57.29000 150.128
57.30000 147.476
57.31000 146.953
57.32000 147.123
57.33000 147.276
57.34000 148.286
57.35000 149.338
57.36000 150.461
57.37000 151.931
57.38000 153.449
57.39000 154.299
57.40000 153.001
57.41000 151.541
57.42000 150.533
57.43000 145.611
57.44000 141.811
57.45000 141.427
57.46000 145.944
57.47000 150.497
57.48000 151.113
57.49000 148.112
57.50000 145.139
57.51000 145.138
57.52000 146.878
57.53000 148.442
57.54000 146.295
57.55000 142.662
57.56000 139.468
57.57000 140.882
57.58000 143.528
57.59000 145.856
57.60000 144.820
57.61000 143.428
57.62000 142.372
57.63000 142.660
57.64000 143.087
57.65000 144.768
57.66000 149.783
57.67000 154.977
57.68000 158.326
57.69000 150.548
57.70000 144.708
57.71000 140.401
57.72000 137.883
57.73000 135.390
57.74000 137.124
57.75000 142.005
57.76000 146.794
57.77000 146.835
57.78000 144.616
57.79000 142.433
57.80000 140.770
57.81000 139.280
57.82000 138.202
57.83000 140.455
57.84000 143.436
57.85000 145.971
57.86000 143.750
57.87000 141.336
57.88000 139.639
57.89000 140.292
57.90000 141.128
57.91000 140.963
57.92000 138.599
57.93000 136.156
57.94000 134.700
57.95000 133.688
57.96000 132.973
57.97000 134.350
57.98000 137.689
57.99000 140.993
58.00000 141.896
58.01000 141.334
58.02000 140.789
58.03000 143.837
58.04000 148.107
58.05000 151.822
58.06000 149.527
58.07000 145.595
58.08000 142.198
58.09000 142.205
58.10000 142.814
58.11000 143.312
58.12000 142.170
58.13000 141.090
58.14000 140.119
58.15000 139.441
58.16000 138.780
58.17000 137.970
58.18000 136.891
58.19000 135.806
58.20000 135.216
58.21000 135.196
58.22000 135.193
58.23000 137.563
58.24000 141.735
58.25000 145.771
58.26000 144.838
58.27000 141.406
58.28000 138.136
58.29000 136.546
58.30000 135.598
58.31000 134.783
58.32000 135.070
58.33000 135.603
58.34000 136.644
58.35000 140.285
58.36000 144.292
58.37000 147.429
58.38000 144.827
58.39000 142.380
58.40000 140.232
58.41000 138.757
58.42000 137.307
58.43000 136.681
58.44000 137.284
58.45000 137.900
58.46000 136.260
58.47000 132.459
58.48000 128.738
58.49000 131.053
58.50000 137.119
58.51000 143.042
58.52000 145.672
58.53000 146.933
58.54000 148.111
58.55000 142.609
58.56000 135.933
58.57000 130.038
58.58000 129.226
58.59000 129.331
58.60000 130.828
58.61000 138.106
58.62000 146.018
58.63000 151.909
58.64000 142.449
58.65000 134.394
58.66000 132.342
58.67000 141.394
58.68000 150.691
58.69000 152.903
58.70000 146.492
58.71000 140.074
58.72000 135.348
58.73000 131.953
58.74000 128.666
58.75000 129.551
58.76000 132.574
58.77000 135.437
58.78000 135.785
58.79000 135.270
58.80000 134.800
58.81000 135.685
58.82000 136.742
58.83000 138.200
58.84000 141.745
58.85000 145.590
58.86000 147.577
58.87000 143.231
58.88000 138.360
58.89000 134.935
58.90000 138.983
58.91000 142.271
58.92000 140.970
58.93000 132.685
58.94000 124.327
58.95000 124.427
58.96000 132.814
58.97000 141.139
58.98000 147.083
58.99000 151.444
59.00000 155.470
59.01000 151.547
59.02000 144.258
59.03000 137.242
59.04000 133.361
59.05000 130.368
59.06000 127.712
59.07000 125.802
59.08000 124.267
59.09000 123.740
59.10000 127.490
59.11000 131.719
59.12000 134.830
59.13000 134.794
59.14000 134.570
59.15000 134.423
59.16000 132.730
59.17000 131.456
59.18000 130.680
59.19000 130.522
59.20000 130.371
59.21000 131.776
59.22000 134.411
59.23000 137.004
59.24000 138.567
59.25000 139.559
59.26000 140.410
59.27000 138.974
59.28000 136.737
59.29000 134.890
59.30000 136.447
59.31000 138.793
59.32000 140.809
59.33000 135.505
59.34000 130.106
59.35000 127.285
59.36000 133.418
59.37000 140.314
59.38000 144.320
59.39000 141.609
59.40000 138.624
59.41000 136.802
59.42000 131.844
59.43000 128.272
59.44000 127.584
59.45000 129.784
59.46000 131.987
59.47000 134.370
59.48000 136.870
59.49000 139.302
59.50000 138.923
59.51000 137.409
59.52000 135.661
59.53000 131.152
59.54000 125.845
59.55000 121.548
59.56000 124.127
59.57000 128.000
59.58000 131.208
59.59000 129.184
59.60000 127.015
59.61000 126.426
59.62000 130.362
59.63000 134.578
59.64000 137.640
59.65000 138.485
59.66000 139.274
59.67000 139.717
59.68000 139.705
59.69000 139.689
59.70000 137.524
59.71000 133.622
59.72000 129.826
59.73000 130.631
59.74000 133.883
59.75000 136.998
59.76000 136.043
59.77000 133.798
59.78000 131.653
59.79000 130.409
59.80000 129.377
59.81000 128.728
59.82000 130.156
59.83000 131.896
59.84000 133.278
59.85000 135.876
59.86000 138.053
59.87000 139.410
59.88000 138.825
59.89000 138.159
59.90000 136.890
59.91000 134.667
59.92000 132.433
59.93000 131.303
59.94000 128.443
59.95000 126.542
59.96000 125.947
59.97000 126.214
59.98000 126.561
59.99000 128.966
60.00000 132.277
60.01000 135.389
60.02000 138.423
60.03000 141.171
60.04000 143.429
60.05000 142.269
60.06000 140.451
60.07000 138.412
60.08000 135.392
60.09000 132.257
60.10000 129.886
60.11000 131.791
60.12000 133.501
60.13000 132.580
60.14000 126.513
60.15000 120.311
60.16000 118.360
60.17000 121.912
60.18000 125.481
60.19000 126.991
60.20000 126.805
60.21000 126.583
60.22000 124.751
60.23000 122.045
60.24000 119.564
60.25000 120.980
60.26000 123.814
60.27000 126.419
60.28000 125.672
60.29000 124.282
60.30000 123.442
60.31000 125.666
60.32000 128.361
60.33000 130.910
60.34000 132.926
60.35000 134.895
60.36000 136.304
60.37000 133.427
60.38000 131.085
60.39000 128.636
60.40000 126.014
60.41000 123.391
60.42000 122.437
60.43000 123.232
60.44000 124.023
60.45000 125.742
60.46000 128.054
60.47000 130.328
60.48000 131.598
60.49000 132.418
60.50000 133.181
60.51000 133.234
60.52000 133.075
60.53000 132.933
60.54000 130.033
60.55000 127.031
60.56000 125.311
60.57000 129.360
60.58000 134.108
60.59000 136.707
60.60000 132.918
60.61000 128.705
60.62000 125.874
60.63000 129.114
60.64000 131.646
60.65000 133.206
60.66000 133.482
60.67000 133.752
60.68000 133.647
60.69000 133.226
60.70000 132.810
60.71000 131.665
60.72000 130.159
60.73000 128.769
60.74000 129.485
60.75000 130.981
60.76000 132.271
60.77000 131.626
60.78000 130.504
60.79000 129.530
60.80000 130.571
60.81000 131.729
60.82000 131.718
60.83000 127.404
60.84000 122.690
60.85000 120.399
60.86000 124.056
60.87000 127.987
60.88000 130.444
60.89000 126.595
60.90000 123.751
60.91000 126.937
60.92000 136.569
60.93000 146.106
60.94000 144.282
60.95000 134.672
60.96000 125.290
60.97000 122.522
60.98000 122.762
60.99000 123.090
61.00000 124.556
61.01000 126.369
61.02000 128.164
61.03000 129.824
61.04000 131.457
61.05000 132.825
61.06000 133.585
61.07000 134.155
61.08000 134.366
61.09000 133.492
61.10000 132.543
61.11000 132.631
61.12000 134.829
61.13000 137.088
61.14000 138.387
61.15000 134.674
61.16000 132.059
61.17000 130.763
61.18000 130.599
61.19000 130.425
61.20000 129.756
61.21000 128.809
61.22000 127.897
61.23000 128.983
61.24000 130.711
61.25000 132.318
61.26000 132.768
61.27000 132.927
61.28000 133.053
61.29000 132.982
61.30000 132.879
61.31000 132.796
61.32000 137.795
61.33000 142.242
61.34000 144.785
61.35000 142.561
61.36000 140.108
61.37000 139.089
61.38000 140.472
61.39000 141.893
61.40000 142.635
61.41000 142.607
61.42000 142.600
61.43000 144.328
61.44000 147.268
61.45000 150.155
61.46000 151.482
61.47000 152.083
61.48000 152.652
61.49000 156.352
61.50000 160.649
61.51000 164.821
61.52000 168.052
61.53000 171.091
61.54000 174.388
61.55000 178.901
61.56000 183.568
61.57000 187.151
61.58000 197.410
61.59000 205.892
61.60000 216.394
61.61000 231.076
61.62000 245.887
61.63000 256.267
61.64000 260.559
61.65000 264.813
61.66000 263.623
61.67000 257.669
61.68000 251.868
61.69000 254.589
61.70000 262.199
61.71000 269.501
61.72000 270.828
61.73000 269.858
61.74000 268.960
61.75000 259.951
61.76000 249.986
61.77000 240.684
61.78000 235.320
61.79000 230.605
61.80000 223.634
61.81000 208.032
61.82000 191.583
61.83000 179.608
61.84000 169.392
61.85000 161.594
61.86000 154.811
61.87000 149.762
61.88000 144.742
61.89000 142.038
61.90000 141.917
61.91000 141.799
61.92000 142.783
61.93000 144.538
61.94000 146.271
61.95000 147.337
61.96000 148.087
61.97000 148.540
61.98000 144.940
61.99000 140.051
62.00000 135.639
62.01000 134.645
62.02000 134.400
62.03000 134.776
62.04000 138.127
62.05000 141.865
62.06000 144.754
62.07000 144.973
62.08000 144.998
62.09000 145.015
62.10000 141.442
62.11000 138.680
62.12000 136.917
62.13000 136.554
62.14000 136.201
62.15000 136.550
62.16000 137.526
62.17000 138.492
62.18000 138.822
62.19000 138.780
62.20000 138.864
62.21000 141.471
62.22000 145.066
62.23000 148.011
62.24000 144.336
62.25000 138.930
62.26000 134.194
62.27000 138.703
62.28000 143.908
62.29000 147.995
62.30000 147.721
62.31000 147.007
62.32000 146.921
62.33000 148.467
62.34000 150.097
62.35000 151.140
62.36000 143.953
62.37000 138.613
62.38000 135.589
62.39000 135.203
62.40000 134.822
62.41000 134.864
62.42000 135.214
62.43000 135.558
62.44000 137.493
62.45000 140.093
62.46000 142.396
62.47000 140.515
62.48000 137.279
62.49000 135.114
62.50000 141.357
62.51000 149.392
62.52000 156.198
62.53000 152.160
62.54000 147.565
62.55000 144.841
62.56000 148.115
62.57000 151.840
62.58000 153.800
62.59000 151.966
62.60000 150.004
62.61000 148.846
62.62000 143.317
62.63000 139.391
62.64000 139.310
62.65000 142.748
62.66000 146.134
62.67000 146.240
62.68000 144.391
62.69000 142.603
62.70000 141.020
62.71000 139.603
62.72000 138.089
62.73000 135.562
62.74000 132.764
62.75000 130.977
62.76000 135.457
62.77000 141.016
62.78000 145.543
62.79000 142.969
62.80000 140.266
62.81000 139.370
62.82000 143.259
62.83000 147.405
62.84000 147.703
62.85000 141.175
62.86000 134.516
62.87000 130.933
62.88000 137.861
62.89000 142.587
62.90000 143.795
62.91000 142.392
62.92000 141.080
62.93000 142.862
62.94000 146.167
62.95000 149.310
62.96000 147.550
62.97000 144.427
62.98000 141.339
62.99000 138.528
63.00000 135.778
63.01000 134.209
63.02000 138.529
63.03000 143.653
63.04000 147.644
63.05000 143.725
63.06000 140.115
63.07000 137.265
63.08000 136.078
63.09000 134.950
63.10000 136.302
63.11000 141.272
63.12000 146.272
63.13000 147.016
63.14000 143.784
63.15000 140.573
63.16000 138.787
63.17000 137.866
63.18000 136.889
63.19000 134.701
63.20000 132.020
63.21000 129.522
63.22000 132.284
63.23000 136.077
63.24000 139.801
63.25000 143.088
63.26000 146.298
63.27000 148.737
63.28000 148.050
63.29000 147.031
63.30000 146.277
63.31000 148.900
63.32000 151.081
63.33000 150.616
63.34000 145.364
63.35000 140.014
63.36000 137.815
63.37000 139.358
63.38000 140.904
63.39000 143.369
63.40000 146.511
63.41000 149.591
63.42000 150.479
63.43000 150.267
63.44000 150.015
63.45000 149.162
63.46000 148.106
63.47000 147.146
63.48000 145.332
63.49000 143.561
63.50000 142.279
63.51000 143.490
63.52000 145.049
63.53000 145.467
63.54000 142.082
63.55000 138.392
63.56000 135.817
63.57000 139.016
63.58000 141.593
63.59000 144.697
63.60000 148.585
63.61000 152.480
63.62000 153.839
63.63000 152.776
63.64000 151.723
63.65000 153.221
63.66000 156.245
63.67000 158.944
63.68000 154.327
63.69000 146.677
63.70000 139.925
63.71000 143.099
63.72000 149.022
63.73000 154.260
63.74000 151.532
63.75000 147.938
63.76000 145.963
63.77000 150.691
63.78000 156.150
63.79000 159.554
63.80000 157.311
63.81000 154.743
63.82000 153.066
63.83000 151.774
63.84000 150.831
63.85000 149.373
63.86000 147.289
63.87000 145.210
63.88000 144.829
63.89000 145.757
63.90000 146.670
63.91000 147.928
63.92000 149.314
63.93000 150.667
63.94000 151.509
63.95000 152.176
63.96000 152.512
63.97000 150.049
63.98000 146.953
63.99000 144.303
64.00000 146.382
64.01000 148.707
64.02000 150.932
64.03000 152.816
64.04000 154.671
64.05000 156.204
64.06000 157.004
64.07000 157.776
64.08000 158.243
64.09000 157.025
64.10000 156.146
64.11000 155.810
64.12000 156.006
64.13000 156.191
64.14000 155.553
64.15000 154.395
64.16000 153.270
64.17000 156.122
64.18000 160.422
64.19000 164.498
64.20000 166.015
64.21000 166.810
64.22000 167.183
64.23000 164.762
64.24000 161.828
64.25000 159.409
64.26000 160.160
64.27000 161.069
64.28000 161.597
64.29000 161.052
64.30000 160.444
64.31000 160.520
64.32000 161.881
64.33000 163.271
64.34000 164.041
64.35000 158.306
64.36000 154.347
64.37000 153.686
64.38000 155.625
64.39000 157.501
64.40000 156.836
64.41000 154.849
64.42000 152.949
64.43000 156.685
64.44000 161.992
64.45000 166.477
64.46000 163.833
64.47000 159.541
64.48000 156.095
64.49000 157.137
64.50000 158.837
64.51000 160.180
64.52000 165.250
64.53000 169.573
64.54000 170.221
64.55000 162.364
64.56000 154.163
64.57000 151.772
64.58000 158.360
64.59000 165.050
64.60000 168.193
64.61000 167.796
64.62000 167.394
64.63000 166.440
64.64000 165.131
64.65000 163.884
64.66000 164.154
64.67000 165.076
64.68000 165.941
64.69000 167.687
64.70000 169.508
64.71000 171.311
64.72000 172.994
64.73000 174.654
64.74000 175.260
64.75000 171.331
64.76000 166.881
64.77000 163.535
64.78000 169.707
64.79000 174.992
64.80000 177.855
64.81000 176.086
64.82000 174.203
64.83000 175.801
64.84000 181.798
64.85000 187.799
64.86000 187.168
64.87000 181.229
64.88000 175.374
64.89000 173.102
64.90000 172.731
64.91000 172.349
64.92000 171.804
64.93000 171.199
64.94000 170.646
64.95000 172.440
64.96000 174.532
64.97000 176.939
64.98000 181.055
64.99000 185.427
65.00000 188.313
65.01000 185.958
65.02000 183.145
65.03000 181.145
65.04000 182.758
65.05000 184.100
65.06000 185.771
65.07000 187.959
65.08000 190.153
65.09000 190.385
65.10000 188.618
65.11000 186.862
65.12000 188.597
65.13000 192.566
65.14000 196.524
65.15000 200.168
65.16000 203.674
65.17000 206.923
65.18000 207.076
65.19000 206.321
65.20000 205.646
65.21000 210.430
65.22000 215.503
65.23000 219.284
65.24000 217.393
65.25000 214.835
65.26000 213.905
65.27000 217.707
65.28000 221.810
65.29000 224.546
65.30000 222.728
65.31000 221.295
65.32000 221.042
65.33000 222.313
65.34000 223.589
65.35000 224.739
65.36000 225.785
65.37000 226.816
65.38000 229.091
65.39000 231.954
65.40000 234.893
65.41000 239.141
65.42000 243.865
65.43000 248.226
65.44000 249.280
65.45000 249.538
65.46000 249.761
65.47000 255.261
65.48000 260.622
65.49000 265.207
65.50000 267.003
65.51000 268.549
65.52000 269.810
65.53000 270.385
65.54000 270.931
65.55000 271.269
65.56000 280.087
65.57000 286.508
65.58000 294.866
65.59000 305.240
65.60000 315.540
65.61000 318.036
65.62000 315.306
65.63000 312.646
65.64000 322.151
65.65000 336.407
65.66000 351.173
65.67000 372.269
65.68000 395.256
65.69000 418.970
65.70000 447.848
65.71000 477.736
65.72000 502.662
65.73000 565.146
65.74000 620.709
65.75000 675.548
65.76000 728.244
65.77000 780.798
65.78000 828.628
65.79000 867.071
65.80000 905.257
65.81000 926.991
65.82000 949.895
65.83000 965.844
65.84000 972.415
65.85000 971.127
65.86000 970.031
65.87000 978.173
65.88000 991.401
65.89000 1004.109
65.90000 994.255
65.91000 977.233
65.92000 959.330
65.93000 933.180
65.94000 905.006
65.95000 875.305
65.96000 836.964
65.97000 797.267
65.98000 765.503
65.99000 684.954
66.00000 616.182
66.01000 554.126
66.02000 508.512
66.03000 463.647
66.04000 425.076
66.05000 396.813
66.06000 368.699
66.07000 354.200
66.08000 338.953
66.09000 328.702
66.10000 320.750
66.11000 314.367
66.12000 307.859
66.13000 297.820
66.14000 286.176
66.15000 275.190
66.16000 273.519
66.17000 274.589
66.18000 275.983
66.19000 279.735
66.20000 283.959
66.21000 287.879
66.22000 290.410
66.23000 292.770
66.24000 294.571
66.25000 299.721
66.26000 303.959
66.27000 310.112
66.28000 320.145
66.29000 330.289
66.30000 339.984
66.31000 349.075
66.32000 358.155
66.33000 368.744
66.34000 380.598
66.35000 392.352
66.36000 398.983
66.37000 402.742
66.38000 406.560
66.39000 411.499
66.40000 416.859
66.41000 421.808
66.42000 421.183
66.43000 419.372
66.44000 417.490
66.45000 415.201
66.46000 412.847
66.47000 410.768
66.48000 409.718
66.49000 408.766
66.50000 408.077
66.51000 387.225
66.52000 370.489
66.53000 357.096
66.54000 349.288
66.55000 341.567
66.56000 337.157
66.57000 336.348
66.58000 335.545
66.59000 328.814
66.60000 318.073
66.61000 307.580
66.62000 304.346
66.63000 304.477
66.64000 304.378
66.65000 301.256
66.66000 297.194
66.67000 293.541
66.68000 300.937
66.69000 309.393
66.70000 315.612
66.71000 311.394
66.72000 305.854
66.73000 302.176
66.74000 304.225
66.75000 306.676
66.76000 308.343
66.77000 313.467
66.78000 317.370
66.79000 319.489
66.80000 319.165
66.81000 318.825
66.82000 317.408
66.83000 315.051
66.84000 312.720
66.85000 310.848
66.86000 309.275
66.87000 307.887
66.88000 310.034
66.89000 313.536
66.90000 316.517
66.91000 314.360
66.92000 310.893
66.93000 307.865
66.94000 310.082
66.95000 312.715
66.96000 316.525
66.97000 324.816
66.98000 333.545
66.99000 338.557
67.00000 334.125
67.01000 329.227
67.02000 326.123
67.03000 327.803
67.04000 329.079
67.05000 333.413
67.06000 341.143
67.07000 348.829
67.08000 349.884
67.09000 346.230
67.10000 342.655
67.11000 342.978
67.12000 345.055
67.13000 347.379
67.14000 353.065
67.15000 359.815
67.16000 365.023
67.17000 358.475
67.18000 349.480
67.19000 341.894
67.20000 345.290
67.21000 349.317
67.22000 353.120
67.23000 356.219
67.24000 359.268
67.25000 361.307
67.26000 361.225
67.27000 361.075
67.28000 360.987
67.29000 367.945
67.30000 372.869
67.31000 370.982
67.32000 363.021
67.33000 355.244
67.34000 358.222
67.35000 367.469
67.36000 376.394
67.37000 380.994
67.38000 383.735
67.39000 386.434
67.40000 388.710
67.41000 390.877
67.42000 392.745
67.43000 392.813
67.44000 392.578
67.45000 392.388
67.46000 388.758
67.47000 385.521
67.48000 383.551
67.49000 384.863
67.50000 386.344
67.51000 391.190
67.52000 401.876
67.53000 412.666
67.54000 418.403
67.55000 402.213
67.56000 391.274
67.57000 395.473
67.58000 410.640
67.59000 425.505
67.60000 430.633
67.61000 431.078
67.62000 431.500
67.63000 430.751
67.64000 429.712
67.65000 427.997
67.66000 420.999
67.67000 412.878
67.68000 407.132
67.69000 412.928
67.70000 420.259
67.71000 425.936
67.72000 430.243
67.73000 433.581
67.74000 437.444
67.75000 442.429
67.76000 447.451
67.77000 450.302
67.78000 450.062
67.79000 449.798
67.80000 448.162
67.81000 445.279
67.82000 442.454
67.83000 443.366
67.84000 446.498
67.85000 449.883
67.86000 458.524
67.87000 469.256
67.88000 479.230
67.89000 475.836
67.90000 469.570
67.91000 465.132
67.92000 471.972
67.93000 480.745
67.94000 485.877
67.95000 476.577
67.96000 465.793
67.97000 457.862
67.98000 479.486
67.99000 497.427
68.00000 508.394
68.01000 507.030
68.02000 505.432
68.03000 501.961
68.04000 496.321
68.05000 490.697
68.06000 490.585
68.07000 494.518
68.08000 498.570
68.09000 506.670
68.10000 516.755
68.11000 526.459
68.12000 530.636
68.13000 532.996
68.14000 535.136
68.15000 534.906
68.16000 534.248
68.17000 535.550
68.18000 546.572
68.19000 558.917
68.20000 568.754
68.21000 570.424
68.22000 571.464
68.23000 572.185
68.24000 568.051
68.25000 564.812
68.26000 564.139
68.27000 567.195
68.28000 570.284
68.29000 578.113
68.30000 590.354
68.31000 602.484
68.32000 610.170
68.33000 615.067
68.34000 619.697
68.35000 618.580
68.36000 615.135
68.37000 612.591
68.38000 619.695
68.39000 629.409
68.40000 637.970
68.41000 644.530
68.42000 649.880
68.43000 653.770
68.44000 651.754
68.45000 649.113
68.46000 651.298
68.47000 666.451
68.48000 682.318
68.49000 692.595
68.50000 710.441
68.51000 723.612
68.52000 739.132
68.53000 757.431
68.54000 775.698
68.55000 786.363
68.56000 791.297
68.57000 796.140
68.58000 810.921
68.59000 829.968
68.60000 849.547
68.61000 877.100
68.62000 907.324
68.63000 938.757
68.64000 980.106
68.65000 1023.648
68.66000 1060.763
68.67000 1116.047
68.68000 1164.682
68.69000 1215.075
68.70000 1271.301
68.71000 1327.991
68.72000 1379.453
68.73000 1419.293
68.74000 1458.707
68.75000 1482.323
68.76000 1574.050
68.77000 1639.630
68.78000 1681.190
68.79000 1699.905
68.80000 1719.232
68.81000 1782.959
68.82000 1874.094
68.83000 1962.443
68.84000 2043.202
68.85000 2116.723
68.86000 2196.251
68.87000 2341.879
68.88000 2505.744
68.89000 2695.334
68.90000 3050.986
68.91000 3436.362
68.92000 3752.539
68.93000 5126.466
68.94000 6348.168
68.95000 7947.696
68.96000 10581.837
68.97000 13275.072
68.98000 16440.656
68.99000 20473.602
69.00000 24525.281
69.01000 26743.840
69.02000 32573.361
69.03000 36583.660
69.04000 39804.230
69.05000 42417.273
69.06000 44999.086
69.07000 46403.609
69.08000 47209.156
69.09000 47977.676
69.10000 48413.074
69.11000 48711.688
69.12000 49027.375
69.13000 49486.680
69.14000 49978.398
69.15000 50478.336
69.16000 51020.789
69.17000 51569.309
69.18000 52000.094
69.19000 51601.090
69.20000 51227.465
69.21000 50322.906
69.22000 48216.000
69.23000 46063.055
69.24000 43517.590
69.25000 40379.219
69.26000 37234.910
69.27000 34602.469
69.28000 32467.664
69.29000 30340.871
69.30000 28843.674
69.31000 27742.703
69.32000 26656.344
69.33000 25911.506
69.34000 25310.318
69.35000 24747.900
69.36000 24073.738
69.37000 23432.740
69.38000 22709.916
69.39000 21446.820
69.40000 20084.930
69.41000 18596.160
69.42000 16573.936
69.43000 14492.332
69.44000 12937.038
69.45000 10497.171
69.46000 8554.321
69.47000 6896.853
69.48000 5773.407
69.49000 4662.202
69.50000 3784.331
69.51000 3194.093
69.52000 2605.794
69.53000 2223.429
69.54000 2003.849
69.55000 1786.117
69.56000 1641.972
69.57000 1535.976
69.58000 1431.944
69.59000 1359.324
69.60000 1297.629
69.61000 1241.248
69.62000 1199.757
69.63000 1165.950
69.64000 1132.472
69.65000 1100.734
69.66000 1069.250
69.67000 1039.130
69.68000 1013.713
69.69000 988.692
69.70000 971.032
69.71000 947.552
69.72000 929.557
69.73000 906.641
69.74000 876.146
69.75000 845.567
69.76000 825.809
69.77000 816.799
69.78000 807.853
69.79000 794.890
69.80000 779.596
69.81000 764.553
69.82000 755.609
69.83000 749.278
69.84000 742.688
69.85000 733.067
69.86000 722.578
69.87000 713.252
69.88000 693.985
69.89000 675.655
69.90000 661.508
69.91000 665.306
69.92000 671.153
69.93000 671.330
69.94000 655.389
69.95000 638.460
69.96000 627.264
69.97000 630.833
69.98000 633.732
69.99000 633.995
70.00000 630.943
