20.00000 578.397
20.01000 573.258
20.02000 567.384
20.03000 562.596
20.04000 562.003
20.05000 561.826
20.06000 561.697
20.07000 563.654
20.08000 565.245
20.09000 567.757
20.10000 571.860
20.11000 575.991
20.12000 574.840
20.13000 567.733
20.14000 560.647
20.15000 565.608
20.16000 579.121
20.17000 592.070
20.18000 587.030
20.19000 573.385
20.20000 560.569
20.21000 559.294
20.22000 561.722
20.23000 563.915
20.24000 572.620
20.25000 581.486
20.26000 586.916
20.27000 575.737
20.28000 562.364
20.29000 552.022
20.30000 551.307
20.31000 551.305
20.32000 551.304
20.33000 565.800
20.34000 577.032
20.35000 575.242
20.36000 555.012
20.37000 534.658
20.38000 530.906
20.39000 542.189
20.40000 553.357
20.41000 552.929
20.42000 545.807
20.43000 539.299
20.44000 545.385
20.45000 556.453
20.46000 566.667
20.47000 568.056
20.48000 567.115
20.49000 566.289
20.50000 553.110
20.51000 539.980
20.52000 530.930
20.53000 537.955
20.54000 546.623
20.55000 553.341
20.56000 554.946
20.57000 556.282
20.58000 557.139
20.59000 557.858
20.60000 558.381
20.61000 559.763
20.62000 562.134
20.63000 564.472
20.64000 560.727
20.65000 552.513
20.66000 544.460
20.67000 547.094
20.68000 554.644
20.69000 562.214
20.70000 570.075
20.71000 578.030
20.72000 584.583
20.73000 579.995
20.74000 573.005
20.75000 567.074
20.76000 562.703
20.77000 559.215
20.78000 556.738
20.79000 557.534
20.80000 558.580
20.81000 556.471
20.82000 547.513
20.83000 538.319
20.84000 532.869
20.85000 551.208
20.86000 564.312
20.87000 566.114
20.88000 557.461
20.89000 548.950
20.90000 549.716
20.91000 556.070
20.92000 562.218
20.93000 564.964
20.94000 566.263
20.95000 566.876
20.96000 560.190
20.97000 551.542
20.98000 543.701
20.99000 540.927
21.00000 539.035
21.01000 537.491
21.02000 543.026
21.03000 548.161
21.04000 550.861
21.05000 547.053
21.06000 542.889
21.07000 539.028
21.08000 535.708
21.09000 532.400
21.10000 530.610
21.11000 545.321
21.12000 555.369
21.13000 557.144
21.14000 552.717
21.15000 548.428
21.16000 548.977
21.17000 551.931
21.18000 554.741
21.19000 550.668
21.20000 544.774
21.21000 539.341
21.22000 537.666
21.23000 536.818
21.24000 536.716
21.25000 540.373
21.26000 544.551
21.27000 547.813
21.28000 544.175
21.29000 540.840
21.30000 541.595
21.31000 551.390
21.32000 561.512
21.33000 566.186
21.34000 562.835
21.35000 559.412
21.36000 558.626
21.37000 560.332
21.38000 562.021
21.39000 562.500
21.40000 562.237
21.41000 561.799
21.42000 557.483
21.43000 551.575
21.44000 546.063
21.45000 539.895
21.46000 534.143
21.47000 529.650
21.48000 533.220
21.49000 538.225
21.50000 541.708
21.51000 538.951
21.52000 535.522
21.53000 532.977
21.54000 541.465
21.55000 548.545
21.56000 554.053
21.57000 556.691
21.58000 559.268
21.59000 560.838
21.60000 561.198
21.61000 561.556
21.62000 555.815
21.63000 545.474
21.64000 535.534
21.65000 540.491
21.66000 552.986
21.67000 564.643
21.68000 563.452
21.69000 557.900
21.70000 552.842
21.71000 555.964
21.72000 560.354
21.73000 563.853
21.74000 562.761
21.75000 561.020
21.76000 560.810
21.77000 565.753
21.78000 571.113
21.79000 574.868
21.80000 576.105
21.81000 576.970
21.82000 576.982
21.83000 575.714
21.84000 574.434
21.85000 578.145
21.86000 586.677
21.87000 595.142
21.88000 596.214
21.89000 592.722
21.90000 589.460
21.91000 591.524
21.92000 595.816
21.93000 600.065
21.94000 603.823
21.95000 607.444
21.96000 610.652
21.97000 608.914
21.98000 606.633
21.99000 605.006
22.00000 606.113
22.01000 607.521
22.02000 608.914
22.03000 610.261
22.04000 611.606
22.05000 612.487
22.06000 605.987
22.07000 601.084
22.08000 602.980
22.09000 613.206
22.10000 623.407
22.11000 621.426
22.12000 609.936
22.13000 598.637
22.14000 590.767
22.15000 584.865
22.16000 579.559
22.17000 583.710
22.18000 591.131
22.19000 597.990
22.20000 600.042
22.21000 600.992
22.22000 601.806
22.23000 601.840
22.24000 601.773
22.25000 601.675
22.26000 601.474
22.27000 601.265
22.28000 599.850
22.29000 595.668
22.30000 591.377
22.31000 588.770
22.32000 585.651
22.33000 583.420
22.34000 578.387
22.35000 570.587
22.36000 562.843
22.37000 559.776
22.38000 559.693
22.39000 559.612
22.40000 558.715
22.41000 557.532
22.42000 556.255
22.43000 553.890
22.44000 551.216
22.45000 548.768
22.46000 547.843
22.47000 547.200
22.48000 546.669
22.49000 542.663
22.50000 539.038
22.51000 534.988
22.52000 529.739
22.53000 524.418
22.54000 522.210
22.55000 525.906
22.56000 529.744
22.57000 531.880
22.58000 523.382
22.59000 517.514
22.60000 521.276
22.61000 532.706
22.62000 543.926
22.63000 546.397
22.64000 544.271
22.65000 542.237
22.66000 540.716
22.67000 539.467
22.68000 537.564
22.69000 529.922
22.70000 520.938
22.71000 512.744
22.72000 508.786
22.73000 505.457
22.74000 502.822
22.75000 515.380
22.76000 526.523
22.77000 532.694
22.78000 527.238
22.79000 521.303
22.80000 517.302
22.81000 516.322
22.82000 515.378
22.83000 514.904
22.84000 517.525
22.85000 519.260
22.86000 519.653
22.87000 519.173
22.88000 518.656
22.89000 517.191
22.90000 515.315
22.91000 513.554
22.92000 521.676
22.93000 531.701
22.94000 539.035
22.95000 527.896
22.96000 513.254
22.97000 502.758
22.98000 510.303
22.99000 519.945
23.00000 527.212
23.01000 529.655
23.02000 531.331
23.03000 531.183
23.04000 527.508
23.05000 523.744
23.06000 519.228
23.07000 513.752
23.08000 508.281
23.09000 506.956
23.10000 508.995
23.11000 511.074
23.12000 514.965
23.13000 519.825
23.14000 524.126
23.15000 518.942
23.16000 510.351
23.17000 502.468
23.18000 504.013
23.19000 507.393
23.20000 510.426
23.21000 511.548
23.22000 512.381
23.23000 513.340
23.24000 514.748
23.25000 516.197
23.26000 517.230
23.27000 513.231
23.28000 510.018
23.29000 507.508
23.30000 506.119
23.31000 504.744
23.32000 507.286
23.33000 513.868
23.34000 520.409
23.35000 523.062
23.36000 523.133
23.37000 523.144
23.38000 521.570
23.39000 519.295
23.40000 517.225
23.41000 517.661
23.42000 518.839
23.43000 519.891
23.44000 521.263
23.45000 522.511
23.46000 521.750
23.47000 512.068
23.48000 501.322
23.49000 496.087
23.50000 507.028
23.51000 519.019
23.52000 527.041
23.53000 519.257
23.54000 513.172
23.55000 512.009
23.56000 517.257
23.57000 522.525
23.58000 523.950
23.59000 522.187
23.60000 520.448
23.61000 517.305
23.62000 513.506
23.63000 509.982
23.64000 511.309
23.65000 514.409
23.66000 516.602
23.67000 510.409
23.68000 502.178
23.69000 495.049
23.70000 496.946
23.71000 499.752
23.72000 505.494
23.73000 521.898
23.74000 539.273
23.75000 549.106
23.76000 540.637
23.77000 531.349
23.78000 525.573
23.79000 530.075
23.80000 533.420
23.81000 535.477
23.82000 536.178
23.83000 536.887
23.84000 538.516
23.85000 540.769
23.86000 542.966
23.87000 535.944
23.88000 525.266
23.89000 515.669
23.90000 519.721
23.91000 527.894
23.92000 535.784
23.93000 541.633
23.94000 547.078
23.95000 551.628
23.96000 542.012
23.97000 532.592
23.98000 528.218
23.99000 538.941
24.00000 550.675
24.01000 556.127
24.02000 548.977
24.03000 541.473
24.04000 537.181
24.05000 547.534
24.06000 554.803
24.07000 556.621
24.08000 553.822
24.09000 551.169
24.10000 555.701
24.11000 564.228
24.12000 572.428
24.13000 563.581
24.14000 549.336
24.15000 536.607
24.16000 538.255
24.17000 543.467
24.18000 547.250
24.19000 542.855
24.20000 537.162
24.21000 532.596
24.22000 530.431
24.23000 528.860
24.24000 524.098
24.25000 511.447
24.26000 498.429
24.27000 491.296
24.28000 493.900
24.29000 496.650
24.30000 498.076
24.31000 491.763
24.32000 487.532
24.33000 486.983
24.34000 488.975
24.35000 491.170
24.36000 499.197
24.37000 509.903
24.38000 520.015
24.39000 515.232
24.40000 506.638
24.41000 498.284
24.42000 491.702
24.43000 485.477
24.44000 480.535
24.45000 481.522
24.46000 483.251
24.47000 484.574
24.48000 487.652
24.49000 490.176
24.50000 490.711
24.51000 487.179
24.52000 483.526
24.53000 482.090
24.54000 483.660
24.55000 485.246
24.56000 487.332
24.57000 489.845
24.58000 492.381
24.59000 496.093
24.60000 500.471
24.61000 504.305
24.62000 497.872
24.63000 487.541
24.64000 477.992
24.65000 485.477
24.66000 496.061
24.67000 503.511
24.68000 492.636
24.69000 478.786
24.70000 467.641
24.71000 466.710
24.72000 466.762
24.73000 466.800
24.74000 471.108
24.75000 474.577
24.76000 479.691
24.77000 487.580
24.78000 495.513
24.79000 500.374
24.80000 501.857
24.81000 503.331
24.82000 501.161
24.83000 496.478
24.84000 491.877
24.85000 489.759
24.86000 488.803
24.87000 487.946
24.88000 488.421
24.89000 489.314
24.90000 490.119
24.91000 491.187
24.92000 492.171
24.93000 492.197
24.94000 487.703
24.95000 482.629
24.96000 480.552
24.97000 487.787
24.98000 495.688
24.99000 501.078
25.00000 499.108
25.01000 497.464
25.02000 491.968
25.03000 481.144
25.04000 470.296
25.05000 469.021
25.06000 476.204
25.07000 483.307
25.08000 482.485
25.09000 477.212
25.10000 472.450
25.11000 477.685
25.12000 486.789
25.13000 494.315
25.14000 486.051
25.15000 473.716
25.16000 462.929
25.17000 469.235
25.18000 477.068
25.19000 484.801
25.20000 492.152
25.21000 499.464
25.22000 504.011
25.23000 501.460
25.24000 498.552
25.25000 496.701
25.26000 492.521
25.27000 489.454
25.28000 482.532
25.29000 471.279
25.30000 460.127
25.31000 464.606
25.32000 480.302
25.33000 495.669
25.34000 490.522
25.35000 476.186
25.36000 462.884
25.37000 463.892
25.38000 469.475
25.39000 474.838
25.40000 478.510
25.41000 481.827
25.42000 484.630
25.43000 478.834
25.44000 473.043
25.45000 467.308
25.46000 461.749
25.47000 456.203
25.48000 454.611
25.49000 461.410
25.50000 468.483
25.51000 472.635
25.52000 464.883
25.53000 459.365
25.54000 459.620
25.55000 465.082
25.56000 470.452
25.57000 470.201
25.58000 466.643
25.59000 463.205
25.60000 458.721
25.61000 454.104
25.62000 449.737
25.63000 447.938
25.64000 446.813
25.65000 446.655
25.66000 452.404
25.67000 459.154
25.68000 464.637
25.69000 468.852
25.70000 472.186
25.71000 474.211
25.72000 472.818
25.73000 471.246
25.74000 469.718
25.75000 468.264
25.76000 466.812
25.77000 466.035
25.78000 465.952
25.79000 465.879
25.80000 463.105
25.81000 458.352
25.82000 453.756
25.83000 454.347
25.84000 457.457
25.85000 460.412
25.86000 464.117
25.87000 467.766
25.88000 471.250
25.89000 473.438
25.90000 475.348
25.91000 476.332
25.92000 472.763
25.93000 468.582
25.94000 465.336
25.95000 477.897
25.96000 488.840
25.97000 495.187
25.98000 491.596
25.99000 487.665
26.00000 483.416
26.01000 478.707
26.02000 473.996
26.03000 470.529
26.04000 468.209
26.05000 465.893
26.06000 463.746
26.07000 461.701
26.08000 459.806
26.09000 461.079
26.10000 463.626
26.11000 465.995
26.12000 463.523
26.13000 460.117
26.14000 458.024
26.15000 464.133
26.16000 471.664
26.17000 478.104
26.18000 480.177
26.19000 481.795
26.20000 482.988
26.21000 473.364
26.22000 465.456
26.23000 463.524
26.24000 472.264
26.25000 481.213
26.26000 482.881
26.27000 476.021
26.28000 469.167
26.29000 465.065
26.30000 463.033
26.31000 461.132
26.32000 463.813
26.33000 468.761
26.34000 473.306
26.35000 471.894
26.36000 468.506
26.37000 465.429
26.38000 457.234
26.39000 449.004
26.40000 442.256
26.41000 442.941
26.42000 444.650
26.43000 446.543
26.44000 449.039
26.45000 451.582
26.46000 453.351
26.47000 456.013
26.48000 458.044
26.49000 457.695
26.50000 453.853
26.51000 449.980
26.52000 447.923
26.53000 447.575
26.54000 447.231
26.55000 448.916
26.56000 451.787
26.57000 454.488
26.58000 453.444
26.59000 450.869
26.60000 448.470
26.61000 447.984
26.62000 448.021
26.63000 448.054
26.64000 447.080
26.65000 446.085
26.66000 447.010
26.67000 455.775
26.68000 465.379
26.69000 469.697
26.70000 459.668
26.71000 448.833
26.72000 441.790
26.73000 440.166
26.74000 439.060
26.75000 440.166
26.76000 443.915
26.77000 447.649
26.78000 446.628
26.79000 441.984
26.80000 437.423
26.81000 439.139
26.82000 443.851
26.83000 448.091
26.84000 445.143
26.85000 439.764
26.86000 435.393
26.87000 439.403
26.88000 445.287
26.89000 450.311
26.90000 450.038
26.91000 449.178
26.92000 447.656
26.93000 443.918
26.94000 440.000
26.95000 439.414
26.96000 446.307
26.97000 453.481
26.98000 457.797
26.99000 453.549
27.00000 450.469
27.01000 448.385
27.02000 447.261
27.03000 446.133
27.04000 444.735
27.05000 443.167
27.06000 441.647
27.07000 444.226
27.08000 448.291
27.09000 452.071
27.10000 452.675
27.11000 452.394
27.12000 451.958
27.13000 450.518
27.14000 448.896
27.15000 447.562
27.16000 441.553
27.17000 436.193
27.18000 434.163
27.19000 441.341
27.20000 449.055
27.21000 453.409
27.22000 451.532
27.23000 449.517
27.24000 448.408
27.25000 445.878
27.26000 444.120
27.27000 439.004
27.28000 431.277
27.29000 423.771
27.30000 424.852
27.31000 430.344
27.32000 435.588
27.33000 447.161
27.34000 459.940
27.35000 470.707
27.36000 464.329
27.37000 454.040
27.38000 445.661
27.39000 447.271
27.40000 450.324
27.41000 452.727
27.42000 444.244
27.43000 436.722
27.44000 430.878
27.45000 428.871
27.46000 427.015
27.47000 427.884
27.48000 432.913
27.49000 437.987
27.50000 440.751
27.51000 441.244
27.52000 441.692
27.53000 438.353
27.54000 432.608
27.55000 427.196
27.56000 429.730
27.57000 435.638
27.58000 441.172
27.59000 441.818
27.60000 441.143
27.61000 440.357
27.62000 438.833
27.63000 437.172
27.64000 435.836
27.65000 435.878
27.66000 436.075
27.67000 436.222
27.68000 432.302
27.69000 429.050
27.70000 428.872
27.71000 434.499
27.72000 440.264
27.73000 444.665
27.74000 447.368
27.75000 450.060
27.76000 455.379
27.77000 462.748
27.78000 469.852
27.79000 466.124
27.80000 456.726
27.81000 448.093
27.82000 451.914
27.83000 460.109
27.84000 467.607
27.85000 464.278
27.86000 459.077
27.87000 453.704
27.88000 447.413
27.89000 440.987
27.90000 437.440
27.91000 443.915
27.92000 451.248
27.93000 456.440
27.94000 436.555
27.95000 420.663
27.96000 411.019
27.97000 411.095
27.98000 411.283
27.99000 415.988
28.00000 425.231
28.01000 434.412
28.02000 437.809
28.03000 437.464
28.04000 437.038
28.05000 434.603
28.06000 431.300
28.07000 428.354
28.08000 429.631
28.09000 432.131
28.10000 434.357
28.11000 429.789
28.12000 424.706
28.13000 421.784
28.14000 428.236
28.15000 435.771
28.16000 439.158
28.17000 430.635
28.18000 421.370
28.19000 415.221
28.20000 419.684
28.21000 423.178
28.22000 425.122
28.23000 425.096
28.24000 425.075
28.25000 429.679
28.26000 438.028
28.27000 446.254
28.28000 443.467
28.29000 435.062
28.30000 426.966
28.31000 424.067
28.32000 423.028
28.33000 422.123
28.34000 422.425
28.35000 423.014
28.36000 423.522
28.37000 419.431
28.38000 415.370
28.39000 413.050
28.40000 416.905
28.41000 421.304
28.42000 425.411
28.43000 428.826
28.44000 432.211
28.45000 434.297
28.46000 430.437
28.47000 427.613
28.48000 425.217
28.49000 423.261
28.50000 421.279
28.51000 416.686
28.52000 410.370
28.53000 404.217
28.54000 400.253
28.55000 397.394
28.56000 395.667
28.57000 407.738
28.58000 423.881
28.59000 437.156
28.60000 430.366
28.61000 419.705
28.62000 410.838
28.63000 408.963
28.64000 408.097
28.65000 406.302
28.66000 401.787
28.67000 397.097
28.68000 399.422
28.69000 415.511
28.70000 431.962
28.71000 441.270
28.72000 434.333
28.73000 429.457
28.74000 422.742
28.75000 414.507
28.76000 406.448
28.77000 406.480
28.78000 410.911
28.79000 415.164
28.80000 420.436
28.81000 425.712
28.82000 429.940
28.83000 424.539
28.84000 416.806
28.85000 411.255
28.86000 417.876
28.87000 426.378
28.88000 433.161
28.89000 433.769
28.90000 433.807
28.91000 432.371
28.92000 427.369
28.93000 422.209
28.94000 418.451
28.95000 416.961
28.96000 415.501
28.97000 414.754
28.98000 406.266
28.99000 400.666
29.00000 406.263
29.01000 419.406
29.02000 432.081
29.03000 432.044
29.04000 426.297
29.05000 420.883
29.06000 416.534
29.07000 412.848
29.08000 410.359
29.09000 416.454
29.10000 424.239
29.11000 430.877
29.12000 432.337
29.13000 433.168
29.14000 433.800
29.15000 425.445
29.16000 418.401
29.17000 413.856
29.18000 414.306
29.19000 414.896
29.20000 415.823
29.21000 417.198
29.22000 418.573
29.23000 418.801
29.24000 418.062
29.25000 417.249
29.26000 412.777
29.27000 406.279
29.28000 399.949
29.29000 396.649
29.30000 394.474
29.31000 392.470
29.32000 397.506
29.33000 403.571
29.34000 408.924
29.35000 410.219
29.36000 410.873
29.37000 412.221
29.38000 416.136
29.39000 420.289
29.40000 423.281
29.41000 413.878
29.42000 406.236
29.43000 399.587
29.44000 394.574
29.45000 389.585
29.46000 391.982
29.47000 402.298
29.48000 412.565
29.49000 418.388
29.50000 421.123
29.51000 423.752
29.52000 423.352
29.53000 421.567
29.54000 419.565
29.55000 414.749
29.56000 409.071
29.57000 403.973
29.58000 409.943
29.59000 417.115
29.60000 422.958
29.61000 422.689
29.62000 421.658
29.63000 420.538
29.64000 419.150
29.65000 417.743
29.66000 416.790
29.67000 415.569
29.68000 414.654
29.69000 413.719
29.70000 412.760
29.71000 411.799
29.72000 409.557
29.73000 406.213
29.74000 402.910
29.75000 398.926
29.76000 394.668
29.77000 390.856
29.78000 395.426
29.79000 403.168
29.80000 410.512
29.81000 414.004
29.82000 416.526
29.83000 418.723
29.84000 414.374
29.85000 409.755
29.86000 407.416
29.87000 413.654
29.88000 420.713
29.89000 425.141
29.90000 422.963
29.91000 420.468
29.92000 418.895
29.93000 421.417
29.94000 423.291
29.95000 422.463
29.96000 418.676
29.97000 414.956
29.98000 420.385
29.99000 432.226
30.00000 443.802
30.01000 436.989
30.02000 422.240
30.03000 408.936
30.04000 414.881
30.05000 426.841
30.06000 437.415
30.07000 437.582
30.08000 435.613
30.09000 433.957
30.10000 431.595
30.11000 429.550
30.12000 427.692
30.13000 426.414
30.14000 425.178
30.15000 423.589
30.16000 421.270
30.17000 418.929
30.18000 417.568
30.19000 431.924
30.20000 442.065
30.21000 445.086
30.22000 441.845
30.23000 438.571
30.24000 433.415
30.25000 427.178
30.26000 421.163
30.27000 418.086
30.28000 416.256
30.29000 414.395
30.30000 412.220
30.31000 409.965
30.32000 409.195
30.33000 417.265
30.34000 426.797
30.35000 434.500
30.36000 433.099
30.37000 431.232
30.38000 428.653
30.39000 424.255
30.40000 419.767
30.41000 418.460
30.42000 422.600
30.43000 426.833
30.44000 429.069
30.45000 425.053
30.46000 422.361
30.47000 425.436
30.48000 432.633
30.49000 439.454
30.50000 434.549
30.51000 424.073
30.52000 414.145
30.53000 414.930
30.54000 418.796
30.55000 421.926
30.56000 419.397
30.57000 415.682
30.58000 413.457
30.59000 418.383
30.60000 424.244
30.61000 428.769
30.62000 429.086
30.63000 429.093
30.64000 429.339
30.65000 430.089
30.66000 430.856
30.67000 428.294
30.68000 421.054
30.69000 413.784
30.70000 413.432
30.71000 419.290
30.72000 425.181
30.73000 433.074
30.74000 442.141
30.75000 450.970
30.76000 454.972
30.77000 457.078
30.78000 459.033
30.79000 450.960
30.80000 441.316
30.81000 432.882
30.82000 431.805
30.83000 431.972
30.84000 433.486
30.85000 440.272
30.86000 447.591
30.87000 452.954
30.88000 460.509
30.89000 466.431
30.90000 470.570
30.91000 471.598
30.92000 472.570
30.93000 479.340
30.94000 492.735
30.95000 506.091
30.96000 509.460
30.97000 505.578
30.98000 501.932
30.99000 506.032
31.00000 513.880
31.01000 521.833
31.02000 531.268
31.03000 541.184
31.04000 550.162
31.05000 561.061
31.06000 571.024
31.07000 582.870
31.08000 603.927
31.09000 626.219
31.10000 648.000
31.11000 668.137
31.12000 688.149
31.13000 701.962
31.14000 721.216
31.15000 735.823
31.16000 762.589
31.17000 806.786
31.18000 851.113
31.19000 881.428
31.20000 898.883
31.21000 916.170
31.22000 938.961
31.23000 964.500
31.24000 990.271
31.25000 1020.935
31.26000 1053.557
31.27000 1086.171
31.28000 1118.695
31.29000 1151.195
31.30000 1179.776
31.31000 1194.018
31.32000 1204.143
31.33000 1220.582
31.34000 1262.208
31.35000 1306.449
31.36000 1334.587
31.37000 1319.985
31.38000 1303.084
31.39000 1292.189
31.40000 1305.900
31.41000 1316.263
31.42000 1318.177
31.43000 1310.233
31.44000 1302.240
31.45000 1287.904
31.46000 1268.848
31.47000 1250.154
31.48000 1209.335
31.49000 1159.489
31.50000 1111.334
31.51000 1087.950
31.52000 1072.758
31.53000 1055.001
31.54000 1016.542
31.55000 973.563
31.56000 937.015
31.57000 913.561
31.58000 895.371
31.59000 875.353
31.60000 849.344
31.61000 822.868
31.62000 797.384
31.63000 774.078
31.64000 750.849
31.65000 737.007
31.66000 683.914
31.67000 646.053
31.68000 625.156
31.69000 620.163
31.70000 615.096
31.71000 604.967
31.72000 591.752
31.73000 578.953
31.74000 560.417
31.75000 540.670
31.76000 521.774
31.77000 512.078
31.78000 504.887
31.79000 498.229
31.80000 494.966
31.81000 492.302
31.82000 490.123
31.83000 485.407
31.84000 481.322
31.85000 475.858
31.86000 466.667
31.87000 457.269
31.88000 451.048
31.89000 450.591
31.90000 450.252
31.91000 450.068
31.92000 444.926
31.93000 441.387
31.94000 436.777
31.95000 431.353
31.96000 426.076
31.97000 426.155
31.98000 428.926
31.99000 431.565
32.00000 433.756
32.01000 435.647
32.02000 436.735
32.03000 431.188
32.04000 424.163
32.05000 418.314
32.06000 418.464
32.07000 419.456
32.08000 420.234
32.09000 426.996
32.10000 432.781
32.11000 434.666
32.12000 427.829
32.13000 420.667
32.14000 413.804
32.15000 407.387
32.16000 400.975
32.17000 396.507
32.18000 393.903
32.19000 391.401
32.20000 396.498
32.21000 406.317
32.22000 415.622
32.23000 413.247
32.24000 406.019
32.25000 399.268
32.26000 395.240
32.27000 392.273
32.28000 390.066
32.29000 392.806
32.30000 396.436
32.31000 399.292
32.32000 398.933
32.33000 398.222
32.34000 397.693
32.35000 397.204
32.36000 396.826
32.37000 397.278
32.38000 399.262
32.39000 401.280
32.40000 401.015
32.41000 397.974
32.42000 394.933
32.43000 391.636
32.44000 388.159
32.45000 384.858
32.46000 388.295
32.47000 395.181
32.48000 401.635
32.49000 401.345
32.50000 398.739
32.51000 396.361
32.52000 388.626
32.53000 380.686
32.54000 373.926
32.55000 373.313
32.56000 373.585
32.57000 372.794
32.58000 368.390
32.59000 363.687
32.60000 360.380
32.61000 370.522
32.62000 378.601
32.63000 382.940
32.64000 381.592
32.65000 380.185
32.66000 382.271
32.67000 387.775
32.68000 393.237
32.69000 391.063
32.70000 384.170
32.71000 377.341
32.72000 372.029
32.73000 367.360
32.74000 362.990
32.75000 362.052
32.76000 362.086
32.77000 362.115
32.78000 363.612
32.79000 365.143
32.80000 368.530
32.81000 379.775
32.82000 391.902
32.83000 404.286
32.84000 417.387
32.85000 430.532
32.86000 439.186
32.87000 441.000
32.88000 442.219
32.89000 446.373
32.90000 454.170
32.91000 461.949
32.92000 461.522
32.93000 454.610
32.94000 447.807
32.95000 448.577
32.96000 453.147
32.97000 457.087
32.98000 450.823
32.99000 440.989
33.00000 431.975
33.01000 430.095
33.02000 429.869
33.03000 429.675
33.04000 423.939
33.05000 418.396
33.06000 411.647
33.07000 400.707
33.08000 389.411
33.09000 381.994
33.10000 383.581
33.11000 385.533
33.12000 386.725
33.13000 368.849
33.14000 355.909
33.15000 350.430
33.16000 352.417
33.17000 354.359
33.18000 352.430
33.19000 348.002
33.20000 343.695
33.21000 345.257
33.22000 349.150
33.23000 353.008
33.24000 356.446
33.25000 359.763
33.26000 361.995
33.27000 356.835
33.28000 350.285
33.29000 344.861
33.30000 349.979
33.31000 355.205
33.32000 358.038
33.33000 354.024
33.34000 349.586
33.35000 346.973
33.36000 347.862
33.37000 348.839
33.38000 349.385
33.39000 345.318
33.40000 342.505
33.41000 345.233
33.42000 352.431
33.43000 359.531
33.44000 362.436
33.45000 363.111
33.46000 363.758
33.47000 352.899
33.48000 338.945
33.49000 326.333
33.50000 325.692
33.51000 327.882
33.52000 330.816
33.53000 337.792
33.54000 345.376
33.55000 351.395
33.56000 352.082
33.57000 352.260
33.58000 352.895
33.59000 354.615
33.60000 356.380
33.61000 355.584
33.62000 350.742
33.63000 345.850
33.64000 343.377
33.65000 340.794
33.66000 339.092
33.67000 339.893
33.68000 342.342
33.69000 344.708
33.70000 344.928
33.71000 344.205
33.72000 343.526
33.73000 347.051
33.74000 351.398
33.75000 354.678
33.76000 350.525
33.77000 344.944
33.78000 340.929
33.79000 343.814
33.80000 347.513
33.81000 350.311
33.82000 344.512
33.83000 339.532
33.84000 339.978
33.85000 351.035
33.86000 362.368
33.87000 364.368
33.88000 354.304
33.89000 344.204
33.90000 341.485
33.91000 344.831
33.92000 348.203
33.93000 352.762
33.94000 357.964
33.95000 362.846
33.96000 362.174
33.97000 359.485
33.98000 357.014
33.99000 353.293
34.00000 349.701
34.01000 347.182
34.02000 350.618
34.03000 354.970
34.04000 358.409
34.05000 358.555
34.06000 358.403
34.07000 358.295
34.08000 358.677
34.09000 358.985
34.10000 358.247
34.11000 355.823
34.12000 353.376
34.13000 353.182
34.14000 355.344
34.15000 357.493
34.16000 357.723
34.17000 356.679
34.18000 355.505
34.19000 350.837
34.20000 344.605
34.21000 338.744
34.22000 337.494
34.23000 337.626
34.24000 337.745
34.25000 342.742
34.26000 347.937
34.27000 352.492
34.28000 354.168
34.29000 355.494
34.30000 356.448
34.31000 356.291
34.32000 356.061
34.33000 355.907
34.34000 366.338
34.35000 374.303
34.36000 376.420
34.37000 370.824
34.38000 365.190
34.39000 358.226
34.40000 350.143
34.41000 342.167
34.42000 343.856
34.43000 350.692
34.44000 357.271
34.45000 359.219
34.46000 359.454
34.47000 359.194
34.48000 354.285
34.49000 348.232
34.50000 342.979
34.51000 347.128
34.52000 351.924
34.53000 355.115
34.54000 352.405
34.55000 349.148
34.56000 346.129
34.57000 343.692
34.58000 341.282
34.59000 339.776
34.60000 334.601
34.61000 330.828
34.62000 331.461
34.63000 336.800
34.64000 342.079
34.65000 340.279
34.66000 333.633
34.67000 327.145
34.68000 327.096
34.69000 329.857
34.70000 332.463
34.71000 333.083
34.72000 333.097
34.73000 332.591
34.74000 328.295
34.75000 323.240
34.76000 319.006
34.77000 320.526
34.78000 322.382
34.79000 324.345
34.80000 326.628
34.81000 328.933
34.82000 331.319
34.83000 333.869
34.84000 336.424
34.85000 337.893
34.86000 333.036
34.87000 329.618
34.88000 328.233
34.89000 328.593
34.90000 328.928
34.91000 327.997
34.92000 326.353
34.93000 324.772
34.94000 326.423
34.95000 329.116
34.96000 331.120
34.97000 326.483
34.98000 320.179
34.99000 315.115
35.00000 317.242
35.01000 320.527
35.02000 323.169
35.03000 324.487
35.04000 325.454
35.05000 326.030
35.06000 325.629
35.07000 325.181
35.08000 324.001
35.09000 321.596
35.10000 319.172
35.11000 317.907
35.12000 318.069
35.13000 318.147
35.14000 314.120
35.15000 307.226
35.16000 300.755
35.17000 306.765
35.18000 318.575
35.19000 329.741
35.20000 327.744
35.21000 322.141
35.22000 317.622
35.23000 321.187
35.24000 326.407
35.25000 330.042
35.26000 326.263
35.27000 321.542
35.28000 317.918
35.29000 309.714
35.30000 302.974
35.31000 301.615
35.32000 311.385
35.33000 321.495
35.34000 324.004
35.35000 316.079
35.36000 308.095
35.37000 311.095
35.38000 323.699
35.39000 336.031
35.40000 333.429
35.41000 322.265
35.42000 311.611
35.43000 310.825
35.44000 313.831
35.45000 316.613
35.46000 315.174
35.47000 312.911
35.48000 311.201
35.49000 312.776
35.50000 314.891
35.51000 315.436
35.52000 309.981
35.53000 303.938
35.54000 299.540
35.55000 300.128
35.56000 300.771
35.57000 301.585
35.58000 302.688
35.59000 303.795
35.60000 308.311
35.61000 316.625
35.62000 324.908
35.63000 326.271
35.64000 322.741
35.65000 319.137
35.66000 313.239
35.67000 306.256
35.68000 300.024
35.69000 304.050
35.70000 311.333
35.71000 317.905
35.72000 318.043
35.73000 316.985
35.74000 315.069
35.75000 309.056
35.76000 302.509
35.77000 296.767
35.78000 293.555
35.79000 290.527
35.80000 288.452
35.81000 290.172
35.82000 291.550
35.83000 293.853
35.84000 297.450
35.85000 301.056
35.86000 306.293
35.87000 312.989
35.88000 319.614
35.89000 319.247
35.90000 314.894
35.91000 310.809
35.92000 312.102
35.93000 315.499
35.94000 318.297
35.95000 315.006
35.96000 310.127
35.97000 305.851
35.98000 304.178
35.99000 303.118
36.00000 302.802
36.01000 305.383
36.02000 308.256
36.03000 309.602
36.04000 306.985
36.05000 304.164
36.06000 302.361
36.07000 304.485
36.08000 306.083
36.09000 307.188
36.10000 307.733
36.11000 308.265
36.12000 306.826
36.13000 303.957
36.14000 301.145
36.15000 295.218
36.16000 288.073
36.17000 281.725
36.18000 286.622
36.19000 295.154
36.20000 302.783
36.21000 303.330
36.22000 302.368
36.23000 301.554
36.24000 308.000
36.25000 314.209
36.26000 317.977
36.27000 313.927
36.28000 309.290
36.29000 304.217
36.30000 298.210
36.31000 292.172
36.32000 288.609
36.33000 285.333
36.34000 283.024
36.35000 284.522
36.36000 289.501
36.37000 294.495
36.38000 300.497
36.39000 307.099
36.40000 313.481
36.41000 310.999
36.42000 305.320
36.43000 300.070
36.44000 299.314
36.45000 299.753
36.46000 301.010
36.47000 307.337
36.48000 314.535
36.49000 320.395
36.50000 319.598
36.51000 318.385
36.52000 315.255
36.53000 307.055
36.54000 298.585
36.55000 295.202
36.56000 300.838
36.57000 306.648
36.58000 309.773
36.59000 298.065
36.60000 290.100
36.61000 291.303
36.62000 299.301
36.63000 307.023
36.64000 305.330
36.65000 299.011
36.66000 293.002
36.67000 291.708
36.68000 291.949
36.69000 292.689
36.70000 297.449
36.71000 303.082
36.72000 307.744
36.73000 307.569
36.74000 306.732
36.75000 306.081
36.76000 307.094
36.77000 308.003
36.78000 306.022
36.79000 297.719
36.80000 289.193
36.81000 284.021
36.82000 283.737
36.83000 283.494
36.84000 287.492
36.85000 295.445
36.86000 303.301
36.87000 304.534
36.88000 301.746
36.89000 298.877
36.90000 294.259
36.91000 288.930
36.92000 283.965
36.93000 290.138
36.94000 298.459
36.95000 305.766
36.96000 306.656
36.97000 306.420
36.98000 306.063
36.99000 305.222
37.00000 304.330
37.01000 303.669
37.02000 300.761
37.03000 298.408
37.04000 297.666
37.05000 299.833
37.06000 302.060
37.07000 304.142
37.08000 306.053
37.09000 307.959
37.10000 303.716
37.11000 294.883
37.12000 286.333
37.13000 287.976
37.14000 294.721
37.15000 301.180
37.16000 303.343
37.17000 304.063
37.18000 304.718
37.19000 304.097
37.20000 303.296
37.21000 302.242
37.22000 299.900
37.23000 297.377
37.24000 295.762
37.25000 297.169
37.26000 298.817
37.27000 299.967
37.28000 298.182
37.29000 296.752
37.30000 296.707
37.31000 298.722
37.32000 300.755
37.33000 297.242
37.34000 288.439
37.35000 279.710
37.36000 277.912
37.37000 280.358
37.38000 282.936
37.39000 288.497
37.40000 295.293
37.41000 301.159
37.42000 296.757
37.43000 289.515
37.44000 283.111
37.45000 282.033
37.46000 281.927
37.47000 282.535
37.48000 286.090
37.49000 289.966
37.50000 293.842
37.51000 297.722
37.52000 301.602
37.53000 304.135
37.54000 299.672
37.55000 296.284
37.56000 296.776
37.57000 301.966
37.58000 307.140
37.59000 305.527
37.60000 298.681
37.61000 291.951
37.62000 287.434
37.63000 284.160
37.64000 281.399
37.65000 286.621
37.66000 294.576
37.67000 302.315
37.68000 308.239
37.69000 313.752
37.70000 318.470
37.71000 306.986
37.72000 295.342
37.73000 287.111
37.74000 290.452
37.75000 294.744
37.76000 299.081
37.77000 303.516
37.78000 307.956
37.79000 310.641
37.80000 309.615
37.81000 308.857
37.82000 307.828
37.83000 306.536
37.84000 305.225
37.85000 302.454
37.86000 298.763
37.87000 295.178
37.88000 296.386
37.89000 299.450
37.90000 302.734
37.91000 308.503
37.92000 314.974
37.93000 319.937
37.94000 314.908
37.95000 308.046
37.96000 302.390
37.97000 300.127
37.98000 298.576
37.99000 296.912
38.00000 294.931
38.01000 292.932
38.02000 293.489
38.03000 298.842
38.04000 304.305
38.05000 307.330
38.06000 302.327
38.07000 298.865
38.08000 296.915
38.09000 296.157
38.10000 295.459
38.11000 297.183
38.12000 300.166
38.13000 303.018
38.14000 304.849
38.15000 306.222
38.16000 307.939
38.17000 312.637
38.18000 318.024
38.19000 321.749
38.20000 316.663
38.21000 310.286
38.22000 305.252
38.23000 311.899
38.24000 318.027
38.25000 322.480
38.26000 323.058
38.27000 323.480
38.28000 323.970
38.29000 324.564
38.30000 325.159
38.31000 329.442
38.32000 337.397
38.33000 345.342
38.34000 352.275
38.35000 358.559
38.36000 364.917
38.37000 373.107
38.38000 382.084
38.39000 390.502
38.40000 397.692
38.41000 403.919
38.42000 410.262
38.43000 417.393
38.44000 424.673
38.45000 435.107
38.46000 459.111
38.47000 484.669
38.48000 503.879
38.49000 537.528
38.50000 564.533
38.51000 588.989
38.52000 608.572
38.53000 628.036
38.54000 659.939
38.55000 707.536
38.56000 755.108
38.57000 799.150
38.58000 840.185
38.59000 881.162
38.60000 919.664
38.61000 956.855
38.62000 994.308
38.63000 1036.118
38.64000 1079.475
38.65000 1119.210
38.66000 1156.620
38.67000 1189.446
38.68000 1220.724
38.69000 1243.615
38.70000 1265.249
38.71000 1285.645
38.72000 1301.677
38.73000 1317.329
38.74000 1328.451
38.75000 1320.642
38.76000 1314.094
38.77000 1297.870
38.78000 1266.411
38.79000 1234.766
38.80000 1208.979
38.81000 1189.158
38.82000 1169.463
38.83000 1133.504
38.84000 1087.552
38.85000 1041.671
38.86000 997.639
38.87000 954.415
38.88000 911.615
38.89000 873.918
38.90000 837.716
38.91000 805.424
38.92000 758.936
38.93000 716.125
38.94000 673.568
38.95000 632.131
38.96000 590.826
38.97000 554.055
38.98000 530.451
38.99000 507.685
39.00000 492.511
39.01000 460.033
39.02000 435.657
39.03000 415.164
39.04000 399.672
39.05000 384.205
39.06000 370.857
39.07000 359.247
39.08000 347.803
39.09000 342.018
39.10000 339.366
39.11000 336.414
39.12000 328.289
39.13000 318.290
39.14000 308.677
39.15000 302.576
39.16000 297.320
39.17000 292.776
39.18000 303.127
39.19000 313.860
39.20000 319.460
39.21000 306.620
39.22000 292.127
39.23000 283.134
39.24000 287.347
39.25000 292.137
39.26000 295.104
39.27000 290.883
39.28000 287.780
39.29000 286.103
39.30000 285.912
39.31000 285.695
39.32000 282.797
39.33000 278.106
39.34000 273.533
39.35000 279.230
39.36000 289.039
39.37000 298.119
39.38000 298.156
39.39000 295.493
39.40000 293.766
39.41000 298.693
39.42000 304.919
39.43000 310.111
39.44000 305.249
39.45000 300.215
39.46000 296.708
39.47000 297.721
39.48000 299.032
39.49000 295.967
39.50000 284.218
39.51000 272.233
39.52000 265.414
39.53000 271.369
39.54000 275.560
39.55000 280.415
39.56000 285.826
39.57000 291.091
39.58000 289.414
39.59000 283.917
39.60000 278.637
39.61000 279.566
39.62000 282.580
39.63000 284.694
39.64000 278.402
39.65000 270.051
39.66000 264.122
39.67000 271.882
39.68000 281.789
39.69000 289.714
39.70000 285.842
39.71000 281.833
39.72000 278.627
39.73000 277.388
39.74000 276.239
39.75000 274.486
39.76000 271.743
39.77000 268.986
39.78000 267.565
39.79000 269.201
39.80000 270.313
39.81000 272.563
39.82000 275.591
39.83000 278.392
39.84000 274.849
39.85000 268.426
39.86000 262.365
39.87000 264.564
39.88000 268.883
39.89000 272.820
39.90000 273.984
39.91000 274.595
39.92000 274.063
39.93000 268.310
39.94000 261.913
39.95000 257.031
39.96000 263.357
39.97000 268.942
39.98000 274.102
39.99000 278.402
40.00000 282.676
40.01000 280.449
40.02000 269.505
40.03000 258.525
40.04000 254.780
40.05000 257.215
40.06000 259.618
40.07000 260.450
40.08000 260.402
40.09000 260.367
40.10000 260.593
40.11000 260.916
40.12000 261.215
40.13000 261.160
40.14000 261.031
40.15000 260.150
40.16000 254.929
40.17000 249.012
40.18000 245.217
40.19000 249.342
40.20000 254.219
40.21000 257.745
40.22000 261.323
40.23000 264.071
40.24000 265.720
40.25000 265.538
40.26000 265.326
40.27000 263.568
40.28000 260.128
40.29000 256.704
40.30000 254.835
40.31000 254.058
40.32000 253.358
40.33000 254.939
40.34000 257.576
40.35000 259.866
40.36000 257.584
40.37000 253.885
40.38000 250.557
40.39000 255.824
40.40000 261.973
40.41000 267.354
40.42000 269.162
40.43000 270.517
40.44000 271.774
40.45000 272.728
40.46000 273.661
40.47000 274.295
40.48000 265.628
40.49000 258.948
40.50000 253.530
40.51000 249.836
40.52000 246.154
40.53000 243.580
40.54000 241.974
40.55000 240.387
40.56000 244.814
40.57000 252.486
40.58000 259.722
40.59000 258.578
40.60000 254.227
40.61000 250.433
40.62000 252.126
40.63000 255.218
40.64000 257.917
40.65000 257.217
40.66000 256.143
40.67000 255.955
40.68000 259.147
40.69000 262.668
40.70000 262.730
40.71000 254.011
40.72000 244.860
40.73000 239.062
40.74000 245.978
40.75000 251.147
40.76000 254.371
40.77000 255.435
40.78000 256.487
40.79000 256.093
40.80000 254.674
40.81000 253.286
40.82000 256.011
40.83000 260.489
40.84000 264.552
40.85000 262.988
40.86000 259.646
40.87000 256.302
40.88000 252.953
40.89000 249.602
40.90000 246.777
40.91000 251.414
40.92000 256.095
40.93000 259.586
40.94000 259.355
40.95000 258.853
40.96000 258.328
40.97000 257.751
40.98000 257.173
40.99000 256.835
41.00000 255.871
41.01000 255.189
41.02000 253.684
41.03000 251.446
41.04000 249.178
41.05000 245.165
41.06000 240.135
41.07000 235.281
41.08000 236.251
41.09000 239.304
41.10000 242.250
41.11000 244.107
41.12000 245.681
41.13000 246.792
41.14000 245.105
41.15000 242.949
41.16000 241.202
41.17000 241.093
41.18000 241.138
41.19000 240.732
41.20000 239.162
41.21000 237.533
41.22000 237.222
41.23000 239.197
41.24000 241.213
41.25000 242.284
41.26000 236.167
41.27000 232.028
41.28000 232.390
41.29000 236.009
41.30000 239.712
41.31000 246.088
41.32000 253.749
41.33000 261.018
41.34000 256.149
41.35000 248.050
41.36000 241.075
41.37000 242.869
41.38000 246.523
41.39000 248.641
41.40000 243.295
41.41000 236.958
41.42000 232.051
41.43000 233.954
41.44000 235.868
41.45000 237.260
41.46000 237.535
41.47000 237.773
41.48000 239.181
41.49000 242.255
41.50000 245.341
41.51000 248.224
41.52000 250.921
41.53000 253.554
41.54000 252.198
41.55000 248.474
41.56000 244.947
41.57000 245.508
41.58000 247.692
41.59000 249.722
41.60000 247.544
41.61000 244.572
41.62000 242.090
41.63000 242.631
41.64000 243.690
41.65000 244.947
41.66000 246.984
41.67000 249.101
41.68000 250.657
41.69000 243.034
41.70000 236.763
41.71000 236.156
41.72000 245.557
41.73000 255.147
41.74000 260.360
41.75000 260.506
41.76000 260.645
41.77000 256.228
41.78000 248.509
41.79000 241.007
41.80000 240.843
41.81000 244.272
41.82000 247.478
41.83000 247.458
41.84000 246.379
41.85000 245.401
41.86000 241.342
41.87000 237.172
41.88000 234.105
41.89000 236.500
41.90000 239.638
41.91000 242.464
41.92000 244.273
41.93000 246.004
41.94000 247.203
41.95000 251.892
41.96000 255.514
41.97000 254.130
41.98000 245.484
41.99000 236.780
42.00000 235.423
42.01000 240.900
42.02000 246.326
42.03000 251.559
42.04000 256.573
42.05000 261.155
42.06000 256.427
42.07000 247.930
42.08000 240.166
42.09000 240.244
42.10000 242.442
42.11000 244.379
42.12000 242.295
42.13000 239.894
42.14000 237.815
42.15000 237.042
42.16000 236.406
42.17000 234.631
42.18000 229.795
42.19000 224.791
42.20000 221.551
42.21000 228.647
42.22000 233.992
42.23000 238.899
42.24000 243.289
42.25000 247.663
42.26000 248.757
42.27000 247.382
42.28000 246.032
42.29000 243.969
42.30000 241.638
42.31000 239.622
42.32000 242.331
42.33000 246.621
42.34000 250.276
42.35000 248.726
42.36000 246.025
42.37000 243.723
42.38000 248.689
42.39000 253.717
42.40000 256.275
42.41000 250.642
42.42000 244.358
42.43000 238.219
42.44000 232.400
42.45000 226.592
42.46000 223.114
42.47000 238.540
42.48000 249.616
42.49000 255.291
42.50000 255.835
42.51000 256.325
42.52000 252.936
42.53000 247.155
42.54000 241.552
42.55000 240.200
42.56000 240.581
42.57000 240.809
42.58000 239.353
42.59000 237.433
42.60000 236.646
42.61000 243.163
42.62000 250.987
42.63000 257.405
42.64000 250.137
42.65000 242.958
42.66000 238.516
42.67000 241.565
42.68000 245.042
42.69000 245.752
42.70000 241.386
42.71000 236.911
42.72000 234.461
42.73000 236.400
42.74000 237.741
42.75000 239.291
42.76000 241.002
42.77000 242.719
42.78000 244.632
42.79000 246.645
42.80000 248.565
42.81000 245.522
42.82000 241.127
42.83000 237.107
42.84000 236.238
42.85000 236.079
42.86000 235.755
42.87000 234.578
42.88000 233.280
42.89000 232.260
42.90000 228.815
42.91000 225.901
42.92000 224.696
42.93000 227.361
42.94000 230.173
42.95000 232.038
42.96000 232.476
42.97000 232.899
42.98000 231.940
42.99000 229.640
43.00000 227.347
43.01000 225.596
43.02000 224.187
43.03000 222.956
43.04000 225.867
43.05000 230.518
43.06000 234.869
43.07000 231.611
43.08000 226.709
43.09000 222.682
43.10000 224.424
43.11000 227.219
43.12000 229.898
43.13000 232.087
43.14000 234.221
43.15000 235.815
43.16000 227.772
43.17000 221.059
43.18000 215.905
43.19000 213.667
43.20000 211.496
43.21000 211.956
43.22000 215.654
43.23000 219.354
43.24000 222.349
43.25000 224.777
43.26000 227.168
43.27000 228.052
43.28000 228.155
43.29000 228.099
43.30000 225.482
43.31000 221.976
43.32000 218.772
43.33000 216.040
43.34000 213.709
43.35000 212.764
43.36000 219.134
43.37000 226.570
43.38000 233.044
43.39000 236.204
43.40000 239.084
43.41000 241.117
43.42000 233.359
43.43000 227.176
43.44000 223.691
43.45000 224.355
43.46000 225.065
43.47000 226.528
43.48000 228.737
43.49000 230.930
43.50000 230.864
43.51000 229.374
43.52000 227.986
43.53000 229.090
43.54000 231.261
43.55000 233.402
43.56000 235.193
43.57000 236.884
43.58000 238.387
43.59000 235.420
43.60000 232.122
43.61000 228.868
43.62000 225.803
43.63000 222.761
43.64000 220.309
43.65000 219.538
43.66000 218.869
43.67000 218.427
43.68000 221.914
43.69000 224.557
43.70000 224.575
43.71000 221.294
43.72000 218.009
43.73000 216.782
43.74000 217.202
43.75000 217.615
43.76000 220.223
43.77000 223.873
43.78000 227.246
43.79000 226.026
43.80000 223.180
43.81000 220.611
43.82000 220.489
43.83000 220.941
43.84000 221.330
43.85000 217.742
43.86000 214.201
43.87000 212.291
43.88000 216.113
43.89000 220.431
43.90000 222.607
43.91000 219.751
43.92000 216.687
43.93000 214.807
43.94000 221.980
43.95000 227.197
43.96000 226.618
43.97000 220.159
43.98000 213.739
43.99000 210.894
44.00000 210.386
44.01000 209.891
44.02000 211.267
44.03000 213.355
44.04000 215.361
44.05000 216.386
44.06000 217.124
44.07000 218.165
44.08000 221.289
44.09000 224.810
44.10000 227.733
44.11000 225.403
44.12000 222.968
44.13000 221.248
44.14000 221.593
44.15000 222.069
44.16000 221.719
44.17000 219.764
44.18000 217.768
44.19000 216.645
44.20000 214.061
44.21000 212.277
44.22000 215.762
44.23000 223.551
44.24000 231.140
44.25000 229.844
44.26000 223.770
44.27000 217.946
44.28000 215.403
44.29000 214.133
44.30000 213.409
44.31000 217.630
44.32000 223.035
44.33000 227.685
44.34000 228.175
44.35000 228.030
44.36000 227.914
44.37000 223.670
44.38000 219.952
44.39000 220.349
44.40000 230.594
44.41000 241.265
44.42000 246.531
44.43000 243.150
44.44000 239.656
44.45000 237.877
44.46000 236.827
44.47000 236.133
44.48000 236.508
44.49000 237.593
44.50000 238.515
44.51000 235.073
44.52000 229.693
44.53000 224.629
44.54000 231.592
44.55000 241.230
44.56000 249.718
44.57000 250.082
44.58000 248.867
44.59000 248.018
44.60000 248.808
44.61000 249.794
44.62000 250.542
44.63000 245.456
44.64000 241.161
44.65000 239.615
44.66000 243.503
44.67000 247.539
44.68000 250.060
44.69000 250.601
44.70000 251.132
44.71000 250.931
44.72000 250.121
44.73000 249.307
44.74000 248.275
44.75000 247.123
44.76000 246.161
44.77000 248.544
44.78000 252.157
44.79000 255.483
44.80000 257.861
44.81000 259.779
44.82000 261.191
44.83000 259.750
44.84000 257.863
44.85000 256.423
44.86000 256.615
44.87000 256.956
44.88000 257.201
44.89000 254.799
44.90000 252.870
44.91000 254.169
44.92000 260.730
44.93000 267.365
44.94000 269.061
44.95000 265.524
44.96000 262.005
44.97000 260.557
44.98000 260.516
44.99000 260.633
45.00000 265.144
45.01000 271.643
45.02000 277.453
45.03000 274.498
45.04000 268.884
45.05000 263.850
45.06000 268.233
45.07000 273.698
45.08000 277.757
45.09000 275.416
45.10000 272.288
45.11000 268.696
45.12000 263.709
45.13000 258.629
45.14000 255.201
45.15000 265.126
45.16000 272.794
45.17000 276.530
45.18000 275.014
45.19000 273.472
45.20000 271.663
45.21000 269.627
45.22000 267.616
45.23000 263.503
45.24000 258.353
45.25000 253.424
45.26000 252.532
45.27000 253.152
45.28000 253.710
45.29000 253.687
45.30000 253.518
45.31000 253.372
45.32000 250.362
45.33000 247.403
45.34000 246.170
45.35000 251.353
45.36000 257.141
45.37000 259.130
45.38000 251.683
45.39000 243.793
45.40000 238.839
45.41000 240.393
45.42000 241.588
45.43000 243.080
45.44000 244.895
45.45000 246.684
45.46000 245.294
45.47000 241.700
45.48000 238.189
45.49000 238.849
45.50000 241.324
45.51000 243.447
45.52000 240.962
45.53000 237.052
45.54000 233.638
45.55000 233.899
45.56000 234.904
45.57000 235.748
45.58000 233.478
45.59000 231.261
45.60000 229.213
45.61000 227.683
45.62000 226.189
45.63000 224.523
45.64000 222.504
45.65000 220.474
45.66000 219.301
45.67000 220.888
45.68000 222.010
45.69000 222.156
45.70000 221.455
45.71000 220.775
45.72000 221.211
45.73000 222.283
45.74000 223.316
45.75000 221.786
45.76000 219.431
45.77000 217.152
45.78000 215.615
45.79000 214.267
45.80000 212.536
45.81000 208.561
45.82000 204.220
45.83000 200.720
45.84000 201.785
45.85000 203.010
45.86000 204.222
45.87000 205.404
45.88000 206.584
45.89000 208.754
45.90000 212.599
45.91000 216.471
45.92000 218.505
45.93000 222.019
45.94000 224.350
45.95000 219.513
45.96000 209.610
45.97000 200.202
45.98000 205.897
45.99000 218.687
46.00000 230.797
46.01000 230.306
46.02000 226.203
46.03000 221.904
46.04000 216.126
46.05000 210.042
46.06000 204.881
46.07000 204.095
46.08000 203.874
46.09000 203.704
46.10000 200.838
46.11000 198.415
46.12000 197.531
46.13000 199.865
46.14000 202.300
46.15000 204.007
46.16000 204.702
46.17000 205.390
46.18000 204.335
46.19000 201.735
46.20000 199.152
46.21000 197.547
46.22000 196.510
46.23000 195.772
46.24000 200.937
46.25000 208.396
46.26000 215.310
46.27000 213.463
46.28000 209.758
46.29000 206.514
46.30000 206.043
46.31000 206.035
46.32000 206.029
46.33000 206.033
46.34000 206.037
46.35000 206.040
46.36000 206.309
46.37000 206.527
46.38000 205.766
46.39000 203.316
46.40000 200.837
46.41000 201.358
46.42000 205.265
46.43000 209.162
46.44000 209.875
46.45000 208.309
46.46000 206.753
46.47000 205.533
46.48000 204.473
46.49000 203.295
46.50000 200.482
46.51000 197.144
46.52000 194.126
46.53000 193.033
46.54000 192.429
46.55000 192.061
46.56000 192.833
46.57000 193.755
46.58000 195.916
46.59000 202.018
46.60000 208.413
46.61000 212.810
46.62000 201.341
46.63000 192.343
46.64000 191.400
46.65000 201.875
46.66000 212.430
46.67000 216.622
46.68000 215.044
46.69000 213.483
46.70000 209.791
46.71000 204.946
46.72000 200.416
46.73000 202.373
46.74000 206.898
46.75000 210.656
46.76000 206.472
46.77000 200.190
46.78000 194.676
46.79000 193.640
46.80000 193.407
46.81000 193.946
46.82000 197.530
46.83000 201.425
46.84000 203.631
46.85000 201.400
46.86000 198.936
46.87000 197.354
46.88000 202.096
46.89000 205.640
46.90000 204.395
46.91000 197.629
46.92000 190.895
46.93000 190.930
46.94000 195.946
46.95000 200.862
46.96000 204.543
46.97000 207.505
46.98000 210.415
46.99000 212.581
47.00000 214.502
47.01000 215.378
47.02000 207.932
47.03000 198.691
47.04000 190.848
47.05000 188.939
47.06000 188.011
47.07000 186.844
47.08000 184.901
47.09000 182.898
47.10000 183.267
47.11000 188.790
47.12000 194.491
47.13000 197.872
47.14000 194.193
47.15000 191.551
47.16000 191.399
47.17000 193.554
47.18000 195.685
47.19000 196.289
47.20000 195.972
47.21000 195.665
47.22000 195.910
47.23000 196.352
47.24000 196.659
47.25000 195.527
47.26000 194.009
47.27000 192.926
47.28000 194.586
47.29000 196.723
47.30000 198.468
47.31000 193.826
47.32000 189.480
47.33000 187.396
47.34000 191.365
47.35000 195.664
47.36000 196.948
47.37000 192.823
47.38000 188.589
47.39000 186.299
47.40000 195.521
47.41000 201.821
47.42000 202.548
47.43000 199.095
47.44000 195.633
47.45000 191.837
47.46000 187.874
47.47000 184.102
47.48000 182.385
47.49000 181.430
47.50000 181.029
47.51000 185.151
47.52000 190.268
47.53000 194.334
47.54000 193.098
47.55000 191.128
47.56000 189.589
47.57000 187.966
47.58000 186.666
47.59000 186.412
47.60000 188.475
47.61000 190.622
47.62000 192.575
47.63000 194.243
47.64000 195.907
47.65000 195.089
47.66000 191.923
47.67000 188.826
47.68000 190.580
47.69000 195.314
47.70000 199.739
47.71000 197.262
47.72000 191.950
47.73000 186.992
47.74000 191.660
47.75000 198.284
47.76000 203.744
47.77000 201.732
47.78000 198.389
47.79000 196.469
47.80000 200.384
47.81000 204.928
47.82000 208.301
47.83000 199.033
47.84000 191.275
47.85000 183.959
47.86000 177.452
47.87000 170.962
47.88000 170.834
47.89000 178.351
47.90000 185.865
47.91000 187.963
47.92000 185.927
47.93000 184.002
47.94000 186.200
47.95000 190.487
47.96000 194.471
47.97000 193.789
47.98000 191.523
47.99000 189.458
48.00000 187.993
48.01000 186.815
48.02000 185.251
48.03000 181.707
48.04000 177.882
48.05000 176.423
48.06000 182.927
48.07000 190.078
48.08000 195.088
48.09000 194.859
48.10000 194.535
48.11000 195.638
48.12000 198.884
48.13000 202.151
48.14000 199.184
48.15000 190.190
48.16000 181.267
48.17000 178.737
48.18000 180.185
48.19000 181.658
48.20000 183.693
48.21000 185.962
48.22000 188.362
48.23000 192.217
48.24000 196.481
48.25000 200.257
48.26000 195.531
48.27000 190.102
48.28000 186.359
48.29000 189.670
48.30000 193.760
48.31000 195.837
48.32000 192.320
48.33000 188.475
48.34000 185.953
48.35000 187.301
48.36000 188.357
48.37000 187.589
48.38000 184.583
48.39000 181.581
48.40000 181.153
48.41000 182.735
48.42000 184.290
48.43000 180.774
48.44000 174.839
48.45000 169.447
48.46000 172.682
48.47000 178.904
48.48000 184.653
48.49000 186.350
48.50000 187.118
48.51000 187.777
48.52000 186.774
48.53000 185.723
48.54000 184.431
48.55000 182.311
48.56000 180.122
48.57000 180.669
48.58000 187.502
48.59000 194.584
48.60000 198.888
48.61000 196.366
48.62000 194.513
48.63000 192.053
48.64000 188.995
48.65000 185.970
48.66000 185.825
48.67000 187.518
48.68000 189.164
48.69000 186.834
48.70000 183.008
48.71000 179.497
48.72000 179.641
48.73000 180.827
48.74000 182.253
48.75000 185.286
48.76000 188.617
48.77000 191.370
48.78000 190.845
48.79000 190.106
48.80000 189.238
48.81000 188.002
48.82000 186.745
48.83000 184.716
48.84000 181.220
48.85000 177.690
48.86000 175.725
48.87000 177.545
48.88000 178.811
48.89000 179.879
48.90000 180.791
48.91000 181.718
48.92000 183.317
48.93000 185.270
48.94000 187.139
48.95000 179.951
48.96000 170.279
48.97000 162.045
48.98000 166.456
48.99000 173.823
49.00000 180.635
49.01000 184.462
49.02000 187.846
49.03000 190.525
49.04000 188.179
49.05000 185.946
49.06000 183.944
49.07000 182.481
49.08000 181.042
49.09000 180.766
49.10000 182.312
49.11000 183.879
49.12000 184.666
49.13000 184.425
49.14000 184.264
49.15000 184.140
49.16000 184.040
49.17000 183.927
49.18000 183.486
49.19000 182.901
49.20000 182.353
49.21000 182.353
49.22000 182.498
49.23000 182.659
49.24000 182.920
49.25000 183.201
49.26000 183.272
49.27000 182.432
49.28000 181.487
49.29000 180.774
49.30000 182.088
49.31000 183.218
49.32000 183.729
49.33000 183.045
49.34000 182.330
49.35000 180.465
49.36000 177.128
49.37000 173.790
49.38000 172.476
49.39000 172.807
49.40000 173.177
49.41000 175.279
49.42000 178.309
49.43000 181.249
49.44000 182.652
49.45000 183.504
49.46000 184.285
49.47000 182.558
49.48000 180.484
49.49000 178.382
49.50000 176.125
49.51000 173.844
49.52000 172.455
49.53000 174.246
49.54000 176.319
49.55000 177.797
49.56000 178.048
49.57000 178.200
49.58000 176.841
49.59000 173.077
49.60000 169.282
49.61000 167.223
49.62000 166.955
49.63000 166.689
49.64000 166.529
49.65000 166.441
49.66000 166.415
49.67000 168.051
49.68000 170.421
49.69000 172.936
49.70000 177.218
49.71000 182.024
49.72000 186.319
49.73000 188.310
49.74000 189.655
49.75000 190.078
49.76000 186.406
49.77000 182.245
49.78000 179.009
49.79000 178.492
49.80000 178.150
49.81000 177.922
49.82000 177.757
49.83000 177.636
49.84000 176.429
49.85000 173.809
49.86000 171.184
49.87000 169.595
49.88000 168.867
49.89000 168.148
49.90000 168.302
49.91000 168.916
49.92000 169.645
49.93000 172.409
49.94000 175.918
49.95000 178.738
49.96000 175.185
49.97000 170.082
49.98000 165.662
49.99000 167.060
50.00000 169.019
50.01000 170.721
50.02000 171.490
50.03000 172.173
50.04000 174.360
50.05000 180.204
50.06000 186.211
50.07000 189.949
50.08000 188.405
50.09000 187.240
50.10000 184.659
50.11000 180.582
50.12000 176.516
50.13000 173.699
50.14000 171.727
50.15000 169.802
50.16000 172.255
50.17000 176.486
50.18000 180.340
50.19000 179.423
50.20000 177.066
50.21000 175.322
50.22000 178.005
50.23000 181.563
50.24000 184.537
50.25000 186.512
50.26000 188.049
50.27000 189.326
50.28000 189.819
50.29000 190.260
50.30000 189.013
50.31000 184.379
50.32000 179.648
50.33000 176.942
50.34000 176.818
50.35000 176.743
50.36000 178.154
50.37000 180.824
50.38000 183.372
50.39000 179.821
50.40000 172.875
50.41000 166.196
50.42000 166.344
50.43000 168.870
50.44000 171.635
50.45000 176.682
50.46000 182.295
50.47000 187.118
50.48000 187.412
50.49000 186.986
50.50000 186.645
50.51000 184.782
50.52000 183.157
50.53000 181.954
50.54000 181.796
50.55000 181.686
50.56000 182.444
50.57000 184.638
50.58000 186.854
50.59000 188.003
50.60000 189.414
50.61000 190.358
50.62000 190.258
50.63000 189.438
50.64000 188.531
50.65000 185.106
50.66000 180.523
50.67000 176.195
50.68000 179.106
50.69000 183.825
50.70000 188.196
50.71000 190.014
50.72000 191.316
50.73000 192.981
50.74000 196.328
50.75000 199.886
50.76000 202.609
50.77000 200.879
50.78000 199.270
50.79000 198.175
50.80000 198.131
50.81000 198.119
50.82000 198.213
50.83000 198.452
50.84000 198.692
50.85000 195.964
50.86000 190.675
50.87000 185.513
50.88000 187.038
50.89000 192.356
50.90000 197.365
50.91000 196.532
50.92000 193.479
50.93000 190.657
50.94000 186.584
50.95000 182.644
50.96000 179.170
50.97000 178.421
50.98000 178.115
50.99000 176.989
51.00000 172.764
51.01000 168.240
51.02000 164.958
51.03000 171.231
51.04000 176.409
51.05000 178.188
51.06000 174.230
51.07000 170.180
51.08000 169.337
51.09000 172.025
51.10000 174.704
51.11000 177.161
51.12000 179.438
51.13000 181.661
51.14000 182.276
51.15000 182.138
51.16000 181.956
51.17000 181.183
51.18000 180.225
51.19000 179.362
51.20000 178.702
51.21000 178.160
51.22000 177.471
51.23000 176.091
51.24000 174.622
51.25000 172.383
51.26000 167.750
51.27000 162.946
51.28000 159.667
51.29000 158.437
51.30000 157.566
51.31000 159.268
51.32000 164.532
51.33000 169.818
51.34000 173.489
51.35000 175.733
51.36000 177.952
51.37000 177.078
51.38000 174.477
51.39000 171.747
51.40000 166.503
51.41000 160.284
51.42000 155.018
51.43000 159.296
51.44000 166.039
51.45000 171.936
51.46000 171.016
51.47000 169.258
51.48000 168.225
51.49000 169.984
51.50000 172.020
51.51000 172.944
51.52000 171.014
51.53000 168.940
51.54000 167.620
51.55000 164.698
51.56000 162.554
51.57000 164.602
51.58000 171.362
51.59000 178.084
51.60000 178.410
51.61000 174.141
51.62000 169.962
51.63000 167.873
51.64000 166.825
51.65000 165.618
51.66000 162.202
51.67000 158.079
51.68000 154.580
51.69000 155.898
51.70000 158.230
51.71000 160.201
51.72000 163.202
51.73000 165.824
51.74000 167.355
51.75000 165.424
51.76000 163.238
51.77000 162.556
51.78000 165.069
51.79000 167.687
51.80000 169.224
51.81000 167.722
51.82000 166.648
51.83000 165.590
51.84000 164.546
51.85000 163.521
51.86000 163.615
51.87000 164.369
51.88000 165.097
51.89000 168.423
51.90000 172.525
51.91000 176.015
51.92000 173.214
51.93000 168.757
51.94000 164.699
51.95000 163.076
51.96000 161.867
51.97000 160.885
51.98000 160.441
51.99000 160.123
52.00000 161.049
52.01000 165.228
52.02000 169.577
52.03000 170.657
52.04000 166.002
52.05000 161.240
52.06000 158.694
52.07000 163.467
52.08000 166.711
52.09000 167.049
52.10000 165.258
52.11000 163.476
52.12000 162.018
52.13000 160.717
52.14000 159.480
52.15000 161.081
52.16000 163.413
52.17000 165.718
52.18000 167.803
52.19000 169.841
52.20000 171.764
52.21000 173.123
52.22000 174.406
52.23000 175.402
52.24000 172.482
52.25000 169.923
52.26000 167.273
52.27000 164.430
52.28000 161.580
52.29000 159.471
52.30000 158.430
52.31000 157.397
52.32000 160.778
52.33000 168.224
52.34000 175.517
52.35000 172.879
52.36000 164.277
52.37000 156.030
52.38000 155.344
52.39000 157.697
52.40000 159.887
52.41000 161.885
52.42000 163.644
52.43000 164.403
52.44000 158.916
52.45000 152.346
52.46000 148.085
52.47000 153.078
52.48000 159.038
52.49000 163.434
52.50000 163.542
52.51000 163.445
52.52000 162.828
52.53000 161.281
52.54000 159.715
52.55000 160.732
52.56000 164.777
52.57000 168.815
52.58000 169.933
52.59000 168.876
52.60000 167.793
52.61000 165.819
52.62000 163.402
52.63000 161.132
52.64000 161.019
52.65000 161.622
52.66000 162.171
52.67000 158.981
52.68000 155.439
52.69000 153.475
52.70000 159.431
52.71000 166.480
52.72000 170.775
52.73000 166.007
52.74000 160.527
52.75000 156.716
52.76000 155.639
52.77000 154.900
52.78000 154.680
52.79000 155.221
52.80000 155.769
52.81000 157.603
52.82000 160.650
52.83000 163.669
52.84000 163.225
52.85000 160.709
52.86000 158.209
52.87000 156.053
52.88000 154.036
52.89000 152.575
52.90000 157.143
52.91000 163.360
52.92000 168.848
52.93000 164.838
52.94000 159.923
52.95000 156.353
52.96000 158.275
52.97000 160.786
52.98000 162.517
52.99000 162.131
53.00000 161.626
53.01000 161.297
53.02000 166.605
53.03000 170.581
53.04000 172.725
53.05000 172.674
53.06000 172.617
53.07000 172.158
53.08000 171.393
53.09000 170.641
53.10000 169.785
53.11000 168.908
53.12000 168.266
53.13000 171.212
53.14000 175.373
53.15000 178.914
53.16000 177.302
53.17000 174.537
53.18000 172.175
53.19000 164.337
53.20000 157.083
53.21000 152.171
53.22000 155.112
53.23000 158.689
53.24000 162.905
53.25000 168.557
53.26000 174.264
53.27000 177.699
53.28000 176.515
53.29000 175.641
53.30000 173.620
53.31000 170.494
53.32000 167.432
53.33000 169.123
53.34000 173.780
53.35000 178.299
53.36000 177.330
53.37000 174.239
53.38000 171.103
53.39000 167.448
53.40000 163.649
53.41000 160.864
53.42000 164.713
53.43000 169.763
53.44000 173.915
53.45000 167.687
53.46000 161.630
53.47000 158.310
53.48000 162.568
53.49000 167.267
53.50000 168.741
53.51000 164.228
53.52000 159.582
53.53000 157.024
53.54000 164.991
53.55000 170.475
53.56000 170.197
53.57000 165.437
53.58000 160.750
53.59000 158.932
53.60000 158.591
53.61000 158.265
53.62000 157.324
53.63000 156.252
53.64000 155.394
53.65000 156.366
53.66000 157.756
53.67000 158.626
53.68000 156.776
53.69000 154.533
53.70000 152.767
53.71000 161.834
53.72000 169.823
53.73000 173.623
53.74000 167.837
53.75000 161.675
53.76000 158.730
53.77000 160.699
53.78000 162.719
53.79000 162.917
53.80000 161.319
53.81000 159.712
53.82000 157.284
53.83000 154.332
53.84000 151.515
53.85000 151.894
53.86000 153.632
53.87000 155.260
53.88000 157.862
53.89000 160.480
53.90000 162.364
53.91000 159.341
53.92000 155.410
53.93000 152.723
53.94000 155.323
53.95000 158.521
53.96000 160.918
53.97000 161.811
53.98000 162.438
53.99000 161.365
54.00000 157.077
54.01000 152.712
54.02000 151.546
54.03000 154.367
54.04000 157.194
54.05000 159.238
54.06000 160.653
54.07000 162.028
54.08000 161.806
54.09000 160.747
54.10000 160.033
54.11000 164.957
54.12000 171.862
54.13000 178.182
54.14000 174.258
54.15000 168.645
54.16000 163.580
54.17000 161.444
54.18000 159.741
54.19000 157.938
54.20000 155.788
54.21000 153.608
54.22000 152.063
54.23000 155.160
54.24000 157.658
54.25000 159.135
54.26000 159.021
54.27000 158.888
54.28000 157.525
54.29000 154.925
54.30000 152.343
54.31000 154.524
54.32000 159.715
54.33000 164.748
54.34000 165.800
54.35000 165.128
54.36000 164.245
54.37000 160.846
54.38000 156.718
54.39000 153.042
54.40000 154.439
54.41000 156.485
54.42000 158.313
54.43000 159.195
54.44000 159.966
54.45000 160.924
54.46000 162.417
54.47000 163.943
54.48000 164.957
54.49000 157.988
54.50000 152.690
54.51000 150.141
54.52000 151.093
54.53000 152.061
54.54000 154.169
54.55000 157.201
54.56000 160.189
54.57000 161.689
54.58000 162.373
54.59000 163.191
54.60000 166.265
54.61000 170.148
54.62000 173.383
54.63000 170.814
54.64000 166.866
54.65000 163.459
54.66000 164.196
54.67000 165.353
54.68000 165.727
54.69000 163.317
54.70000 160.662
54.71000 159.635
54.72000 162.478
54.73000 165.485
54.74000 167.340
54.75000 160.163
54.76000 154.930
54.77000 155.196
54.78000 161.115
54.79000 166.946
54.80000 164.097
54.81000 155.506
54.82000 147.139
54.83000 146.884
54.84000 150.054
54.85000 153.122
54.86000 154.947
54.87000 156.404
54.88000 157.858
54.89000 159.295
54.90000 160.729
54.91000 161.922
54.92000 161.747
54.93000 161.467
54.94000 162.442
54.95000 167.090
54.96000 171.974
54.97000 173.470
54.98000 168.310
54.99000 162.974
55.00000 159.953
55.01000 162.179
55.02000 163.745
55.03000 166.480
55.04000 170.184
55.05000 173.814
55.06000 174.099
55.07000 172.562
55.08000 171.087
55.09000 167.729
55.10000 163.947
55.11000 160.810
55.12000 163.604
55.13000 167.835
55.14000 171.622
55.15000 172.922
55.16000 173.838
55.17000 174.568
55.18000 174.643
55.19000 174.656
55.20000 174.288
55.21000 172.999
55.22000 171.669
55.23000 171.341
55.24000 172.635
55.25000 173.950
55.26000 174.625
55.27000 179.273
55.28000 182.387
55.29000 184.391
55.30000 185.645
55.31000 186.774
55.32000 184.474
55.33000 180.633
55.34000 177.013
55.35000 181.844
55.36000 188.595
55.37000 194.764
55.38000 196.751
55.39000 197.913
55.40000 199.285
55.41000 201.605
55.42000 204.040
55.43000 205.892
55.44000 208.188
55.45000 210.017
55.46000 210.768
55.47000 209.363
55.48000 207.897
55.49000 210.425
55.50000 218.248
55.51000 226.088
55.52000 231.502
55.53000 234.859
55.54000 238.187
55.55000 240.089
55.56000 241.200
55.57000 242.583
55.58000 248.901
55.59000 257.054
55.60000 264.569
55.61000 275.073
55.62000 285.139
55.63000 296.017
55.64000 311.524
55.65000 327.764
55.66000 341.757
55.67000 347.456
55.68000 352.381
55.69000 355.931
55.70000 357.804
55.71000 359.180
55.72000 365.703
55.73000 380.720
55.74000 395.862
55.75000 410.383
55.76000 424.235
55.77000 438.019
55.78000 452.788
55.79000 468.055
55.80000 483.335
55.81000 498.968
55.82000 514.762
55.83000 530.324
55.84000 542.882
55.85000 554.518
55.86000 564.968
55.87000 579.217
55.88000 592.353
55.89000 605.393
55.90000 617.994
55.91000 630.539
55.92000 640.258
55.93000 641.387
55.94000 641.924
55.95000 642.288
55.96000 639.219
55.97000 636.857
55.98000 633.440
55.99000 628.595
56.00000 623.748
56.01000 623.402
56.02000 626.937
56.03000 630.429
56.04000 625.205
56.05000 615.308
56.06000 605.267
56.07000 592.522
56.08000 578.752
56.09000 565.329
56.10000 555.266
56.11000 546.051
56.12000 538.022
56.13000 523.351
56.14000 509.897
56.15000 494.837
56.16000 473.731
56.17000 452.044
56.18000 433.924
56.19000 424.761
56.20000 416.029
56.21000 410.521
56.22000 394.548
56.23000 382.860
56.24000 366.172
56.25000 343.999
56.26000 321.937
56.27000 314.812
56.28000 318.167
56.29000 321.447
56.30000 317.390
56.31000 310.218
56.32000 302.603
56.33000 289.069
56.34000 273.684
56.35000 259.905
56.36000 258.203
56.37000 258.983
56.38000 259.639
56.39000 254.372
56.40000 249.348
56.41000 242.935
56.42000 232.219
56.43000 221.197
56.44000 213.196
56.45000 211.470
56.46000 209.938
56.47000 209.047
56.48000 207.485
56.49000 206.385
56.50000 204.881
56.51000 203.022
56.52000 201.130
56.53000 197.414
56.54000 192.648
56.55000 188.052
56.56000 182.590
56.57000 177.138
56.58000 172.221
56.59000 172.635
56.60000 174.419
56.61000 175.761
56.62000 174.475
56.63000 172.754
56.64000 171.363
56.65000 174.629
56.66000 177.660
56.67000 178.856
56.68000 175.360
56.69000 171.629
56.70000 169.977
56.71000 171.888
56.72000 173.861
56.73000 174.904
56.74000 167.011
56.75000 161.678
56.76000 161.267
56.77000 164.377
56.78000 167.367
56.79000 166.600
56.80000 164.046
56.81000 161.626
56.82000 158.948
56.83000 156.405
56.84000 154.435
56.85000 156.873
56.86000 160.236
56.87000 162.868
56.88000 161.989
56.89000 160.650
56.90000 159.617
56.91000 157.587
56.92000 155.920
56.93000 155.511
56.94000 157.767
56.95000 160.110
56.96000 162.283
56.97000 164.217
56.98000 166.149
56.99000 164.150
57.00000 158.622
57.01000 153.172
57.02000 152.447
57.03000 154.496
57.04000 156.449
57.05000 156.462
57.06000 155.713
57.07000 155.018
57.08000 158.975
57.09000 163.641
57.10000 166.650
57.11000 159.571
57.12000 150.787
57.13000 144.181
57.14000 146.103
57.15000 148.890
57.16000 150.931
57.17000 149.677
57.18000 148.576
57.19000 147.107
57.20000 144.994
57.21000 142.870
57.22000 143.383
57.23000 146.913
57.24000 150.433
57.25000 153.725
57.26000 156.824
57.27000 159.692
57.28000 154.940
57.29000 146.499
57.30000 138.920
57.31000 143.603
57.32000 152.270
57.33000 160.117
57.34000 157.412
57.35000 153.038
57.36000 149.093
57.37000 147.246
57.38000 145.681
57.39000 144.548
57.40000 144.807
57.41000 145.172
57.42000 145.423
57.43000 149.032
57.44000 151.830
57.45000 151.133
57.46000 145.422
57.47000 139.675
57.48000 141.128
57.49000 149.193
57.50000 157.181
57.51000 157.198
57.52000 152.544
57.53000 148.017
57.54000 146.168
57.55000 145.391
57.56000 144.550
57.57000 143.037
57.58000 141.344
57.59000 139.855
57.60000 144.797
57.61000 150.006
57.62000 154.106
57.63000 153.773
57.64000 152.980
57.65000 153.211
57.66000 156.162
57.67000 159.260
57.68000 161.258
57.69000 151.425
57.70000 144.074
57.71000 142.081
57.72000 146.345
57.73000 150.589
57.74000 149.369
57.75000 144.080
57.76000 138.891
57.77000 138.558
57.78000 140.547
57.79000 142.643
57.80000 146.317
57.81000 150.514
57.82000 153.896
57.83000 150.702
57.84000 146.071
57.85000 142.132
57.86000 145.828
57.87000 149.813
57.88000 152.844
57.89000 152.749
57.90000 152.410
57.91000 151.165
57.92000 147.930
57.93000 144.623
57.94000 142.652
57.95000 140.522
57.96000 139.012
57.97000 139.934
57.98000 143.137
57.99000 146.309
58.00000 147.251
58.01000 146.833
58.02000 146.428
58.03000 144.837
58.04000 142.873
58.05000 141.246
58.06000 143.255
58.07000 146.256
58.08000 148.596
58.09000 146.729
58.10000 144.118
58.11000 141.982
58.12000 141.415
58.13000 141.088
58.14000 141.707
58.15000 144.887
58.16000 148.210
58.17000 151.318
58.18000 154.037
58.19000 156.747
58.20000 158.222
58.21000 146.922
58.22000 139.177
58.23000 137.072
58.24000 139.253
58.25000 141.360
58.26000 140.815
58.27000 138.935
58.28000 137.143
58.29000 136.116
58.30000 135.404
58.31000 135.100
58.32000 138.180
58.33000 142.015
58.34000 144.653
58.35000 141.175
58.36000 136.838
58.37000 133.441
58.38000 135.522
58.39000 137.536
58.40000 138.481
58.41000 137.030
58.42000 135.489
58.43000 135.878
58.44000 139.147
58.45000 142.443
58.46000 144.256
58.47000 144.647
58.48000 145.019
58.49000 143.932
58.50000 141.937
58.51000 139.996
58.52000 139.300
58.53000 139.121
58.54000 138.954
58.55000 142.283
58.56000 146.185
58.57000 149.258
58.58000 146.933
58.59000 143.634
58.60000 140.980
58.61000 141.005
58.62000 141.324
58.63000 141.561
58.64000 137.239
58.65000 133.669
58.66000 134.142
58.67000 142.091
58.68000 150.205
58.69000 151.660
58.70000 145.010
58.71000 138.356
58.72000 134.702
58.73000 133.384
58.74000 132.130
58.75000 133.400
58.76000 135.963
58.77000 138.403
58.78000 138.917
58.79000 138.770
58.80000 138.636
58.81000 139.406
58.82000 140.272
58.83000 140.749
58.84000 139.194
58.85000 137.346
58.86000 136.219
58.87000 137.546
58.88000 139.077
58.89000 140.153
58.90000 139.128
58.91000 138.289
58.92000 138.487
58.93000 140.264
58.94000 142.058
58.95000 145.049
58.96000 149.213
58.97000 153.346
58.98000 150.990
58.99000 144.628
59.00000 138.477
59.01000 137.322
59.02000 138.285
59.03000 138.982
59.04000 136.653
59.05000 133.466
59.06000 130.638
59.07000 134.930
59.08000 139.786
59.09000 142.931
59.10000 138.826
59.11000 133.905
59.12000 131.618
59.13000 136.729
59.14000 142.284
59.15000 145.942
59.16000 135.163
59.17000 126.973
59.18000 123.746
59.19000 126.686
59.20000 129.640
59.21000 131.609
59.22000 132.801
59.23000 133.973
59.24000 135.961
59.25000 138.299
59.26000 140.319
59.27000 137.171
59.28000 132.214
59.29000 127.639
59.30000 126.395
59.31000 125.923
59.32000 125.518
59.33000 129.735
59.34000 133.879
59.35000 137.178
59.36000 137.544
59.37000 137.661
59.38000 137.369
59.39000 136.130
59.40000 134.852
59.41000 134.071
59.42000 136.036
59.43000 137.464
59.44000 136.993
59.45000 134.619
59.46000 132.265
59.47000 131.597
59.48000 132.018
59.49000 132.428
59.50000 132.450
59.51000 132.311
59.52000 132.537
59.53000 137.062
59.54000 142.829
59.55000 147.654
59.56000 146.054
59.57000 143.244
59.58000 140.917
59.59000 136.226
59.60000 132.128
59.61000 128.958
59.62000 128.443
59.63000 128.093
59.64000 128.584
59.65000 130.690
59.66000 132.836
59.67000 134.037
59.68000 134.191
59.69000 134.295
59.70000 134.572
59.71000 134.986
59.72000 135.417
59.73000 136.506
59.74000 137.947
59.75000 139.327
59.76000 139.050
59.77000 138.241
59.78000 137.534
59.79000 137.733
59.80000 138.147
59.81000 137.937
59.82000 134.331
59.83000 130.213
59.84000 126.944
59.85000 130.859
59.86000 134.518
59.87000 138.057
59.88000 141.308
59.89000 144.548
59.90000 145.574
59.91000 143.097
59.92000 140.577
59.93000 139.302
59.94000 139.218
59.95000 139.171
59.96000 139.966
59.97000 141.317
59.98000 142.449
59.99000 137.914
60.00000 130.888
60.01000 124.283
60.02000 125.830
60.03000 129.434
60.04000 132.476
60.05000 131.592
60.06000 129.954
60.07000 129.149
60.08000 132.016
60.09000 135.318
60.10000 137.815
60.11000 132.191
60.12000 127.371
60.13000 125.613
60.14000 129.846
60.15000 134.237
60.16000 134.519
60.17000 129.484
60.18000 124.434
60.19000 125.396
60.20000 131.292
60.21000 137.087
60.22000 138.231
60.23000 136.855
60.24000 135.568
60.25000 135.833
60.26000 136.663
60.27000 137.426
60.28000 136.196
60.29000 134.668
60.30000 133.181
60.31000 131.928
60.32000 130.711
60.33000 130.046
60.34000 131.373
60.35000 132.879
60.36000 133.958
60.37000 138.653
60.38000 142.361
60.39000 143.229
60.40000 139.519
60.41000 135.746
60.42000 133.617
60.43000 133.208
60.44000 132.802
60.45000 133.703
60.46000 135.460
60.47000 137.204
60.48000 138.603
60.49000 139.847
60.50000 141.291
60.51000 145.231
60.52000 149.921
60.53000 154.119
60.54000 147.876
60.55000 140.641
60.56000 134.811
60.57000 135.309
60.58000 136.573
60.59000 137.847
60.60000 139.146
60.61000 140.448
60.62000 141.323
60.63000 138.319
60.64000 136.007
60.65000 133.017
60.66000 129.131
60.67000 125.250
60.68000 126.550
60.69000 132.210
60.70000 137.795
60.71000 138.898
60.72000 137.559
60.73000 136.014
60.74000 130.738
60.75000 124.081
60.76000 118.358
60.77000 121.424
60.78000 126.654
60.79000 131.194
60.80000 133.740
60.81000 135.642
60.82000 137.463
60.83000 138.986
60.84000 140.483
60.85000 140.722
60.86000 137.871
60.87000 134.877
60.88000 133.006
60.89000 137.212
60.90000 140.311
60.91000 140.641
60.92000 138.011
60.93000 135.382
60.94000 132.933
60.95000 130.608
60.96000 128.339
60.97000 127.846
60.98000 128.150
60.99000 128.557
61.00000 130.280
61.01000 132.406
61.02000 134.318
61.03000 134.665
61.04000 134.697
61.05000 134.724
61.06000 131.929
61.07000 129.313
61.08000 127.561
61.09000 128.427
61.10000 129.472
61.11000 130.906
61.12000 133.132
61.13000 135.380
61.14000 136.674
61.15000 137.712
61.16000 138.432
61.17000 135.833
61.18000 130.381
61.19000 125.082
61.20000 127.663
61.21000 134.682
61.22000 141.437
61.23000 143.634
61.24000 144.079
61.25000 144.379
61.26000 143.263
61.27000 141.791
61.28000 140.134
61.29000 137.401
61.30000 134.495
61.31000 132.158
61.32000 132.300
61.33000 132.607
61.34000 134.155
61.35000 138.811
61.36000 143.616
61.37000 144.017
61.38000 137.040
61.39000 129.947
61.40000 126.244
61.41000 130.318
61.42000 133.075
61.43000 135.596
61.44000 137.953
61.45000 140.362
61.46000 144.320
61.47000 148.998
61.48000 153.422
61.49000 155.227
61.50000 156.136
61.51000 157.629
61.52000 163.496
61.53000 170.258
61.54000 177.781
61.55000 188.868
61.56000 200.408
61.57000 209.267
61.58000 225.518
61.59000 238.777
61.60000 247.991
61.61000 248.833
61.62000 249.419
61.63000 251.166
61.64000 254.507
61.65000 257.857
61.66000 263.261
61.67000 270.455
61.68000 277.514
61.69000 277.150
61.70000 272.524
61.71000 268.083
61.72000 267.203
61.73000 267.693
61.74000 268.146
61.75000 263.457
61.76000 258.057
61.77000 251.903
61.78000 241.278
61.79000 229.917
61.80000 218.831
61.81000 208.796
61.82000 198.865
61.83000 191.635
61.84000 174.796
61.85000 161.465
61.86000 153.194
61.87000 153.568
61.88000 154.088
61.89000 155.261
61.90000 157.164
61.91000 159.060
61.92000 157.838
61.93000 154.427
61.94000 151.013
61.95000 147.535
61.96000 144.027
61.97000 140.796
61.98000 141.372
61.99000 143.157
62.00000 144.768
62.01000 145.584
62.02000 146.154
62.03000 146.776
62.04000 147.651
62.05000 148.559
62.06000 148.084
62.07000 143.260
62.08000 138.119
62.09000 134.596
62.10000 136.474
62.11000 138.010
62.12000 138.101
62.13000 136.168
62.14000 134.221
62.15000 132.899
62.16000 132.136
62.17000 131.381
62.18000 133.781
62.19000 137.931
62.20000 141.826
62.21000 140.586
62.22000 137.332
62.23000 134.530
62.24000 136.322
62.25000 139.315
62.26000 141.937
62.27000 139.749
62.28000 137.175
62.29000 136.283
62.30000 141.943
62.31000 148.264
62.32000 152.895
62.33000 153.135
62.34000 153.149
62.35000 153.157
62.36000 145.582
62.37000 139.968
62.38000 139.233
62.39000 144.055
62.40000 148.844
62.41000 147.207
62.42000 140.898
62.43000 134.717
62.44000 135.791
62.45000 140.191
62.46000 144.392
62.47000 145.764
62.48000 146.221
62.49000 146.485
62.50000 145.239
62.51000 143.671
62.52000 142.342
62.53000 144.569
62.54000 146.832
62.55000 148.149
62.56000 146.434
62.57000 144.490
62.58000 142.327
62.59000 139.692
62.60000 137.042
62.61000 135.477
62.62000 137.333
62.63000 138.662
62.64000 139.558
62.65000 140.056
62.66000 140.572
62.67000 142.217
62.68000 144.535
62.69000 146.777
62.70000 146.301
62.71000 144.828
62.72000 143.428
62.73000 142.787
62.74000 142.347
62.75000 142.318
62.76000 144.832
62.77000 147.784
62.78000 150.189
62.79000 149.123
62.80000 147.958
62.81000 146.326
62.82000 143.457
62.83000 140.520
62.84000 139.805
62.85000 143.032
62.86000 146.335
62.87000 148.113
62.88000 145.673
62.89000 144.014
62.90000 144.555
62.91000 146.728
62.92000 148.775
62.93000 146.527
62.94000 142.167
62.95000 138.021
62.96000 136.784
62.97000 136.527
62.98000 136.562
62.99000 138.938
63.00000 141.824
63.01000 144.523
63.02000 146.288
63.03000 147.927
63.04000 149.203
63.05000 153.225
63.06000 156.598
63.07000 157.157
63.08000 151.554
63.09000 145.734
63.10000 144.669
63.11000 150.536
63.12000 156.461
63.13000 156.444
63.14000 150.876
63.15000 145.381
63.16000 144.913
63.17000 147.500
63.18000 149.935
63.19000 149.072
63.20000 146.868
63.21000 144.815
63.22000 144.002
63.23000 143.573
63.24000 143.486
63.25000 145.576
63.26000 148.048
63.27000 149.891
63.28000 149.181
63.29000 148.200
63.30000 147.474
63.31000 150.914
63.32000 153.762
63.33000 153.899
63.34000 149.132
63.35000 144.264
63.36000 140.497
63.37000 138.039
63.38000 135.590
63.39000 137.360
63.40000 142.291
63.41000 147.099
63.42000 147.460
63.43000 145.591
63.44000 143.827
63.45000 143.634
63.46000 143.968
63.47000 144.272
63.48000 145.473
63.49000 146.711
63.50000 148.051
63.51000 149.910
63.52000 151.841
63.53000 153.182
63.54000 152.557
63.55000 151.774
63.56000 151.228
63.57000 150.195
63.58000 149.401
63.59000 149.154
63.60000 149.721
63.61000 150.296
63.62000 151.601
63.63000 153.605
63.64000 155.592
63.65000 156.117
63.66000 155.743
63.67000 155.355
63.68000 154.685
63.69000 153.896
63.70000 152.937
63.71000 150.084
63.72000 146.707
63.73000 143.721
63.74000 146.982
63.75000 150.770
63.76000 153.228
63.77000 150.178
63.78000 146.528
63.79000 144.266
63.80000 145.819
63.81000 147.591
63.82000 148.749
63.83000 146.470
63.84000 144.743
63.85000 146.708
63.86000 153.151
63.87000 159.582
63.88000 160.690
63.89000 157.685
63.90000 154.731
63.91000 152.926
63.92000 151.747
63.93000 150.693
63.94000 151.586
63.95000 153.147
63.96000 154.615
63.97000 155.303
63.98000 155.813
63.99000 156.250
64.00000 155.054
64.01000 153.848
64.02000 154.021
64.03000 158.874
64.04000 164.111
64.05000 167.683
64.06000 167.467
64.07000 167.105
64.08000 166.886
64.09000 164.884
64.10000 163.443
64.11000 161.735
64.12000 159.764
64.13000 157.811
64.14000 157.236
64.15000 157.530
64.16000 157.816
64.17000 157.118
64.18000 156.061
64.19000 155.240
64.20000 157.099
64.21000 159.714
64.22000 161.909
64.23000 161.318
64.24000 160.216
64.25000 159.307
64.26000 160.236
64.27000 161.169
64.28000 161.922
64.29000 162.169
64.30000 162.386
64.31000 162.941
64.32000 164.130
64.33000 165.333
64.34000 166.000
64.35000 162.556
64.36000 160.173
64.37000 158.471
64.38000 157.305
64.39000 156.203
64.40000 157.659
64.41000 160.445
64.42000 163.109
64.43000 164.085
64.44000 164.444
64.45000 164.670
64.46000 163.732
64.47000 162.526
64.48000 161.835
64.49000 163.873
64.50000 166.312
64.51000 168.238
64.52000 171.892
64.53000 174.942
64.54000 174.814
64.55000 167.325
64.56000 159.539
64.57000 155.916
64.58000 158.728
64.59000 161.613
64.60000 162.770
64.61000 162.204
64.62000 161.678
64.63000 164.600
64.64000 169.743
64.65000 174.620
64.66000 172.947
64.67000 168.458
64.68000 164.247
64.69000 165.258
64.70000 167.547
64.71000 169.621
64.72000 170.243
64.73000 170.592
64.74000 171.167
64.75000 172.715
64.76000 174.374
64.77000 175.621
64.78000 175.565
64.79000 175.458
64.80000 176.632
64.81000 180.257
64.82000 183.942
64.83000 183.849
64.84000 178.983
64.85000 174.110
64.86000 174.854
64.87000 180.096
64.88000 185.268
64.89000 187.526
64.90000 188.238
64.91000 188.782
64.92000 186.522
64.93000 183.266
64.94000 180.282
64.95000 184.403
64.96000 189.565
64.97000 194.134
64.98000 195.489
64.99000 196.362
65.00000 197.152
65.01000 197.651
65.02000 198.124
65.03000 198.461
65.04000 195.709
65.05000 193.515
65.06000 195.099
65.07000 202.639
65.08000 210.252
65.09000 212.050
65.10000 207.918
65.11000 203.812
65.12000 197.779
65.13000 190.584
65.14000 183.824
65.15000 188.224
65.16000 197.513
65.17000 205.992
65.18000 204.710
65.19000 200.565
65.20000 196.867
65.21000 201.908
65.22000 207.751
65.23000 212.696
65.24000 213.700
65.25000 214.240
65.26000 214.260
65.27000 212.769
65.28000 211.181
65.29000 210.122
65.30000 213.779
65.31000 216.578
65.32000 217.900
65.33000 217.320
65.34000 216.736
65.35000 217.854
65.36000 220.368
65.37000 222.846
65.38000 225.179
65.39000 227.368
65.40000 229.676
65.41000 234.022
65.42000 239.107
65.43000 243.976
65.44000 246.870
65.45000 249.289
65.46000 251.380
65.47000 257.787
65.48000 263.794
65.49000 267.638
65.50000 263.708
65.51000 259.079
65.52000 257.443
65.53000 262.997
65.54000 268.866
65.55000 272.502
65.56000 277.916
65.57000 281.826
65.58000 286.734
65.59000 292.681
65.60000 298.613
65.61000 302.942
65.62000 306.197
65.63000 309.370
65.64000 321.688
65.65000 337.343
65.66000 353.001
65.67000 368.691
65.68000 384.390
65.69000 402.910
65.70000 441.473
65.71000 483.956
65.72000 519.385
65.73000 580.853
65.74000 634.422
65.75000 687.795
65.76000 740.588
65.77000 793.344
65.78000 845.245
65.79000 895.448
65.80000 945.604
65.81000 974.152
65.82000 1012.180
65.83000 1038.691
65.84000 1053.070
65.85000 1057.280
65.86000 1061.594
65.87000 1070.912
65.88000 1082.986
65.89000 1094.586
65.90000 1094.451
65.91000 1090.269
65.92000 1080.856
65.93000 1022.486
65.94000 952.101
65.95000 885.317
65.96000 838.902
65.97000 795.683
65.98000 761.101
65.99000 687.631
66.00000 625.322
66.01000 568.469
66.02000 524.975
66.03000 482.091
66.04000 442.439
66.05000 408.082
66.06000 373.801
66.07000 356.123
66.08000 344.885
66.09000 337.308
66.10000 328.872
66.11000 319.851
66.12000 311.025
66.13000 307.695
66.14000 306.866
66.15000 306.083
66.16000 306.956
66.17000 308.219
66.18000 308.508
66.19000 301.711
66.20000 293.499
66.21000 288.376
66.22000 297.375
66.23000 308.120
66.24000 316.322
66.25000 334.416
66.26000 349.205
66.27000 359.018
66.28000 358.757
66.29000 358.206
66.30000 360.973
66.31000 368.194
66.32000 375.431
66.33000 380.791
66.34000 384.537
66.35000 388.342
66.36000 395.194
66.37000 403.755
66.38000 412.349
66.39000 421.562
66.40000 431.007
66.41000 439.726
66.42000 438.750
66.43000 435.699
66.44000 433.929
66.45000 439.569
66.46000 446.398
66.47000 449.936
66.48000 441.174
66.49000 431.244
66.50000 424.063
66.51000 413.930
66.52000 406.047
66.53000 397.978
66.54000 389.600
66.55000 381.218
66.56000 373.530
66.57000 366.598
66.58000 359.699
66.59000 350.977
66.60000 341.096
66.61000 331.325
66.62000 324.804
66.63000 319.788
66.64000 315.243
66.65000 316.911
66.66000 320.508
66.67000 323.744
66.68000 320.508
66.69000 316.516
66.70000 313.527
66.71000 315.221
66.72000 317.508
66.73000 318.977
66.74000 317.931
66.75000 316.708
66.76000 315.876
66.77000 318.260
66.78000 320.113
66.79000 323.553
66.80000 329.166
66.81000 334.783
66.82000 331.935
66.83000 321.692
66.84000 311.568
66.85000 315.429
66.86000 327.001
66.87000 338.061
66.88000 339.283
66.89000 336.735
66.90000 334.278
66.91000 332.710
66.92000 331.369
66.93000 330.198
66.94000 333.208
66.95000 336.371
66.96000 339.065
66.97000 339.977
66.98000 340.715
66.99000 342.421
67.00000 346.586
67.01000 350.873
67.02000 353.590
67.03000 351.246
67.04000 349.484
67.05000 346.272
67.06000 341.448
67.07000 336.666
67.08000 337.908
67.09000 343.430
67.10000 348.832
67.11000 349.521
67.12000 348.047
67.13000 346.947
67.14000 350.930
67.15000 356.521
67.16000 361.615
67.17000 362.915
67.18000 363.425
67.19000 363.855
67.20000 362.401
67.21000 360.982
67.22000 361.255
67.23000 366.830
67.24000 372.790
67.25000 375.654
67.26000 372.011
67.27000 368.161
67.28000 365.911
67.29000 375.042
67.30000 381.514
67.31000 380.555
67.32000 372.966
67.33000 365.553
67.34000 368.363
67.35000 377.132
67.36000 385.595
67.37000 391.116
67.38000 395.233
67.39000 399.070
67.40000 400.080
67.41000 400.353
67.42000 400.629
67.43000 400.917
67.44000 401.206
67.45000 401.441
67.46000 412.595
67.47000 422.573
67.48000 431.016
67.49000 435.482
67.50000 439.745
67.51000 439.935
67.52000 433.059
67.53000 426.056
67.54000 422.333
67.55000 420.320
67.56000 418.986
67.57000 423.221
67.58000 431.489
67.59000 439.558
67.60000 441.214
67.61000 439.785
67.62000 438.429
67.63000 434.784
67.64000 430.741
67.65000 427.886
67.66000 434.304
67.67000 442.694
67.68000 449.874
67.69000 451.177
67.70000 451.699
67.71000 452.104
67.72000 451.177
67.73000 450.362
67.74000 451.627
67.75000 457.346
67.76000 463.214
67.77000 467.064
67.78000 468.039
67.79000 468.992
67.80000 474.063
67.81000 482.879
67.82000 491.607
67.83000 494.780
67.84000 494.654
67.85000 494.595
67.86000 495.940
67.87000 497.841
67.88000 499.609
67.89000 498.132
67.90000 496.021
67.91000 495.513
67.92000 504.897
67.93000 515.977
67.94000 526.540
67.95000 535.058
67.96000 543.364
67.97000 549.472
67.98000 532.637
67.99000 518.672
68.00000 513.824
68.01000 525.095
68.02000 536.673
68.03000 537.279
68.04000 525.171
68.05000 513.085
68.06000 512.226
68.07000 519.607
68.08000 526.971
68.09000 533.753
68.10000 540.249
68.11000 546.430
68.12000 548.034
68.13000 548.135
68.14000 548.226
68.15000 559.819
68.16000 572.247
68.17000 582.757
68.18000 583.747
68.19000 583.442
68.20000 582.681
68.21000 580.434
68.22000 578.073
68.23000 576.436
68.24000 596.362
68.25000 611.929
68.26000 621.162
68.27000 621.191
68.28000 621.143
68.29000 616.909
68.30000 608.778
68.31000 600.723
68.32000 608.381
68.33000 625.214
68.34000 641.372
68.35000 642.979
68.36000 638.689
68.37000 636.031
68.38000 650.848
68.39000 670.392
68.40000 687.615
68.41000 699.418
68.42000 708.770
68.43000 717.446
68.44000 723.387
68.45000 729.039
68.46000 734.798
68.47000 740.849
68.48000 746.916
68.49000 750.845
68.50000 753.879
68.51000 756.086
68.52000 764.651
68.53000 780.738
68.54000 796.874
68.55000 820.493
68.56000 849.753
68.57000 878.478
68.58000 894.942
68.59000 904.920
68.60000 915.699
68.61000 938.492
68.62000 965.309
68.63000 995.496
68.64000 1053.335
68.65000 1117.291
68.66000 1171.807
68.67000 1228.621
68.68000 1276.683
68.69000 1324.332
68.70000 1370.614
68.71000 1416.787
68.72000 1462.549
68.73000 1507.400
68.74000 1552.217
68.75000 1579.071
68.76000 1631.244
68.77000 1668.460
68.78000 1710.020
68.79000 1755.710
68.80000 1801.629
68.81000 1864.141
68.82000 1936.897
68.83000 2007.428
68.84000 2121.275
68.85000 2246.039
68.86000 2371.917
68.87000 2510.045
68.88000 2651.552
68.89000 2832.197
68.90000 3265.473
68.91000 3743.969
68.92000 4136.544
68.93000 5724.198
68.94000 7133.524
68.95000 8955.427
68.96000 11907.104
68.97000 14923.313
68.98000 18437.648
68.99000 22866.682
69.00000 27315.471
69.01000 29751.473
69.02000 36286.371
69.03000 40781.520
69.04000 44277.840
69.05000 47005.773
69.06000 49703.387
69.07000 51258.055
69.08000 52231.219
69.09000 53159.645
69.10000 53603.723
69.11000 53862.480
69.12000 54140.926
69.13000 54584.953
69.14000 55066.363
69.15000 55572.930
69.16000 56209.707
69.17000 56865.055
69.18000 57379.738
69.19000 56879.125
69.20000 56412.043
69.21000 55327.285
69.22000 52843.754
69.23000 50306.664
69.24000 47446.355
69.25000 44097.824
69.26000 40744.426
69.27000 37884.676
69.28000 35504.879
69.29000 33134.617
69.30000 31513.850
69.31000 30364.764
69.32000 29230.223
69.33000 28435.646
69.34000 27784.066
69.35000 27174.506
69.36000 26397.199
69.37000 25648.189
69.38000 24807.361
69.39000 23360.291
69.40000 21802.363
69.41000 20108.594
69.42000 17843.693
69.43000 15515.220
69.44000 13775.475
69.45000 11151.026
69.46000 9064.276
69.47000 7268.696
69.48000 6017.971
69.49000 4779.735
69.50000 3844.928
69.51000 3284.160
69.52000 2725.503
69.53000 2347.393
69.54000 2112.218
69.55000 1879.145
69.56000 1729.779
69.57000 1623.808
69.58000 1520.180
69.59000 1454.023
69.60000 1400.896
69.61000 1352.345
69.62000 1283.786
69.63000 1218.796
69.64000 1159.500
69.65000 1130.302
69.66000 1105.498
69.67000 1077.915
69.68000 1040.749
69.69000 1002.775
69.70000 975.971
69.71000 958.620
69.72000 945.738
69.73000 926.969
69.74000 899.132
69.75000 871.195
69.76000 853.270
69.77000 845.291
69.78000 837.368
69.79000 824.581
69.80000 808.926
69.81000 793.384
69.82000 780.582
69.83000 768.955
69.84000 758.002
69.85000 754.901
69.86000 754.051
69.87000 753.296
69.88000 744.313
69.89000 735.183
69.90000 725.706
69.91000 714.732
69.92000 703.589
69.93000 693.715
69.94000 687.450
69.95000 681.407
69.96000 677.411
69.97000 666.064
69.98000 657.558
69.99000 653.406
70.00000 654.732
