20.00000 568.857
20.01000 567.214
20.02000 565.335
20.03000 562.567
20.04000 556.360
20.05000 549.810
20.06000 545.028
20.07000 562.350
20.08000 576.567
20.09000 584.889
20.10000 583.044
20.11000 581.020
20.12000 576.928
20.13000 570.503
20.14000 564.100
20.15000 561.590
20.16000 561.883
20.17000 562.198
20.18000 563.251
20.19000 564.658
20.20000 566.568
20.21000 575.494
20.22000 586.669
20.23000 596.770
20.24000 582.491
20.25000 565.401
20.26000 552.218
20.27000 557.922
20.28000 566.119
20.29000 568.593
20.30000 552.887
20.31000 535.831
20.32000 524.106
20.33000 544.293
20.34000 560.225
20.35000 570.465
20.36000 572.644
20.37000 574.765
20.38000 576.730
20.39000 578.552
20.40000 580.356
20.41000 573.516
20.42000 561.829
20.43000 550.734
20.44000 551.775
20.45000 557.616
20.46000 562.427
20.47000 556.591
20.48000 547.945
20.49000 540.356
20.50000 540.125
20.51000 541.004
20.52000 543.544
20.53000 552.625
20.54000 562.375
20.55000 568.912
20.56000 567.018
20.57000 564.681
20.58000 563.181
20.59000 564.598
20.60000 565.670
20.61000 564.910
20.62000 562.040
20.63000 559.141
20.64000 551.727
20.65000 540.994
20.66000 530.473
20.67000 528.551
20.68000 530.735
20.69000 533.036
20.70000 537.005
20.71000 541.519
20.72000 546.232
20.73000 552.518
20.74000 559.144
20.75000 564.767
20.76000 559.097
20.77000 553.061
20.78000 549.509
20.79000 553.999
20.80000 559.104
20.81000 562.182
20.82000 560.864
20.83000 559.394
20.84000 558.522
20.85000 567.448
20.86000 573.813
20.87000 568.761
20.88000 553.146
20.89000 537.723
20.90000 534.939
20.91000 539.768
20.92000 544.440
20.93000 544.570
20.94000 542.964
20.95000 541.658
20.96000 543.543
20.97000 546.287
20.98000 548.026
20.99000 543.455
21.00000 537.785
21.01000 533.158
21.02000 536.740
21.03000 540.376
21.04000 545.241
21.05000 553.396
21.06000 561.731
21.07000 564.696
21.08000 558.041
21.09000 551.193
21.10000 547.489
21.11000 553.337
21.12000 557.336
21.13000 558.429
21.14000 557.342
21.15000 556.572
21.16000 566.922
21.17000 582.795
21.18000 597.904
21.19000 592.867
21.20000 581.991
21.21000 571.791
21.22000 567.086
21.23000 563.590
21.24000 560.758
21.25000 561.269
21.26000 562.242
21.27000 563.002
21.28000 569.060
21.29000 574.224
21.30000 576.461
21.31000 572.228
21.32000 567.762
21.33000 565.053
21.34000 564.933
21.35000 564.836
21.36000 562.893
21.37000 559.205
21.38000 555.498
21.39000 550.474
21.40000 544.640
21.41000 539.403
21.42000 547.380
21.43000 560.783
21.44000 573.287
21.45000 567.991
21.46000 558.768
21.47000 551.535
21.48000 557.064
21.49000 564.863
21.50000 570.502
21.51000 567.292
21.52000 563.128
21.53000 560.039
21.54000 567.156
21.55000 573.134
21.56000 577.400
21.57000 578.539
21.58000 579.612
21.59000 572.180
21.60000 554.537
21.61000 536.917
21.62000 535.634
21.63000 546.778
21.64000 557.737
21.65000 561.862
21.66000 562.530
21.67000 563.197
21.68000 563.863
21.69000 564.529
21.70000 565.135
21.71000 572.746
21.72000 580.879
21.73000 588.896
21.74000 596.321
21.75000 603.661
21.76000 609.573
21.77000 610.681
21.78000 611.399
21.79000 611.902
21.80000 629.567
21.81000 643.418
21.82000 657.506
21.83000 671.949
21.84000 686.395
21.85000 693.508
21.86000 693.539
21.87000 693.570
21.88000 703.165
21.89000 718.471
21.90000 733.786
21.91000 749.288
21.92000 764.868
21.93000 781.433
21.94000 809.049
21.95000 839.755
21.96000 866.953
21.97000 871.311
21.98000 871.491
21.99000 872.016
22.00000 873.983
22.01000 876.110
22.02000 880.369
22.03000 890.549
22.04000 901.076
22.05000 907.976
22.06000 891.001
22.07000 878.124
22.08000 870.891
22.09000 870.575
22.10000 870.247
22.11000 862.290
22.12000 848.380
22.13000 834.699
22.14000 821.230
22.15000 808.304
22.16000 795.373
22.17000 782.356
22.18000 769.310
22.19000 757.044
22.20000 751.467
22.21000 747.422
22.22000 743.953
22.23000 715.993
22.24000 689.376
22.25000 664.423
22.26000 645.174
22.27000 626.402
22.28000 613.886
22.29000 615.726
22.30000 618.133
22.31000 619.596
22.32000 618.687
22.33000 618.020
22.34000 616.877
22.35000 615.263
22.36000 613.588
22.37000 606.862
22.38000 596.912
22.39000 587.244
22.40000 587.225
22.41000 591.115
22.42000 594.138
22.43000 587.138
22.44000 577.281
22.45000 568.702
22.46000 568.706
22.47000 570.303
22.48000 571.623
22.49000 565.275
22.50000 559.327
22.51000 554.048
22.52000 550.664
22.53000 547.394
22.54000 544.858
22.55000 543.715
22.56000 542.605
22.57000 541.987
22.58000 552.002
22.59000 558.930
22.60000 559.929
22.61000 556.205
22.62000 552.533
22.63000 550.985
22.64000 550.554
22.65000 550.141
22.66000 543.590
22.67000 535.472
22.68000 527.920
22.69000 525.342
22.70000 523.925
22.71000 521.878
22.72000 516.448
22.73000 510.516
22.74000 505.821
22.75000 520.750
22.76000 534.104
22.77000 541.227
22.78000 533.782
22.79000 525.737
22.80000 523.957
22.81000 531.961
22.82000 540.080
22.83000 544.157
22.84000 524.711
22.85000 511.859
22.86000 511.008
22.87000 517.963
22.88000 524.518
22.89000 521.023
22.90000 513.164
22.91000 505.786
22.92000 513.819
22.93000 525.228
22.94000 533.738
22.95000 522.349
22.96000 507.188
22.97000 495.885
22.98000 501.370
22.99000 508.807
23.00000 514.413
23.01000 516.275
23.02000 517.549
23.03000 519.172
23.04000 521.468
23.05000 523.781
23.06000 523.148
23.07000 518.755
23.08000 514.355
23.09000 517.842
23.10000 527.704
23.11000 537.316
23.12000 535.921
23.13000 528.633
23.14000 521.573
23.15000 518.379
23.16000 516.572
23.17000 514.914
23.18000 514.375
23.19000 514.131
23.20000 514.247
23.21000 516.332
23.22000 518.717
23.23000 519.901
23.24000 516.813
23.25000 513.346
23.26000 510.875
23.27000 512.215
23.28000 513.362
23.29000 515.329
23.30000 518.603
23.31000 521.892
23.32000 521.559
23.33000 517.491
23.34000 513.446
23.35000 510.964
23.36000 509.539
23.37000 508.073
23.38000 505.559
23.39000 502.580
23.40000 500.192
23.41000 505.046
23.42000 512.044
23.43000 518.298
23.44000 512.771
23.45000 505.968
23.46000 500.603
23.47000 501.623
23.48000 503.404
23.49000 505.141
23.50000 506.746
23.51000 508.343
23.52000 509.412
23.53000 504.988
23.54000 501.600
23.55000 499.860
23.56000 500.269
23.57000 500.691
23.58000 503.453
23.59000 508.155
23.60000 512.793
23.61000 513.020
23.62000 510.901
23.63000 508.527
23.64000 501.678
23.65000 493.191
23.66000 486.284
23.67000 493.982
23.68000 505.230
23.69000 514.972
23.70000 505.633
23.71000 495.169
23.72000 487.812
23.73000 491.740
23.74000 496.696
23.75000 498.252
23.76000 491.555
23.77000 484.489
23.78000 480.094
23.79000 489.448
23.80000 496.322
23.81000 499.832
23.82000 499.798
23.83000 499.761
23.84000 499.416
23.85000 498.864
23.86000 498.325
23.87000 498.297
23.88000 498.490
23.89000 498.982
23.90000 503.245
23.91000 508.647
23.92000 512.618
23.93000 506.303
23.94000 497.954
23.95000 490.977
23.96000 492.812
23.97000 495.230
23.98000 498.059
23.99000 502.120
24.00000 506.263
24.01000 505.363
24.02000 494.347
24.03000 483.046
24.04000 476.584
24.05000 492.666
24.06000 503.959
24.07000 508.177
24.08000 506.402
24.09000 504.643
24.10000 503.716
24.11000 503.251
24.12000 502.804
24.13000 495.804
24.14000 486.956
24.15000 479.268
24.16000 482.579
24.17000 488.618
24.18000 493.968
24.19000 495.375
24.20000 496.155
24.21000 496.781
24.22000 487.289
24.23000 478.836
24.24000 472.163
24.25000 469.888
24.26000 467.818
24.27000 471.702
24.28000 485.438
24.29000 499.321
24.30000 506.520
24.31000 499.521
24.32000 494.853
24.33000 497.149
24.34000 504.250
24.35000 510.834
24.36000 502.580
24.37000 487.513
24.38000 473.282
24.39000 475.874
24.40000 483.002
24.41000 488.952
24.42000 486.228
24.43000 481.753
24.44000 479.200
24.45000 485.533
24.46000 492.979
24.47000 498.677
24.48000 485.143
24.49000 473.414
24.50000 466.453
24.51000 469.241
24.52000 472.318
24.53000 476.064
24.54000 480.716
24.55000 485.369
24.56000 490.244
24.57000 495.300
24.58000 500.216
24.59000 497.752
24.60000 491.106
24.61000 484.831
24.62000 485.574
24.63000 488.981
24.64000 492.131
24.65000 490.624
24.66000 488.214
24.67000 486.471
24.68000 488.620
24.69000 491.401
24.70000 493.089
24.71000 490.650
24.72000 487.814
24.73000 485.756
24.74000 480.022
24.75000 475.479
24.76000 473.256
24.77000 474.947
24.78000 476.701
24.79000 479.685
24.80000 484.020
24.81000 488.337
24.82000 486.967
24.83000 481.653
24.84000 476.496
24.85000 476.060
24.86000 477.832
24.87000 479.543
24.88000 480.413
24.89000 481.020
24.90000 481.566
24.91000 478.092
24.92000 474.318
24.93000 471.643
24.94000 474.153
24.95000 477.329
24.96000 479.199
24.97000 477.017
24.98000 474.546
24.99000 472.859
25.00000 481.107
25.01000 487.504
25.02000 487.879
25.03000 479.924
25.04000 471.921
25.05000 468.495
25.06000 469.112
25.07000 469.723
25.08000 470.511
25.09000 471.383
25.10000 471.955
25.11000 466.676
25.12000 459.134
25.13000 453.056
25.14000 461.634
25.15000 473.991
25.16000 484.797
25.17000 485.534
25.18000 484.734
25.19000 483.557
25.20000 480.928
25.21000 478.157
25.22000 477.169
25.23000 480.758
25.24000 484.577
25.25000 487.007
25.26000 472.966
25.27000 462.558
25.28000 459.545
25.29000 464.837
25.30000 470.096
25.31000 469.244
25.32000 464.007
25.33000 458.881
25.34000 457.635
25.35000 458.215
25.36000 458.816
25.37000 459.707
25.38000 460.691
25.39000 462.326
25.40000 468.987
25.41000 476.705
25.42000 483.226
25.43000 473.936
25.44000 464.430
25.45000 458.458
25.46000 463.671
25.47000 469.709
25.48000 474.633
25.49000 477.197
25.50000 479.683
25.51000 481.142
25.52000 474.145
25.53000 469.173
25.54000 466.794
25.55000 466.755
25.56000 466.754
25.57000 469.038
25.58000 472.669
25.59000 476.176
25.60000 478.123
25.61000 479.377
25.62000 480.328
25.63000 478.159
25.64000 475.170
25.65000 471.800
25.66000 466.104
25.67000 460.013
25.68000 455.065
25.69000 456.410
25.70000 458.028
25.71000 460.357
25.72000 464.542
25.73000 468.825
25.74000 470.940
25.75000 469.257
25.76000 467.505
25.77000 466.568
25.78000 474.019
25.79000 479.059
25.80000 475.984
25.81000 466.970
25.82000 458.269
25.83000 459.950
25.84000 466.673
25.85000 473.058
25.86000 475.290
25.87000 476.102
25.88000 477.003
25.89000 478.615
25.90000 480.380
25.91000 481.702
25.92000 480.850
25.93000 479.704
25.94000 478.815
25.95000 470.650
25.96000 463.718
25.97000 459.092
25.98000 459.455
25.99000 459.989
26.00000 462.045
26.01000 466.291
26.02000 470.553
26.03000 469.065
26.04000 462.283
26.05000 455.549
26.06000 451.955
26.07000 450.246
26.08000 448.559
26.09000 447.353
26.10000 446.339
26.11000 445.396
26.12000 448.507
26.13000 452.300
26.14000 456.320
26.15000 461.758
26.16000 467.441
26.17000 470.661
26.18000 464.015
26.19000 456.339
26.20000 450.679
26.21000 455.668
26.22000 459.979
26.23000 463.482
26.24000 465.541
26.25000 467.572
26.26000 466.270
26.27000 461.064
26.28000 455.868
26.29000 454.306
26.30000 455.449
26.31000 456.652
26.32000 459.955
26.33000 464.297
26.34000 468.197
26.35000 465.576
26.36000 460.791
26.37000 456.446
26.38000 456.353
26.39000 457.094
26.40000 456.188
26.41000 447.020
26.42000 436.713
26.43000 432.002
26.44000 445.692
26.45000 460.824
26.46000 471.345
26.47000 472.130
26.48000 472.459
26.49000 467.842
26.50000 455.969
26.51000 444.034
26.52000 441.401
26.53000 447.525
26.54000 453.595
26.55000 454.200
26.56000 451.515
26.57000 448.880
26.58000 447.355
26.59000 446.282
26.60000 445.292
26.61000 445.197
26.62000 445.347
26.63000 445.479
26.64000 444.658
26.65000 443.803
26.66000 442.805
26.67000 441.219
26.68000 439.570
26.69000 438.754
26.70000 440.198
26.71000 441.770
26.72000 442.792
26.73000 448.286
26.74000 452.380
26.75000 458.280
26.76000 466.338
26.77000 474.353
26.78000 471.705
26.79000 460.934
26.80000 450.354
26.81000 446.754
26.82000 446.676
26.83000 446.835
26.84000 450.596
26.85000 455.577
26.86000 460.044
26.87000 460.246
26.88000 459.494
26.89000 458.853
26.90000 459.221
26.91000 459.652
26.92000 458.102
26.93000 449.911
26.94000 441.184
26.95000 437.579
26.96000 445.467
26.97000 453.786
26.98000 458.792
26.99000 457.924
27.00000 457.267
27.01000 456.173
27.02000 454.660
27.03000 453.122
27.04000 449.713
27.05000 445.137
27.06000 440.697
27.07000 439.940
27.08000 440.678
27.09000 441.351
27.10000 441.300
27.11000 441.047
27.12000 441.283
27.13000 444.713
27.14000 448.721
27.15000 452.017
27.16000 445.891
27.17000 440.006
27.18000 435.961
27.19000 437.003
27.20000 438.342
27.21000 439.684
27.22000 441.034
27.23000 442.384
27.24000 443.126
27.25000 441.540
27.26000 440.453
27.27000 442.080
27.28000 445.816
27.29000 449.413
27.30000 447.648
27.31000 443.128
27.32000 438.812
27.33000 434.844
27.34000 431.268
27.35000 428.485
27.36000 432.463
27.37000 437.984
27.38000 442.527
27.39000 441.960
27.40000 440.656
27.41000 439.629
27.42000 437.416
27.43000 435.565
27.44000 434.217
27.45000 434.022
27.46000 433.872
27.47000 435.193
27.48000 438.757
27.49000 442.344
27.50000 442.490
27.51000 439.251
27.52000 436.025
27.53000 433.821
27.54000 432.267
27.55000 430.722
27.56000 429.404
27.57000 428.182
27.58000 427.038
27.59000 429.140
27.60000 431.891
27.61000 434.365
27.62000 434.988
27.63000 435.268
27.64000 435.886
27.65000 437.938
27.66000 440.152
27.67000 441.811
27.68000 441.370
27.69000 440.928
27.70000 440.657
27.71000 440.708
27.72000 440.768
27.73000 439.737
27.74000 437.350
27.75000 434.963
27.76000 429.567
27.77000 421.822
27.78000 414.354
27.79000 418.289
27.80000 428.194
27.81000 437.537
27.82000 437.740
27.83000 434.733
27.84000 431.982
27.85000 429.491
27.86000 427.331
27.87000 425.947
27.88000 428.714
27.89000 432.093
27.90000 434.196
27.91000 431.854
27.92000 429.132
27.93000 427.204
27.94000 430.056
27.95000 432.372
27.96000 433.994
27.97000 434.536
27.98000 435.065
27.99000 438.952
28.00000 446.213
28.01000 453.425
28.02000 449.351
28.03000 438.136
28.04000 427.153
28.05000 421.936
28.06000 419.215
28.07000 417.277
28.08000 424.616
28.09000 434.641
28.10000 443.568
28.11000 446.293
28.12000 447.644
28.13000 446.406
28.14000 433.951
28.15000 420.198
28.16000 412.346
28.17000 421.436
28.18000 431.582
28.19000 438.316
28.20000 444.502
28.21000 449.064
28.22000 449.305
28.23000 444.051
28.24000 438.777
28.25000 432.992
28.26000 426.794
28.27000 420.688
28.28000 420.658
28.29000 423.773
28.30000 426.803
28.31000 428.408
28.32000 429.502
28.33000 430.539
28.34000 431.064
28.35000 431.469
28.36000 431.817
28.37000 433.892
28.38000 435.873
28.39000 436.966
28.40000 434.904
28.41000 432.565
28.42000 432.724
28.43000 438.811
28.44000 445.152
28.45000 449.059
28.46000 429.585
28.47000 415.396
28.48000 411.071
28.49000 416.873
28.50000 422.653
28.51000 426.166
28.52000 428.180
28.53000 430.142
28.54000 433.228
28.55000 436.643
28.56000 439.134
28.57000 430.373
28.58000 418.291
28.59000 408.063
28.60000 410.804
28.61000 416.046
28.62000 420.407
28.63000 422.516
28.64000 424.040
28.65000 424.961
28.66000 424.116
28.67000 423.157
28.68000 421.012
28.69000 416.538
28.70000 412.003
28.71000 409.437
28.72000 422.692
28.73000 431.940
28.74000 433.841
28.75000 429.670
28.76000 425.507
28.77000 421.693
28.78000 418.069
28.79000 414.591
28.80000 409.294
28.81000 403.722
28.82000 399.897
28.83000 412.144
28.84000 428.283
28.85000 441.713
28.86000 440.041
28.87000 436.034
28.88000 432.837
28.89000 426.354
28.90000 420.880
28.91000 416.243
28.92000 413.626
28.93000 411.100
28.94000 412.929
28.95000 421.803
28.96000 430.773
28.97000 435.366
28.98000 429.958
28.99000 426.334
29.00000 423.979
29.01000 422.478
29.02000 421.115
29.03000 423.482
29.04000 427.524
29.05000 431.333
29.06000 429.295
29.07000 425.820
29.08000 422.631
29.09000 421.485
29.10000 420.741
29.11000 420.933
29.12000 425.349
29.13000 430.278
29.14000 434.028
29.15000 428.876
29.16000 424.357
29.17000 422.007
29.18000 423.993
29.19000 426.100
29.20000 425.579
29.21000 421.580
29.22000 417.569
29.23000 417.350
29.24000 420.324
29.25000 423.184
29.26000 420.463
29.27000 414.651
29.28000 409.262
29.29000 411.529
29.30000 416.642
29.31000 421.354
29.32000 420.292
29.33000 418.066
29.34000 416.196
29.35000 416.360
29.36000 416.846
29.37000 416.441
29.38000 412.747
29.39000 408.748
29.40000 405.866
29.41000 397.708
29.42000 391.272
29.43000 391.307
29.44000 402.007
29.45000 412.865
29.46000 415.978
29.47000 410.789
29.48000 405.622
29.49000 407.637
29.50000 414.507
29.51000 421.156
29.52000 421.556
29.53000 419.095
29.54000 416.748
29.55000 415.861
29.56000 415.422
29.57000 415.028
29.58000 414.999
29.59000 415.038
29.60000 414.763
29.61000 413.043
29.62000 411.144
29.63000 410.632
29.64000 414.337
29.65000 418.332
29.66000 421.036
29.67000 433.423
29.68000 442.865
29.69000 442.959
29.70000 430.428
29.71000 417.842
29.72000 415.798
29.73000 422.837
29.74000 429.790
29.75000 428.961
29.76000 423.869
29.77000 418.931
29.78000 416.899
29.79000 415.966
29.80000 415.441
29.81000 418.867
29.82000 423.288
29.83000 427.140
29.84000 424.196
29.85000 420.743
29.86000 420.180
29.87000 430.493
29.88000 441.848
29.89000 449.790
29.90000 449.165
29.91000 448.129
29.92000 447.475
29.93000 447.590
29.94000 447.682
29.95000 451.394
29.96000 459.071
29.97000 466.690
29.98000 466.383
29.99000 460.522
30.00000 454.792
30.01000 454.685
30.02000 457.095
30.03000 459.116
30.04000 455.964
30.05000 451.196
30.06000 447.244
30.07000 449.424
30.08000 452.863
30.09000 455.756
30.10000 465.149
30.11000 473.672
30.12000 479.579
30.13000 477.385
30.14000 474.615
30.15000 468.388
30.16000 454.982
30.17000 441.355
30.18000 433.438
30.19000 451.041
30.20000 463.500
30.21000 464.221
30.22000 454.617
30.23000 445.158
30.24000 443.792
30.25000 447.082
30.26000 450.255
30.27000 450.881
30.28000 450.548
30.29000 449.550
30.30000 441.939
30.31000 432.629
30.32000 425.345
30.33000 430.116
30.34000 436.879
30.35000 442.344
30.36000 438.514
30.37000 434.655
30.38000 434.149
30.39000 442.215
30.40000 450.709
30.41000 452.346
30.42000 442.238
30.43000 431.930
30.44000 426.485
30.45000 430.800
30.46000 433.712
30.47000 433.162
30.48000 430.138
30.49000 427.326
30.50000 431.119
30.51000 438.050
30.52000 444.618
30.53000 444.468
30.54000 442.358
30.55000 440.773
30.56000 443.228
30.57000 446.529
30.58000 449.054
30.59000 447.855
30.60000 446.169
30.61000 444.867
30.62000 435.255
30.63000 427.152
30.64000 422.614
30.65000 425.613
30.66000 428.857
30.67000 432.690
30.68000 437.351
30.69000 442.016
30.70000 447.718
30.71000 454.346
30.72000 460.861
30.73000 460.641
30.74000 456.470
30.75000 452.452
30.76000 451.503
30.77000 451.760
30.78000 451.999
30.79000 460.471
30.80000 470.049
30.81000 478.553
30.82000 480.520
30.83000 481.382
30.84000 483.668
30.85000 491.524
30.86000 499.943
30.87000 506.111
30.88000 509.038
30.89000 511.168
30.90000 512.718
30.91000 513.258
30.92000 513.779
30.93000 520.355
30.94000 533.848
30.95000 547.302
30.96000 563.115
30.97000 580.500
30.98000 597.878
30.99000 615.008
31.00000 632.017
31.01000 649.145
31.02000 667.953
31.03000 687.306
31.04000 704.827
31.05000 757.686
31.06000 810.907
31.07000 860.780
31.08000 894.265
31.09000 925.555
31.10000 970.381
31.11000 1058.722
31.12000 1150.352
31.13000 1213.593
31.14000 1281.372
31.15000 1332.417
31.16000 1401.491
31.17000 1496.411
31.18000 1591.540
31.19000 1702.776
31.20000 1828.793
31.21000 1953.591
31.22000 2080.553
31.23000 2206.140
31.24000 2332.038
31.25000 2464.471
31.26000 2599.521
31.27000 2731.823
31.28000 2835.265
31.29000 2930.998
31.30000 3015.186
31.31000 3140.185
31.32000 3253.798
31.33000 3351.708
31.34000 3386.983
31.35000 3415.754
31.36000 3438.422
31.37000 3444.890
31.38000 3450.486
31.39000 3454.093
31.40000 3422.760
31.41000 3399.380
31.42000 3352.945
31.43000 3279.615
31.44000 3206.211
31.45000 3126.429
31.46000 3041.902
31.47000 2958.982
31.48000 2851.756
31.49000 2736.885
31.50000 2620.125
31.51000 2475.703
31.52000 2322.131
31.53000 2172.741
31.54000 2057.102
31.55000 1948.830
31.56000 1856.757
31.57000 1725.169
31.58000 1610.101
31.59000 1503.719
31.60000 1425.795
31.61000 1350.089
31.62000 1275.105
31.63000 1201.707
31.64000 1128.365
31.65000 1084.661
31.66000 1009.568
31.67000 956.159
31.68000 905.693
31.69000 857.987
31.70000 810.461
31.71000 775.394
31.72000 747.920
31.73000 721.312
31.74000 691.188
31.75000 661.337
31.76000 632.967
31.77000 620.583
31.78000 612.552
31.79000 603.455
31.80000 587.576
31.81000 570.501
31.82000 556.529
31.83000 541.776
31.84000 529.620
31.85000 519.225
31.86000 513.591
31.87000 508.223
31.88000 502.307
31.89000 495.399
31.90000 488.471
31.91000 484.701
31.92000 460.853
31.93000 444.525
31.94000 440.706
31.95000 446.382
31.96000 451.834
31.97000 449.099
31.98000 442.251
31.99000 435.725
32.00000 434.346
32.01000 434.676
32.02000 434.646
32.03000 431.648
32.04000 427.988
32.05000 424.499
32.06000 421.884
32.07000 419.391
32.08000 417.440
32.09000 418.403
32.10000 419.360
32.11000 421.371
32.12000 425.742
32.13000 430.200
32.14000 433.210
32.15000 434.059
32.16000 434.888
32.17000 431.064
32.18000 422.785
32.19000 414.609
32.20000 414.184
32.21000 418.573
32.22000 422.773
32.23000 422.690
32.24000 420.827
32.25000 419.087
32.26000 416.564
32.27000 414.079
32.28000 410.999
32.29000 404.056
32.30000 396.416
32.31000 390.886
32.32000 394.108
32.33000 398.288
32.34000 401.401
32.35000 402.992
32.36000 404.163
32.37000 403.970
32.38000 401.260
32.39000 398.494
32.40000 398.902
32.41000 403.170
32.42000 407.438
32.43000 405.968
32.44000 400.086
32.45000 394.206
32.46000 388.356
32.47000 382.523
32.48000 377.064
32.49000 377.462
32.50000 379.871
32.51000 382.069
32.52000 388.519
32.53000 395.097
32.54000 400.380
32.55000 398.915
32.56000 396.479
32.57000 393.868
32.58000 390.659
32.59000 387.402
32.60000 385.111
32.61000 384.036
32.62000 383.257
32.63000 383.841
32.64000 386.495
32.65000 389.170
32.66000 388.912
32.67000 385.781
32.68000 382.675
32.69000 382.372
32.70000 383.821
32.71000 385.131
32.72000 383.131
32.73000 379.732
32.74000 377.388
32.75000 387.107
32.76000 400.239
32.77000 411.893
32.78000 423.493
32.79000 433.536
32.80000 443.156
32.81000 450.989
32.82000 458.620
32.83000 467.664
32.84000 480.674
32.85000 493.920
32.86000 502.641
32.87000 523.305
32.88000 538.731
32.89000 551.230
32.90000 560.097
32.91000 568.943
32.92000 574.771
32.93000 578.214
32.94000 581.602
32.95000 582.737
32.96000 582.697
32.97000 582.513
32.98000 579.983
32.99000 576.634
33.00000 573.034
33.01000 567.263
33.02000 560.987
33.03000 555.596
33.04000 537.550
33.05000 520.711
33.06000 503.749
33.07000 486.361
33.08000 468.938
33.09000 454.622
33.10000 447.523
33.11000 440.717
33.12000 436.561
33.13000 417.490
33.14000 403.730
33.15000 394.721
33.16000 390.466
33.17000 386.146
33.18000 376.186
33.19000 362.585
33.20000 349.357
33.21000 354.794
33.22000 367.623
33.23000 379.061
33.24000 374.135
33.25000 364.488
33.26000 356.386
33.27000 358.799
33.28000 363.190
33.29000 366.826
33.30000 364.646
33.31000 362.294
33.32000 359.345
33.33000 354.690
33.34000 349.928
33.35000 345.868
33.36000 343.154
33.37000 340.472
33.38000 338.972
33.39000 339.997
33.40000 340.716
33.41000 342.303
33.42000 344.591
33.43000 346.845
33.44000 347.677
33.45000 347.754
33.46000 347.827
33.47000 347.221
33.48000 346.430
33.49000 345.488
33.50000 343.198
33.51000 340.588
33.52000 338.470
33.53000 339.021
33.54000 339.975
33.55000 340.731
33.56000 340.518
33.57000 340.277
33.58000 340.744
33.59000 342.881
33.60000 345.089
33.61000 347.282
33.62000 349.451
33.63000 351.620
33.64000 352.716
33.65000 355.928
33.66000 357.998
33.67000 352.411
33.68000 341.784
33.69000 331.551
33.70000 331.521
33.71000 335.973
33.72000 340.157
33.73000 335.308
33.74000 328.455
33.75000 322.891
33.76000 326.303
33.77000 331.438
33.78000 335.839
33.79000 337.002
33.80000 337.782
33.81000 338.372
33.82000 346.773
33.83000 353.754
33.84000 356.494
33.85000 350.942
33.86000 345.173
33.87000 341.645
33.88000 341.012
33.89000 340.391
33.90000 341.627
33.91000 344.380
33.92000 347.048
33.93000 345.772
33.94000 342.360
33.95000 339.118
33.96000 338.815
33.97000 339.579
33.98000 340.282
33.99000 335.832
34.00000 330.750
34.01000 325.870
34.02000 322.116
34.03000 318.534
34.04000 317.474
34.05000 325.503
34.06000 334.351
34.07000 340.683
34.08000 339.807
34.09000 338.897
34.10000 337.743
34.11000 336.198
34.12000 334.648
34.13000 336.978
34.14000 343.362
34.15000 349.711
34.16000 345.999
34.17000 335.670
34.18000 325.599
34.19000 322.491
34.20000 322.498
34.21000 322.410
34.22000 321.130
34.23000 319.493
34.24000 318.027
34.25000 321.739
34.26000 325.863
34.27000 330.266
34.28000 335.921
34.29000 341.729
34.30000 344.189
34.31000 336.706
34.32000 328.566
34.33000 323.097
34.34000 336.767
34.35000 347.313
34.36000 349.168
34.37000 339.560
34.38000 329.913
34.39000 328.073
34.40000 332.794
34.41000 337.453
34.42000 336.833
34.43000 333.394
34.44000 330.123
34.45000 329.865
34.46000 330.723
34.47000 331.337
34.48000 329.669
34.49000 327.439
34.50000 325.504
34.51000 325.499
34.52000 325.755
34.53000 325.622
34.54000 324.064
34.55000 322.373
34.56000 322.669
34.57000 327.841
34.58000 333.237
34.59000 336.609
34.60000 327.690
34.61000 321.126
34.62000 319.377
34.63000 322.767
34.64000 326.132
34.65000 326.326
34.66000 324.348
34.67000 322.417
34.68000 320.593
34.69000 318.894
34.70000 317.658
34.71000 322.368
34.72000 328.895
34.73000 334.403
34.74000 332.476
34.75000 329.061
34.76000 326.201
34.77000 318.890
34.78000 312.352
34.79000 308.400
34.80000 312.275
34.81000 316.685
34.82000 320.740
34.83000 324.078
34.84000 327.395
34.85000 329.302
34.86000 323.176
34.87000 318.866
34.88000 318.264
34.89000 320.846
34.90000 323.398
34.91000 324.476
34.92000 324.723
34.93000 324.961
34.94000 326.132
34.95000 327.561
34.96000 328.603
34.97000 325.919
34.98000 322.300
34.99000 318.595
35.00000 314.393
35.01000 310.110
35.02000 306.667
35.03000 309.600
35.04000 312.472
35.05000 314.745
35.06000 315.522
35.07000 316.228
35.08000 315.070
35.09000 310.792
35.10000 306.464
35.11000 304.206
35.12000 310.783
35.13000 315.215
35.14000 317.185
35.15000 317.437
35.16000 317.816
35.17000 321.955
35.18000 327.840
35.19000 333.404
35.20000 331.140
35.21000 326.818
35.22000 322.546
35.23000 318.642
35.24000 314.812
35.25000 311.694
35.26000 311.912
35.27000 312.553
35.28000 313.045
35.29000 312.307
35.30000 311.655
35.31000 311.635
35.32000 312.923
35.33000 314.251
35.34000 317.066
35.35000 321.923
35.36000 326.790
35.37000 326.825
35.38000 322.632
35.39000 318.445
35.40000 314.547
35.41000 310.815
35.42000 307.218
35.43000 306.230
35.44000 306.245
35.45000 306.258
35.46000 308.774
35.47000 311.612
35.48000 314.061
35.49000 314.215
35.50000 313.991
35.51000 313.110
35.52000 309.720
35.53000 306.085
35.54000 303.439
35.55000 312.514
35.56000 319.947
35.57000 323.891
35.58000 321.882
35.59000 319.773
35.60000 315.066
35.61000 307.465
35.62000 299.892
35.63000 301.658
35.64000 309.994
35.65000 318.123
35.66000 319.872
35.67000 318.602
35.68000 317.157
35.69000 313.339
35.70000 308.769
35.71000 304.644
35.72000 305.725
35.73000 307.631
35.74000 309.763
35.75000 312.981
35.76000 316.341
35.77000 318.152
35.78000 315.097
35.79000 311.687
35.80000 309.352
35.81000 311.659
35.82000 313.499
35.83000 314.718
35.84000 315.066
35.85000 315.407
35.86000 314.144
35.87000 311.445
35.88000 308.775
35.89000 306.771
35.90000 305.194
35.91000 303.597
35.92000 301.607
35.93000 299.464
35.94000 297.768
35.95000 300.621
35.96000 304.661
35.97000 308.201
35.98000 307.845
35.99000 306.977
36.00000 306.395
36.01000 306.927
36.02000 307.570
36.03000 308.495
36.04000 310.149
36.05000 311.841
36.06000 312.922
36.07000 307.967
36.08000 304.281
36.09000 303.357
36.10000 305.576
36.11000 307.774
36.12000 305.943
36.13000 301.186
36.14000 296.526
36.15000 296.734
36.16000 299.191
36.17000 301.506
36.18000 301.828
36.19000 301.504
36.20000 301.458
36.21000 303.587
36.22000 306.180
36.23000 308.375
36.24000 309.344
36.25000 310.020
36.26000 309.479
36.27000 305.045
36.28000 300.318
36.29000 299.287
36.30000 306.190
36.31000 313.360
36.32000 317.590
36.33000 307.339
36.34000 300.026
36.35000 299.161
36.36000 304.189
36.37000 309.151
36.38000 309.859
36.39000 308.033
36.40000 306.269
36.41000 300.440
36.42000 293.410
36.43000 287.209
36.44000 289.683
36.45000 294.464
36.46000 298.337
36.47000 296.577
36.48000 293.849
36.49000 291.628
36.50000 294.005
36.51000 296.334
36.52000 297.037
36.53000 293.437
36.54000 289.607
36.55000 288.874
36.56000 293.630
36.57000 298.492
36.58000 301.107
36.59000 297.691
36.60000 295.368
36.61000 296.084
36.62000 299.052
36.63000 302.006
36.64000 304.480
36.65000 306.717
36.66000 308.845
36.67000 313.390
36.68000 318.329
36.69000 322.219
36.70000 317.681
36.71000 311.311
36.72000 306.810
36.73000 311.608
36.74000 317.677
36.75000 322.402
36.76000 318.192
36.77000 314.288
36.78000 310.203
36.79000 305.724
36.80000 301.230
36.81000 301.145
36.82000 307.482
36.83000 313.872
36.84000 312.498
36.85000 303.879
36.86000 295.371
36.87000 294.470
36.88000 298.188
36.89000 301.816
36.90000 303.517
36.91000 304.436
36.92000 305.291
36.93000 304.591
36.94000 303.576
36.95000 302.491
36.96000 300.970
36.97000 299.372
36.98000 299.849
36.99000 308.735
37.00000 318.512
37.01000 325.746
37.02000 316.999
37.03000 309.527
37.04000 304.746
37.05000 304.827
37.06000 305.008
37.07000 306.551
37.08000 309.710
37.09000 312.864
37.10000 311.566
37.11000 306.933
37.12000 302.409
37.13000 301.814
37.14000 303.186
37.15000 304.212
37.16000 300.052
37.17000 294.151
37.18000 288.783
37.19000 290.073
37.20000 292.522
37.21000 294.598
37.22000 294.784
37.23000 294.705
37.24000 295.015
37.25000 296.617
37.26000 298.322
37.27000 299.512
37.28000 301.158
37.29000 302.414
37.30000 301.269
37.31000 296.560
37.32000 291.818
37.33000 290.706
37.34000 293.058
37.35000 295.390
37.36000 297.919
37.37000 300.520
37.38000 303.084
37.39000 304.808
37.40000 306.185
37.41000 307.007
37.42000 301.691
37.43000 294.676
37.44000 288.474
37.45000 287.268
37.46000 287.002
37.47000 286.671
37.48000 286.073
37.49000 285.446
37.50000 286.154
37.51000 290.529
37.52000 295.115
37.53000 298.108
37.54000 294.398
37.55000 291.567
37.56000 292.320
37.57000 297.413
37.58000 302.519
37.59000 308.373
37.60000 314.802
37.61000 321.122
37.62000 319.340
37.63000 313.622
37.64000 308.011
37.65000 304.048
37.66000 300.649
37.67000 297.789
37.68000 299.468
37.69000 302.175
37.70000 304.491
37.71000 300.004
37.72000 295.398
37.73000 293.523
37.74000 300.911
37.75000 309.060
37.76000 312.333
37.77000 304.536
37.78000 296.313
37.79000 291.340
37.80000 296.603
37.81000 300.428
37.82000 303.857
37.83000 306.900
37.84000 309.899
37.85000 309.331
37.86000 306.513
37.87000 303.777
37.88000 307.569
37.89000 313.782
37.90000 318.797
37.91000 310.197
37.92000 297.757
37.93000 286.984
37.94000 287.248
37.95000 289.536
37.96000 291.422
37.97000 298.920
37.98000 305.606
37.99000 310.235
38.00000 309.109
38.01000 307.640
38.02000 305.700
38.03000 302.875
38.04000 300.029
38.05000 298.454
38.06000 309.601
38.07000 317.293
38.08000 317.669
38.09000 312.286
38.10000 306.986
38.11000 305.003
38.12000 304.743
38.13000 304.495
38.14000 308.912
38.15000 314.535
38.16000 319.002
38.17000 313.466
38.18000 305.619
38.19000 300.113
38.20000 307.016
38.21000 315.735
38.22000 322.619
38.23000 329.406
38.24000 334.846
38.25000 338.252
38.26000 336.954
38.27000 335.467
38.28000 335.646
38.29000 338.396
38.30000 341.176
38.31000 342.373
38.32000 341.995
38.33000 341.752
38.34000 353.265
38.35000 372.342
38.36000 391.308
38.37000 407.551
38.38000 422.624
38.39000 436.759
38.40000 452.343
38.41000 466.913
38.42000 481.980
38.43000 500.411
38.44000 519.473
38.45000 540.698
38.46000 571.232
38.47000 602.833
38.48000 626.583
38.49000 664.100
38.50000 694.095
38.51000 727.325
38.52000 766.740
38.53000 806.307
38.54000 847.996
38.55000 892.363
38.56000 936.667
38.57000 972.364
38.58000 1001.027
38.59000 1029.665
38.60000 1057.236
38.61000 1084.243
38.62000 1111.578
38.63000 1144.373
38.64000 1179.108
38.65000 1210.941
38.66000 1221.232
38.67000 1225.876
38.68000 1230.314
38.69000 1233.635
38.70000 1236.788
38.71000 1233.820
38.72000 1209.281
38.73000 1182.863
38.74000 1164.090
38.75000 1144.984
38.76000 1130.430
38.77000 1106.156
38.78000 1066.577
38.79000 1026.810
38.80000 992.618
38.81000 964.104
38.82000 935.770
38.83000 899.996
38.84000 859.930
38.85000 819.772
38.86000 777.275
38.87000 733.755
38.88000 691.050
38.89000 658.172
38.90000 628.174
38.91000 601.415
38.92000 572.954
38.93000 547.908
38.94000 522.459
38.95000 495.249
38.96000 467.831
38.97000 445.167
38.98000 436.312
38.99000 428.335
39.00000 423.018
39.01000 404.076
39.02000 389.792
39.03000 376.627
39.04000 364.903
39.05000 353.201
39.06000 348.273
39.07000 348.901
39.08000 349.520
39.09000 341.786
39.10000 329.895
39.11000 318.251
39.12000 310.854
39.13000 304.995
39.14000 299.779
39.15000 300.418
39.16000 302.464
39.17000 304.233
39.18000 298.291
39.19000 292.240
39.20000 287.555
39.21000 287.780
39.22000 288.445
39.23000 288.885
39.24000 288.788
39.25000 288.668
39.26000 288.593
39.27000 295.058
39.28000 299.769
39.29000 299.927
39.30000 295.346
39.31000 290.805
39.32000 290.418
39.33000 292.810
39.34000 295.142
39.35000 294.041
39.36000 291.530
39.37000 288.729
39.38000 282.329
39.39000 274.855
39.40000 268.164
39.41000 267.035
39.42000 266.993
39.43000 266.958
39.44000 268.548
39.45000 270.028
39.46000 270.226
39.47000 266.632
39.48000 262.788
39.49000 260.917
39.50000 262.963
39.51000 265.115
39.52000 266.340
39.53000 276.934
39.54000 284.330
39.55000 282.912
39.56000 274.117
39.57000 265.509
39.58000 265.825
39.59000 271.050
39.60000 276.069
39.61000 279.604
39.62000 282.400
39.63000 284.854
39.64000 284.100
39.65000 282.560
39.66000 281.350
39.67000 282.002
39.68000 282.946
39.69000 283.701
39.70000 288.592
39.71000 292.855
39.72000 295.884
39.73000 295.899
39.74000 295.776
39.75000 292.041
39.76000 282.396
39.77000 272.667
39.78000 267.652
39.79000 275.436
39.80000 280.624
39.81000 279.270
39.82000 273.454
39.83000 267.861
39.84000 268.522
39.85000 272.024
39.86000 275.328
39.87000 268.659
39.88000 259.763
39.89000 251.899
39.90000 251.526
39.91000 252.648
39.92000 254.232
39.93000 257.930
39.94000 261.888
39.95000 264.909
39.96000 264.284
39.97000 263.597
39.98000 263.033
39.99000 262.719
40.00000 262.412
40.01000 263.995
40.02000 268.110
40.03000 272.234
40.04000 269.924
40.05000 262.132
40.06000 254.431
40.07000 251.357
40.08000 250.876
40.09000 250.464
40.10000 251.317
40.11000 252.646
40.12000 253.873
40.13000 253.862
40.14000 253.575
40.15000 252.637
40.16000 247.944
40.17000 242.648
40.18000 240.055
40.19000 247.553
40.20000 256.006
40.21000 262.118
40.22000 266.709
40.23000 270.176
40.24000 272.763
40.25000 273.881
40.26000 274.977
40.27000 272.553
40.28000 266.307
40.29000 260.087
40.30000 257.166
40.31000 256.547
40.32000 256.006
40.33000 257.773
40.34000 260.608
40.35000 263.199
40.36000 262.561
40.37000 260.922
40.38000 259.447
40.39000 255.995
40.40000 252.618
40.41000 249.146
40.42000 245.228
40.43000 241.254
40.44000 238.707
40.45000 240.543
40.46000 242.688
40.47000 244.146
40.48000 251.242
40.49000 256.667
40.50000 260.332
40.51000 261.592
40.52000 262.836
40.53000 262.335
40.54000 260.310
40.55000 258.309
40.56000 256.638
40.57000 255.193
40.58000 253.800
40.59000 253.404
40.60000 253.390
40.61000 253.203
40.62000 251.308
40.63000 248.978
40.64000 246.944
40.65000 253.581
40.66000 260.476
40.67000 264.588
40.68000 258.106
40.69000 250.592
40.70000 246.359
40.71000 250.454
40.72000 254.959
40.73000 257.813
40.74000 261.742
40.75000 264.605
40.76000 263.516
40.77000 258.040
40.78000 252.598
40.79000 252.179
40.80000 255.326
40.81000 258.404
40.82000 257.397
40.83000 254.583
40.84000 251.854
40.85000 250.272
40.86000 249.054
40.87000 248.084
40.88000 249.005
40.89000 250.319
40.90000 251.427
40.91000 250.584
40.92000 249.669
40.93000 249.076
40.94000 249.489
40.95000 249.975
40.96000 251.563
40.97000 255.466
40.98000 259.442
40.99000 261.765
41.00000 249.724
41.01000 241.192
41.02000 240.081
41.03000 245.584
41.04000 250.996
41.05000 251.145
41.06000 248.230
41.07000 245.416
41.08000 244.997
41.09000 245.481
41.10000 246.018
41.11000 247.090
41.12000 248.301
41.13000 250.166
41.14000 255.978
41.15000 262.452
41.16000 267.697
41.17000 258.794
41.18000 250.388
41.19000 243.041
41.20000 238.434
41.21000 233.968
41.22000 233.938
41.23000 241.599
41.24000 249.397
41.25000 253.542
41.26000 241.057
41.27000 232.606
41.28000 233.055
41.29000 239.945
41.30000 246.578
41.31000 244.935
41.32000 239.315
41.33000 233.982
41.34000 236.269
41.35000 240.643
41.36000 245.004
41.37000 249.261
41.38000 253.497
41.39000 256.105
41.40000 250.808
41.41000 244.462
41.42000 239.548
41.43000 240.010
41.44000 240.696
41.45000 241.617
41.46000 243.038
41.47000 244.477
41.48000 245.890
41.49000 247.268
41.50000 248.645
41.51000 248.831
41.52000 247.935
41.53000 247.003
41.54000 243.899
41.55000 239.504
41.56000 235.296
41.57000 234.941
41.58000 236.118
41.59000 237.212
41.60000 242.136
41.61000 247.497
41.62000 251.617
41.63000 248.090
41.64000 243.253
41.65000 238.935
41.66000 236.670
41.67000 234.616
41.68000 233.106
41.69000 240.376
41.70000 246.359
41.71000 248.308
41.72000 243.133
41.73000 237.822
41.74000 236.002
41.75000 238.221
41.76000 240.438
41.77000 239.867
41.78000 237.259
41.79000 234.713
41.80000 234.315
41.81000 234.968
41.82000 235.682
41.83000 237.281
41.84000 239.170
41.85000 240.883
41.86000 239.542
41.87000 237.776
41.88000 236.609
41.89000 238.413
41.90000 240.622
41.91000 243.334
41.92000 247.684
41.93000 252.161
41.94000 255.263
41.95000 250.169
41.96000 246.119
41.97000 242.531
41.98000 239.614
41.99000 236.702
42.00000 235.216
42.01000 235.057
42.02000 234.899
42.03000 230.487
42.04000 223.641
42.05000 217.022
42.06000 215.295
42.07000 215.548
42.08000 216.196
42.09000 221.075
42.10000 227.097
42.11000 232.403
42.12000 231.334
42.13000 229.451
42.14000 227.820
42.15000 227.207
42.16000 226.702
42.17000 226.106
42.18000 225.267
42.19000 224.415
42.20000 223.864
42.21000 232.344
42.22000 238.682
42.23000 240.659
42.24000 237.482
42.25000 234.310
42.26000 233.675
42.27000 234.953
42.28000 236.207
42.29000 239.605
42.30000 243.914
42.31000 247.644
42.32000 242.719
42.33000 234.899
42.34000 228.235
42.35000 231.057
42.36000 235.975
42.37000 240.166
42.38000 238.281
42.39000 235.984
42.40000 234.191
42.41000 234.070
42.42000 234.083
42.43000 233.033
42.44000 229.622
42.45000 226.125
42.46000 224.031
42.47000 233.823
42.48000 240.852
42.49000 243.482
42.50000 241.933
42.51000 240.359
42.52000 237.025
42.53000 232.605
42.54000 228.321
42.55000 229.240
42.56000 232.143
42.57000 234.522
42.58000 231.139
42.59000 226.169
42.60000 222.483
42.61000 227.081
42.62000 233.162
42.63000 238.149
42.64000 235.571
42.65000 232.784
42.66000 231.301
42.67000 233.389
42.68000 235.679
42.69000 237.311
42.70000 237.734
42.71000 238.130
42.72000 238.347
42.73000 234.494
42.74000 231.844
42.75000 230.283
42.76000 229.561
42.77000 228.839
42.78000 228.160
42.79000 227.503
42.80000 226.876
42.81000 229.256
42.82000 232.417
42.83000 235.315
42.84000 236.013
42.85000 236.213
42.86000 237.282
42.87000 242.840
42.88000 249.036
42.89000 253.902
42.90000 246.267
42.91000 239.340
42.92000 233.506
42.93000 230.142
42.94000 226.872
42.95000 223.956
42.96000 221.573
42.97000 219.195
42.98000 221.413
42.99000 228.093
43.00000 234.710
43.01000 236.454
43.02000 235.134
43.03000 233.724
43.04000 230.229
43.05000 225.859
43.06000 221.771
43.07000 218.227
43.08000 215.147
43.09000 212.811
43.10000 215.385
43.11000 218.857
43.12000 222.281
43.13000 225.508
43.14000 228.713
43.15000 231.108
43.16000 233.234
43.17000 234.879
43.18000 236.303
43.19000 237.316
43.20000 238.318
43.21000 237.329
43.22000 233.887
43.23000 230.445
43.24000 228.819
43.25000 228.619
43.26000 228.414
43.27000 228.016
43.28000 227.518
43.29000 226.969
43.30000 225.613
43.31000 223.977
43.32000 222.482
43.33000 222.612
43.34000 223.060
43.35000 224.201
43.36000 229.003
43.37000 234.338
43.38000 238.681
43.39000 239.606
43.40000 240.243
43.41000 240.692
43.42000 238.926
43.43000 237.519
43.44000 235.720
43.45000 233.317
43.46000 230.907
43.47000 231.827
43.48000 236.053
43.49000 240.248
43.50000 240.684
43.51000 238.741
43.52000 236.776
43.53000 234.264
43.54000 231.519
43.55000 228.723
43.56000 225.327
43.57000 221.759
43.58000 218.588
43.59000 219.985
43.60000 221.938
43.61000 222.990
43.62000 220.187
43.63000 216.945
43.64000 214.580
43.65000 214.706
43.66000 214.986
43.67000 215.170
43.68000 218.980
43.69000 221.856
43.70000 223.825
43.71000 224.654
43.72000 225.483
43.73000 227.188
43.74000 229.593
43.75000 231.962
43.76000 233.974
43.77000 235.741
43.78000 237.189
43.79000 233.365
43.80000 227.674
43.81000 222.743
43.82000 224.530
43.83000 227.894
43.84000 230.791
43.85000 233.975
43.86000 236.708
43.87000 238.011
43.88000 234.291
43.89000 230.136
43.90000 227.560
43.91000 228.691
43.92000 229.978
43.93000 230.767
43.94000 225.399
43.95000 221.499
43.96000 220.525
43.97000 222.516
43.98000 224.473
43.99000 223.288
44.00000 220.048
44.01000 216.894
44.02000 220.465
44.03000 226.658
44.04000 232.273
44.05000 230.961
44.06000 227.626
44.07000 224.453
44.08000 222.403
44.09000 220.567
44.10000 219.043
44.11000 215.824
44.12000 212.999
44.13000 211.854
44.14000 215.573
44.15000 219.599
44.16000 223.824
44.17000 228.435
44.18000 233.056
44.19000 235.656
44.20000 231.421
44.21000 228.474
44.22000 229.913
44.23000 234.936
44.24000 239.793
44.25000 237.306
44.26000 230.870
44.27000 224.700
44.28000 225.745
44.29000 229.152
44.30000 231.653
44.31000 225.936
44.32000 218.252
44.33000 211.951
44.34000 213.268
44.35000 215.747
44.36000 217.720
44.37000 222.327
44.38000 226.230
44.39000 229.717
44.40000 232.209
44.41000 234.658
44.42000 235.462
44.43000 233.634
44.44000 231.771
44.45000 230.823
44.46000 228.978
44.47000 227.751
44.48000 227.616
44.49000 228.208
44.50000 228.839
44.51000 230.474
44.52000 232.555
44.53000 234.514
44.54000 241.555
44.55000 249.376
44.56000 256.300
44.57000 256.894
44.58000 256.257
44.59000 254.327
44.60000 246.636
44.61000 238.255
44.62000 231.897
44.63000 243.505
44.64000 253.545
44.65000 261.283
44.66000 264.464
44.67000 267.522
44.68000 270.070
44.69000 271.949
44.70000 273.824
44.71000 281.501
44.72000 293.982
44.73000 306.264
44.74000 309.129
44.75000 306.833
44.76000 305.346
44.77000 318.178
44.78000 336.272
44.79000 352.927
44.80000 350.740
44.81000 344.671
44.82000 342.076
44.83000 359.042
44.84000 379.061
44.85000 397.014
44.86000 407.428
44.87000 417.151
44.88000 424.133
44.89000 429.782
44.90000 434.057
44.91000 441.799
44.92000 455.192
44.93000 468.665
44.94000 483.102
44.95000 498.561
44.96000 513.938
44.97000 519.842
44.98000 519.315
44.99000 518.714
45.00000 516.077
45.01000 512.518
45.02000 509.314
45.03000 510.619
45.04000 513.291
45.05000 515.687
45.06000 511.222
45.07000 506.130
45.08000 501.992
45.09000 502.198
45.10000 502.939
45.11000 502.045
45.12000 496.240
45.13000 490.104
45.14000 485.965
45.15000 471.906
45.16000 461.235
45.17000 451.675
45.18000 443.600
45.19000 435.530
45.20000 426.343
45.21000 416.205
45.22000 406.195
45.23000 399.282
45.24000 394.233
45.25000 389.212
45.26000 384.690
45.27000 380.356
45.28000 375.252
45.29000 362.800
45.30000 348.518
45.31000 336.099
45.32000 337.328
45.33000 340.235
45.34000 341.525
45.35000 336.799
45.36000 331.505
45.37000 325.987
45.38000 319.913
45.39000 313.812
45.40000 309.982
45.41000 306.205
45.42000 303.475
45.43000 299.527
45.44000 294.259
45.45000 289.011
45.46000 286.241
45.47000 285.189
45.48000 284.160
45.49000 280.663
45.50000 276.223
45.51000 271.966
45.52000 270.116
45.53000 269.010
45.54000 268.015
45.55000 267.839
45.56000 267.830
45.57000 267.823
45.58000 269.593
45.59000 271.253
45.60000 270.587
45.61000 262.799
45.62000 254.514
45.63000 250.313
45.64000 254.501
45.65000 258.939
45.66000 261.505
45.67000 258.798
45.68000 256.879
45.69000 255.117
45.70000 253.490
45.71000 251.910
45.72000 252.838
45.73000 255.195
45.74000 257.465
45.75000 253.004
45.76000 246.402
45.77000 239.896
45.78000 234.333
45.79000 229.011
45.80000 224.036
45.81000 221.103
45.82000 218.504
45.83000 216.408
45.84000 223.325
45.85000 229.651
45.86000 234.469
45.87000 235.472
45.88000 236.289
45.89000 237.522
45.90000 239.457
45.91000 241.404
45.92000 242.427
45.93000 239.668
45.94000 237.795
45.95000 235.572
45.96000 233.102
45.97000 230.650
45.98000 228.748
45.99000 227.105
46.00000 225.549
46.01000 225.500
46.02000 225.892
46.03000 226.158
46.04000 225.468
46.05000 224.580
46.06000 223.021
46.07000 218.284
46.08000 213.135
46.09000 209.172
46.10000 214.427
46.11000 219.112
46.12000 221.527
46.13000 219.190
46.14000 216.705
46.15000 214.389
46.16000 212.310
46.17000 210.234
46.18000 210.317
46.19000 212.314
46.20000 214.369
46.21000 219.765
46.22000 227.099
46.23000 233.850
46.24000 229.083
46.25000 219.839
46.26000 211.271
46.27000 209.430
46.28000 209.342
46.29000 209.112
46.30000 208.030
46.31000 206.806
46.32000 206.365
46.33000 208.951
46.34000 211.838
46.35000 213.947
46.36000 213.631
46.37000 213.292
46.38000 211.707
46.39000 207.971
46.40000 204.196
46.41000 201.987
46.42000 201.545
46.43000 201.105
46.44000 201.067
46.45000 201.316
46.46000 201.561
46.47000 201.679
46.48000 201.735
46.49000 201.696
46.50000 200.320
46.51000 198.515
46.52000 196.883
46.53000 196.924
46.54000 197.272
46.55000 197.850
46.56000 199.545
46.57000 201.388
46.58000 204.046
46.59000 209.294
46.60000 214.735
46.61000 218.476
46.62000 206.610
46.63000 197.321
46.64000 192.567
46.65000 194.240
46.66000 195.961
46.67000 199.071
46.68000 203.441
46.69000 207.767
46.70000 207.512
46.71000 204.612
46.72000 201.654
46.73000 197.488
46.74000 192.843
46.75000 189.024
46.76000 193.746
46.77000 200.725
46.78000 206.852
46.79000 204.448
46.80000 201.133
46.81000 198.792
46.82000 200.290
46.83000 202.181
46.84000 203.702
46.85000 204.253
46.86000 204.752
46.87000 205.073
46.88000 202.722
46.89000 200.972
46.90000 200.293
46.91000 200.848
46.92000 201.391
46.93000 199.298
46.94000 195.267
46.95000 191.315
46.96000 192.786
46.97000 196.749
46.98000 200.368
46.99000 199.041
47.00000 196.095
47.01000 193.623
47.02000 194.915
47.03000 197.020
47.04000 198.806
47.05000 192.183
47.06000 185.674
47.07000 181.532
47.08000 185.061
47.09000 189.177
47.10000 191.229
47.11000 188.794
47.12000 186.204
47.13000 184.668
47.14000 185.574
47.15000 186.228
47.16000 187.020
47.17000 187.938
47.18000 188.835
47.19000 188.328
47.20000 186.976
47.21000 185.668
47.22000 186.749
47.23000 188.683
47.24000 190.374
47.25000 189.496
47.26000 187.925
47.27000 187.197
47.28000 191.765
47.29000 197.256
47.30000 201.738
47.31000 201.450
47.32000 200.805
47.33000 199.140
47.34000 194.746
47.35000 190.203
47.36000 189.011
47.37000 193.829
47.38000 198.767
47.39000 201.438
47.40000 199.928
47.41000 198.896
47.42000 199.388
47.43000 201.022
47.44000 202.484
47.45000 197.852
47.46000 190.190
47.47000 182.896
47.48000 181.545
47.49000 182.128
47.50000 182.728
47.51000 183.470
47.52000 184.242
47.53000 185.401
47.54000 188.510
47.55000 191.888
47.56000 194.527
47.57000 190.584
47.58000 187.025
47.59000 185.108
47.60000 186.825
47.61000 188.673
47.62000 190.485
47.63000 192.244
47.64000 194.003
47.65000 194.053
47.66000 192.489
47.67000 190.913
47.68000 188.602
47.69000 185.839
47.70000 183.253
47.71000 184.611
47.72000 187.591
47.73000 190.372
47.74000 190.501
47.75000 189.958
47.76000 189.176
47.77000 186.862
47.78000 184.276
47.79000 182.082
47.80000 181.497
47.81000 181.085
47.82000 180.780
47.83000 186.459
47.84000 191.136
47.85000 195.700
47.86000 200.058
47.87000 204.412
47.88000 205.804
47.89000 203.637
47.90000 201.467
47.91000 197.017
47.92000 190.860
47.93000 184.851
47.94000 184.374
47.95000 186.699
47.96000 188.741
47.97000 186.428
47.98000 182.636
47.99000 179.181
48.00000 180.511
48.01000 182.642
48.02000 184.346
48.03000 183.850
48.04000 183.041
48.05000 182.408
48.06000 182.365
48.07000 182.369
48.08000 182.372
48.09000 187.591
48.10000 191.689
48.11000 193.432
48.12000 191.635
48.13000 189.804
48.14000 187.739
48.15000 185.449
48.16000 183.176
48.17000 181.276
48.18000 179.639
48.19000 178.162
48.20000 180.388
48.21000 184.165
48.22000 187.932
48.23000 191.585
48.24000 195.207
48.25000 198.416
48.26000 194.771
48.27000 190.539
48.28000 186.743
48.29000 184.774
48.30000 183.008
48.31000 181.403
48.32000 180.245
48.33000 179.114
48.34000 178.373
48.35000 180.090
48.36000 181.394
48.37000 182.416
48.38000 183.093
48.39000 183.772
48.40000 185.286
48.41000 187.452
48.42000 189.582
48.43000 191.646
48.44000 193.609
48.45000 195.214
48.46000 191.127
48.47000 185.070
48.48000 179.448
48.49000 177.559
48.50000 176.525
48.51000 175.638
48.52000 174.490
48.53000 173.487
48.54000 173.003
48.55000 174.296
48.56000 175.738
48.57000 177.184
48.58000 178.636
48.59000 180.089
48.60000 180.972
48.61000 188.329
48.62000 193.632
48.63000 192.663
48.64000 185.497
48.65000 178.396
48.66000 176.778
48.67000 178.661
48.68000 180.492
48.69000 183.081
48.70000 185.850
48.71000 188.320
48.72000 187.337
48.73000 185.369
48.74000 184.120
48.75000 187.695
48.76000 192.168
48.77000 195.864
48.78000 190.207
48.79000 184.671
48.80000 181.462
48.81000 184.840
48.82000 188.619
48.83000 190.526
48.84000 188.882
48.85000 187.153
48.86000 186.190
48.87000 186.995
48.88000 187.556
48.89000 188.694
48.90000 190.292
48.91000 191.768
48.92000 188.137
48.93000 181.821
48.94000 175.777
48.95000 178.660
48.96000 184.279
48.97000 189.203
48.98000 188.010
48.99000 185.388
49.00000 183.067
49.01000 182.364
49.02000 181.902
49.03000 181.536
49.04000 179.344
49.05000 177.455
49.06000 175.358
49.07000 172.771
49.08000 170.164
49.09000 170.666
49.10000 176.024
49.11000 181.441
49.12000 184.163
49.13000 185.561
49.14000 186.463
49.15000 184.490
49.16000 180.645
49.17000 176.937
49.18000 176.716
49.19000 178.008
49.20000 179.222
49.21000 179.640
49.22000 179.809
49.23000 179.817
49.24000 178.720
49.25000 177.413
49.26000 176.459
49.27000 177.048
49.28000 177.817
49.29000 178.396
49.30000 179.094
49.31000 179.646
49.32000 178.269
49.33000 173.160
49.34000 167.957
49.35000 167.712
49.36000 173.800
49.37000 179.903
49.38000 181.618
49.39000 179.771
49.40000 177.961
49.41000 177.806
49.42000 178.537
49.43000 179.220
49.44000 179.078
49.45000 178.639
49.46000 178.237
49.47000 178.994
49.48000 179.916
49.49000 180.371
49.50000 178.257
49.51000 175.753
49.52000 172.984
49.53000 169.267
49.54000 165.466
49.55000 162.755
49.56000 167.911
49.57000 172.100
49.58000 174.397
49.59000 173.682
49.60000 172.927
49.61000 171.102
49.62000 168.171
49.63000 165.258
49.64000 167.320
49.65000 172.611
49.66000 177.774
49.67000 179.567
49.68000 179.868
49.69000 180.105
49.70000 179.557
49.71000 178.777
49.72000 178.080
49.73000 172.386
49.74000 166.582
49.75000 162.098
49.76000 163.485
49.77000 165.573
49.78000 167.615
49.79000 169.523
49.80000 171.423
49.81000 172.695
49.82000 176.555
49.83000 179.469
49.84000 180.685
49.85000 179.689
49.86000 178.683
49.87000 177.478
49.88000 176.109
49.89000 174.759
49.90000 173.916
49.91000 173.366
49.92000 172.965
49.93000 175.200
49.94000 178.399
49.95000 181.478
49.96000 183.431
49.97000 185.112
49.98000 186.567
49.99000 182.477
50.00000 178.264
50.01000 175.739
50.02000 179.355
50.03000 183.530
50.04000 186.009
50.05000 184.367
50.06000 182.541
50.07000 181.404
50.08000 186.531
50.09000 190.286
50.10000 189.504
50.11000 183.936
50.12000 178.426
50.13000 179.522
50.14000 185.090
50.15000 190.523
50.16000 187.288
50.17000 180.461
50.18000 174.374
50.19000 177.637
50.20000 183.725
50.21000 188.804
50.22000 186.612
50.23000 182.980
50.24000 179.945
50.25000 184.101
50.26000 188.281
50.27000 190.511
50.28000 186.902
50.29000 182.900
50.30000 180.485
50.31000 181.256
50.32000 182.117
50.33000 182.609
50.34000 190.685
50.35000 196.353
50.36000 203.657
50.37000 212.348
50.38000 220.872
50.39000 221.080
50.40000 216.660
50.41000 212.410
50.42000 213.898
50.43000 217.300
50.44000 220.799
50.45000 225.224
50.46000 229.878
50.47000 233.833
50.48000 233.785
50.49000 233.101
50.50000 232.552
50.51000 237.175
50.52000 241.311
50.53000 245.275
50.54000 248.814
50.55000 252.334
50.56000 258.422
50.57000 268.765
50.58000 279.172
50.59000 284.571
50.60000 283.870
50.61000 283.386
50.62000 281.811
50.63000 279.483
50.64000 277.174
50.65000 275.444
50.66000 273.980
50.67000 272.596
50.68000 279.753
50.69000 288.735
50.70000 296.097
50.71000 291.522
50.72000 284.534
50.73000 277.650
50.74000 271.251
50.75000 264.911
50.76000 260.059
50.77000 256.328
50.78000 253.445
50.79000 253.435
50.80000 259.305
50.81000 265.349
50.82000 266.024
50.83000 259.410
50.84000 252.760
50.85000 247.207
50.86000 242.613
50.87000 238.081
50.88000 236.873
50.89000 237.549
50.90000 238.155
50.91000 237.432
50.92000 236.204
50.93000 235.069
50.94000 226.351
50.95000 216.803
50.96000 208.633
50.97000 208.533
50.98000 209.745
50.99000 210.441
51.00000 209.183
51.01000 207.736
51.02000 206.687
51.03000 201.774
51.04000 197.854
51.05000 193.870
51.06000 189.780
51.07000 185.688
51.08000 187.061
51.09000 194.451
51.10000 201.812
51.11000 201.231
51.12000 195.120
51.13000 189.081
51.14000 185.193
51.15000 182.311
51.16000 179.627
51.17000 179.595
51.18000 180.394
51.19000 181.114
51.20000 177.890
51.21000 174.346
51.22000 171.817
51.23000 174.077
51.24000 176.953
51.25000 180.343
51.26000 185.335
51.27000 190.442
51.28000 193.927
51.29000 188.768
51.30000 184.709
51.31000 182.542
51.32000 182.994
51.33000 183.462
51.34000 184.290
51.35000 185.434
51.36000 186.566
51.37000 183.755
51.38000 178.783
51.39000 174.043
51.40000 173.844
51.41000 175.405
51.42000 176.978
51.43000 178.684
51.44000 180.424
51.45000 181.946
51.46000 180.034
51.47000 177.906
51.48000 175.799
51.49000 173.766
51.50000 171.740
51.51000 170.455
51.52000 171.073
51.53000 171.787
51.54000 172.242
51.55000 171.363
51.56000 170.707
51.57000 170.720
51.58000 171.486
51.59000 172.244
51.60000 171.724
51.61000 170.286
51.62000 168.878
51.63000 168.516
51.64000 168.647
51.65000 168.701
51.66000 167.673
51.67000 166.299
51.68000 165.182
51.69000 166.044
51.70000 167.323
51.71000 168.405
51.72000 172.402
51.73000 176.067
51.74000 177.985
51.75000 174.371
51.76000 170.349
51.77000 167.522
51.78000 167.232
51.79000 167.026
51.80000 166.905
51.81000 164.711
51.82000 163.155
51.83000 163.857
51.84000 166.597
51.85000 169.329
51.86000 171.561
51.87000 173.498
51.88000 175.370
51.89000 173.699
51.90000 170.806
51.91000 168.205
51.92000 168.608
51.93000 169.800
51.94000 170.248
51.95000 166.144
51.96000 161.268
51.97000 157.306
51.98000 161.577
51.99000 165.745
52.00000 169.276
52.01000 171.141
52.02000 172.919
52.03000 173.518
52.04000 172.050
52.05000 170.542
52.06000 169.736
52.07000 170.397
52.08000 170.847
52.09000 170.990
52.10000 170.909
52.11000 170.779
52.12000 169.020
52.13000 166.470
52.14000 164.048
52.15000 160.660
52.16000 157.240
52.17000 154.348
52.18000 155.633
52.19000 157.815
52.20000 159.361
52.21000 157.775
52.22000 155.766
52.23000 154.206
52.24000 159.335
52.25000 163.819
52.26000 166.837
52.27000 166.681
52.28000 166.417
52.29000 164.951
52.30000 161.755
52.31000 158.546
52.32000 159.536
52.33000 164.397
52.34000 169.200
52.35000 170.256
52.36000 169.061
52.37000 167.947
52.38000 168.555
52.39000 169.854
52.40000 171.064
52.41000 169.411
52.42000 167.222
52.43000 165.158
52.44000 163.868
52.45000 162.713
52.46000 161.912
52.47000 162.532
52.48000 163.300
52.49000 163.866
52.50000 160.281
52.51000 157.329
52.52000 154.897
52.53000 153.394
52.54000 151.910
52.55000 153.878
52.56000 159.893
52.57000 165.896
52.58000 166.188
52.59000 162.240
52.60000 158.347
52.61000 156.389
52.62000 155.390
52.63000 154.648
52.64000 157.711
52.65000 162.037
52.66000 165.967
52.67000 162.969
52.68000 158.979
52.69000 156.605
52.70000 162.350
52.71000 169.216
52.72000 173.957
52.73000 171.700
52.74000 168.894
52.75000 166.942
52.76000 160.856
52.77000 156.155
52.78000 154.862
52.79000 158.575
52.80000 162.331
52.81000 163.089
52.82000 161.023
52.83000 158.974
52.84000 158.725
52.85000 159.561
52.86000 160.304
52.87000 158.982
52.88000 156.814
52.89000 155.001
52.90000 157.035
52.91000 160.122
52.92000 162.847
52.93000 160.938
52.94000 158.581
52.95000 156.518
52.96000 155.652
52.97000 154.914
52.98000 153.990
52.99000 152.558
53.00000 151.097
53.01000 150.147
53.02000 153.963
53.03000 156.834
53.04000 160.240
53.05000 164.287
53.06000 168.311
53.07000 166.902
53.08000 161.349
53.09000 155.895
53.10000 154.525
53.11000 155.192
53.12000 156.010
53.13000 159.134
53.14000 163.039
53.15000 166.708
53.16000 168.413
53.17000 169.679
53.18000 170.760
53.19000 172.700
53.20000 174.436
53.21000 175.070
53.22000 172.007
53.23000 168.645
53.24000 167.017
53.25000 169.284
53.26000 171.698
53.27000 173.151
53.28000 163.772
53.29000 157.026
53.30000 156.563
53.31000 162.151
53.32000 167.751
53.33000 174.283
53.34000 181.397
53.35000 188.300
53.36000 185.338
53.37000 178.628
53.38000 172.181
53.39000 168.685
53.40000 166.012
53.41000 164.237
53.42000 168.336
53.43000 173.499
53.44000 177.745
53.45000 167.065
53.46000 156.937
53.47000 150.863
53.48000 156.011
53.49000 161.813
53.50000 164.375
53.51000 160.923
53.52000 157.337
53.53000 155.363
53.54000 155.220
53.55000 155.122
53.56000 154.396
53.57000 153.181
53.58000 152.162
53.59000 158.736
53.60000 169.214
53.61000 179.222
53.62000 174.751
53.63000 165.956
53.64000 157.795
53.65000 155.044
53.66000 153.527
53.67000 153.279
53.68000 159.672
53.69000 167.024
53.70000 172.814
53.71000 165.515
53.72000 158.793
53.73000 155.125
53.74000 158.447
53.75000 162.043
53.76000 163.369
53.77000 161.230
53.78000 159.054
53.79000 155.344
53.80000 150.127
53.81000 144.972
53.82000 144.991
53.83000 148.303
53.84000 151.615
53.85000 154.956
53.86000 158.308
53.87000 161.448
53.88000 163.179
53.89000 164.389
53.90000 164.982
53.91000 161.445
53.92000 157.144
53.93000 153.505
53.94000 152.685
53.95000 152.183
53.96000 151.807
53.97000 150.466
53.98000 149.374
53.99000 149.498
54.00000 151.922
54.01000 154.400
54.02000 156.905
54.03000 159.443
54.04000 161.976
54.05000 160.228
54.06000 155.103
54.07000 150.137
54.08000 151.699
54.09000 156.683
54.10000 161.285
54.11000 159.655
54.12000 155.835
54.13000 152.338
54.14000 153.168
54.15000 154.802
54.16000 155.912
54.17000 154.222
54.18000 152.118
54.19000 150.902
54.20000 152.779
54.21000 154.922
54.22000 156.439
54.23000 155.319
54.24000 154.385
54.25000 154.606
54.26000 156.627
54.27000 158.669
54.28000 158.743
54.29000 156.838
54.30000 154.946
54.31000 154.413
54.32000 154.757
54.33000 154.998
54.34000 152.681
54.35000 149.257
54.36000 146.187
54.37000 147.307
54.38000 149.642
54.39000 151.721
54.40000 155.222
54.41000 158.498
54.42000 160.518
54.43000 157.094
54.44000 153.038
54.45000 149.840
54.46000 149.103
54.47000 148.519
54.48000 148.132
54.49000 155.738
54.50000 161.508
54.51000 163.684
54.52000 161.283
54.53000 158.875
54.54000 159.610
54.55000 162.893
54.56000 166.128
54.57000 161.616
54.58000 153.224
54.59000 145.376
54.60000 146.706
54.61000 151.323
54.62000 155.811
54.63000 159.146
54.64000 162.207
54.65000 164.848
54.66000 158.785
54.67000 152.523
54.68000 148.476
54.69000 152.298
54.70000 156.814
54.71000 161.120
54.72000 164.928
54.73000 168.714
54.74000 171.049
54.75000 167.663
54.76000 165.181
54.77000 164.455
54.78000 165.535
54.79000 166.572
54.80000 163.338
54.81000 157.281
54.82000 151.380
54.83000 153.581
54.84000 159.088
54.85000 164.456
54.86000 168.136
54.87000 171.317
54.88000 174.099
54.89000 174.090
54.90000 173.541
54.91000 173.085
54.92000 165.695
54.93000 158.895
54.94000 154.755
54.95000 158.402
54.96000 162.551
54.97000 163.872
54.98000 159.640
54.99000 155.260
55.00000 152.781
55.01000 159.106
55.02000 163.525
55.03000 165.349
55.04000 165.026
55.05000 164.683
55.06000 163.412
55.07000 161.637
55.08000 159.934
55.09000 163.465
55.10000 168.553
55.11000 172.890
55.12000 170.318
55.13000 166.071
55.14000 162.766
55.15000 164.724
55.16000 167.497
55.17000 169.710
55.18000 168.562
55.19000 167.390
55.20000 166.682
55.21000 167.100
55.22000 167.569
55.23000 166.945
55.24000 164.552
55.25000 162.135
55.26000 160.897
55.27000 166.936
55.28000 170.989
55.29000 174.269
55.30000 177.027
55.31000 179.633
55.32000 178.099
55.33000 174.704
55.34000 171.504
55.35000 174.346
55.36000 178.614
55.37000 182.497
55.38000 183.630
55.39000 184.220
55.40000 184.720
55.41000 184.817
55.42000 184.865
55.43000 184.901
55.44000 198.174
55.45000 209.311
55.46000 214.925
55.47000 209.486
55.48000 203.738
55.49000 204.286
55.50000 213.177
55.51000 222.099
55.52000 231.111
55.53000 240.177
55.54000 249.138
55.55000 252.976
55.56000 253.973
55.57000 255.779
55.58000 272.261
55.59000 294.199
55.60000 314.421
55.61000 326.789
55.62000 336.124
55.63000 346.197
55.64000 360.478
55.65000 375.426
55.66000 390.851
55.67000 408.040
55.68000 425.393
55.69000 437.899
55.70000 455.115
55.71000 468.472
55.72000 490.344
55.73000 526.266
55.74000 562.396
55.75000 587.130
55.76000 599.632
55.77000 612.069
55.78000 634.552
55.79000 663.604
55.80000 692.406
55.81000 714.089
55.82000 732.510
55.83000 750.965
55.84000 769.852
55.85000 788.871
55.86000 805.953
55.87000 808.228
55.88000 807.610
55.89000 808.044
55.90000 813.319
55.91000 819.198
55.92000 822.457
55.93000 817.752
55.94000 812.499
55.95000 808.941
55.96000 808.470
55.97000 808.187
55.98000 800.814
55.99000 783.855
56.00000 766.854
56.01000 757.748
56.02000 755.451
56.03000 753.181
56.04000 730.079
56.05000 696.078
56.06000 662.822
56.07000 643.587
56.08000 629.662
56.09000 615.144
56.10000 594.864
56.11000 573.130
56.12000 554.193
56.13000 528.696
56.14000 506.002
56.15000 483.906
56.16000 464.063
56.17000 444.435
56.18000 423.661
56.19000 400.005
56.20000 376.210
56.21000 361.200
56.22000 348.421
56.23000 339.192
56.24000 330.033
56.25000 320.949
56.26000 311.855
56.27000 301.404
56.28000 290.001
56.29000 278.852
56.30000 271.616
56.31000 266.430
56.32000 261.009
56.33000 252.455
56.34000 242.921
56.35000 234.181
56.36000 231.406
56.37000 229.858
56.38000 228.555
56.39000 228.616
56.40000 228.813
56.41000 227.094
56.42000 219.439
56.43000 211.362
56.44000 205.581
56.45000 204.574
56.46000 203.713
56.47000 203.213
56.48000 200.077
56.49000 197.864
56.50000 195.284
56.51000 192.382
56.52000 189.472
56.53000 186.066
56.54000 182.374
56.55000 178.814
56.56000 177.001
56.57000 175.929
56.58000 175.023
56.59000 175.773
56.60000 176.947
56.61000 178.031
56.62000 178.571
56.63000 179.021
56.64000 179.385
56.65000 170.394
56.66000 162.331
56.67000 156.940
56.68000 158.385
56.69000 160.172
56.70000 161.393
56.71000 161.644
56.72000 161.878
56.73000 162.002
56.74000 160.727
56.75000 159.858
56.76000 158.674
56.77000 157.264
56.78000 155.881
56.79000 155.338
56.80000 155.193
56.81000 155.057
56.82000 158.941
56.83000 163.701
56.84000 167.496
56.85000 163.862
56.86000 158.670
56.87000 155.090
56.88000 159.250
56.89000 164.422
56.90000 168.416
56.91000 167.690
56.92000 166.839
56.93000 165.168
56.94000 161.759
56.95000 158.294
56.96000 154.158
56.97000 149.079
56.98000 143.995
56.99000 143.488
57.00000 147.094
57.01000 150.670
57.02000 152.419
57.03000 153.095
57.04000 153.682
57.05000 152.458
57.06000 150.522
57.07000 148.726
57.08000 147.363
57.09000 146.238
57.10000 145.637
57.11000 148.232
57.12000 151.367
57.13000 154.043
57.14000 154.921
57.15000 155.618
57.16000 156.129
57.17000 155.234
57.18000 154.487
57.19000 153.142
57.20000 150.753
57.21000 148.344
57.22000 145.976
57.23000 143.654
57.24000 141.340
57.25000 142.642
57.26000 146.552
57.27000 150.340
57.28000 150.142
57.29000 148.012
57.30000 146.014
57.31000 145.892
57.32000 146.380
57.33000 146.822
57.34000 143.028
57.35000 138.887
57.36000 136.699
57.37000 144.084
57.38000 152.753
57.39000 158.740
57.40000 156.098
57.41000 152.802
57.42000 150.526
57.43000 149.592
57.44000 148.925
57.45000 148.468
57.46000 148.312
57.47000 148.158
57.48000 147.507
57.49000 146.399
57.50000 145.301
57.51000 143.161
57.52000 140.454
57.53000 137.906
57.54000 138.686
57.55000 140.799
57.56000 142.721
57.57000 142.618
57.58000 141.975
57.59000 141.409
57.60000 142.985
57.61000 144.659
57.62000 146.094
57.63000 146.574
57.64000 146.956
57.65000 147.001
57.66000 146.153
57.67000 145.257
57.68000 144.680
57.69000 141.130
57.70000 138.495
57.71000 138.870
57.72000 142.762
57.73000 146.640
57.74000 146.877
57.75000 144.404
57.76000 141.978
57.77000 137.373
57.78000 131.900
57.79000 126.922
57.80000 129.208
57.81000 133.899
57.82000 138.545
57.83000 142.836
57.84000 147.048
57.85000 150.631
57.86000 148.198
57.87000 145.459
57.88000 142.724
57.89000 139.998
57.90000 137.273
57.91000 135.553
57.92000 136.038
57.93000 136.602
57.94000 136.939
57.95000 141.201
57.96000 144.244
57.97000 142.398
57.98000 135.962
57.99000 129.614
58.00000 129.255
58.01000 132.552
58.02000 135.744
58.03000 139.964
58.04000 144.354
58.05000 148.264
58.06000 147.001
58.07000 144.327
58.08000 141.927
58.09000 141.272
58.10000 140.925
58.11000 140.642
58.12000 141.574
58.13000 142.444
58.14000 142.522
58.15000 140.457
58.16000 138.271
58.17000 136.875
58.18000 136.910
58.19000 136.976
58.20000 137.011
58.21000 140.249
58.22000 142.463
58.23000 142.140
58.24000 139.889
58.25000 137.738
58.26000 139.244
58.27000 142.588
58.28000 145.776
58.29000 144.349
58.30000 141.583
58.31000 139.146
58.32000 139.436
58.33000 140.333
58.34000 141.093
58.35000 141.154
58.36000 141.116
58.37000 141.086
58.38000 138.779
58.39000 136.790
58.40000 135.910
58.41000 137.513
58.42000 139.208
58.43000 139.850
58.44000 138.923
58.45000 137.981
58.46000 139.366
58.47000 142.983
58.48000 146.552
58.49000 146.583
58.50000 144.414
58.51000 142.296
58.52000 141.342
58.53000 140.873
58.54000 140.434
58.55000 139.675
58.56000 138.905
58.57000 137.733
58.58000 133.937
58.59000 129.667
58.60000 127.034
58.61000 131.196
58.62000 136.102
58.63000 139.756
58.64000 138.314
58.65000 136.963
58.66000 136.796
58.67000 138.819
58.68000 140.890
58.69000 140.817
58.70000 138.135
58.71000 135.452
58.72000 134.849
58.73000 135.853
58.74000 136.880
58.75000 138.820
58.76000 141.226
58.77000 143.458
58.78000 142.949
58.79000 141.499
58.80000 140.176
58.81000 137.919
58.82000 135.728
58.83000 134.213
58.84000 136.219
58.85000 138.732
58.86000 140.376
58.87000 139.062
58.88000 137.503
58.89000 136.407
58.90000 136.214
58.91000 136.094
58.92000 136.923
58.93000 139.194
58.94000 141.481
58.95000 140.031
58.96000 134.919
58.97000 129.846
58.98000 131.308
58.99000 136.821
59.00000 142.030
59.01000 140.043
59.02000 135.007
59.03000 130.566
59.04000 132.935
59.05000 137.234
59.06000 141.048
59.07000 139.293
59.08000 136.883
59.09000 134.804
59.10000 134.130
59.11000 133.615
59.12000 132.909
59.13000 131.669
59.14000 130.398
59.15000 129.560
59.16000 135.260
59.17000 139.572
59.18000 140.575
59.19000 137.467
59.20000 134.354
59.21000 133.299
59.22000 133.871
59.23000 134.434
59.24000 134.648
59.25000 134.678
59.26000 134.772
59.27000 135.916
59.28000 137.426
59.29000 138.593
59.30000 136.760
59.31000 134.231
59.32000 132.057
59.33000 133.711
59.34000 135.586
59.35000 136.915
59.36000 136.343
59.37000 135.610
59.38000 135.786
59.39000 138.074
59.40000 140.448
59.41000 141.898
59.42000 135.593
59.43000 131.019
59.44000 131.121
59.45000 135.905
59.46000 140.612
59.47000 138.500
59.48000 131.981
59.49000 125.640
59.50000 127.172
59.51000 131.861
59.52000 136.107
59.53000 135.119
59.54000 132.620
59.55000 130.432
59.56000 130.361
59.57000 130.689
59.58000 130.960
59.59000 133.964
59.60000 136.703
59.61000 138.675
59.62000 138.446
59.63000 138.081
59.64000 138.271
59.65000 139.527
59.66000 140.809
59.67000 141.527
59.68000 139.127
59.69000 137.457
59.70000 136.105
59.71000 135.010
59.72000 133.915
59.73000 132.811
59.74000 131.704
59.75000 130.643
59.76000 132.755
59.77000 135.781
59.78000 138.168
59.79000 134.838
59.80000 130.156
59.81000 127.082
59.82000 132.767
59.83000 139.772
59.84000 145.332
59.85000 141.051
59.86000 136.910
59.87000 133.697
59.88000 132.681
59.89000 131.758
59.90000 129.150
59.91000 123.876
59.92000 118.568
59.93000 115.883
59.94000 127.809
59.95000 135.700
59.96000 134.773
59.97000 128.035
59.98000 121.621
59.99000 123.585
60.00000 129.233
60.01000 134.543
60.02000 132.948
60.03000 129.635
60.04000 126.719
60.05000 126.563
60.06000 126.938
60.07000 127.652
60.08000 129.865
60.09000 132.255
60.10000 134.063
60.11000 137.380
60.12000 140.058
60.13000 139.526
60.14000 132.712
60.15000 125.734
60.16000 122.745
60.17000 124.916
60.18000 127.106
60.19000 128.546
60.20000 129.365
60.21000 130.124
60.22000 128.117
60.23000 124.610
60.24000 121.526
60.25000 125.791
60.26000 132.728
60.27000 139.105
60.28000 133.484
60.29000 125.876
60.30000 120.051
60.31000 124.138
60.32000 129.753
60.33000 134.077
60.34000 133.746
60.35000 132.995
60.36000 132.457
60.37000 136.167
60.38000 139.144
60.39000 140.608
60.40000 139.633
60.41000 138.625
60.42000 137.256
60.43000 135.511
60.44000 133.775
60.45000 133.791
60.46000 134.969
60.47000 136.120
60.48000 136.533
60.49000 136.617
60.50000 136.773
60.51000 137.830
60.52000 139.158
60.53000 140.347
60.54000 137.930
60.55000 135.204
60.56000 132.566
60.57000 130.324
60.58000 128.129
60.59000 126.931
60.60000 128.695
60.61000 130.655
60.62000 131.972
60.63000 126.274
60.64000 121.898
60.65000 121.041
60.66000 124.832
60.67000 128.644
60.68000 132.553
60.69000 136.543
60.70000 140.480
60.71000 137.546
60.72000 130.996
60.73000 124.869
60.74000 126.349
60.75000 130.648
60.76000 134.491
60.77000 134.043
60.78000 132.537
60.79000 131.231
60.80000 132.594
60.81000 134.113
60.82000 134.993
60.83000 133.521
60.84000 131.831
60.85000 131.459
60.86000 134.326
60.87000 137.343
60.88000 139.229
60.89000 134.370
60.90000 130.793
60.91000 129.228
60.92000 129.815
60.93000 130.400
60.94000 130.798
60.95000 131.067
60.96000 131.330
60.97000 131.041
60.98000 130.523
60.99000 130.100
61.00000 130.890
61.01000 132.052
61.02000 133.340
61.03000 135.551
61.04000 137.948
61.05000 139.956
61.06000 137.834
61.07000 135.643
61.08000 134.115
61.09000 134.598
61.10000 135.218
61.11000 137.733
61.12000 144.100
61.13000 150.579
61.14000 154.305
61.15000 151.731
61.16000 149.907
61.17000 148.067
61.18000 146.215
61.19000 144.348
61.20000 141.757
61.21000 138.758
61.22000 135.872
61.23000 134.666
61.24000 134.130
61.25000 133.756
61.26000 134.945
61.27000 136.527
61.28000 137.909
61.29000 138.125
61.30000 138.154
61.31000 138.178
61.32000 133.673
61.33000 129.669
61.34000 128.329
61.35000 133.657
61.36000 139.303
61.37000 142.039
61.38000 139.898
61.39000 137.681
61.40000 136.523
61.41000 135.911
61.42000 135.515
61.43000 137.323
61.44000 140.673
61.45000 144.013
61.46000 147.042
61.47000 149.927
61.48000 152.655
61.49000 157.928
61.50000 163.501
61.51000 169.398
61.52000 177.708
61.53000 186.513
61.54000 194.971
61.55000 201.811
61.56000 208.445
61.57000 213.537
61.58000 233.411
61.59000 249.947
61.60000 266.977
61.61000 285.034
61.62000 303.121
61.63000 311.425
61.64000 306.285
61.65000 301.066
61.66000 300.796
61.67000 304.859
61.68000 308.905
61.69000 311.994
61.70000 314.533
61.71000 317.006
61.72000 318.206
61.73000 318.915
61.74000 319.571
61.75000 308.887
61.76000 296.670
61.77000 284.074
61.78000 269.230
61.79000 254.017
61.80000 240.415
61.81000 232.980
61.82000 226.149
61.83000 221.176
61.84000 196.354
61.85000 176.487
61.86000 162.441
61.87000 158.340
61.88000 154.406
61.89000 152.242
61.90000 152.052
61.91000 151.864
61.92000 150.486
61.93000 148.280
61.94000 146.086
61.95000 144.229
61.96000 142.533
61.97000 140.897
61.98000 140.100
61.99000 139.568
62.00000 139.088
62.01000 140.027
62.02000 141.113
62.03000 141.986
62.04000 141.837
62.05000 141.555
62.06000 140.583
62.07000 137.444
62.08000 134.147
62.09000 131.888
62.10000 140.233
62.11000 146.738
62.12000 148.827
62.13000 144.725
62.14000 140.583
62.15000 139.030
62.16000 139.796
62.17000 140.555
62.18000 141.433
62.19000 142.359
62.20000 143.172
62.21000 141.683
62.22000 139.294
62.23000 137.258
62.24000 138.831
62.25000 141.345
62.26000 143.549
62.27000 140.271
62.28000 136.666
62.29000 134.391
62.30000 137.307
62.31000 140.746
62.32000 142.139
62.33000 138.214
62.34000 134.016
62.35000 131.332
62.36000 133.865
62.37000 135.778
62.38000 136.538
62.39000 135.985
62.40000 135.435
62.41000 135.663
62.42000 136.458
62.43000 137.236
62.44000 137.595
62.45000 137.747
62.46000 138.130
62.47000 141.798
62.48000 146.529
62.49000 150.571
62.50000 149.207
62.51000 146.690
62.52000 144.559
62.53000 143.262
62.54000 142.269
62.55000 141.379
62.56000 140.817
62.57000 140.280
62.58000 140.487
62.59000 142.294
62.60000 144.155
62.61000 145.253
62.62000 145.251
62.63000 145.247
62.64000 149.681
62.65000 158.178
62.66000 166.526
62.67000 165.514
62.68000 158.922
62.69000 152.547
62.70000 148.007
62.71000 144.413
62.72000 140.838
62.73000 137.454
62.74000 134.122
62.75000 131.999
62.76000 137.366
62.77000 144.023
62.78000 149.445
62.79000 147.706
62.80000 145.681
62.81000 143.400
62.82000 140.442
62.83000 137.448
62.84000 135.750
62.85000 136.349
62.86000 136.993
62.87000 137.340
62.88000 147.693
62.89000 154.749
62.90000 156.363
62.91000 153.940
62.92000 151.497
62.93000 148.364
62.94000 144.892
62.95000 141.590
62.96000 143.438
62.97000 146.718
62.98000 149.524
62.99000 148.525
63.00000 146.698
63.01000 145.322
63.02000 146.188
63.03000 147.361
63.04000 148.275
63.05000 142.335
63.06000 137.180
63.07000 134.742
63.08000 138.252
63.09000 141.972
63.10000 144.463
63.11000 145.163
63.12000 145.848
63.13000 144.100
63.14000 140.079
63.15000 136.115
63.16000 135.967
63.17000 138.139
63.18000 140.264
63.19000 141.370
63.20000 142.061
63.21000 142.706
63.22000 141.960
63.23000 140.944
63.24000 140.675
63.25000 145.148
63.26000 150.454
63.27000 154.811
63.28000 155.320
63.29000 155.419
63.30000 155.493
63.31000 150.240
63.32000 145.934
63.33000 142.646
63.34000 141.200
63.35000 139.791
63.36000 142.017
63.37000 148.561
63.38000 155.096
63.39000 157.015
63.40000 155.450
63.41000 153.897
63.42000 152.713
63.43000 151.715
63.44000 150.668
63.45000 148.896
63.46000 146.878
63.47000 145.043
63.48000 147.741
63.49000 151.017
63.50000 154.128
63.51000 156.395
63.52000 158.545
63.53000 159.425
63.54000 156.081
63.55000 152.399
63.56000 149.828
63.57000 148.853
63.58000 148.161
63.59000 148.231
63.60000 149.433
63.61000 150.646
63.62000 151.484
63.63000 151.966
63.64000 152.443
63.65000 152.143
63.66000 151.377
63.67000 150.587
63.68000 149.271
63.69000 147.738
63.70000 146.456
63.71000 147.950
63.72000 150.213
63.73000 152.214
63.74000 152.839
63.75000 153.165
63.76000 152.839
63.77000 149.815
63.78000 146.498
63.79000 144.164
63.80000 144.533
63.81000 145.058
63.82000 145.401
63.83000 141.985
63.84000 139.417
63.85000 138.896
63.86000 140.855
63.87000 142.823
63.88000 145.267
63.89000 148.078
63.90000 150.842
63.91000 154.189
63.92000 157.711
63.93000 161.008
63.94000 160.796
63.95000 159.383
63.96000 158.108
63.97000 158.011
63.98000 158.181
63.99000 158.326
64.00000 155.384
64.01000 152.528
64.02000 150.583
64.03000 151.728
64.04000 153.128
64.05000 155.070
64.06000 158.247
64.07000 161.471
64.08000 163.421
64.09000 162.742
64.10000 162.239
64.11000 162.271
64.12000 162.823
64.13000 163.385
64.14000 164.691
64.15000 166.467
64.16000 168.192
64.17000 168.417
64.18000 168.031
64.19000 167.794
64.20000 169.266
64.21000 171.221
64.22000 172.239
64.23000 167.050
64.24000 160.722
64.25000 155.505
64.26000 159.875
64.27000 164.354
64.28000 167.436
64.29000 166.606
64.30000 165.544
64.31000 163.909
64.32000 161.199
64.33000 158.463
64.34000 156.948
64.35000 163.068
64.36000 167.289
64.37000 166.308
64.38000 161.228
64.39000 156.220
64.40000 154.140
64.41000 153.583
64.42000 153.051
64.43000 157.463
64.44000 163.173
64.45000 168.077
64.46000 165.985
64.47000 162.276
64.48000 160.004
64.49000 165.355
64.50000 171.825
64.51000 176.933
64.52000 169.065
64.53000 161.867
64.54000 157.646
64.55000 160.317
64.56000 163.266
64.57000 165.206
64.58000 165.587
64.59000 165.950
64.60000 167.966
64.61000 171.631
64.62000 175.248
64.63000 174.676
64.64000 171.405
64.65000 168.318
64.66000 169.753
64.67000 173.132
64.68000 176.302
64.69000 180.113
64.70000 183.753
64.71000 186.665
64.72000 184.638
64.73000 181.684
64.74000 178.805
64.75000 176.248
64.76000 173.727
64.77000 171.832
64.78000 175.276
64.79000 178.227
64.80000 178.158
64.81000 172.314
64.82000 166.328
64.83000 166.702
64.84000 175.110
64.85000 183.530
64.86000 187.220
64.87000 187.104
64.88000 187.011
64.89000 187.839
64.90000 189.155
64.91000 190.354
64.92000 189.589
64.93000 188.126
64.94000 186.786
64.95000 189.182
64.96000 192.102
64.97000 195.242
64.98000 199.572
64.99000 204.080
65.00000 208.830
65.01000 214.434
65.02000 220.111
65.03000 224.147
65.04000 218.613
65.05000 214.094
65.06000 213.103
65.07000 217.671
65.08000 222.307
65.09000 224.515
65.10000 224.246
65.11000 223.979
65.12000 223.804
65.13000 223.691
65.14000 223.733
65.15000 227.747
65.16000 233.501
65.17000 238.720
65.18000 237.483
65.19000 234.354
65.20000 231.562
65.21000 238.047
65.22000 245.237
65.23000 252.889
65.24000 262.574
65.25000 272.497
65.26000 280.107
65.27000 280.990
65.28000 281.445
65.29000 281.748
65.30000 289.346
65.31000 295.111
65.32000 302.377
65.33000 311.574
65.34000 320.771
65.35000 326.237
65.36000 328.641
65.37000 331.010
65.38000 332.966
65.39000 334.650
65.40000 336.698
65.41000 345.052
65.42000 355.690
65.43000 365.994
65.44000 373.255
65.45000 379.785
65.46000 385.430
65.47000 390.475
65.48000 394.682
65.49000 400.291
65.50000 410.942
65.51000 422.045
65.52000 427.831
65.53000 420.838
65.54000 413.286
65.55000 408.607
65.56000 424.029
65.57000 435.311
65.58000 443.502
65.59000 448.471
65.60000 453.456
65.61000 460.151
65.62000 467.991
65.63000 475.634
65.64000 486.766
65.65000 498.879
65.66000 512.049
65.67000 538.344
65.68000 568.564
65.69000 601.286
65.70000 651.788
65.71000 705.769
65.72000 750.786
65.73000 834.224
65.74000 907.245
65.75000 976.624
65.76000 1035.213
65.77000 1093.091
65.78000 1152.403
65.79000 1214.564
65.80000 1276.804
65.81000 1312.229
65.82000 1355.580
65.83000 1385.790
65.84000 1400.370
65.85000 1401.850
65.86000 1403.231
65.87000 1399.825
65.88000 1393.783
65.89000 1387.979
65.90000 1364.713
65.91000 1336.900
65.92000 1308.115
65.93000 1270.243
65.94000 1230.141
65.95000 1185.110
65.96000 1112.193
65.97000 1034.900
65.98000 973.053
65.99000 871.674
66.00000 786.750
66.01000 710.191
66.02000 654.113
66.03000 598.969
66.04000 547.026
66.05000 500.324
66.06000 453.697
66.07000 429.652
66.08000 402.254
66.09000 383.848
66.10000 371.055
66.11000 362.095
66.12000 353.293
66.13000 348.930
66.14000 346.587
66.15000 344.376
66.16000 341.924
66.17000 339.610
66.18000 337.344
66.19000 335.435
66.20000 333.597
66.21000 333.232
66.22000 339.605
66.23000 346.811
66.24000 352.310
66.25000 355.703
66.26000 358.264
66.27000 368.801
66.28000 395.487
66.29000 422.638
66.30000 438.277
66.31000 438.470
66.32000 438.583
66.33000 446.200
66.34000 460.209
66.35000 474.159
66.36000 485.094
66.37000 494.338
66.38000 503.479
66.39000 510.711
66.40000 517.225
66.41000 523.238
66.42000 516.839
66.43000 508.317
66.44000 501.414
66.45000 503.874
66.46000 507.837
66.47000 510.363
66.48000 507.517
66.49000 504.162
66.50000 501.735
66.51000 478.677
66.52000 460.230
66.53000 439.617
66.54000 415.385
66.55000 391.098
66.56000 371.845
66.57000 358.068
66.58000 344.357
66.59000 340.516
66.60000 343.516
66.61000 346.430
66.62000 346.828
66.63000 346.061
66.64000 345.246
66.65000 343.808
66.66000 342.175
66.67000 340.707
66.68000 335.953
66.69000 331.201
66.70000 327.598
66.71000 329.357
66.72000 331.795
66.73000 333.956
66.74000 335.262
66.75000 336.509
66.76000 337.356
66.77000 334.302
66.78000 331.934
66.79000 333.264
66.80000 339.657
66.81000 346.076
66.82000 348.608
66.83000 347.745
66.84000 346.892
66.85000 351.116
66.86000 358.070
66.87000 364.738
66.88000 365.900
66.89000 364.952
66.90000 363.779
66.91000 360.383
66.92000 356.420
66.93000 352.960
66.94000 352.029
66.95000 351.587
66.96000 353.018
66.97000 361.585
66.98000 370.849
66.99000 376.356
67.00000 372.316
67.01000 367.806
67.02000 364.947
67.03000 372.956
67.04000 378.897
67.05000 380.837
67.06000 378.334
67.07000 375.861
67.08000 378.087
67.09000 383.650
67.10000 389.094
67.11000 384.632
67.12000 375.862
67.13000 367.835
67.14000 369.913
67.15000 375.190
67.16000 380.310
67.17000 384.236
67.18000 387.914
67.19000 391.015
67.20000 391.441
67.21000 391.506
67.22000 393.233
67.23000 400.168
67.24000 407.481
67.25000 410.226
67.26000 403.369
67.27000 396.206
67.28000 392.021
67.29000 399.379
67.30000 404.609
67.31000 408.858
67.32000 412.232
67.33000 415.637
67.34000 420.894
67.35000 427.229
67.36000 433.344
67.37000 434.441
67.38000 433.629
67.39000 433.115
67.40000 435.619
67.41000 438.908
67.42000 442.055
67.43000 444.341
67.44000 446.482
67.45000 448.217
67.46000 447.774
67.47000 447.234
67.48000 447.198
67.49000 448.467
67.50000 449.803
67.51000 451.275
67.52000 452.984
67.53000 454.697
67.54000 455.608
67.55000 443.658
67.56000 435.596
67.57000 440.484
67.58000 454.755
67.59000 468.609
67.60000 469.038
67.61000 463.010
67.62000 457.290
67.63000 460.391
67.64000 465.875
67.65000 471.231
67.66000 475.587
67.67000 479.732
67.68000 483.979
67.69000 488.726
67.70000 493.539
67.71000 497.267
67.72000 496.417
67.73000 495.470
67.74000 494.761
67.75000 494.559
67.76000 494.375
67.77000 497.188
67.78000 504.271
67.79000 511.384
67.80000 514.961
67.81000 515.314
67.82000 515.675
67.83000 516.539
67.84000 517.703
67.85000 519.006
67.86000 523.215
67.87000 528.579
67.88000 533.565
67.89000 530.341
67.90000 525.465
67.91000 521.756
67.92000 525.255
67.93000 529.989
67.94000 533.513
67.95000 532.239
67.96000 530.471
67.97000 529.171
67.98000 543.248
67.99000 554.768
68.00000 564.158
68.01000 569.783
68.02000 575.336
68.03000 578.851
68.04000 580.005
68.05000 581.152
68.06000 579.509
68.07000 575.832
68.08000 572.272
68.09000 572.675
68.10000 575.021
68.11000 577.647
68.12000 584.345
68.13000 592.382
68.14000 599.671
68.15000 605.985
68.16000 611.369
68.17000 615.020
68.18000 610.065
68.19000 603.939
68.20000 601.405
68.21000 610.566
68.22000 620.630
68.23000 627.604
68.24000 642.702
68.25000 654.281
68.26000 654.953
68.27000 639.783
68.28000 624.488
68.29000 634.676
68.30000 668.584
68.31000 702.181
68.32000 717.261
68.33000 721.050
68.34000 724.605
68.35000 723.100
68.36000 719.544
68.37000 716.510
68.38000 719.056
68.39000 723.112
68.40000 726.686
68.41000 726.446
68.42000 725.664
68.43000 728.461
68.44000 745.723
68.45000 764.513
68.46000 783.578
68.47000 803.377
68.48000 823.216
68.49000 836.066
68.50000 837.669
68.51000 838.676
68.52000 848.949
68.53000 870.186
68.54000 891.422
68.55000 908.678
68.56000 922.932
68.57000 936.926
68.58000 978.422
68.59000 1031.700
68.60000 1084.477
68.61000 1129.748
68.62000 1172.506
68.63000 1216.190
68.64000 1267.471
68.65000 1320.432
68.66000 1365.576
68.67000 1439.199
68.68000 1504.471
68.69000 1572.726
68.70000 1650.880
68.71000 1729.820
68.72000 1801.038
68.73000 1855.091
68.74000 1908.515
68.75000 1940.526
68.76000 2075.033
68.77000 2171.221
68.78000 2263.089
68.79000 2350.850
68.80000 2438.748
68.81000 2536.647
68.82000 2640.720
68.83000 2741.610
68.84000 2929.327
68.85000 3141.070
68.86000 3362.660
68.87000 3692.632
68.88000 4052.504
68.89000 4463.711
68.90000 5206.283
68.91000 6008.168
68.92000 6666.063
68.93000 9014.291
68.94000 11091.885
68.95000 13653.688
68.96000 17541.422
68.97000 21504.887
68.98000 26057.063
68.99000 31690.270
69.00000 37346.828
69.01000 40444.160
69.02000 48315.086
69.03000 53729.691
69.04000 58106.781
69.05000 61685.719
69.06000 65224.945
69.07000 67267.172
69.08000 68547.766
69.09000 69769.492
69.10000 70526.813
69.11000 71082.633
69.12000 71653.227
69.13000 72348.008
69.14000 73070.828
69.15000 73773.336
69.16000 74370.750
69.17000 74953.172
69.18000 75410.586
69.19000 74291.742
69.20000 73293.242
69.21000 71614.758
69.22000 68396.406
69.23000 65119.094
69.24000 61547.871
69.25000 57532.695
69.26000 53513.121
69.27000 50075.418
69.28000 47203.457
69.29000 44341.082
69.30000 42232.277
69.31000 40597.727
69.32000 38979.152
69.33000 37734.113
69.34000 36646.184
69.35000 35628.418
69.36000 34379.230
69.37000 33185.266
69.38000 31896.250
69.39000 29979.645
69.40000 27948.279
69.41000 25764.816
69.42000 22941.883
69.43000 20047.768
69.44000 17885.398
69.45000 14608.707
69.46000 12002.897
69.47000 9757.778
69.48000 8187.606
69.49000 6632.904
69.50000 5392.481
69.51000 4539.470
69.52000 3689.188
69.53000 3120.791
69.54000 2775.446
69.55000 2432.857
69.56000 2199.979
69.57000 2023.978
69.58000 1852.426
69.59000 1752.064
69.60000 1676.459
69.61000 1607.366
69.62000 1532.304
69.63000 1464.409
69.64000 1397.352
69.65000 1334.722
69.66000 1272.737
69.67000 1217.333
69.68000 1184.613
69.69000 1153.807
69.70000 1132.062
69.71000 1097.098
69.72000 1070.162
69.73000 1047.207
69.74000 1030.381
69.75000 1013.624
69.76000 996.371
69.77000 978.624
69.78000 961.002
69.79000 945.071
69.80000 930.459
69.81000 915.570
69.82000 893.904
69.83000 869.334
69.84000 845.319
69.85000 827.769
69.86000 812.073
69.87000 798.117
69.88000 795.685
69.89000 795.442
69.90000 794.022
69.91000 787.555
69.92000 780.512
69.93000 771.892
69.94000 758.793
69.95000 745.420
69.96000 736.576
69.97000 715.914
69.98000 700.455
69.99000 698.745
70.00000 714.333
