20.00000 569.158
20.01000 565.705
20.02000 561.758
20.03000 557.860
20.04000 554.152
20.05000 550.464
20.06000 547.771
20.07000 551.901
20.08000 555.352
20.09000 557.603
20.10000 557.786
20.11000 557.933
20.12000 563.215
20.13000 574.288
20.14000 585.325
20.15000 586.632
20.16000 580.981
20.17000 575.233
20.18000 566.409
20.19000 556.113
20.20000 546.563
20.21000 547.392
20.22000 551.551
20.23000 555.310
20.24000 562.034
20.25000 568.500
20.26000 573.189
20.27000 569.291
20.28000 564.259
20.29000 559.898
20.30000 557.667
20.31000 555.594
20.32000 554.169
20.33000 542.500
20.34000 533.493
20.35000 534.000
20.36000 547.979
20.37000 562.050
20.38000 565.597
20.39000 559.613
20.40000 553.690
20.41000 551.340
20.42000 551.106
20.43000 550.979
20.44000 553.049
20.45000 555.988
20.46000 558.527
20.47000 556.936
20.48000 554.254
20.49000 551.901
20.50000 549.717
20.51000 547.867
20.52000 546.416
20.53000 546.540
20.54000 546.825
20.55000 548.622
20.56000 554.385
20.57000 560.356
20.58000 564.188
20.59000 549.882
20.60000 539.205
20.61000 537.732
20.62000 546.859
20.63000 555.958
20.64000 557.988
20.65000 554.823
20.66000 551.721
20.67000 553.809
20.68000 558.255
20.69000 562.058
20.70000 556.630
20.71000 548.183
20.72000 541.151
20.73000 545.356
20.74000 551.984
20.75000 557.608
20.76000 555.868
20.77000 553.574
20.78000 551.907
20.79000 552.267
20.80000 552.782
20.81000 553.900
20.82000 556.326
20.83000 558.797
20.84000 560.262
20.85000 558.765
20.86000 557.690
20.87000 559.433
20.88000 563.781
20.89000 567.974
20.90000 561.911
20.91000 549.671
20.92000 537.826
20.93000 535.232
20.94000 536.304
20.95000 537.204
20.96000 536.274
20.97000 534.853
20.98000 534.434
20.99000 540.302
21.00000 547.266
21.01000 552.949
21.02000 561.568
21.03000 568.872
21.04000 572.581
21.05000 566.680
21.06000 560.254
21.07000 554.896
21.08000 551.447
21.09000 548.037
21.10000 546.193
21.11000 540.355
21.12000 536.380
21.13000 537.493
21.14000 542.422
21.15000 547.157
21.16000 545.119
21.17000 539.717
21.18000 534.575
21.19000 532.632
21.20000 531.820
21.21000 532.244
21.22000 542.746
21.23000 555.464
21.24000 565.588
21.25000 562.645
21.26000 557.894
21.27000 554.185
21.28000 556.931
21.29000 559.528
21.30000 558.444
21.31000 549.224
21.32000 539.709
21.33000 538.770
21.34000 550.460
21.35000 562.262
21.36000 564.259
21.37000 556.991
21.38000 549.871
21.39000 553.266
21.40000 563.116
21.41000 572.481
21.42000 571.093
21.43000 565.289
21.44000 559.875
21.45000 552.776
21.46000 545.927
21.47000 540.480
21.48000 544.032
21.49000 549.184
21.50000 552.879
21.51000 550.601
21.52000 547.680
21.53000 545.513
21.54000 555.119
21.55000 563.100
21.56000 567.512
21.57000 565.407
21.58000 563.164
21.59000 560.637
21.60000 557.768
21.61000 554.906
21.62000 553.008
21.63000 551.856
21.64000 550.791
21.65000 552.992
21.66000 556.846
21.67000 560.672
21.68000 564.075
21.69000 567.336
21.70000 570.306
21.71000 571.721
21.72000 572.665
21.73000 573.884
21.74000 576.517
21.75000 579.350
21.76000 582.202
21.77000 585.119
21.78000 588.041
21.79000 590.087
21.80000 617.839
21.81000 639.562
21.82000 652.965
21.83000 653.872
21.84000 654.656
21.85000 661.885
21.86000 675.340
21.87000 688.688
21.88000 699.534
21.89000 708.651
21.90000 717.564
21.91000 721.777
21.92000 724.025
21.93000 726.401
21.94000 730.213
21.95000 734.428
21.96000 738.161
21.97000 746.303
21.98000 754.041
21.99000 761.111
22.00000 765.386
22.01000 769.352
22.02000 774.596
22.03000 783.387
22.04000 792.386
22.05000 798.284
22.06000 797.130
22.07000 796.165
22.08000 796.319
22.09000 797.846
22.10000 799.353
22.11000 794.895
22.12000 785.780
22.13000 776.817
22.14000 765.277
22.15000 752.828
22.16000 740.485
22.17000 729.825
22.18000 719.746
22.19000 709.306
22.20000 695.769
22.21000 681.523
22.22000 669.308
22.23000 666.823
22.24000 665.916
22.25000 660.697
22.26000 640.697
22.27000 619.462
22.28000 608.462
22.29000 620.948
22.30000 634.361
22.31000 642.511
22.32000 631.279
22.33000 623.112
22.34000 617.512
22.35000 614.444
22.36000 611.337
22.37000 605.003
22.38000 596.609
22.39000 588.452
22.40000 581.712
22.41000 575.881
22.42000 570.199
22.43000 566.239
22.44000 562.771
22.45000 559.028
22.46000 553.443
22.47000 547.516
22.48000 542.620
22.49000 542.539
22.50000 542.923
22.51000 543.172
22.52000 543.039
22.53000 542.883
22.54000 542.301
22.55000 540.914
22.56000 539.507
22.57000 538.724
22.58000 526.583
22.59000 518.181
22.60000 515.272
22.61000 516.738
22.62000 518.256
22.63000 521.979
22.64000 526.859
22.65000 531.528
22.66000 532.188
22.67000 531.487
22.68000 531.145
22.69000 533.958
22.70000 537.508
22.71000 539.802
22.72000 535.358
22.73000 529.915
22.74000 525.607
22.75000 532.217
22.76000 538.284
22.77000 540.672
22.78000 534.460
22.79000 527.894
22.80000 524.651
22.81000 526.598
22.82000 528.606
22.83000 529.614
22.84000 525.154
22.85000 522.179
22.86000 519.455
22.87000 516.894
22.88000 514.479
22.89000 515.712
22.90000 518.529
22.91000 521.173
22.92000 516.726
22.93000 510.790
22.94000 505.917
22.95000 508.333
22.96000 512.131
22.97000 515.891
22.98000 519.482
22.99000 523.053
23.00000 525.745
23.01000 513.420
23.02000 503.032
23.03000 498.844
23.04000 506.638
23.05000 514.736
23.06000 516.649
23.07000 510.669
23.08000 504.669
23.09000 503.245
23.10000 505.531
23.11000 507.861
23.12000 512.087
23.13000 517.328
23.14000 522.201
23.15000 520.839
23.16000 517.238
23.17000 513.934
23.18000 508.531
23.19000 503.267
23.20000 498.752
23.21000 498.343
23.22000 498.558
23.23000 499.295
23.24000 501.893
23.25000 504.656
23.26000 506.625
23.27000 510.474
23.28000 513.470
23.29000 514.034
23.30000 510.729
23.31000 507.374
23.32000 502.539
23.33000 496.177
23.34000 489.854
23.35000 484.820
23.36000 480.699
23.37000 477.164
23.38000 488.984
23.39000 507.597
23.40000 524.349
23.41000 518.308
23.42000 505.515
23.43000 494.085
23.44000 498.522
23.45000 505.064
23.46000 510.571
23.47000 511.478
23.48000 511.837
23.49000 511.582
23.50000 509.524
23.51000 507.350
23.52000 505.895
23.53000 504.427
23.54000 503.338
23.55000 500.045
23.56000 493.882
23.57000 487.716
23.58000 486.220
23.59000 488.599
23.60000 490.944
23.61000 496.011
23.62000 502.381
23.63000 508.274
23.64000 505.817
23.65000 500.305
23.66000 495.245
23.67000 494.363
23.68000 494.497
23.69000 494.613
23.70000 492.539
23.71000 490.485
23.72000 489.651
23.73000 493.246
23.74000 497.245
23.75000 499.996
23.76000 499.717
23.77000 499.302
23.78000 499.045
23.79000 499.930
23.80000 500.578
23.81000 499.710
23.82000 497.242
23.83000 494.776
23.84000 492.453
23.85000 490.227
23.86000 488.056
23.87000 493.315
23.88000 501.540
23.89000 508.622
23.90000 501.287
23.91000 489.599
23.92000 480.250
23.93000 487.716
23.94000 498.506
23.95000 507.523
23.96000 516.183
23.97000 523.337
23.98000 523.861
23.99000 504.555
24.00000 483.921
24.01000 472.774
24.02000 480.666
24.03000 489.092
24.04000 493.911
24.05000 492.193
24.06000 490.974
24.07000 491.426
24.08000 493.293
24.09000 495.121
24.10000 495.019
24.11000 493.844
24.12000 492.714
24.13000 496.761
24.14000 502.361
24.15000 507.191
24.16000 504.715
24.17000 500.427
24.18000 496.322
24.19000 493.263
24.20000 490.369
24.21000 488.049
24.22000 485.919
24.23000 484.210
24.24000 483.347
24.25000 484.581
24.26000 485.911
24.27000 489.245
24.28000 495.892
24.29000 502.588
24.30000 506.060
24.31000 499.202
24.32000 494.552
24.33000 487.419
24.34000 478.575
24.35000 469.942
24.36000 467.372
24.37000 467.587
24.38000 467.790
24.39000 472.297
24.40000 477.648
24.41000 482.568
24.42000 484.318
24.43000 485.427
24.44000 485.768
24.45000 482.556
24.46000 478.898
24.47000 476.099
24.48000 481.370
24.49000 485.970
24.50000 490.317
24.51000 494.144
24.52000 497.957
24.53000 500.670
24.54000 501.892
24.55000 503.105
24.56000 499.554
24.57000 491.898
24.58000 484.421
24.59000 486.363
24.60000 493.644
24.61000 500.516
24.62000 499.678
24.63000 495.912
24.64000 492.432
24.65000 489.126
24.66000 486.198
24.67000 483.448
24.68000 481.737
24.69000 480.194
24.70000 479.075
24.71000 479.557
24.72000 480.193
24.73000 480.654
24.74000 477.337
24.75000 474.648
24.76000 474.199
24.77000 477.528
24.78000 480.918
24.79000 482.058
24.80000 480.724
24.81000 479.395
24.82000 476.636
24.83000 472.910
24.84000 469.338
24.85000 470.386
24.86000 473.597
24.87000 476.685
24.88000 478.142
24.89000 479.087
24.90000 479.939
24.91000 474.628
24.92000 468.855
24.93000 464.619
24.94000 467.632
24.95000 471.576
24.96000 475.394
24.97000 478.820
24.98000 482.219
24.99000 484.538
25.00000 483.906
25.01000 483.365
25.02000 480.813
25.03000 475.482
25.04000 470.136
25.05000 467.474
25.06000 467.182
25.07000 466.893
25.08000 469.768
25.09000 474.361
25.10000 478.696
25.11000 477.981
25.12000 475.313
25.13000 473.130
25.14000 475.802
25.15000 479.725
25.16000 483.156
25.17000 481.487
25.18000 479.332
25.19000 476.108
25.20000 468.772
25.21000 461.029
25.22000 457.557
25.23000 465.047
25.24000 473.089
25.25000 478.205
25.26000 483.034
25.27000 486.540
25.28000 485.004
25.29000 477.805
25.30000 470.629
25.31000 467.616
25.32000 467.590
25.33000 467.564
25.34000 469.431
25.35000 472.091
25.36000 474.547
25.37000 474.183
25.38000 472.917
25.39000 471.305
25.40000 467.021
25.41000 462.174
25.42000 458.080
25.43000 452.773
25.44000 448.202
25.45000 448.217
25.46000 462.746
25.47000 478.345
25.48000 487.867
25.49000 484.494
25.50000 480.700
25.51000 478.473
25.52000 467.114
25.53000 459.065
25.54000 452.723
25.55000 447.923
25.56000 443.216
25.57000 444.148
25.58000 448.401
25.59000 452.508
25.60000 459.173
25.61000 466.405
25.62000 473.298
25.63000 476.694
25.64000 479.171
25.65000 481.274
25.66000 481.091
25.67000 480.522
25.68000 480.059
25.69000 476.367
25.70000 473.089
25.71000 469.152
25.72000 463.495
25.73000 457.747
25.74000 454.276
25.75000 454.792
25.76000 455.381
25.77000 455.696
25.78000 468.603
25.79000 477.369
25.80000 478.470
25.81000 473.962
25.82000 469.340
25.83000 460.951
25.84000 450.731
25.85000 441.024
25.86000 442.868
25.87000 448.045
25.88000 452.798
25.89000 454.197
25.90000 454.877
25.91000 455.077
25.92000 452.920
25.93000 450.447
25.94000 448.527
25.95000 460.308
25.96000 470.504
25.97000 472.805
25.98000 458.036
25.99000 442.683
26.00000 433.702
26.01000 433.891
26.02000 434.152
26.03000 437.410
26.04000 443.427
26.05000 449.403
26.06000 452.795
26.07000 454.636
26.08000 456.448
26.09000 457.657
26.10000 458.624
26.11000 459.524
26.12000 457.796
26.13000 455.598
26.14000 453.361
26.15000 450.880
26.16000 448.356
26.17000 446.902
26.18000 449.730
26.19000 453.005
26.20000 455.420
26.21000 451.713
26.22000 448.584
26.23000 446.867
26.24000 447.670
26.25000 448.523
26.26000 448.124
26.27000 446.258
26.28000 444.396
26.29000 443.933
26.30000 444.512
26.31000 445.181
26.32000 449.016
26.33000 454.417
26.34000 459.347
26.35000 457.331
26.36000 453.011
26.37000 449.087
26.38000 448.951
26.39000 449.563
26.40000 449.284
26.41000 444.527
26.42000 439.152
26.43000 435.560
26.44000 437.824
26.45000 440.547
26.46000 442.441
26.47000 451.507
26.48000 458.536
26.49000 462.577
26.50000 462.235
26.51000 461.854
26.52000 459.056
26.53000 453.984
26.54000 448.955
26.55000 448.385
26.56000 450.500
26.57000 452.621
26.58000 454.858
26.59000 457.144
26.60000 459.247
26.61000 459.378
26.62000 458.969
26.63000 458.608
26.64000 449.631
26.65000 440.569
26.66000 434.348
26.67000 439.733
26.68000 446.361
26.69000 449.612
26.70000 443.699
26.71000 437.270
26.72000 433.091
26.73000 443.038
26.74000 450.545
26.75000 453.402
26.76000 450.697
26.77000 447.990
26.78000 447.165
26.79000 447.773
26.80000 448.372
26.81000 451.589
26.82000 455.970
26.83000 459.857
26.84000 456.221
26.85000 450.040
26.86000 444.418
26.87000 443.442
26.88000 443.504
26.89000 443.557
26.90000 446.689
26.91000 449.693
26.92000 451.873
26.93000 451.292
26.94000 450.489
26.95000 449.321
26.96000 447.334
26.97000 445.316
26.98000 444.102
26.99000 443.254
27.00000 442.654
27.01000 443.426
27.02000 445.518
27.03000 447.509
27.04000 441.785
27.05000 431.251
27.06000 421.032
27.07000 425.629
27.08000 435.844
27.09000 444.968
27.10000 441.915
27.11000 435.469
27.12000 430.154
27.13000 432.230
27.14000 435.643
27.15000 438.449
27.16000 441.961
27.17000 444.910
27.18000 445.004
27.19000 437.200
27.20000 428.938
27.21000 424.327
27.22000 426.488
27.23000 428.801
27.24000 430.073
27.25000 438.973
27.26000 445.079
27.27000 441.501
27.28000 430.397
27.29000 419.687
27.30000 424.266
27.31000 436.700
27.32000 448.573
27.33000 451.355
27.34000 451.028
27.35000 450.485
27.36000 448.093
27.37000 445.280
27.38000 443.768
27.39000 449.062
27.40000 455.338
27.41000 460.279
27.42000 451.018
27.43000 442.651
27.44000 437.432
27.45000 439.407
27.46000 441.665
27.47000 439.878
27.48000 431.922
27.49000 423.901
27.50000 420.594
27.51000 421.921
27.52000 423.288
27.53000 427.894
27.54000 434.561
27.55000 441.036
27.56000 442.946
27.57000 442.918
27.58000 442.892
27.59000 446.759
27.60000 451.281
27.61000 454.425
27.62000 448.360
27.63000 440.593
27.64000 434.444
27.65000 435.176
27.66000 436.683
27.67000 437.812
27.68000 438.145
27.69000 438.369
27.70000 437.490
27.71000 434.529
27.72000 431.519
27.73000 429.188
27.74000 427.703
27.75000 426.223
27.76000 427.329
27.77000 430.472
27.78000 433.418
27.79000 428.307
27.80000 418.978
27.81000 410.140
27.82000 409.292
27.83000 411.250
27.84000 413.041
27.85000 415.487
27.86000 417.797
27.87000 420.553
27.88000 425.694
27.89000 431.187
27.90000 436.369
27.91000 440.468
27.92000 444.474
27.93000 447.311
27.94000 438.978
27.95000 432.297
27.96000 430.723
27.97000 437.093
27.98000 443.554
27.99000 443.512
28.00000 436.936
28.01000 430.404
28.02000 431.136
28.03000 436.493
28.04000 441.516
28.05000 438.199
28.06000 431.275
28.07000 424.497
28.08000 419.452
28.09000 414.908
28.10000 410.862
28.11000 426.433
28.12000 443.180
28.13000 455.481
28.14000 448.514
28.15000 439.317
28.16000 432.183
28.17000 430.969
28.18000 430.124
28.19000 429.563
28.20000 437.855
28.21000 444.147
28.22000 442.113
28.23000 429.492
28.24000 416.867
28.25000 416.642
28.26000 426.457
28.27000 436.127
28.28000 433.828
28.29000 425.401
28.30000 417.588
28.31000 420.111
28.32000 426.334
28.33000 432.514
28.34000 438.320
28.35000 444.037
28.36000 448.969
28.37000 441.533
28.38000 433.638
28.39000 427.398
28.40000 427.031
28.41000 427.182
28.42000 427.542
28.43000 428.399
28.44000 429.278
28.45000 429.820
28.46000 425.078
28.47000 421.627
28.48000 418.425
28.49000 415.479
28.50000 412.608
28.51000 417.095
28.52000 426.446
28.53000 435.553
28.54000 436.728
28.55000 434.514
28.56000 432.304
28.57000 430.136
28.58000 427.980
28.59000 425.777
28.60000 423.246
28.61000 420.652
28.62000 418.494
28.63000 423.351
28.64000 428.060
28.65000 430.471
28.66000 426.161
28.67000 421.417
28.68000 421.734
28.69000 431.982
28.70000 442.491
28.71000 448.437
28.72000 430.577
28.73000 418.105
28.74000 413.689
28.75000 415.931
28.76000 418.147
28.77000 419.142
28.78000 419.475
28.79000 419.794
28.80000 421.116
28.81000 422.693
28.82000 423.963
28.83000 422.402
28.84000 420.154
28.85000 417.929
28.86000 415.825
28.87000 413.739
28.88000 412.075
28.89000 409.725
28.90000 407.777
28.91000 408.450
28.92000 415.456
28.93000 422.744
28.94000 428.125
28.95000 430.423
28.96000 432.679
28.97000 433.834
28.98000 423.121
28.99000 415.967
29.00000 413.761
29.01000 414.891
29.02000 415.973
29.03000 415.762
29.04000 414.971
29.05000 414.225
29.06000 416.801
29.07000 420.074
29.08000 423.107
29.09000 424.427
29.10000 425.410
29.11000 427.241
29.12000 432.894
29.13000 439.012
29.14000 443.666
29.15000 433.966
29.16000 425.584
29.17000 418.257
29.18000 413.041
29.19000 407.885
29.20000 406.212
29.21000 409.153
29.22000 412.113
29.23000 413.008
29.24000 412.162
29.25000 411.200
29.26000 404.579
29.27000 394.822
29.28000 385.857
29.29000 391.224
29.30000 401.914
29.31000 411.767
29.32000 419.526
29.33000 426.009
29.34000 430.213
29.35000 421.432
29.36000 410.598
29.37000 401.637
29.38000 399.582
29.39000 398.171
29.40000 397.154
29.41000 407.099
29.42000 415.105
29.43000 417.720
29.44000 411.446
29.45000 405.042
29.46000 404.915
29.47000 411.519
29.48000 418.093
29.49000 418.357
29.50000 414.332
29.51000 410.347
29.52000 407.521
29.53000 405.225
29.54000 403.413
29.55000 407.843
29.56000 414.189
29.57000 419.887
29.58000 424.354
29.59000 428.046
29.60000 430.001
29.61000 423.963
29.62000 416.929
29.63000 413.516
29.64000 421.099
29.65000 429.439
29.66000 435.086
29.67000 426.121
29.68000 419.122
29.69000 419.320
29.70000 429.240
29.71000 439.203
29.72000 440.938
29.73000 435.587
29.74000 430.301
29.75000 425.504
29.76000 421.098
29.77000 416.726
29.78000 412.996
29.79000 409.510
29.80000 407.374
29.81000 418.322
29.82000 432.568
29.83000 444.978
29.84000 444.136
29.85000 441.585
29.86000 439.318
29.87000 438.116
29.88000 437.016
29.89000 438.351
29.90000 445.795
29.91000 453.532
29.92000 458.412
29.93000 464.774
29.94000 469.397
29.95000 474.119
29.96000 478.950
29.97000 483.724
29.98000 480.851
29.99000 472.619
30.00000 464.571
30.01000 460.716
30.02000 458.893
30.03000 457.416
30.04000 460.554
30.05000 465.134
30.06000 468.947
30.07000 467.002
30.08000 463.876
30.09000 461.245
30.10000 468.148
30.11000 474.920
30.12000 478.249
30.13000 470.928
30.14000 462.851
30.15000 456.865
30.16000 455.220
30.17000 453.709
30.18000 452.831
30.19000 449.482
30.20000 447.121
30.21000 445.998
30.22000 445.964
30.23000 445.921
30.24000 445.409
30.25000 444.626
30.26000 443.871
30.27000 443.601
30.28000 443.523
30.29000 442.897
30.30000 436.830
30.31000 429.364
30.32000 423.205
30.33000 424.819
30.34000 427.718
30.35000 430.060
30.36000 435.728
30.37000 440.603
30.38000 442.328
30.39000 435.999
30.40000 429.267
30.41000 425.322
30.42000 426.152
30.43000 427.063
30.44000 427.544
30.45000 445.800
30.46000 458.128
30.47000 458.706
30.48000 450.884
30.49000 443.222
30.50000 440.563
30.51000 440.279
30.52000 440.010
30.53000 440.587
30.54000 441.365
30.55000 441.955
30.56000 441.091
30.57000 439.921
30.58000 439.399
30.59000 441.978
30.60000 444.963
30.61000 447.268
30.62000 459.635
30.63000 470.023
30.64000 473.811
30.65000 463.640
30.66000 453.018
30.67000 447.671
30.68000 449.740
30.69000 451.860
30.70000 449.985
30.71000 444.525
30.72000 439.214
30.73000 442.691
30.74000 451.323
30.75000 459.850
30.76000 466.269
30.77000 471.859
30.78000 477.046
30.79000 471.089
30.80000 463.089
30.81000 456.706
30.82000 460.157
30.83000 465.270
30.84000 472.335
30.85000 487.035
30.86000 502.507
30.87000 513.843
30.88000 527.633
30.89000 538.380
30.90000 544.636
30.91000 543.052
30.92000 541.326
30.93000 542.913
30.94000 548.287
30.95000 553.646
30.96000 561.154
30.97000 570.151
30.98000 579.599
30.99000 603.797
31.00000 635.135
31.01000 666.243
31.02000 694.088
31.03000 720.874
31.04000 745.123
31.05000 792.537
31.06000 838.669
31.07000 883.848
31.08000 924.368
31.09000 964.263
31.10000 1009.599
31.11000 1072.426
31.12000 1136.574
31.13000 1180.848
31.14000 1310.011
31.15000 1409.230
31.16000 1511.487
31.17000 1618.102
31.18000 1724.754
31.19000 1838.105
31.20000 1957.604
31.21000 2075.946
31.22000 2206.707
31.23000 2342.016
31.24000 2477.106
31.25000 2607.598
31.26000 2736.250
31.27000 2864.225
31.28000 2985.088
31.29000 3104.052
31.30000 3208.669
31.31000 3342.779
31.32000 3462.550
31.33000 3565.810
31.34000 3603.218
31.35000 3633.788
31.36000 3658.978
31.37000 3669.888
31.38000 3680.031
31.39000 3686.568
31.40000 3661.671
31.41000 3643.042
31.42000 3589.459
31.43000 3495.101
31.44000 3400.692
31.45000 3307.722
31.46000 3215.822
31.47000 3125.670
31.48000 3014.971
31.49000 2898.539
31.50000 2780.456
31.51000 2638.169
31.52000 2487.877
31.53000 2339.748
31.54000 2209.072
31.55000 2082.205
31.56000 1974.319
31.57000 1820.836
31.58000 1686.677
31.59000 1562.670
31.60000 1471.921
31.61000 1383.763
31.62000 1300.596
31.63000 1228.388
31.64000 1156.569
31.65000 1113.773
31.66000 1017.658
31.67000 949.222
31.68000 896.563
31.69000 858.694
31.70000 820.930
31.71000 790.366
31.72000 764.190
31.73000 738.839
31.74000 709.278
31.75000 679.692
31.76000 651.117
31.77000 633.466
31.78000 618.789
31.79000 604.046
31.80000 588.879
31.81000 573.636
31.82000 561.165
31.83000 545.063
31.84000 531.554
31.85000 520.054
31.86000 513.985
31.87000 508.219
31.88000 504.582
31.89000 504.807
31.90000 505.111
31.91000 505.277
31.92000 481.667
31.93000 465.462
31.94000 454.363
31.95000 447.140
31.96000 440.030
31.97000 437.030
31.98000 436.095
31.99000 435.205
32.00000 433.707
32.01000 432.129
32.02000 431.178
32.03000 435.409
32.04000 440.794
32.05000 444.818
32.06000 441.888
32.07000 437.983
32.08000 434.925
32.09000 418.095
32.10000 403.768
32.11000 396.450
32.12000 404.805
32.13000 413.743
32.14000 417.461
32.15000 413.395
32.16000 409.255
32.17000 407.312
32.18000 407.473
32.19000 407.653
32.20000 409.205
32.21000 411.609
32.22000 413.843
32.23000 412.197
32.24000 408.940
32.25000 405.897
32.26000 403.567
32.27000 401.634
32.28000 400.211
32.29000 402.111
32.30000 404.610
32.31000 405.054
32.32000 396.975
32.33000 387.963
32.34000 381.253
32.35000 380.699
32.36000 380.544
32.37000 377.791
32.38000 370.236
32.39000 362.575
32.40000 364.100
32.41000 376.793
32.42000 389.484
32.43000 390.074
32.44000 381.342
32.45000 372.868
32.46000 374.292
32.47000 380.784
32.48000 387.131
32.49000 391.210
32.50000 394.510
32.51000 397.520
32.52000 393.092
32.53000 387.665
32.54000 382.785
32.55000 380.749
32.56000 379.123
32.57000 378.260
32.58000 379.997
32.59000 381.948
32.60000 383.319
32.61000 382.030
32.62000 380.974
32.63000 380.661
32.64000 381.474
32.65000 382.300
32.66000 380.830
32.67000 377.112
32.68000 373.423
32.69000 374.404
32.70000 378.277
32.71000 382.143
32.72000 385.822
32.73000 389.423
32.74000 392.706
32.75000 392.365
32.76000 390.997
32.77000 389.784
32.78000 392.462
32.79000 395.403
32.80000 399.806
32.81000 410.400
32.82000 421.689
32.83000 436.697
32.84000 462.143
32.85000 488.213
32.86000 505.377
32.87000 509.860
32.88000 512.943
32.89000 517.513
32.90000 523.926
32.91000 530.352
32.92000 538.790
32.93000 548.819
32.94000 558.688
32.95000 558.051
32.96000 552.125
32.97000 546.212
32.98000 540.502
32.99000 534.864
33.00000 529.266
33.01000 524.032
33.02000 518.883
33.03000 514.458
33.04000 495.467
33.05000 477.590
33.06000 461.784
33.07000 453.166
33.08000 445.160
33.09000 435.105
33.10000 420.291
33.11000 405.284
33.12000 396.121
33.13000 391.354
33.14000 387.981
33.15000 379.896
33.16000 367.097
33.17000 354.391
33.18000 349.889
33.19000 350.683
33.20000 351.456
33.21000 354.464
33.22000 358.242
33.23000 361.730
33.24000 361.794
33.25000 360.871
33.26000 359.526
33.27000 355.307
33.28000 350.548
33.29000 346.607
33.30000 350.113
33.31000 353.713
33.32000 355.911
33.33000 354.094
33.34000 352.030
33.35000 353.152
33.36000 360.390
33.37000 367.779
33.38000 371.915
33.39000 363.727
33.40000 358.031
33.41000 354.117
33.42000 351.640
33.43000 349.159
33.44000 346.436
33.45000 343.587
33.46000 340.857
33.47000 339.937
33.48000 339.681
33.49000 339.288
33.50000 337.680
33.51000 335.785
33.52000 333.934
33.53000 332.325
33.54000 330.753
33.55000 329.505
33.56000 333.223
33.57000 336.565
33.58000 338.493
33.59000 337.080
33.60000 335.525
33.61000 334.568
33.62000 334.556
33.63000 334.555
33.64000 334.555
33.65000 330.803
33.66000 328.390
33.67000 335.273
33.68000 348.278
33.69000 360.724
33.70000 358.755
33.71000 350.454
33.72000 342.651
33.73000 338.487
33.74000 335.663
33.75000 333.767
33.76000 338.347
33.77000 344.170
33.78000 349.072
33.79000 349.920
33.80000 350.289
33.81000 350.568
33.82000 339.576
33.83000 330.389
33.84000 325.353
33.85000 328.433
33.86000 331.724
33.87000 334.641
33.88000 337.075
33.89000 339.503
33.90000 340.164
33.91000 339.373
33.92000 338.524
33.93000 335.024
33.94000 330.087
33.95000 325.727
33.96000 331.371
33.97000 340.648
33.98000 349.175
33.99000 345.618
34.00000 339.839
34.01000 335.834
34.02000 341.675
34.03000 349.032
34.04000 353.037
34.05000 344.960
34.06000 335.793
34.07000 329.234
34.08000 330.767
34.09000 332.211
34.10000 333.336
34.11000 333.947
34.12000 334.552
34.13000 333.470
34.14000 330.625
34.15000 327.796
34.16000 328.685
34.17000 332.027
34.18000 335.027
34.19000 328.817
34.20000 318.486
34.21000 309.115
34.22000 311.713
34.23000 317.900
34.24000 323.438
34.25000 326.729
34.26000 329.215
34.27000 331.821
34.28000 334.960
34.29000 338.163
34.30000 339.059
34.31000 333.103
34.32000 326.694
34.33000 322.388
34.34000 333.810
34.35000 342.616
34.36000 346.530
34.37000 343.991
34.38000 341.418
34.39000 336.946
34.40000 330.877
34.41000 324.888
34.42000 319.870
34.43000 315.508
34.44000 311.655
34.45000 316.950
34.46000 325.630
34.47000 333.430
34.48000 332.962
34.49000 330.460
34.50000 328.289
34.51000 323.182
34.52000 318.439
34.53000 315.032
34.54000 316.540
34.55000 318.504
34.56000 318.418
34.57000 313.300
34.58000 307.952
34.59000 304.609
34.60000 312.608
34.61000 318.498
34.62000 320.004
34.63000 316.827
34.64000 313.697
34.65000 316.007
34.66000 322.041
34.67000 327.932
34.68000 327.219
34.69000 323.657
34.70000 320.301
34.71000 319.596
34.72000 319.702
34.73000 319.175
34.74000 314.037
34.75000 307.976
34.76000 302.900
34.77000 309.940
34.78000 317.043
34.79000 319.727
34.80000 309.038
34.81000 297.434
34.82000 294.199
34.83000 307.953
34.84000 322.200
34.85000 330.392
34.86000 328.166
34.87000 326.570
34.88000 325.017
34.89000 323.501
34.90000 321.969
34.91000 319.604
34.92000 316.770
34.93000 314.042
34.94000 315.703
34.95000 318.814
34.96000 321.607
34.97000 321.338
34.98000 320.300
34.99000 319.203
35.00000 317.757
35.01000 316.256
35.02000 315.049
35.03000 314.570
35.04000 314.238
35.05000 315.698
35.06000 321.642
35.07000 327.800
35.08000 329.565
35.09000 323.976
35.10000 318.271
35.11000 315.294
35.12000 305.141
35.13000 298.359
35.14000 302.821
35.15000 315.133
35.16000 327.044
35.17000 327.086
35.18000 321.614
35.19000 316.440
35.20000 314.818
35.21000 314.345
35.22000 313.938
35.23000 314.029
35.24000 314.222
35.25000 314.512
35.26000 315.256
35.27000 316.058
35.28000 316.673
35.29000 317.857
35.30000 318.825
35.31000 319.342
35.32000 318.927
35.33000 318.483
35.34000 316.532
35.35000 312.511
35.36000 308.480
35.37000 307.966
35.38000 310.531
35.39000 313.106
35.40000 316.275
35.41000 319.785
35.42000 323.024
35.43000 321.013
35.44000 316.986
35.45000 313.258
35.46000 313.972
35.47000 315.636
35.48000 316.635
35.49000 313.696
35.50000 310.108
35.51000 308.039
35.52000 311.773
35.53000 316.075
35.54000 319.207
35.55000 309.214
35.56000 301.021
35.57000 298.831
35.58000 306.886
35.59000 315.112
35.60000 320.388
35.61000 322.375
35.62000 324.353
35.63000 323.409
35.64000 320.413
35.65000 317.354
35.66000 312.304
35.67000 306.313
35.68000 300.814
35.69000 302.047
35.70000 305.417
35.71000 308.459
35.72000 304.927
35.73000 300.619
35.74000 297.029
35.75000 296.873
35.76000 297.164
35.77000 298.118
35.78000 301.155
35.79000 304.344
35.80000 306.529
35.81000 299.897
35.82000 294.717
35.83000 295.094
35.84000 303.249
35.85000 311.453
35.86000 313.274
35.87000 309.385
35.88000 305.537
35.89000 306.563
35.90000 310.349
35.91000 313.687
35.92000 308.018
35.93000 298.822
35.94000 290.848
35.95000 295.295
35.96000 302.983
35.97000 309.720
35.98000 304.961
35.99000 299.218
36.00000 295.554
36.01000 299.988
36.02000 305.236
36.03000 308.102
36.04000 304.783
36.05000 301.146
36.06000 298.821
36.07000 306.588
36.08000 312.373
36.09000 313.837
36.10000 310.385
36.11000 306.944
36.12000 306.198
36.13000 307.411
36.14000 308.598
36.15000 304.438
36.16000 297.957
36.17000 292.069
36.18000 294.543
36.19000 299.720
36.20000 303.846
36.21000 299.730
36.22000 293.857
36.23000 288.885
36.24000 291.761
36.25000 295.047
36.26000 296.650
36.27000 292.860
36.28000 288.665
36.29000 288.861
36.30000 298.486
36.31000 308.427
36.32000 314.293
36.33000 309.045
36.34000 305.282
36.35000 304.748
36.36000 307.167
36.37000 309.481
36.38000 305.166
36.39000 296.902
36.40000 288.912
36.41000 290.980
36.42000 296.717
36.43000 302.006
36.44000 302.620
36.45000 301.989
36.46000 301.414
36.47000 301.183
36.48000 301.011
36.49000 300.872
36.50000 299.749
36.51000 298.749
36.52000 298.329
36.53000 299.446
36.54000 300.644
36.55000 302.202
36.56000 304.399
36.57000 306.609
36.58000 307.797
36.59000 310.403
36.60000 312.184
36.61000 313.724
36.62000 315.086
36.63000 316.332
36.64000 313.623
36.65000 308.970
36.66000 304.546
36.67000 308.022
36.68000 313.642
36.69000 317.626
36.70000 308.464
36.71000 296.444
36.72000 287.052
36.73000 290.746
36.74000 296.227
36.75000 300.495
36.76000 300.170
36.77000 299.627
36.78000 299.137
36.79000 298.761
36.80000 298.389
36.81000 298.353
36.82000 298.808
36.83000 299.267
36.84000 298.778
36.85000 297.404
36.86000 296.058
36.87000 296.629
36.88000 298.364
36.89000 300.036
36.90000 300.331
36.91000 300.067
36.92000 299.821
36.93000 300.218
36.94000 300.734
36.95000 301.387
36.96000 302.903
36.97000 304.570
36.98000 306.409
36.99000 308.944
37.00000 311.553
37.01000 313.483
37.02000 319.838
37.03000 324.959
37.04000 326.744
37.05000 322.501
37.06000 318.136
37.07000 315.892
37.08000 316.165
37.09000 316.441
37.10000 311.881
37.11000 303.720
37.12000 295.739
37.13000 294.296
37.14000 296.124
37.15000 298.052
37.16000 301.478
37.17000 305.407
37.18000 308.980
37.19000 306.974
37.20000 304.104
37.21000 301.440
37.22000 299.817
37.23000 298.341
37.24000 297.826
37.25000 300.512
37.26000 303.454
37.27000 305.507
37.28000 303.285
37.29000 301.489
37.30000 303.015
37.31000 309.476
37.32000 315.982
37.33000 316.330
37.34000 310.801
37.35000 305.319
37.36000 301.519
37.37000 298.812
37.38000 296.096
37.39000 293.186
37.40000 290.196
37.41000 287.867
37.42000 292.848
37.43000 299.852
37.44000 306.045
37.45000 300.580
37.46000 294.050
37.47000 289.489
37.48000 293.066
37.49000 297.528
37.50000 299.568
37.51000 294.954
37.52000 289.959
37.53000 286.698
37.54000 297.484
37.55000 305.627
37.56000 306.360
37.57000 298.117
37.58000 289.882
37.59000 288.362
37.60000 292.022
37.61000 295.619
37.62000 294.043
37.63000 289.970
37.64000 286.131
37.65000 285.939
37.66000 286.995
37.67000 288.016
37.68000 288.748
37.69000 289.414
37.70000 289.984
37.71000 288.629
37.72000 287.254
37.73000 286.408
37.74000 287.359
37.75000 288.458
37.76000 289.579
37.77000 290.753
37.78000 291.929
37.79000 292.641
37.80000 299.149
37.81000 303.829
37.82000 302.841
37.83000 296.327
37.84000 289.885
37.85000 289.088
37.86000 291.853
37.87000 294.538
37.88000 298.362
37.89000 302.449
37.90000 306.017
37.91000 303.700
37.92000 299.722
37.93000 296.784
37.94000 300.727
37.95000 305.933
37.96000 310.224
37.97000 307.493
37.98000 304.599
37.99000 302.405
38.00000 302.165
38.01000 302.041
38.02000 301.513
38.03000 300.226
38.04000 298.922
38.05000 298.200
38.06000 303.975
38.07000 307.969
38.08000 310.730
38.09000 312.521
38.10000 314.204
38.11000 311.547
38.12000 306.634
38.13000 301.938
38.14000 302.810
38.15000 305.429
38.16000 308.480
38.17000 315.273
38.18000 322.932
38.19000 329.161
38.20000 327.814
38.21000 325.358
38.22000 323.419
38.23000 331.172
38.24000 338.052
38.25000 342.884
38.26000 342.982
38.27000 342.888
38.28000 345.129
38.29000 350.976
38.30000 356.863
38.31000 361.678
38.32000 365.427
38.33000 369.249
38.34000 379.369
38.35000 393.541
38.36000 407.579
38.37000 418.316
38.38000 427.634
38.39000 436.372
38.40000 459.157
38.41000 483.586
38.42000 508.013
38.43000 532.431
38.44000 556.847
38.45000 583.325
38.46000 618.670
38.47000 655.031
38.48000 682.360
38.49000 716.523
38.50000 743.562
38.51000 774.763
38.52000 813.920
38.53000 853.272
38.54000 892.880
38.55000 932.811
38.56000 972.678
38.57000 1025.068
38.58000 1087.256
38.59000 1149.121
38.60000 1197.268
38.61000 1238.149
38.62000 1278.266
38.63000 1305.688
38.64000 1328.600
38.65000 1349.597
38.66000 1373.923
38.67000 1396.285
38.68000 1415.103
38.69000 1414.738
38.70000 1411.499
38.71000 1405.479
38.72000 1389.664
38.73000 1372.996
38.74000 1361.151
38.75000 1345.238
38.76000 1332.994
38.77000 1308.376
38.78000 1264.274
38.79000 1219.933
38.80000 1169.993
38.81000 1114.351
38.82000 1059.062
38.83000 1006.467
38.84000 956.374
38.85000 906.346
38.86000 857.955
38.87000 810.281
38.88000 763.174
38.89000 722.890
38.90000 684.606
38.91000 650.456
38.92000 616.499
38.93000 586.987
38.94000 558.776
38.95000 536.279
38.96000 514.453
38.97000 492.966
38.98000 472.461
38.99000 452.018
39.00000 438.392
39.01000 409.828
39.02000 388.394
39.03000 372.614
39.04000 364.113
39.05000 355.644
39.06000 348.950
39.07000 343.711
39.08000 338.547
39.09000 333.687
39.10000 329.127
39.11000 324.634
39.12000 321.282
39.13000 318.343
39.14000 315.164
39.15000 309.796
39.16000 303.903
39.17000 298.808
39.18000 299.509
39.19000 300.859
39.20000 301.622
39.21000 300.276
39.22000 298.741
39.23000 297.719
39.24000 297.928
39.25000 298.191
39.26000 298.354
39.27000 298.422
39.28000 298.470
39.29000 297.669
39.30000 295.984
39.31000 294.305
39.32000 293.184
39.33000 292.436
39.34000 291.708
39.35000 290.377
39.36000 288.851
39.37000 287.405
39.38000 286.966
39.39000 286.826
39.40000 286.415
39.41000 284.074
39.42000 281.356
39.43000 279.090
39.44000 278.496
39.45000 278.170
39.46000 278.359
39.47000 280.067
39.48000 281.876
39.49000 281.230
39.50000 275.712
39.51000 270.060
39.52000 266.844
39.53000 275.468
39.54000 281.503
39.55000 281.211
39.56000 275.623
39.57000 270.151
39.58000 270.243
39.59000 273.396
39.60000 276.426
39.61000 270.891
39.62000 262.754
39.63000 255.869
39.64000 260.687
39.65000 268.375
39.66000 275.444
39.67000 279.014
39.68000 282.035
39.69000 284.452
39.70000 274.024
39.71000 264.636
39.72000 258.298
39.73000 259.424
39.74000 260.890
39.75000 260.004
39.76000 255.268
39.77000 250.477
39.78000 248.008
39.79000 255.295
39.80000 260.189
39.81000 263.286
39.82000 265.157
39.83000 266.943
39.84000 266.313
39.85000 264.587
39.86000 262.958
39.87000 264.391
39.88000 266.559
39.89000 268.417
39.90000 268.025
39.91000 267.184
39.92000 266.908
39.93000 269.216
39.94000 271.842
39.95000 273.846
39.96000 269.055
39.97000 264.916
39.98000 261.845
39.99000 260.937
40.00000 260.091
40.01000 259.239
40.02000 258.377
40.03000 257.516
40.04000 258.424
40.05000 260.838
40.06000 263.236
40.07000 264.811
40.08000 265.925
40.09000 266.958
40.10000 266.481
40.11000 265.436
40.12000 264.471
40.13000 265.010
40.14000 265.830
40.15000 266.088
40.16000 263.098
40.17000 259.588
40.18000 256.142
40.19000 252.937
40.20000 249.755
40.21000 247.454
40.22000 243.163
40.23000 239.798
40.24000 239.622
40.25000 244.766
40.26000 249.992
40.27000 253.774
40.28000 255.986
40.29000 258.188
40.30000 261.356
40.31000 265.155
40.32000 268.785
40.33000 267.443
40.34000 263.799
40.35000 260.354
40.36000 259.509
40.37000 259.472
40.38000 259.439
40.39000 256.749
40.40000 253.918
40.41000 251.790
40.42000 252.942
40.43000 254.509
40.44000 256.753
40.45000 261.080
40.46000 265.553
40.47000 268.593
40.48000 264.027
40.49000 260.446
40.50000 259.653
40.51000 262.672
40.52000 265.708
40.53000 263.407
40.54000 256.449
40.55000 249.572
40.56000 249.095
40.57000 252.197
40.58000 255.072
40.59000 253.592
40.60000 250.444
40.61000 247.779
40.62000 249.866
40.63000 253.164
40.64000 256.042
40.65000 255.463
40.66000 254.482
40.67000 252.773
40.68000 248.294
40.69000 243.544
40.70000 240.882
40.71000 243.520
40.72000 246.420
40.73000 248.256
40.74000 256.209
40.75000 262.051
40.76000 264.638
40.77000 263.615
40.78000 262.573
40.79000 259.399
40.80000 254.712
40.81000 250.126
40.82000 244.751
40.83000 239.236
40.84000 234.467
40.85000 239.833
40.86000 248.404
40.87000 255.515
40.88000 251.494
40.89000 245.158
40.90000 239.817
40.91000 239.566
40.92000 239.907
40.93000 239.794
40.94000 238.260
40.95000 236.623
40.96000 237.938
40.97000 245.453
40.98000 253.165
40.99000 257.669
41.00000 247.283
41.01000 239.910
41.02000 237.875
41.03000 240.596
41.04000 243.307
41.05000 245.399
41.06000 247.131
41.07000 248.802
41.08000 248.766
41.09000 248.104
41.10000 247.612
41.11000 248.831
41.12000 250.495
41.13000 251.284
41.14000 246.790
41.15000 241.411
41.16000 237.053
41.17000 246.112
41.18000 254.585
41.19000 258.386
41.20000 250.099
41.21000 241.195
41.22000 237.889
41.23000 244.285
41.24000 250.853
41.25000 254.344
41.26000 246.039
41.27000 240.394
41.28000 237.011
41.29000 235.266
41.30000 233.574
41.31000 233.619
41.32000 234.498
41.33000 235.332
41.34000 240.720
41.35000 247.043
41.36000 252.169
41.37000 247.961
41.38000 241.771
41.39000 237.592
41.40000 243.180
41.41000 250.065
41.42000 255.395
41.43000 250.775
41.44000 246.516
41.45000 244.801
41.46000 248.531
41.47000 252.443
41.48000 253.392
41.49000 250.126
41.50000 246.829
41.51000 245.600
41.52000 246.252
41.53000 246.898
41.54000 247.237
41.55000 247.393
41.56000 247.484
41.57000 246.225
41.58000 244.429
41.59000 242.760
41.60000 242.171
41.61000 241.897
41.62000 241.502
41.63000 240.360
41.64000 239.090
41.65000 238.479
41.66000 240.472
41.67000 242.734
41.68000 244.396
41.69000 244.851
41.70000 245.154
41.71000 246.976
41.72000 251.483
41.73000 256.042
41.74000 256.762
41.75000 253.039
41.76000 249.323
41.77000 243.384
41.78000 235.861
41.79000 228.534
41.80000 227.811
41.81000 230.322
41.82000 233.083
41.83000 239.480
41.84000 247.070
41.85000 253.952
41.86000 246.424
41.87000 237.029
41.88000 229.077
41.89000 228.285
41.90000 228.467
41.91000 229.593
41.92000 233.794
41.93000 238.232
41.94000 241.307
41.95000 235.009
41.96000 230.023
41.97000 229.398
41.98000 235.103
41.99000 240.859
42.00000 241.739
42.01000 238.085
42.02000 234.465
42.03000 235.848
42.04000 240.171
42.05000 244.193
42.06000 241.757
42.07000 236.707
42.08000 232.276
42.09000 234.466
42.10000 238.447
42.11000 241.954
42.12000 241.404
42.13000 240.318
42.14000 239.492
42.15000 239.716
42.16000 240.052
42.17000 240.398
42.18000 240.772
42.19000 241.147
42.20000 241.390
42.21000 245.033
42.22000 247.749
42.23000 248.161
42.24000 245.849
42.25000 243.545
42.26000 243.722
42.27000 245.767
42.28000 247.775
42.29000 245.605
42.30000 241.502
42.31000 237.464
42.32000 234.407
42.33000 231.677
42.34000 229.175
42.35000 228.529
42.36000 228.295
42.37000 228.094
42.38000 225.695
42.39000 223.420
42.40000 222.965
42.41000 228.544
42.42000 234.602
42.43000 238.010
42.44000 235.530
42.45000 232.835
42.46000 231.220
42.47000 228.122
42.48000 225.913
42.49000 227.775
42.50000 233.504
42.51000 239.175
42.52000 240.642
42.53000 239.517
42.54000 238.426
42.55000 231.695
42.56000 223.116
42.57000 215.637
42.58000 220.231
42.59000 228.153
42.60000 234.563
42.61000 231.224
42.62000 226.142
42.63000 221.974
42.64000 225.568
42.65000 229.206
42.66000 231.053
42.67000 227.996
42.68000 224.660
42.69000 222.861
42.70000 223.884
42.71000 224.968
42.72000 225.561
42.73000 219.368
42.74000 215.124
42.75000 216.161
42.76000 221.259
42.77000 226.263
42.78000 227.782
42.79000 227.529
42.80000 227.287
42.81000 229.402
42.82000 232.109
42.83000 233.933
42.84000 228.329
42.85000 221.051
42.86000 215.759
42.87000 220.734
42.88000 227.172
42.89000 232.227
42.90000 228.070
42.91000 224.142
42.92000 222.990
42.93000 228.118
42.94000 233.485
42.95000 235.813
42.96000 233.551
42.97000 231.243
42.98000 232.597
42.99000 237.505
43.00000 242.332
43.01000 240.784
43.02000 235.228
43.03000 229.909
43.04000 230.102
43.05000 232.610
43.06000 234.957
43.07000 231.345
43.08000 226.544
43.09000 222.907
43.10000 226.948
43.11000 232.392
43.12000 237.012
43.13000 238.174
43.14000 238.951
43.15000 239.532
43.16000 231.574
43.17000 224.978
43.18000 222.653
43.19000 228.310
43.20000 234.151
43.21000 238.534
43.22000 241.123
43.23000 243.703
43.24000 242.783
43.25000 239.138
43.26000 235.402
43.27000 228.006
43.28000 218.716
43.29000 210.000
43.30000 210.454
43.31000 214.095
43.32000 217.422
43.33000 216.918
43.34000 215.686
43.35000 215.561
43.36000 221.276
43.37000 227.843
43.38000 232.178
43.39000 228.825
43.40000 224.824
43.41000 222.001
43.42000 228.069
43.43000 232.942
43.44000 234.471
43.45000 230.855
43.46000 227.182
43.47000 227.049
43.48000 230.426
43.49000 233.780
43.50000 234.128
43.51000 232.575
43.52000 231.085
43.53000 231.120
43.54000 231.808
43.55000 232.286
43.56000 230.309
43.57000 227.630
43.58000 225.248
43.59000 226.757
43.60000 228.698
43.61000 230.891
43.62000 234.171
43.63000 237.574
43.64000 238.362
43.65000 231.719
43.66000 224.622
43.67000 219.929
43.68000 222.684
43.69000 224.849
43.70000 224.947
43.71000 222.446
43.72000 219.941
43.73000 218.597
43.74000 218.184
43.75000 217.777
43.76000 219.606
43.77000 222.523
43.78000 225.176
43.79000 223.461
43.80000 220.199
43.81000 216.964
43.82000 213.968
43.83000 211.027
43.84000 208.496
43.85000 216.358
43.86000 224.333
43.87000 230.727
43.88000 231.572
43.89000 231.936
43.90000 231.556
43.91000 229.428
43.92000 227.227
43.93000 225.876
43.94000 221.694
43.95000 218.674
43.96000 220.140
43.97000 226.157
43.98000 232.086
43.99000 229.917
44.00000 222.456
44.01000 215.194
44.02000 216.431
44.03000 221.139
44.04000 225.471
44.05000 225.302
44.06000 223.818
44.07000 222.313
44.08000 220.661
44.09000 218.981
44.10000 217.587
44.11000 219.792
44.12000 221.963
44.13000 224.109
44.14000 226.178
44.15000 228.242
44.16000 227.997
44.17000 223.270
44.18000 218.427
44.19000 215.702
44.20000 221.520
44.21000 225.570
44.22000 225.027
44.23000 220.732
44.24000 216.497
44.25000 214.966
44.26000 214.888
44.27000 214.813
44.28000 216.193
44.29000 217.971
44.30000 219.507
44.31000 218.851
44.32000 217.669
44.33000 217.278
44.34000 221.242
44.35000 225.871
44.36000 229.555
44.37000 226.748
44.38000 224.018
44.39000 220.969
44.40000 217.155
44.41000 213.308
44.42000 214.008
44.43000 221.982
44.44000 230.051
44.45000 234.159
44.46000 235.789
44.47000 236.866
44.48000 236.331
44.49000 234.722
44.50000 233.305
44.51000 236.981
44.52000 242.921
44.53000 248.511
44.54000 241.360
44.55000 231.355
44.56000 222.738
44.57000 223.924
44.58000 227.018
44.59000 229.631
44.60000 230.103
44.61000 230.318
44.62000 230.481
44.63000 234.363
44.64000 237.604
44.65000 242.465
44.66000 250.530
44.67000 258.681
44.68000 261.424
44.69000 257.086
44.70000 252.722
44.71000 255.348
44.72000 263.778
44.73000 272.184
44.74000 279.425
44.75000 286.028
44.76000 292.310
44.77000 292.910
44.78000 291.424
44.79000 290.055
44.80000 294.404
44.81000 299.541
44.82000 305.869
44.83000 318.902
44.84000 332.981
44.85000 344.999
44.86000 349.499
44.87000 353.309
44.88000 356.045
44.89000 363.087
44.90000 368.622
44.91000 375.708
44.92000 385.323
44.93000 394.975
44.94000 401.717
44.95000 405.377
44.96000 409.018
44.97000 408.969
44.98000 406.444
44.99000 404.290
45.00000 412.398
45.01000 425.153
45.02000 436.924
45.03000 436.210
45.04000 431.709
45.05000 427.673
45.06000 428.805
45.07000 430.690
45.08000 430.954
45.09000 423.836
45.10000 415.810
45.11000 409.227
45.12000 406.977
45.13000 405.019
45.14000 403.699
45.15000 402.315
45.16000 401.284
45.17000 399.099
45.18000 395.372
45.19000 391.632
45.20000 385.036
45.21000 376.007
45.22000 367.092
45.23000 363.196
45.24000 362.131
45.25000 360.552
45.26000 349.517
45.27000 334.941
45.28000 321.260
45.29000 316.121
45.30000 313.110
45.31000 310.492
45.32000 308.409
45.33000 306.704
45.34000 304.608
45.35000 301.056
45.36000 297.366
45.37000 294.827
45.38000 295.147
45.39000 295.601
45.40000 295.886
45.41000 291.118
45.42000 287.615
45.43000 284.984
45.44000 283.295
45.45000 281.598
45.46000 278.919
45.47000 275.560
45.48000 272.277
45.49000 270.606
45.50000 269.718
45.51000 268.869
45.52000 268.533
45.53000 268.355
45.54000 268.032
45.55000 266.639
45.56000 265.029
45.57000 263.677
45.58000 262.624
45.59000 261.778
45.60000 258.651
45.61000 248.537
45.62000 237.936
45.63000 234.132
45.64000 244.284
45.65000 254.855
45.66000 260.966
45.67000 258.843
45.68000 257.319
45.69000 253.690
45.70000 248.231
45.71000 242.824
45.72000 240.158
45.73000 239.053
45.74000 237.988
45.75000 238.678
45.76000 239.954
45.77000 240.973
45.78000 239.465
45.79000 237.315
45.80000 234.934
45.81000 231.190
45.82000 227.224
45.83000 224.026
45.84000 221.421
45.85000 219.352
45.86000 219.728
45.87000 226.289
45.88000 233.152
45.89000 236.484
45.90000 233.833
45.91000 231.084
45.92000 229.640
45.93000 216.458
45.94000 207.574
45.95000 206.326
45.96000 210.477
45.97000 214.541
45.98000 215.983
45.99000 216.193
46.00000 216.391
46.01000 212.587
46.02000 207.926
46.03000 204.596
46.04000 211.352
46.05000 220.197
46.06000 226.428
46.07000 220.270
46.08000 212.514
46.09000 206.542
46.10000 212.743
46.11000 218.345
46.12000 222.677
46.13000 224.353
46.14000 225.946
46.15000 225.105
46.16000 220.882
46.17000 216.639
46.18000 215.560
46.19000 217.287
46.20000 218.988
46.21000 219.218
46.22000 218.593
46.23000 217.933
46.24000 216.565
46.25000 214.923
46.26000 213.400
46.27000 212.169
46.28000 211.130
46.29000 209.501
46.30000 204.333
46.31000 198.574
46.32000 194.693
46.33000 198.073
46.34000 202.176
46.35000 205.173
46.36000 203.444
46.37000 201.925
46.38000 200.835
46.39000 200.485
46.40000 200.148
46.41000 201.580
46.42000 205.010
46.43000 208.429
46.44000 208.341
46.45000 205.746
46.46000 203.055
46.47000 197.268
46.48000 190.000
46.49000 183.320
46.50000 184.843
46.51000 188.998
46.52000 192.755
46.53000 200.347
46.54000 207.740
46.55000 213.446
46.56000 210.992
46.57000 207.459
46.58000 205.823
46.59000 210.217
46.60000 215.059
46.61000 218.389
46.62000 206.091
46.63000 196.477
46.64000 192.252
46.65000 195.665
46.66000 199.134
46.67000 201.041
46.68000 201.532
46.69000 202.018
46.70000 203.740
46.71000 206.138
46.72000 208.402
46.73000 207.910
46.74000 206.326
46.75000 204.494
46.76000 200.089
46.77000 195.004
46.78000 190.540
46.79000 197.164
46.80000 204.481
46.81000 210.539
46.82000 211.636
46.83000 212.226
46.84000 212.261
46.85000 210.839
46.86000 209.340
46.87000 208.377
46.88000 196.147
46.89000 187.076
46.90000 182.831
46.91000 184.152
46.92000 185.497
46.93000 190.065
46.94000 197.002
46.95000 203.802
46.96000 202.128
46.97000 196.535
46.98000 191.342
46.99000 191.901
47.00000 194.342
47.01000 196.519
47.02000 196.598
47.03000 196.224
47.04000 195.907
47.05000 196.348
47.06000 196.804
47.07000 196.260
47.08000 192.478
47.09000 188.447
47.10000 186.549
47.11000 189.282
47.12000 192.176
47.13000 193.892
47.14000 195.398
47.15000 196.461
47.16000 194.613
47.17000 190.070
47.18000 185.616
47.19000 187.023
47.20000 191.965
47.21000 196.747
47.22000 196.301
47.23000 193.887
47.24000 191.351
47.25000 187.529
47.26000 183.360
47.27000 180.272
47.28000 183.970
47.29000 188.852
47.30000 192.837
47.31000 194.824
47.32000 196.279
47.33000 196.232
47.34000 192.168
47.35000 187.884
47.36000 184.365
47.37000 182.214
47.38000 180.092
47.39000 178.943
47.40000 190.064
47.41000 197.669
47.42000 200.670
47.43000 200.216
47.44000 199.692
47.45000 196.708
47.46000 192.501
47.47000 188.496
47.48000 186.657
47.49000 185.623
47.50000 184.725
47.51000 184.936
47.52000 185.390
47.53000 186.243
47.54000 189.104
47.55000 192.243
47.56000 194.694
47.57000 198.746
47.58000 202.078
47.59000 204.143
47.60000 203.406
47.61000 202.567
47.62000 199.000
47.63000 191.412
47.64000 183.789
47.65000 182.975
47.66000 188.601
47.67000 194.139
47.68000 193.301
47.69000 188.546
47.70000 183.960
47.71000 183.123
47.72000 183.827
47.73000 184.484
47.74000 181.772
47.75000 178.478
47.76000 175.733
47.77000 176.514
47.78000 177.923
47.79000 179.283
47.80000 180.447
47.81000 181.589
47.82000 182.437
47.83000 178.604
47.84000 175.420
47.85000 175.503
47.86000 181.560
47.87000 187.743
47.88000 191.373
47.89000 191.933
47.90000 192.486
47.91000 192.545
47.92000 192.230
47.93000 191.817
47.94000 187.809
47.95000 181.981
47.96000 176.702
47.97000 179.861
47.98000 185.887
47.99000 191.376
48.00000 188.290
48.01000 183.850
48.02000 179.664
48.03000 176.791
48.04000 174.104
48.05000 173.560
48.06000 180.229
48.07000 187.485
48.08000 192.568
48.09000 188.089
48.10000 184.428
48.11000 182.199
48.12000 182.125
48.13000 182.073
48.14000 181.137
48.15000 179.348
48.16000 177.573
48.17000 176.682
48.18000 176.350
48.19000 176.090
48.20000 177.495
48.21000 179.595
48.22000 181.532
48.23000 181.617
48.24000 181.185
48.25000 180.802
48.26000 180.302
48.27000 179.852
48.28000 180.017
48.29000 182.754
48.30000 185.776
48.31000 188.147
48.32000 188.713
48.33000 189.174
48.34000 189.475
48.35000 185.226
48.36000 182.025
48.37000 181.630
48.38000 184.676
48.39000 187.718
48.40000 187.338
48.41000 184.285
48.42000 181.283
48.43000 184.296
48.44000 190.215
48.45000 195.714
48.46000 194.545
48.47000 191.066
48.48000 187.545
48.49000 183.656
48.50000 179.682
48.51000 176.275
48.52000 174.710
48.53000 173.613
48.54000 173.579
48.55000 177.188
48.56000 181.103
48.57000 182.768
48.58000 179.269
48.59000 175.565
48.60000 173.314
48.61000 183.467
48.62000 190.812
48.63000 191.301
48.64000 185.016
48.65000 178.813
48.66000 179.486
48.67000 184.551
48.68000 189.473
48.69000 187.754
48.70000 183.428
48.71000 179.345
48.72000 178.085
48.73000 177.629
48.74000 177.648
48.75000 180.855
48.76000 184.656
48.77000 187.795
48.78000 183.111
48.79000 178.519
48.80000 175.837
48.81000 178.564
48.82000 181.619
48.83000 181.712
48.84000 176.182
48.85000 170.518
48.86000 167.365
48.87000 177.370
48.88000 184.308
48.89000 188.282
48.90000 189.893
48.91000 191.463
48.92000 191.342
48.93000 190.332
48.94000 189.365
48.95000 188.390
48.96000 187.479
48.97000 186.778
48.98000 187.921
48.99000 189.496
49.00000 189.737
49.01000 182.816
49.02000 174.830
49.03000 168.508
49.04000 170.738
49.05000 173.122
49.06000 176.025
49.07000 180.142
49.08000 184.309
49.09000 187.634
49.10000 189.644
49.11000 191.639
49.12000 192.641
49.13000 186.785
49.14000 182.891
49.15000 180.400
49.16000 178.824
49.17000 177.334
49.18000 178.006
49.19000 179.619
49.20000 181.133
49.21000 182.020
49.22000 182.663
49.23000 183.106
49.24000 182.174
49.25000 180.982
49.26000 179.657
49.27000 177.754
49.28000 175.784
49.29000 174.299
49.30000 177.803
49.31000 180.792
49.32000 183.052
49.33000 183.904
49.34000 184.719
49.35000 182.853
49.36000 177.560
49.37000 172.262
49.38000 171.589
49.39000 174.667
49.40000 177.693
49.41000 178.386
49.42000 177.829
49.43000 177.256
49.44000 176.412
49.45000 175.471
49.46000 174.607
49.47000 177.685
49.48000 181.267
49.49000 184.031
49.50000 182.300
49.51000 179.886
49.52000 177.342
49.53000 174.333
49.54000 171.284
49.55000 169.109
49.56000 173.382
49.57000 176.852
49.58000 180.696
49.59000 185.136
49.60000 189.584
49.61000 189.977
49.62000 186.185
49.63000 182.415
49.64000 179.807
49.65000 177.997
49.66000 176.225
49.67000 175.462
49.68000 175.147
49.69000 175.000
49.70000 176.913
49.71000 179.437
49.72000 181.692
49.73000 177.810
49.74000 173.391
49.75000 169.835
49.76000 170.113
49.77000 170.850
49.78000 172.042
49.79000 174.572
49.80000 177.189
49.81000 178.940
49.82000 181.825
49.83000 183.986
49.84000 183.653
49.85000 180.067
49.86000 176.472
49.87000 175.331
49.88000 176.228
49.89000 177.113
49.90000 177.858
49.91000 178.510
49.92000 179.013
49.93000 176.904
49.94000 173.838
49.95000 171.839
49.96000 179.700
49.97000 189.962
49.98000 198.850
49.99000 188.550
50.00000 177.249
50.01000 170.545
50.02000 180.557
50.03000 192.095
50.04000 197.685
50.05000 188.831
50.06000 179.330
50.07000 173.417
50.08000 173.302
50.09000 173.277
50.10000 175.615
50.11000 180.445
50.12000 185.234
50.13000 185.515
50.14000 182.743
50.15000 180.038
50.16000 177.373
50.17000 174.844
50.18000 172.483
50.19000 172.261
50.20000 172.685
50.21000 173.870
50.22000 180.540
50.23000 188.295
50.24000 194.776
50.25000 189.472
50.26000 183.871
50.27000 178.750
50.28000 175.065
50.29000 171.476
50.30000 170.252
50.31000 173.775
50.32000 177.433
50.33000 179.525
50.34000 188.178
50.35000 194.240
50.36000 198.842
50.37000 202.205
50.38000 205.502
50.39000 205.513
50.40000 203.695
50.41000 201.948
50.42000 204.519
50.43000 208.440
50.44000 212.117
50.45000 213.479
50.46000 214.267
50.47000 216.023
50.48000 223.330
50.49000 231.518
50.50000 238.087
50.51000 237.881
50.52000 237.200
50.53000 238.495
50.54000 244.681
50.55000 251.095
50.56000 254.545
50.57000 253.089
50.58000 251.559
50.59000 250.766
50.60000 264.987
50.61000 274.527
50.62000 276.500
50.63000 273.248
50.64000 270.139
50.65000 271.155
50.66000 274.067
50.67000 276.818
50.68000 270.816
50.69000 262.833
50.70000 255.987
50.71000 257.524
50.72000 260.756
50.73000 263.984
50.74000 267.197
50.75000 270.408
50.76000 272.865
50.77000 271.340
50.78000 269.918
50.79000 267.175
50.80000 261.727
50.81000 256.198
50.82000 253.647
50.83000 255.136
50.84000 256.647
50.85000 251.244
50.86000 239.877
50.87000 228.642
50.88000 224.493
50.89000 224.362
50.90000 223.892
50.91000 217.025
50.92000 207.726
50.93000 199.131
50.94000 202.811
50.95000 208.903
50.96000 213.281
50.97000 207.629
50.98000 200.346
50.99000 193.989
51.00000 191.128
51.01000 188.605
51.02000 186.774
51.03000 187.875
51.04000 188.830
51.05000 188.534
51.06000 186.127
51.07000 183.685
51.08000 183.884
51.09000 186.990
51.10000 190.084
51.11000 191.168
51.12000 190.840
51.13000 190.366
51.14000 185.503
51.15000 178.585
51.16000 172.136
51.17000 172.000
51.18000 173.845
51.19000 175.507
51.20000 179.616
51.21000 183.664
51.22000 186.436
51.23000 183.184
51.24000 179.157
51.25000 175.549
51.26000 173.245
51.27000 171.035
51.28000 169.526
51.29000 169.806
51.30000 170.056
51.31000 171.475
51.32000 174.511
51.33000 177.554
51.34000 176.862
51.35000 172.867
51.36000 168.916
51.37000 169.874
51.38000 173.581
51.39000 176.918
51.40000 172.981
51.41000 166.226
51.42000 160.214
51.43000 161.650
51.44000 165.008
51.45000 167.945
51.46000 166.048
51.47000 163.734
51.48000 162.524
51.49000 165.568
51.50000 169.034
51.51000 171.387
51.52000 170.886
51.53000 170.240
51.54000 169.830
51.55000 170.416
51.56000 170.855
51.57000 169.253
51.58000 165.355
51.59000 161.477
51.60000 161.004
51.61000 162.977
51.62000 164.908
51.63000 170.365
51.64000 177.223
51.65000 183.504
51.66000 181.789
51.67000 177.516
51.68000 173.381
51.69000 170.312
51.70000 167.469
51.71000 165.066
51.72000 167.640
51.73000 170.342
51.74000 172.755
51.75000 174.256
51.76000 175.689
51.77000 175.831
51.78000 173.232
51.79000 170.543
51.80000 168.964
51.81000 165.462
51.82000 162.986
51.83000 162.666
51.84000 164.295
51.85000 165.923
51.86000 167.582
51.87000 169.259
51.88000 170.879
51.89000 172.327
51.90000 173.628
51.91000 174.578
51.92000 171.914
51.93000 168.298
51.94000 164.727
51.95000 161.425
51.96000 158.169
51.97000 155.523
51.98000 160.889
51.99000 165.931
52.00000 169.300
52.01000 168.289
52.02000 167.049
52.03000 165.044
52.04000 161.696
52.05000 158.324
52.06000 156.521
52.07000 154.213
52.08000 152.659
52.09000 154.612
52.10000 159.135
52.11000 163.465
52.12000 161.386
52.13000 156.192
52.14000 151.258
52.15000 155.055
52.16000 161.189
52.17000 166.403
52.18000 164.327
52.19000 160.685
52.20000 157.371
52.21000 155.675
52.22000 154.197
52.23000 153.049
52.24000 161.986
52.25000 169.704
52.26000 172.705
52.27000 165.497
52.28000 157.939
52.29000 154.530
52.30000 157.095
52.31000 159.707
52.32000 163.444
52.33000 168.215
52.34000 172.857
52.35000 169.146
52.36000 160.419
52.37000 152.165
52.38000 153.976
52.39000 159.833
52.40000 165.284
52.41000 165.095
52.42000 163.557
52.43000 162.159
52.44000 161.635
52.45000 161.262
52.46000 160.706
52.47000 159.412
52.48000 158.042
52.49000 157.031
52.50000 157.163
52.51000 157.313
52.52000 157.671
52.53000 158.401
52.54000 159.138
52.55000 160.993
52.56000 164.158
52.57000 167.316
52.58000 165.572
52.59000 160.201
52.60000 154.946
52.61000 153.696
52.62000 154.432
52.63000 155.161
52.64000 155.802
52.65000 156.414
52.66000 156.970
52.67000 155.734
52.68000 154.295
52.69000 152.916
52.70000 151.843
52.71000 150.811
52.72000 151.007
52.73000 155.240
52.74000 159.790
52.75000 162.955
52.76000 162.428
52.77000 161.931
52.78000 161.548
52.79000 161.333
52.80000 161.118
52.81000 158.679
52.82000 154.144
52.83000 149.648
52.84000 146.078
52.85000 143.131
52.86000 140.495
52.87000 144.701
52.88000 151.710
52.89000 157.986
52.90000 156.282
52.91000 152.395
52.92000 148.964
52.93000 150.228
52.94000 152.038
52.95000 154.562
52.96000 160.006
52.97000 165.763
52.98000 169.015
52.99000 165.462
53.00000 161.525
53.01000 158.965
53.02000 155.923
53.03000 153.686
53.04000 153.779
53.05000 156.662
53.06000 159.536
53.07000 159.065
53.08000 156.043
53.09000 153.075
53.10000 153.361
53.11000 155.224
53.12000 156.943
53.13000 156.474
53.14000 155.265
53.15000 154.735
53.16000 159.854
53.17000 166.237
53.18000 171.689
53.19000 169.276
53.20000 166.308
53.21000 164.050
53.22000 164.173
53.23000 164.489
53.24000 165.519
53.25000 168.155
53.26000 170.851
53.27000 172.474
53.28000 164.832
53.29000 159.331
53.30000 157.328
53.31000 158.692
53.32000 160.070
53.33000 162.502
53.34000 165.591
53.35000 168.587
53.36000 167.722
53.37000 165.372
53.38000 163.153
53.39000 162.387
53.40000 162.027
53.41000 162.023
53.42000 164.355
53.43000 167.109
53.44000 169.374
53.45000 168.045
53.46000 166.627
53.47000 165.805
53.48000 166.633
53.49000 167.557
53.50000 166.015
53.51000 159.893
53.52000 153.669
53.53000 150.242
53.54000 161.945
53.55000 170.006
53.56000 171.044
53.57000 166.619
53.58000 162.242
53.59000 159.747
53.60000 158.221
53.61000 156.764
53.62000 156.047
53.63000 155.619
53.64000 155.303
53.65000 155.937
53.66000 156.788
53.67000 157.622
53.68000 158.364
53.69000 159.093
53.70000 159.667
53.71000 160.499
53.72000 161.183
53.73000 160.495
53.74000 156.669
53.75000 152.719
53.76000 151.873
53.77000 155.766
53.78000 159.711
53.79000 160.354
53.80000 157.750
53.81000 155.196
53.82000 156.787
53.83000 161.017
53.84000 164.981
53.85000 162.588
53.86000 157.494
53.87000 152.723
53.88000 157.400
53.89000 164.098
53.90000 169.720
53.91000 168.141
53.92000 165.230
53.93000 162.532
53.94000 160.741
53.95000 159.051
53.96000 157.785
53.97000 157.871
53.98000 158.001
53.99000 158.338
54.00000 159.064
54.01000 159.800
54.02000 157.730
54.03000 152.162
54.04000 146.594
54.05000 145.668
54.06000 148.415
54.07000 151.154
54.08000 153.550
54.09000 155.765
54.10000 157.977
54.11000 160.121
54.12000 162.242
54.13000 164.183
54.14000 158.164
54.15000 151.162
54.16000 145.490
54.17000 146.935
54.18000 149.433
54.19000 151.817
54.20000 153.802
54.21000 155.752
54.22000 157.133
54.23000 157.226
54.24000 157.256
54.25000 158.261
54.26000 160.785
54.27000 163.326
54.28000 165.393
54.29000 166.983
54.30000 168.563
54.31000 168.164
54.32000 166.507
54.33000 164.776
54.34000 161.220
54.35000 156.874
54.36000 153.030
54.37000 155.144
54.38000 158.985
54.39000 162.406
54.40000 160.334
54.41000 157.632
54.42000 155.439
54.43000 155.456
54.44000 155.730
54.45000 157.185
54.46000 162.034
54.47000 167.095
54.48000 170.455
54.49000 165.892
54.50000 162.373
54.51000 159.106
54.52000 156.160
54.53000 153.226
54.54000 154.561
54.55000 159.355
54.56000 164.078
54.57000 163.454
54.58000 160.077
54.59000 156.829
54.60000 155.772
54.61000 155.500
54.62000 155.414
54.63000 157.008
54.64000 159.001
54.65000 160.721
54.66000 157.127
54.67000 153.396
54.68000 151.438
54.69000 155.778
54.70000 160.674
54.71000 163.854
54.72000 162.959
54.73000 161.890
54.74000 161.231
54.75000 159.651
54.76000 158.508
54.77000 157.572
54.78000 156.847
54.79000 156.134
54.80000 156.458
54.81000 157.470
54.82000 158.455
54.83000 159.818
54.84000 161.276
54.85000 162.498
54.86000 160.843
54.87000 158.339
54.88000 156.421
54.89000 158.606
54.90000 161.583
54.91000 164.060
54.92000 163.144
54.93000 162.052
54.94000 162.164
54.95000 165.805
54.96000 169.672
54.97000 171.140
54.98000 167.896
54.99000 164.526
55.00000 162.619
55.01000 171.224
55.02000 177.223
55.03000 175.757
55.04000 168.115
55.05000 160.615
55.06000 159.718
55.07000 162.414
55.08000 165.002
55.09000 165.392
55.10000 165.008
55.11000 164.925
55.12000 167.609
55.13000 170.964
55.14000 173.071
55.15000 168.216
55.16000 162.283
55.17000 157.549
55.18000 161.722
55.19000 165.743
55.20000 169.554
55.21000 172.853
55.22000 176.130
55.23000 179.075
55.24000 181.485
55.25000 183.888
55.26000 185.119
55.27000 183.367
55.28000 182.186
55.29000 180.583
55.30000 178.694
55.31000 176.899
55.32000 177.640
55.33000 179.521
55.34000 181.294
55.35000 185.176
55.36000 189.310
55.37000 192.451
55.38000 188.468
55.39000 183.080
55.40000 179.476
55.41000 183.928
55.42000 189.361
55.43000 193.495
55.44000 200.004
55.45000 205.251
55.46000 209.126
55.47000 210.259
55.48000 211.314
55.49000 216.748
55.50000 227.985
55.51000 239.238
55.52000 243.787
55.53000 242.675
55.54000 241.700
55.55000 247.420
55.56000 256.852
55.57000 266.315
55.58000 276.325
55.59000 286.540
55.60000 295.956
55.61000 311.570
55.62000 326.923
55.63000 342.623
55.64000 360.304
55.65000 378.297
55.66000 395.830
55.67000 411.664
55.68000 427.339
55.69000 438.636
55.70000 464.697
55.71000 485.188
55.72000 506.273
55.73000 528.338
55.74000 550.418
55.75000 574.481
55.76000 600.672
55.77000 626.735
55.78000 653.356
55.79000 680.049
55.80000 706.587
55.81000 728.722
55.82000 748.839
55.83000 768.277
55.84000 778.911
55.85000 786.842
55.86000 793.965
55.87000 806.281
55.88000 817.971
55.89000 829.087
55.90000 837.551
55.91000 845.684
55.92000 852.828
55.93000 856.965
55.94000 860.895
55.95000 863.557
55.96000 839.130
55.97000 820.331
55.98000 805.942
55.99000 797.515
56.00000 789.122
56.01000 781.236
56.02000 773.786
56.03000 766.425
56.04000 750.739
56.05000 730.858
56.06000 710.411
56.07000 679.335
56.08000 644.233
56.09000 610.279
56.10000 587.477
56.11000 567.487
56.12000 550.069
56.13000 537.241
56.14000 526.915
56.15000 513.909
56.16000 490.812
56.17000 466.748
56.18000 443.385
56.19000 421.782
56.20000 400.265
56.21000 386.691
56.22000 373.439
56.23000 363.846
56.24000 354.946
56.25000 346.805
56.26000 338.626
56.27000 325.240
56.28000 308.200
56.29000 291.541
56.30000 281.650
56.31000 275.197
56.32000 268.647
56.33000 260.818
56.34000 252.589
56.35000 245.231
56.36000 244.419
56.37000 244.951
56.38000 245.400
56.39000 235.807
56.40000 226.736
56.41000 219.615
56.42000 218.530
56.43000 217.876
56.44000 214.668
56.45000 206.156
56.46000 197.480
56.47000 192.438
56.48000 189.091
56.49000 186.750
56.50000 185.932
56.51000 186.455
56.52000 186.936
56.53000 185.050
56.54000 181.802
56.55000 178.670
56.56000 177.647
56.57000 177.450
56.58000 177.051
56.59000 174.627
56.60000 171.684
56.61000 169.533
56.62000 172.106
56.63000 175.460
56.64000 178.172
56.65000 176.469
56.66000 174.731
56.67000 172.598
56.68000 169.455
56.69000 166.261
56.70000 163.367
56.71000 160.984
56.72000 158.609
56.73000 157.355
56.74000 154.298
56.75000 152.240
56.76000 152.979
56.77000 155.719
56.78000 158.414
56.79000 159.658
56.80000 160.212
56.81000 160.737
56.82000 161.191
56.83000 161.589
56.84000 161.601
56.85000 158.645
56.86000 155.066
56.87000 152.009
56.88000 151.457
56.89000 151.234
56.90000 151.061
56.91000 154.629
56.92000 157.676
56.93000 159.336
56.94000 158.062
56.95000 156.692
56.96000 154.433
56.97000 150.922
56.98000 147.404
56.99000 147.815
57.00000 151.756
57.01000 155.651
57.02000 156.775
57.03000 156.273
57.04000 155.641
57.05000 152.395
57.06000 148.119
57.07000 144.151
57.08000 147.024
57.09000 151.230
57.10000 154.249
57.11000 150.045
57.12000 144.619
57.13000 140.366
57.14000 140.707
57.15000 141.513
57.16000 142.103
57.17000 145.385
57.18000 148.027
57.19000 149.392
57.20000 148.523
57.21000 147.614
57.22000 146.647
57.23000 145.614
57.24000 144.584
57.25000 146.980
57.26000 151.834
57.27000 156.470
57.28000 153.915
57.29000 147.878
57.30000 142.206
57.31000 141.711
57.32000 142.898
57.33000 143.973
57.34000 149.762
57.35000 155.751
57.36000 160.442
57.37000 158.778
57.38000 156.261
57.39000 153.777
57.40000 151.403
57.41000 149.036
57.42000 147.402
57.43000 142.409
57.44000 138.570
57.45000 137.369
57.46000 139.955
57.47000 142.570
57.48000 144.759
57.49000 146.558
57.50000 148.339
57.51000 147.809
57.52000 145.935
57.53000 144.367
57.54000 149.241
57.55000 156.695
57.56000 163.235
57.57000 160.165
57.58000 154.525
57.59000 149.565
57.60000 147.568
57.61000 146.291
57.62000 145.931
57.63000 149.234
57.64000 152.919
57.65000 155.119
57.66000 153.376
57.67000 151.420
57.68000 150.159
57.69000 145.736
57.70000 142.460
57.71000 139.823
57.72000 137.933
57.73000 136.067
57.74000 138.792
57.75000 144.935
57.76000 150.961
57.77000 147.785
57.78000 140.347
57.79000 133.581
57.80000 136.661
57.81000 143.002
57.82000 148.100
57.83000 143.158
57.84000 136.023
57.85000 129.954
57.86000 134.336
57.87000 139.222
57.88000 142.615
57.89000 141.114
57.90000 139.231
57.91000 138.988
57.92000 142.350
57.93000 145.840
57.94000 147.921
57.95000 143.112
57.96000 139.662
57.97000 137.681
57.98000 137.078
57.99000 136.505
58.00000 137.981
58.01000 140.706
58.02000 143.346
58.03000 143.217
58.04000 142.027
58.05000 140.698
58.06000 137.871
58.07000 134.637
58.08000 132.151
58.09000 134.427
58.10000 137.544
58.11000 140.094
58.12000 140.202
58.13000 140.076
58.14000 139.858
58.15000 139.391
58.16000 138.910
58.17000 139.862
58.18000 143.416
58.19000 147.024
58.20000 148.988
58.21000 137.996
58.22000 130.462
58.23000 128.690
58.24000 131.294
58.25000 133.944
58.26000 138.230
58.27000 143.338
58.28000 148.207
58.29000 145.385
58.30000 140.365
58.31000 136.083
58.32000 137.917
58.33000 141.115
58.34000 143.467
58.35000 141.496
58.36000 138.916
58.37000 136.897
58.38000 140.896
58.39000 144.478
58.40000 146.305
58.41000 144.204
58.42000 141.957
58.43000 140.638
58.44000 140.704
58.45000 140.783
58.46000 143.257
58.47000 148.027
58.48000 152.723
58.49000 151.927
58.50000 147.716
58.51000 143.601
58.52000 141.658
58.53000 140.618
58.54000 139.646
58.55000 140.069
58.56000 140.803
58.57000 141.336
58.58000 140.557
58.59000 139.541
58.60000 138.855
58.61000 139.541
58.62000 140.377
58.63000 141.000
58.64000 142.718
58.65000 144.104
58.66000 143.669
58.67000 139.863
58.68000 135.983
58.69000 133.432
58.70000 132.498
58.71000 131.570
58.72000 131.804
58.73000 132.933
58.74000 134.078
58.75000 135.832
58.76000 137.899
58.77000 139.823
58.78000 139.504
58.79000 138.413
58.80000 137.418
58.81000 138.453
58.82000 139.781
58.83000 140.589
58.84000 138.684
58.85000 136.389
58.86000 134.920
58.87000 136.265
58.88000 137.843
58.89000 138.953
58.90000 140.141
58.91000 141.043
58.92000 141.462
58.93000 141.148
58.94000 140.826
58.95000 137.817
58.96000 132.173
58.97000 126.572
58.98000 127.209
58.99000 131.725
59.00000 136.056
59.01000 136.020
59.02000 134.133
59.03000 132.468
59.04000 133.350
59.05000 134.953
59.06000 136.376
59.07000 137.173
59.08000 137.764
59.09000 138.300
59.10000 138.609
59.11000 138.891
59.12000 138.278
59.13000 135.149
59.14000 131.868
59.15000 129.708
59.16000 129.712
59.17000 129.752
59.18000 128.379
59.19000 125.252
59.20000 122.136
59.21000 123.981
59.22000 129.750
59.23000 135.428
59.24000 134.467
59.25000 130.180
59.26000 126.254
59.27000 128.180
59.28000 132.156
59.29000 136.084
59.30000 139.592
59.31000 143.003
59.32000 145.934
59.33000 141.618
59.34000 137.064
59.35000 133.629
59.36000 134.077
59.37000 134.856
59.38000 136.223
59.39000 138.957
59.40000 141.747
59.41000 143.451
59.42000 138.900
59.43000 135.593
59.44000 132.651
59.45000 130.075
59.46000 127.518
59.47000 126.627
59.48000 126.814
59.49000 126.996
59.50000 129.812
59.51000 133.571
59.52000 136.801
59.53000 133.794
59.54000 128.986
59.55000 124.675
59.56000 123.751
59.57000 123.466
59.58000 123.229
59.59000 127.564
59.60000 131.578
59.61000 134.146
59.62000 132.580
59.63000 130.757
59.64000 130.075
59.65000 131.587
59.66000 133.153
59.67000 134.030
59.68000 127.597
59.69000 123.136
59.70000 123.618
59.71000 128.091
59.72000 132.455
59.73000 132.106
59.74000 129.249
59.75000 126.513
59.76000 126.952
59.77000 128.419
59.78000 129.789
59.79000 130.308
59.80000 130.624
59.81000 130.994
59.82000 131.658
59.83000 132.366
59.84000 132.928
59.85000 133.397
59.86000 133.767
59.87000 133.237
59.88000 130.576
59.89000 127.824
59.90000 127.792
59.91000 132.063
59.92000 136.388
59.93000 138.576
59.94000 137.812
59.95000 137.282
59.96000 134.954
59.97000 131.442
59.98000 128.114
59.99000 129.539
60.00000 133.054
60.01000 136.359
60.02000 136.777
60.03000 136.384
60.04000 135.686
60.05000 132.866
60.06000 129.639
60.07000 127.684
60.08000 131.342
60.09000 135.663
60.10000 138.931
60.11000 134.942
60.12000 131.448
60.13000 128.755
60.14000 127.631
60.15000 126.547
60.16000 127.018
60.17000 129.502
60.18000 131.990
60.19000 132.122
60.20000 130.319
60.21000 128.571
60.22000 129.324
60.23000 131.434
60.24000 133.553
60.25000 135.817
60.26000 138.134
60.27000 140.263
60.28000 134.547
60.29000 127.751
60.30000 122.612
60.31000 126.687
60.32000 132.182
60.33000 137.200
60.34000 140.500
60.35000 143.646
60.36000 145.897
60.37000 142.429
60.38000 139.587
60.39000 137.033
60.40000 134.941
60.41000 132.855
60.42000 132.176
60.43000 132.967
60.44000 133.755
60.45000 134.096
60.46000 134.136
60.47000 134.231
60.48000 135.805
60.49000 138.040
60.50000 140.119
60.51000 140.241
60.52000 139.778
60.53000 139.362
60.54000 136.295
60.55000 133.163
60.56000 130.987
60.57000 133.105
60.58000 135.744
60.59000 137.336
60.60000 135.817
60.61000 134.092
60.62000 132.933
60.63000 131.776
60.64000 130.917
60.65000 129.670
60.66000 127.912
60.67000 126.159
60.68000 128.827
60.69000 135.214
60.70000 141.518
60.71000 141.793
60.72000 138.820
60.73000 135.988
60.74000 135.689
60.75000 136.327
60.76000 136.948
60.77000 137.395
60.78000 137.799
60.79000 138.149
60.80000 137.902
60.81000 137.610
60.82000 137.300
60.83000 136.923
60.84000 136.539
60.85000 135.736
60.86000 133.906
60.87000 132.029
60.88000 130.855
60.89000 132.191
60.90000 133.182
60.91000 133.667
60.92000 133.611
60.93000 133.567
60.94000 134.974
60.95000 137.376
60.96000 139.721
60.97000 136.473
60.98000 130.924
60.99000 125.987
61.00000 128.935
61.01000 134.293
61.02000 138.652
61.03000 135.705
61.04000 131.293
61.05000 127.598
61.06000 130.904
61.07000 134.375
61.08000 138.164
61.09000 142.910
61.10000 147.722
61.11000 149.592
61.12000 145.484
61.13000 141.203
61.14000 138.740
61.15000 135.791
61.16000 133.726
61.17000 132.178
61.18000 131.074
61.19000 130.057
61.20000 133.519
61.21000 139.502
61.22000 145.261
61.23000 145.108
61.24000 142.870
61.25000 141.028
61.26000 143.003
61.27000 145.937
61.28000 147.915
61.29000 144.342
61.30000 139.874
61.31000 136.281
61.32000 134.612
61.33000 133.407
61.34000 132.353
61.35000 131.676
61.36000 131.017
61.37000 132.867
61.38000 138.924
61.39000 145.046
61.40000 148.242
61.41000 140.910
61.42000 135.975
61.43000 134.711
61.44000 136.013
61.45000 137.409
61.46000 141.596
61.47000 147.081
61.48000 152.268
61.49000 158.388
61.50000 164.280
61.51000 170.106
61.52000 175.435
61.53000 180.663
61.54000 187.393
61.55000 201.166
61.56000 215.835
61.57000 227.097
61.58000 238.545
61.59000 247.604
61.60000 258.755
61.61000 274.237
61.62000 289.851
61.63000 297.257
61.64000 293.382
61.65000 289.441
61.66000 287.778
61.67000 288.114
61.68000 288.435
61.69000 287.994
61.70000 287.115
61.71000 286.543
61.72000 291.915
61.73000 299.573
61.74000 306.661
61.75000 298.421
61.76000 287.483
61.77000 276.379
61.78000 264.292
61.79000 252.043
61.80000 239.330
61.81000 224.843
61.82000 210.182
61.83000 199.509
61.84000 191.559
61.85000 185.543
61.86000 178.105
61.87000 168.237
61.88000 158.328
61.89000 152.313
61.90000 150.641
61.91000 148.978
61.92000 146.163
61.93000 142.562
61.94000 139.057
61.95000 138.554
61.96000 139.472
61.97000 140.356
61.98000 140.759
61.99000 141.009
62.00000 141.235
62.01000 144.873
62.02000 148.697
62.03000 150.773
62.04000 144.495
62.05000 137.128
62.06000 132.578
62.07000 136.893
62.08000 141.855
62.09000 145.256
62.10000 145.912
62.11000 146.338
62.12000 146.204
62.13000 145.287
62.14000 144.364
62.15000 144.437
62.16000 145.401
62.17000 146.355
62.18000 143.630
62.19000 138.863
62.20000 134.228
62.21000 132.247
62.22000 131.307
62.23000 130.647
62.24000 132.828
62.25000 135.753
62.26000 138.315
62.27000 142.983
62.28000 147.292
62.29000 150.016
62.30000 146.552
62.31000 142.464
62.32000 140.657
62.33000 144.773
62.34000 149.195
62.35000 152.023
62.36000 147.810
62.37000 144.652
62.38000 143.477
62.39000 144.563
62.40000 145.651
62.41000 146.610
62.42000 147.474
62.43000 148.321
62.44000 144.887
62.45000 139.598
62.46000 134.742
62.47000 136.008
62.48000 139.257
62.49000 142.145
62.50000 142.201
62.51000 141.653
62.52000 141.189
62.53000 137.153
62.54000 133.373
62.55000 131.828
62.56000 137.448
62.57000 143.606
62.58000 148.140
62.59000 149.182
62.60000 150.107
62.61000 150.652
62.62000 147.789
62.63000 145.749
62.64000 145.996
62.65000 148.334
62.66000 150.602
62.67000 148.473
62.68000 143.720
62.69000 139.125
62.70000 137.898
62.71000 138.009
62.72000 138.091
62.73000 137.874
62.74000 137.576
62.75000 137.447
62.76000 138.359
62.77000 139.451
62.78000 140.340
62.79000 138.202
62.80000 136.199
62.81000 135.045
62.82000 136.141
62.83000 137.358
62.84000 138.815
62.85000 140.700
62.86000 142.593
62.87000 143.612
62.88000 140.209
62.89000 137.905
62.90000 140.237
62.91000 146.010
62.92000 151.572
62.93000 149.896
62.94000 144.661
62.95000 139.683
62.96000 139.613
62.97000 141.045
62.98000 142.346
62.99000 142.596
63.00000 142.617
63.01000 143.165
63.02000 146.336
63.03000 149.865
63.04000 152.614
63.05000 151.025
63.06000 149.491
63.07000 148.008
63.08000 146.639
63.09000 145.274
63.10000 144.490
63.11000 144.552
63.12000 144.621
63.13000 146.586
63.14000 150.319
63.15000 154.001
63.16000 154.136
63.17000 152.116
63.18000 150.147
63.19000 149.279
63.20000 148.860
63.21000 148.470
63.22000 146.363
63.23000 144.036
63.24000 141.695
63.25000 139.272
63.26000 136.834
63.27000 135.770
63.28000 140.276
63.29000 145.374
63.30000 149.147
63.31000 146.625
63.32000 144.397
63.33000 142.425
63.34000 140.916
63.35000 139.415
63.36000 141.882
63.37000 149.058
63.38000 156.225
63.39000 153.711
63.40000 143.937
63.41000 134.406
63.42000 133.637
63.43000 137.258
63.44000 140.751
63.45000 142.312
63.46000 143.223
63.47000 144.052
63.48000 145.758
63.49000 147.438
63.50000 148.794
63.51000 148.497
63.52000 147.968
63.53000 147.588
63.54000 147.706
63.55000 147.862
63.56000 147.972
63.57000 146.972
63.58000 146.186
63.59000 145.588
63.60000 145.271
63.61000 144.956
63.62000 146.309
63.63000 149.253
63.64000 152.173
63.65000 149.418
63.66000 143.260
63.67000 137.427
63.68000 138.945
63.69000 143.510
63.70000 147.955
63.71000 151.086
63.72000 153.854
63.73000 156.301
63.74000 151.849
63.75000 146.931
63.76000 143.912
63.77000 148.751
63.78000 154.446
63.79000 158.478
63.80000 157.937
63.81000 157.134
63.82000 156.609
63.83000 158.507
63.84000 159.940
63.85000 161.921
63.86000 164.567
63.87000 167.202
63.88000 166.979
63.89000 164.548
63.90000 162.158
63.91000 158.888
63.92000 155.292
63.93000 151.879
63.94000 151.313
63.95000 151.722
63.96000 151.924
63.97000 150.386
63.98000 148.454
63.99000 146.800
64.00000 146.274
64.01000 145.966
64.02000 145.758
64.03000 145.889
64.04000 146.048
64.05000 145.868
64.06000 144.916
64.07000 143.934
64.08000 143.340
64.09000 147.720
64.10000 150.878
64.11000 151.046
64.12000 148.297
64.13000 145.595
64.14000 146.663
64.15000 150.110
64.16000 153.458
64.17000 156.082
64.18000 158.283
64.19000 160.352
64.20000 160.922
64.21000 161.069
64.22000 161.669
64.23000 165.275
64.24000 169.433
64.25000 172.860
64.26000 169.678
64.27000 166.450
64.28000 163.484
64.29000 161.252
64.30000 159.063
64.31000 157.489
64.32000 157.070
64.33000 156.678
64.34000 156.461
64.35000 157.606
64.36000 158.399
64.37000 159.432
64.38000 160.654
64.39000 161.850
64.40000 162.020
64.41000 161.656
64.42000 161.309
64.43000 162.716
64.44000 164.595
64.45000 166.327
64.46000 166.788
64.47000 166.955
64.48000 167.309
64.49000 168.658
64.50000 170.153
64.51000 171.334
64.52000 173.515
64.53000 175.334
64.54000 175.776
64.55000 173.032
64.56000 170.159
64.57000 167.982
64.58000 166.881
64.59000 165.791
64.60000 167.068
64.61000 170.703
64.62000 174.311
64.63000 175.436
64.64000 174.964
64.65000 174.445
64.66000 172.786
64.67000 170.636
64.68000 168.620
64.69000 171.432
64.70000 175.259
64.71000 178.000
64.72000 173.370
64.73000 167.358
64.74000 163.593
64.75000 169.508
64.76000 176.533
64.77000 181.814
64.78000 183.118
64.79000 183.946
64.80000 183.199
64.81000 179.437
64.82000 175.601
64.83000 174.483
64.84000 176.799
64.85000 179.123
64.86000 179.261
64.87000 177.646
64.88000 176.100
64.89000 177.490
64.90000 180.437
64.91000 183.631
64.92000 190.939
64.93000 199.711
64.94000 207.750
64.95000 207.973
64.96000 206.530
64.97000 204.894
64.98000 202.213
64.99000 199.376
65.00000 197.319
65.01000 198.013
65.02000 198.947
65.03000 199.612
65.04000 202.545
65.05000 204.851
65.06000 208.523
65.07000 214.347
65.08000 220.198
65.09000 224.218
65.10000 226.371
65.11000 228.512
65.12000 232.138
65.13000 236.674
65.14000 241.064
65.15000 241.704
65.16000 240.702
65.17000 239.987
65.18000 242.736
65.19000 246.502
65.20000 249.861
65.21000 263.854
65.22000 277.802
65.23000 289.298
65.24000 290.020
65.25000 289.475
65.26000 288.622
65.27000 286.871
65.28000 285.064
65.29000 283.858
65.30000 291.723
65.31000 297.721
65.32000 304.239
65.33000 311.430
65.34000 318.617
65.35000 322.839
65.36000 324.628
65.37000 326.393
65.38000 331.381
65.39000 337.919
65.40000 344.781
65.41000 357.247
65.42000 371.743
65.43000 385.511
65.44000 392.639
65.45000 398.169
65.46000 402.950
65.47000 403.500
65.48000 403.415
65.49000 405.026
65.50000 412.733
65.51000 420.987
65.52000 425.215
65.53000 419.768
65.54000 413.897
65.55000 410.260
65.56000 419.631
65.57000 426.494
65.58000 434.658
65.59000 444.178
65.60000 453.698
65.61000 463.210
65.62000 472.716
65.63000 481.984
65.64000 496.520
65.65000 512.641
65.66000 529.472
65.67000 555.133
65.68000 583.433
65.69000 613.298
65.70000 654.290
65.71000 697.458
65.72000 733.458
65.73000 810.057
65.74000 877.626
65.75000 945.349
65.76000 1013.527
65.77000 1081.734
65.78000 1140.782
65.79000 1181.629
65.80000 1221.979
65.81000 1244.945
65.82000 1292.496
65.83000 1325.679
65.84000 1339.086
65.85000 1335.921
65.86000 1332.837
65.87000 1333.665
65.88000 1336.647
65.89000 1339.511
65.90000 1327.535
65.91000 1311.196
65.92000 1291.419
65.93000 1239.482
65.94000 1179.652
65.95000 1118.223
65.96000 1047.741
65.97000 975.840
65.98000 918.307
65.99000 830.875
66.00000 757.947
66.01000 688.777
66.02000 628.807
66.03000 569.256
66.04000 517.842
66.05000 479.756
66.06000 441.862
66.07000 422.320
66.08000 403.418
66.09000 390.686
66.10000 378.068
66.11000 365.529
66.12000 353.220
66.13000 347.367
66.14000 344.449
66.15000 341.697
66.16000 336.781
66.17000 331.672
66.18000 327.407
66.19000 329.283
66.20000 332.385
66.21000 335.524
66.22000 338.829
66.23000 342.154
66.24000 344.692
66.25000 353.692
66.26000 361.131
66.27000 370.840
66.28000 385.146
66.29000 399.583
66.30000 411.373
66.31000 419.609
66.32000 427.820
66.33000 434.953
66.34000 441.151
66.35000 447.470
66.36000 459.996
66.37000 476.004
66.38000 491.700
66.39000 501.622
66.40000 509.373
66.41000 516.528
66.42000 508.415
66.43000 497.714
66.44000 488.623
66.45000 488.829
66.46000 490.527
66.47000 489.892
66.48000 480.540
66.49000 470.361
66.50000 462.999
66.51000 453.515
66.52000 446.160
66.53000 434.354
66.54000 415.118
66.55000 395.766
66.56000 381.235
66.57000 371.946
66.58000 362.703
66.59000 353.713
66.60000 344.995
66.61000 336.331
66.62000 329.250
66.63000 322.902
66.64000 317.004
66.65000 317.053
66.66000 318.949
66.67000 320.655
66.68000 324.462
66.69000 328.173
66.70000 329.314
66.71000 318.463
66.72000 306.091
66.73000 297.807
66.74000 302.093
66.75000 307.263
66.76000 310.779
66.77000 311.968
66.78000 312.804
66.79000 317.221
66.80000 326.540
66.81000 335.878
66.82000 335.510
66.83000 326.662
66.84000 317.916
66.85000 320.063
66.86000 328.237
66.87000 336.096
66.88000 337.900
66.89000 337.385
66.90000 336.971
66.91000 337.553
66.92000 338.390
66.93000 339.121
66.94000 348.304
66.95000 357.349
66.96000 364.109
66.97000 362.161
66.98000 359.363
66.99000 357.998
67.00000 360.272
67.01000 362.727
67.02000 364.282
67.03000 361.246
67.04000 358.988
67.05000 357.884
67.06000 358.062
67.07000 358.273
67.08000 363.001
67.09000 370.937
67.10000 378.701
67.11000 378.743
67.12000 375.285
67.13000 372.386
67.14000 377.087
67.15000 384.194
67.16000 389.739
67.17000 383.373
67.18000 374.528
67.19000 367.068
67.20000 368.071
67.21000 369.826
67.22000 373.579
67.23000 383.596
67.24000 394.067
67.25000 399.196
67.26000 393.097
67.27000 386.641
67.28000 382.868
67.29000 393.980
67.30000 401.868
67.31000 408.173
67.32000 413.067
67.33000 417.837
67.34000 415.443
67.35000 408.872
67.36000 402.529
67.37000 403.725
67.38000 407.622
67.39000 411.510
67.40000 415.297
67.41000 419.058
67.42000 422.512
67.43000 424.118
67.44000 425.415
67.45000 426.465
67.46000 418.887
67.47000 412.010
67.48000 409.035
67.49000 416.167
67.50000 423.817
67.51000 428.073
67.52000 426.443
67.53000 424.709
67.54000 423.786
67.55000 435.066
67.56000 442.710
67.57000 443.653
67.58000 439.743
67.59000 436.002
67.60000 437.732
67.61000 442.094
67.62000 446.233
67.63000 455.095
67.64000 464.675
67.65000 472.556
67.66000 467.165
67.67000 458.954
67.68000 452.179
67.69000 452.388
67.70000 453.525
67.71000 454.406
67.72000 464.401
67.73000 472.880
67.74000 479.302
67.75000 481.322
67.76000 483.195
67.77000 485.324
67.78000 487.817
67.79000 490.313
67.80000 493.427
67.81000 497.101
67.82000 500.732
67.83000 501.606
67.84000 500.843
67.85000 500.229
67.86000 502.706
67.87000 506.411
67.88000 509.855
67.89000 516.654
67.90000 523.594
67.91000 529.280
67.92000 527.222
67.93000 523.836
67.94000 520.409
67.95000 516.822
67.96000 513.218
67.97000 510.567
67.98000 524.362
67.99000 535.708
68.00000 545.110
68.01000 551.074
68.02000 556.972
68.03000 557.890
68.04000 553.037
68.05000 548.193
68.06000 551.113
68.07000 559.704
68.08000 568.127
68.09000 570.820
68.10000 570.704
68.11000 570.179
68.12000 563.704
68.13000 555.274
68.14000 547.628
68.15000 569.368
68.16000 594.168
68.17000 613.392
68.18000 604.940
68.19000 592.720
68.20000 585.619
68.21000 595.184
68.22000 606.035
68.23000 613.555
68.24000 628.549
68.25000 640.034
68.26000 650.890
68.27000 660.835
68.28000 670.769
68.29000 669.838
68.30000 658.791
68.31000 647.845
68.32000 650.028
68.33000 659.960
68.34000 669.780
68.35000 677.176
68.36000 683.589
68.37000 689.515
68.38000 690.226
68.39000 689.525
68.40000 688.908
68.41000 702.899
68.42000 717.160
68.43000 729.835
68.44000 736.095
68.45000 741.678
68.46000 751.542
68.47000 772.913
68.48000 794.918
68.49000 809.171
68.50000 804.204
68.51000 800.284
68.52000 808.539
68.53000 831.195
68.54000 853.875
68.55000 876.349
68.56000 898.667
68.57000 920.577
68.58000 947.438
68.59000 975.735
68.60000 1004.614
68.61000 1042.204
68.62000 1082.712
68.63000 1125.573
68.64000 1187.741
68.65000 1254.182
68.66000 1310.815
68.67000 1365.611
68.68000 1411.490
68.69000 1464.909
68.70000 1543.343
68.71000 1623.766
68.72000 1695.391
68.73000 1747.463
68.74000 1798.818
68.75000 1829.590
68.76000 1904.982
68.77000 1958.815
68.78000 2035.842
68.79000 2134.927
68.80000 2234.035
68.81000 2334.842
68.82000 2436.696
68.83000 2535.435
68.84000 2676.284
68.85000 2826.151
68.86000 2988.871
68.87000 3293.059
68.88000 3636.274
68.89000 4032.976
68.90000 4774.935
68.91000 5578.693
68.92000 6238.125
68.93000 8424.899
68.94000 10355.482
68.95000 12772.066
68.96000 16519.486
68.97000 20342.920
68.98000 24693.119
68.99000 30010.607
69.00000 35348.988
69.01000 38272.098
69.02000 45537.629
69.03000 50535.781
69.04000 54602.629
69.05000 57953.023
69.06000 61263.969
69.07000 63087.828
69.08000 64155.102
69.09000 65173.313
69.10000 65644.977
69.11000 65909.633
69.12000 66213.586
69.13000 66847.992
69.14000 67556.992
69.15000 68235.953
69.16000 68759.469
69.17000 69260.820
69.18000 69654.555
69.19000 68660.281
69.20000 67773.773
69.21000 66163.461
69.22000 62914.004
69.23000 59601.781
69.24000 56208.359
69.25000 52692.289
69.26000 49175.066
69.27000 46095.258
69.28000 43440.773
69.29000 40794.016
69.30000 38754.215
69.31000 37096.402
69.32000 35465.949
69.33000 34475.070
69.34000 33753.203
69.35000 33077.887
69.36000 31974.596
69.37000 30862.953
69.38000 29644.996
69.39000 27725.074
69.40000 25676.789
69.41000 23503.084
69.42000 20802.064
69.43000 18042.348
69.44000 15980.395
69.45000 13060.572
69.46000 10744.795
69.47000 8742.400
69.48000 7326.431
69.49000 5923.903
69.50000 4814.510
69.51000 4066.463
69.52000 3320.868
69.53000 2822.179
69.54000 2518.867
69.55000 2218.028
69.56000 2015.609
69.57000 1864.213
69.58000 1716.475
69.59000 1627.261
69.60000 1558.401
69.61000 1495.471
69.62000 1409.156
69.63000 1327.702
69.64000 1253.624
69.65000 1218.527
69.66000 1189.121
69.67000 1159.424
69.68000 1128.724
69.69000 1097.939
69.70000 1076.210
69.71000 1039.443
69.72000 1011.084
69.73000 979.602
69.74000 943.312
69.75000 906.968
69.76000 890.402
69.77000 893.482
69.78000 896.539
69.79000 888.073
69.80000 872.464
69.81000 857.048
69.82000 846.327
69.83000 837.616
69.84000 828.534
69.85000 815.121
69.86000 800.466
69.87000 787.436
69.88000 775.058
69.89000 764.421
69.90000 752.664
69.91000 736.099
69.92000 718.985
69.93000 708.229
69.94000 715.549
69.95000 723.976
69.96000 729.550
69.97000 726.065
69.98000 723.332
69.99000 714.834
70.00000 699.083
