20.00000 560.178
20.01000 560.336
20.02000 560.517
20.03000 561.278
20.04000 564.282
20.05000 567.508
20.06000 569.864
20.07000 569.061
20.08000 568.319
20.09000 563.952
20.10000 553.330
20.11000 542.600
20.12000 541.706
20.13000 551.905
20.14000 562.075
20.15000 564.737
20.16000 562.014
20.17000 559.341
20.18000 558.256
20.19000 557.929
20.20000 557.945
20.21000 562.730
20.22000 569.044
20.23000 574.751
20.24000 573.743
20.25000 571.609
20.26000 570.036
20.27000 571.168
20.28000 572.657
20.29000 573.678
20.30000 573.210
20.31000 572.632
20.32000 572.235
20.33000 571.495
20.34000 570.932
20.35000 569.062
20.36000 565.341
20.37000 561.610
20.38000 564.495
20.39000 573.372
20.40000 582.159
20.41000 580.387
20.42000 572.549
20.43000 564.927
20.44000 561.737
20.45000 560.301
20.46000 558.405
20.47000 551.760
20.48000 543.861
20.49000 536.928
20.50000 541.551
20.51000 547.213
20.52000 553.032
20.53000 559.471
20.54000 565.972
20.55000 569.249
20.56000 564.066
20.57000 558.439
20.58000 554.827
20.59000 555.188
20.60000 555.505
20.61000 556.956
20.62000 559.714
20.63000 562.472
20.64000 564.949
20.65000 567.220
20.66000 569.446
20.67000 566.676
20.68000 561.665
20.69000 556.941
20.70000 556.318
20.71000 557.036
20.72000 558.055
20.73000 561.465
20.74000 565.390
20.75000 568.720
20.76000 567.567
20.77000 566.093
20.78000 564.808
20.79000 564.142
20.80000 563.522
20.81000 564.754
20.82000 570.006
20.83000 575.397
20.84000 578.593
20.85000 561.198
20.86000 548.778
20.87000 542.475
20.88000 541.829
20.89000 541.230
20.90000 543.741
20.91000 548.124
20.92000 552.365
20.93000 550.990
20.94000 547.551
20.95000 544.431
20.96000 544.697
20.97000 545.873
20.98000 548.196
20.99000 557.709
21.00000 568.473
21.01000 577.258
21.02000 566.906
21.03000 556.794
21.04000 550.174
21.05000 552.885
21.06000 556.105
21.07000 556.789
21.08000 552.926
21.09000 548.972
21.10000 546.834
21.11000 562.737
21.12000 573.560
21.13000 567.602
21.14000 549.067
21.15000 531.009
21.16000 529.752
21.17000 536.839
21.18000 543.584
21.19000 549.755
21.20000 555.291
21.21000 559.614
21.22000 554.061
21.23000 546.336
21.24000 540.152
21.25000 541.735
21.26000 544.393
21.27000 546.468
21.28000 546.609
21.29000 546.600
21.30000 546.410
21.31000 545.818
21.32000 545.212
21.33000 543.772
21.34000 541.105
21.35000 538.427
21.36000 537.769
21.37000 539.020
21.38000 540.364
21.39000 548.270
21.40000 560.206
21.41000 571.671
21.42000 572.716
21.43000 569.482
21.44000 566.464
21.45000 554.268
21.46000 540.939
21.47000 529.906
21.48000 533.607
21.49000 539.928
21.50000 545.624
21.51000 548.758
21.52000 551.615
21.53000 553.736
21.54000 550.132
21.55000 547.080
21.56000 544.299
21.57000 542.015
21.58000 539.741
21.59000 539.000
21.60000 540.100
21.61000 541.201
21.62000 543.718
21.63000 547.296
21.64000 550.730
21.65000 548.808
21.66000 544.176
21.67000 540.010
21.68000 542.978
21.69000 548.368
21.70000 553.277
21.71000 551.926
21.72000 549.484
21.73000 547.290
21.74000 546.365
21.75000 545.619
21.76000 546.507
21.77000 552.886
21.78000 559.710
21.79000 564.490
21.80000 568.126
21.81000 570.842
21.82000 572.942
21.83000 574.116
21.84000 575.282
21.85000 576.301
21.86000 577.180
21.87000 578.051
21.88000 582.195
21.89000 588.279
21.90000 594.064
21.91000 592.970
21.92000 588.999
21.93000 585.421
21.94000 586.269
21.95000 588.355
21.96000 590.203
21.97000 599.190
21.98000 608.089
21.99000 614.197
22.00000 608.636
22.01000 601.787
22.02000 598.844
22.03000 606.741
22.04000 615.272
22.05000 620.865
22.06000 622.654
22.07000 623.907
22.08000 626.669
22.09000 631.280
22.10000 635.881
22.11000 636.599
22.12000 634.285
22.13000 632.010
22.14000 625.302
22.15000 616.601
22.16000 608.447
22.17000 608.952
22.18000 612.452
22.19000 614.305
22.20000 602.049
22.21000 586.563
22.22000 573.285
22.23000 577.696
22.24000 583.589
22.25000 588.157
22.26000 588.178
22.27000 587.819
22.28000 586.175
22.29000 581.582
22.30000 576.872
22.31000 574.010
22.32000 571.307
22.33000 569.378
22.34000 564.445
22.35000 556.547
22.36000 548.775
22.37000 551.561
22.38000 561.084
22.39000 570.338
22.40000 568.070
22.41000 561.250
22.42000 554.102
22.43000 543.175
22.44000 531.169
22.45000 521.555
22.46000 527.980
22.47000 537.383
22.48000 545.150
22.49000 545.270
22.50000 544.656
22.51000 544.420
22.52000 545.258
22.53000 546.160
22.54000 541.992
22.55000 528.207
22.56000 514.192
22.57000 506.394
22.58000 527.353
22.59000 541.856
22.60000 540.217
22.61000 525.723
22.62000 511.607
22.63000 513.137
22.64000 522.887
22.65000 532.216
22.66000 538.247
22.67000 542.781
22.68000 546.438
22.69000 542.401
22.70000 536.567
22.71000 530.159
22.72000 520.676
22.73000 510.737
22.74000 502.870
22.75000 513.448
22.76000 523.224
22.77000 528.373
22.78000 522.703
22.79000 516.587
22.80000 512.351
22.81000 511.052
22.82000 509.787
22.83000 509.151
22.84000 516.881
22.85000 521.974
22.86000 520.995
22.87000 516.066
22.88000 511.289
22.89000 510.352
22.90000 511.082
22.91000 511.768
22.92000 509.816
22.93000 507.338
22.94000 505.812
22.95000 510.828
22.96000 517.085
22.97000 524.016
22.98000 533.881
22.99000 544.088
23.00000 551.782
23.01000 546.167
23.02000 541.117
23.03000 533.064
23.04000 519.209
23.05000 505.207
23.06000 500.269
23.07000 506.900
23.08000 513.562
23.09000 516.301
23.10000 515.851
23.11000 515.321
23.12000 511.313
23.13000 505.443
23.14000 499.674
23.15000 495.628
23.16000 492.201
23.17000 489.056
23.18000 499.298
23.19000 511.276
23.20000 521.014
23.21000 518.478
23.22000 514.079
23.23000 510.723
23.24000 511.083
23.25000 511.772
23.26000 512.264
23.27000 509.725
23.28000 507.691
23.29000 509.074
23.30000 515.898
23.31000 522.792
23.32000 523.208
23.33000 516.943
23.34000 510.716
23.35000 508.263
23.36000 508.312
23.37000 508.527
23.38000 513.098
23.39000 519.596
23.40000 525.334
23.41000 521.762
23.42000 515.431
23.43000 509.775
23.44000 507.700
23.45000 506.497
23.46000 506.811
23.47000 513.862
23.48000 521.716
23.49000 523.442
23.50000 507.179
23.51000 489.750
23.52000 478.088
23.53000 489.447
23.54000 498.325
23.55000 506.026
23.56000 512.192
23.57000 518.343
23.58000 519.868
23.59000 517.557
23.60000 515.277
23.61000 508.798
23.62000 500.272
23.63000 492.609
23.64000 500.111
23.65000 513.162
23.66000 524.133
23.67000 515.886
23.68000 502.968
23.69000 491.779
23.70000 497.680
23.71000 504.956
23.72000 510.270
23.73000 508.454
23.74000 505.988
23.75000 502.815
23.76000 497.928
23.77000 492.964
23.78000 489.877
23.79000 486.951
23.80000 484.846
23.81000 487.531
23.82000 495.265
23.83000 502.931
23.84000 503.208
23.85000 498.486
23.86000 493.879
23.87000 493.702
23.88000 495.439
23.89000 497.342
23.90000 501.327
23.91000 505.941
23.92000 509.608
23.93000 506.463
23.94000 501.972
23.95000 498.219
23.96000 490.821
23.97000 484.310
23.98000 481.752
23.99000 491.021
24.00000 501.082
24.01000 504.876
24.02000 496.099
24.03000 486.968
24.04000 481.747
24.05000 491.678
24.06000 498.656
24.07000 501.358
24.08000 500.437
24.09000 499.461
24.10000 495.738
24.11000 490.487
24.12000 485.439
24.13000 486.055
24.14000 488.611
24.15000 491.043
24.16000 492.306
24.17000 493.280
24.18000 494.610
24.19000 497.976
24.20000 501.666
24.21000 504.625
24.22000 498.084
24.23000 492.068
24.24000 488.389
24.25000 490.488
24.26000 492.856
24.27000 492.400
24.28000 487.272
24.29000 482.075
24.30000 479.380
24.31000 490.309
24.32000 497.609
24.33000 495.344
24.34000 486.481
24.35000 477.932
24.36000 478.385
24.37000 482.971
24.38000 487.303
24.39000 495.223
24.40000 503.505
24.41000 511.015
24.42000 512.837
24.43000 513.510
24.44000 511.850
24.45000 499.404
24.46000 485.607
24.47000 475.050
24.48000 473.629
24.49000 473.007
24.50000 470.481
24.51000 464.059
24.52000 457.522
24.53000 457.692
24.54000 466.955
24.55000 476.263
24.56000 479.034
24.57000 476.158
24.58000 473.374
24.59000 475.449
24.60000 480.277
24.61000 484.785
24.62000 483.223
24.63000 479.355
24.64000 475.781
24.65000 474.561
24.66000 474.001
24.67000 473.434
24.68000 472.825
24.69000 472.210
24.70000 472.396
24.71000 475.608
24.72000 479.112
24.73000 481.653
24.74000 479.166
24.75000 477.067
24.76000 475.942
24.77000 476.456
24.78000 476.997
24.79000 478.455
24.80000 480.922
24.81000 483.379
24.82000 485.543
24.83000 487.482
24.84000 489.349
24.85000 489.062
24.86000 487.767
24.87000 486.675
24.88000 488.294
24.89000 490.763
24.90000 492.987
24.91000 485.596
24.92000 477.373
24.93000 470.470
24.94000 469.793
24.95000 469.915
24.96000 469.733
24.97000 468.607
24.98000 467.414
24.99000 466.600
25.00000 475.187
25.01000 481.827
25.02000 482.682
25.03000 475.537
25.04000 468.349
25.05000 468.406
25.06000 474.862
25.07000 481.246
25.08000 484.618
25.09000 486.211
25.10000 487.459
25.11000 481.929
25.12000 473.777
25.13000 466.515
25.14000 468.160
25.15000 472.103
25.16000 475.550
25.17000 474.918
25.18000 473.796
25.19000 472.820
25.20000 472.404
25.21000 472.044
25.22000 471.005
25.23000 468.228
25.24000 465.363
25.25000 463.540
25.26000 470.779
25.27000 476.152
25.28000 480.741
25.29000 484.450
25.30000 488.145
25.31000 489.809
25.32000 490.016
25.33000 490.219
25.34000 488.550
25.35000 486.091
25.36000 483.640
25.37000 481.312
25.38000 479.024
25.39000 476.935
25.40000 476.384
25.41000 476.155
25.42000 475.963
25.43000 472.300
25.44000 468.856
25.45000 465.001
25.46000 459.842
25.47000 454.586
25.48000 450.504
25.49000 448.912
25.50000 447.401
25.51000 446.514
25.52000 459.724
25.53000 469.101
25.54000 473.369
25.55000 473.027
25.56000 472.708
25.57000 473.690
25.58000 475.439
25.59000 477.128
25.60000 474.568
25.61000 470.576
25.62000 466.519
25.63000 461.809
25.64000 456.928
25.65000 453.500
25.66000 458.957
25.67000 465.921
25.68000 471.576
25.69000 466.468
25.70000 461.408
25.71000 459.201
25.72000 464.451
25.73000 470.089
25.74000 473.795
25.75000 474.114
25.76000 474.370
25.77000 474.507
25.78000 469.681
25.79000 466.382
25.80000 462.412
25.81000 457.950
25.82000 453.594
25.83000 452.743
25.84000 453.594
25.85000 454.402
25.86000 457.353
25.87000 460.723
25.88000 463.590
25.89000 462.480
25.90000 460.517
25.91000 458.264
25.92000 454.586
25.93000 450.717
25.94000 447.713
25.95000 453.476
25.96000 458.588
25.97000 461.521
25.98000 459.745
25.99000 457.808
26.00000 458.244
26.01000 462.096
26.02000 465.974
26.03000 468.679
26.04000 470.301
26.05000 471.910
26.06000 472.716
26.07000 473.039
26.08000 473.144
26.09000 468.634
26.10000 462.269
26.11000 456.347
26.12000 456.179
26.13000 457.420
26.14000 458.646
26.15000 459.770
26.16000 460.878
26.17000 461.297
26.18000 458.963
26.19000 456.341
26.20000 454.408
26.21000 442.993
26.22000 433.754
26.23000 433.105
26.24000 447.796
26.25000 462.789
26.26000 472.860
26.27000 477.166
26.28000 481.450
26.29000 478.101
26.30000 469.117
26.31000 460.280
26.32000 456.572
26.33000 455.402
26.34000 454.617
26.35000 459.527
26.36000 466.326
26.37000 472.501
26.38000 460.445
26.39000 446.268
26.40000 434.943
26.41000 437.932
26.42000 442.893
26.43000 447.377
26.44000 450.292
26.45000 453.084
26.46000 455.026
26.47000 454.226
26.48000 453.548
26.49000 452.452
26.50000 450.740
26.51000 449.024
26.52000 451.020
26.53000 456.510
26.54000 461.952
26.55000 454.482
26.56000 439.408
26.57000 425.274
26.58000 431.822
26.59000 446.833
26.60000 460.534
26.61000 460.003
26.62000 455.583
26.63000 451.682
26.64000 449.011
26.65000 446.894
26.66000 444.332
26.67000 439.955
26.68000 435.382
26.69000 433.097
26.70000 437.019
26.71000 441.289
26.72000 444.065
26.73000 442.805
26.74000 441.821
26.75000 439.017
26.76000 434.039
26.77000 429.110
26.78000 436.060
26.79000 452.059
26.80000 467.773
26.81000 468.975
26.82000 463.069
26.83000 457.548
26.84000 457.893
26.85000 460.222
26.86000 461.170
26.87000 450.631
26.88000 437.525
26.89000 426.334
26.90000 437.564
26.91000 449.686
26.92000 458.243
26.93000 454.851
26.94000 450.494
26.95000 448.524
26.96000 451.910
26.97000 455.497
26.98000 457.655
26.99000 447.261
27.00000 439.782
27.01000 437.619
27.02000 440.569
27.03000 443.402
27.04000 437.414
27.05000 425.926
27.06000 414.781
27.07000 419.169
27.08000 429.468
27.09000 439.187
27.10000 442.423
27.11000 443.853
27.12000 445.696
27.13000 450.231
27.14000 455.253
27.15000 459.383
27.16000 446.720
27.17000 434.798
27.18000 427.686
27.19000 433.875
27.20000 440.837
27.21000 445.809
27.22000 447.092
27.23000 448.293
27.24000 448.953
27.25000 439.431
27.26000 432.879
27.27000 432.165
27.28000 435.991
27.29000 439.897
27.30000 446.936
27.31000 455.585
27.32000 463.844
27.33000 454.316
27.34000 439.766
27.35000 427.020
27.36000 429.640
27.37000 435.764
27.38000 440.713
27.39000 439.513
27.40000 437.424
27.41000 435.780
27.42000 434.966
27.43000 434.369
27.44000 434.575
27.45000 436.618
27.46000 438.733
27.47000 441.712
27.48000 446.008
27.49000 450.317
27.50000 454.956
27.51000 459.919
27.52000 464.737
27.53000 457.766
27.54000 443.299
27.55000 429.321
27.56000 426.990
27.57000 429.607
27.58000 432.058
27.59000 427.295
27.60000 421.099
27.61000 416.890
27.62000 425.947
27.63000 437.458
27.64000 447.967
27.65000 454.221
27.66000 459.995
27.67000 464.320
27.68000 449.281
27.69000 436.630
27.70000 430.307
27.71000 435.943
27.72000 441.861
27.73000 442.374
27.74000 436.154
27.75000 429.926
27.76000 429.515
27.77000 433.702
27.78000 437.737
27.79000 435.602
27.80000 430.236
27.81000 424.894
27.82000 419.935
27.83000 415.111
27.84000 410.697
27.85000 424.640
27.86000 440.838
27.87000 453.926
27.88000 450.392
27.89000 444.403
27.90000 439.748
27.91000 439.740
27.92000 440.129
27.93000 440.405
27.94000 441.413
27.95000 442.201
27.96000 436.332
27.97000 420.102
27.98000 403.753
27.99000 401.029
28.00000 411.995
28.01000 422.887
28.02000 429.870
28.03000 434.251
28.04000 438.610
28.05000 442.386
28.06000 445.911
28.07000 449.000
28.08000 446.929
28.09000 443.364
28.10000 440.189
28.11000 437.897
28.12000 436.050
28.13000 434.362
28.14000 433.357
28.15000 432.432
28.16000 430.792
28.17000 427.100
28.18000 423.281
28.19000 420.745
28.20000 424.351
28.21000 427.129
28.22000 430.186
28.23000 433.599
28.24000 437.000
28.25000 435.218
28.26000 429.241
28.27000 423.353
28.28000 427.813
28.29000 437.497
28.30000 446.333
28.31000 440.851
28.32000 430.246
28.33000 421.097
28.34000 424.988
28.35000 431.975
28.36000 438.002
28.37000 436.485
28.38000 434.230
28.39000 431.831
28.40000 428.919
28.41000 425.962
28.42000 424.856
28.43000 428.144
28.44000 431.621
28.45000 433.763
28.46000 431.364
28.47000 429.601
28.48000 428.469
28.49000 427.985
28.50000 427.511
28.51000 428.019
28.52000 429.176
28.53000 430.302
28.54000 426.454
28.55000 420.695
28.56000 415.602
28.57000 418.629
28.58000 424.053
28.59000 428.660
28.60000 427.557
28.61000 425.353
28.62000 423.519
28.63000 417.166
28.64000 411.464
28.65000 407.803
28.66000 410.109
28.67000 412.800
28.68000 414.706
28.69000 415.070
28.70000 415.394
28.71000 415.577
28.72000 419.303
28.73000 421.901
28.74000 422.655
28.75000 421.885
28.76000 421.118
28.77000 420.477
28.78000 419.906
28.79000 419.357
28.80000 424.529
28.81000 431.315
28.82000 436.389
28.83000 425.726
28.84000 411.253
28.85000 399.626
28.86000 403.872
28.87000 410.573
28.88000 415.919
28.89000 411.148
28.90000 406.556
28.91000 404.571
28.92000 408.891
28.93000 413.490
28.94000 417.192
28.95000 419.441
28.96000 421.671
28.97000 422.813
28.98000 409.348
28.99000 400.338
29.00000 395.565
29.01000 393.647
29.02000 392.022
29.03000 398.365
29.04000 408.287
29.05000 417.636
29.06000 422.210
29.07000 425.083
29.08000 427.419
29.09000 425.914
29.10000 423.653
29.11000 421.656
29.12000 420.854
29.13000 420.197
29.14000 419.697
29.15000 417.798
29.16000 416.231
29.17000 417.373
29.18000 423.934
29.19000 430.645
29.20000 431.338
29.21000 424.064
29.22000 416.758
29.23000 413.798
29.24000 414.504
29.25000 415.209
29.26000 415.845
29.27000 416.444
29.28000 416.890
29.29000 414.567
29.30000 411.214
29.31000 408.124
29.32000 407.232
29.33000 406.920
29.34000 406.905
29.35000 408.585
29.36000 410.534
29.37000 411.400
29.38000 408.271
29.39000 404.770
29.40000 402.248
29.41000 413.117
29.42000 421.918
29.43000 425.365
29.44000 419.987
29.45000 414.479
29.46000 407.196
29.47000 398.009
29.48000 388.868
29.49000 390.700
29.50000 399.965
29.51000 408.941
29.52000 409.725
29.53000 406.760
29.54000 404.053
29.55000 404.684
29.56000 406.338
29.57000 407.823
29.58000 417.080
29.59000 426.546
29.60000 434.415
29.61000 434.933
29.62000 434.534
29.63000 431.942
29.64000 422.686
29.65000 412.972
29.66000 406.395
29.67000 410.459
29.68000 413.720
29.69000 414.976
29.70000 413.522
29.71000 412.051
29.72000 408.638
29.73000 403.551
29.74000 398.526
29.75000 399.051
29.76000 402.616
29.77000 406.080
29.78000 407.637
29.79000 408.473
29.80000 408.883
29.81000 405.178
29.82000 400.436
29.83000 396.305
29.84000 402.504
29.85000 409.227
29.86000 413.930
29.87000 411.032
29.88000 407.406
29.89000 407.976
29.90000 419.079
29.91000 430.687
29.92000 438.007
29.93000 438.423
29.94000 438.645
29.95000 433.821
29.96000 423.469
29.97000 413.138
29.98000 405.871
29.99000 400.752
30.00000 395.747
30.01000 396.789
30.02000 400.488
30.03000 404.134
30.04000 407.060
30.05000 409.761
30.06000 412.416
30.07000 414.723
30.08000 416.958
30.09000 418.838
30.10000 418.299
30.11000 417.591
30.12000 418.364
30.13000 423.723
30.14000 429.407
30.15000 431.995
30.16000 428.156
30.17000 424.120
30.18000 421.774
30.19000 428.558
30.20000 433.359
30.21000 435.540
30.22000 435.418
30.23000 435.199
30.24000 429.595
30.25000 420.891
30.26000 412.499
30.27000 413.093
30.28000 416.910
30.29000 419.842
30.30000 413.961
30.31000 405.817
30.32000 400.147
30.33000 409.207
30.34000 420.701
30.35000 429.990
30.36000 428.275
30.37000 426.000
30.38000 423.862
30.39000 422.080
30.40000 420.315
30.41000 420.399
30.42000 423.650
30.43000 426.955
30.44000 428.701
30.45000 425.508
30.46000 423.321
30.47000 418.797
30.48000 412.602
30.49000 406.643
30.50000 408.095
30.51000 413.067
30.52000 417.779
30.53000 421.606
30.54000 424.870
30.55000 427.485
30.56000 425.103
30.57000 421.674
30.58000 419.177
30.59000 421.150
30.60000 423.708
30.61000 425.682
30.62000 427.337
30.63000 428.630
30.64000 426.946
30.65000 418.965
30.66000 410.780
30.67000 407.735
30.68000 411.917
30.69000 416.147
30.70000 417.459
30.71000 416.148
30.72000 414.833
30.73000 413.184
30.74000 411.339
30.75000 409.730
30.76000 412.894
30.77000 417.932
30.78000 422.609
30.79000 423.548
30.80000 423.511
30.81000 424.038
30.82000 427.991
30.83000 432.523
30.84000 436.584
30.85000 438.806
30.86000 440.841
30.87000 442.333
30.88000 448.497
30.89000 453.444
30.90000 456.232
30.91000 455.252
30.92000 454.203
30.93000 457.465
30.94000 465.652
30.95000 473.816
30.96000 481.097
30.97000 487.678
30.98000 494.223
30.99000 499.592
31.00000 504.392
31.01000 509.074
31.02000 512.080
31.03000 514.543
31.04000 516.772
31.05000 530.695
31.06000 545.163
31.07000 559.715
31.08000 574.675
31.09000 589.691
31.10000 607.183
31.11000 632.638
31.12000 658.694
31.13000 676.677
31.14000 703.717
31.15000 724.266
31.16000 747.591
31.17000 774.895
31.18000 802.233
31.19000 836.045
31.20000 875.797
31.21000 915.163
31.22000 955.319
31.23000 995.100
31.24000 1034.793
31.25000 1072.622
31.26000 1109.706
31.27000 1147.970
31.28000 1198.630
31.29000 1252.601
31.30000 1300.063
31.31000 1329.779
31.32000 1352.711
31.33000 1378.777
31.34000 1417.341
31.35000 1457.203
31.36000 1491.997
31.37000 1513.339
31.38000 1533.957
31.39000 1547.247
31.40000 1551.325
31.41000 1554.172
31.42000 1545.810
31.43000 1524.373
31.44000 1502.908
31.45000 1479.961
31.46000 1455.913
31.47000 1432.322
31.48000 1402.485
31.49000 1370.768
31.50000 1338.679
31.51000 1301.152
31.52000 1261.826
31.53000 1223.967
31.54000 1197.935
31.55000 1174.486
31.56000 1154.545
31.57000 1107.108
31.58000 1064.099
31.59000 1021.725
31.60000 981.435
31.61000 941.307
31.62000 900.021
31.63000 856.194
31.64000 812.277
31.65000 786.106
31.66000 740.531
31.67000 708.115
31.68000 680.819
31.69000 658.323
31.70000 635.843
31.71000 614.413
31.72000 593.624
31.73000 573.489
31.74000 562.283
31.75000 555.128
31.76000 547.468
31.77000 534.363
31.78000 519.776
31.79000 506.105
31.80000 498.258
31.81000 491.440
31.82000 485.860
31.83000 476.235
31.84000 467.996
31.85000 457.659
31.86000 441.648
31.87000 425.321
31.88000 417.161
31.89000 423.810
31.90000 430.766
31.91000 434.550
31.92000 438.026
31.93000 440.386
31.94000 437.489
31.95000 430.602
31.96000 423.827
31.97000 421.129
31.98000 420.479
31.99000 419.861
32.00000 421.071
32.01000 422.764
32.02000 424.273
32.03000 424.257
32.04000 423.901
32.05000 422.951
32.06000 418.971
32.07000 414.565
32.08000 411.116
32.09000 405.965
32.10000 401.741
32.11000 399.357
32.12000 401.087
32.13000 402.970
32.14000 407.419
32.15000 415.692
32.16000 424.002
32.17000 421.134
32.18000 407.562
32.19000 394.140
32.20000 391.908
32.21000 396.629
32.22000 401.200
32.23000 402.386
32.24000 402.165
32.25000 401.959
32.26000 401.997
32.27000 402.094
32.28000 401.328
32.29000 394.957
32.30000 387.576
32.31000 381.814
32.32000 382.769
32.33000 384.459
32.34000 385.717
32.35000 387.063
32.36000 388.114
32.37000 387.621
32.38000 384.272
32.39000 380.860
32.40000 380.987
32.41000 385.415
32.42000 389.843
32.43000 390.547
32.44000 388.380
32.45000 386.167
32.46000 382.179
32.47000 377.283
32.48000 372.690
32.49000 372.838
32.50000 374.615
32.51000 376.236
32.52000 380.315
32.53000 384.428
32.54000 388.358
32.55000 391.336
32.56000 394.177
32.57000 396.147
32.58000 395.152
32.59000 393.912
32.60000 393.040
32.61000 379.811
32.62000 369.425
32.63000 365.423
32.64000 371.124
32.65000 376.926
32.66000 379.627
32.67000 379.292
32.68000 378.959
32.69000 375.829
32.70000 371.009
32.71000 366.388
32.72000 366.491
32.73000 368.593
32.74000 370.404
32.75000 368.887
32.76000 366.428
32.77000 364.247
32.78000 365.192
32.79000 366.511
32.80000 369.554
32.81000 379.891
32.82000 391.048
32.83000 401.173
32.84000 408.403
32.85000 415.460
32.86000 420.105
32.87000 423.004
32.88000 425.110
32.89000 426.481
32.90000 426.941
32.91000 427.411
32.92000 431.585
32.93000 438.686
32.94000 445.673
32.95000 448.483
32.96000 449.095
32.97000 449.348
32.98000 443.797
32.99000 436.216
33.00000 429.298
33.01000 428.156
33.02000 428.353
33.03000 428.522
33.04000 420.388
33.05000 412.474
33.06000 406.012
33.07000 404.586
33.08000 403.590
33.09000 399.308
33.10000 387.403
33.11000 375.189
33.12000 367.732
33.13000 369.762
33.14000 371.291
33.15000 368.220
33.16000 360.549
33.17000 352.953
33.18000 352.005
33.19000 355.351
33.20000 358.604
33.21000 357.046
33.22000 353.590
33.23000 350.159
33.24000 347.028
33.25000 343.983
33.26000 340.436
33.27000 333.464
33.28000 325.848
33.29000 319.541
33.30000 329.316
33.31000 338.911
33.32000 346.482
33.33000 348.262
33.34000 349.683
33.35000 348.122
33.36000 340.839
33.37000 333.414
33.38000 329.259
33.39000 342.540
33.40000 351.766
33.41000 355.032
33.42000 353.491
33.43000 351.997
33.44000 352.576
33.45000 354.257
33.46000 355.866
33.47000 351.015
33.48000 344.342
33.49000 338.363
33.50000 338.566
33.51000 340.231
33.52000 340.826
33.53000 335.604
33.54000 329.508
33.55000 324.669
33.56000 322.679
33.57000 321.277
33.58000 321.657
33.59000 326.247
33.60000 331.016
33.61000 331.786
33.62000 326.237
33.63000 320.609
33.64000 317.763
33.65000 337.745
33.66000 351.004
33.67000 353.391
33.68000 348.622
33.69000 343.900
33.70000 340.431
33.71000 337.511
33.72000 334.767
33.73000 336.052
33.74000 338.306
33.75000 340.185
33.76000 339.445
33.77000 338.203
33.78000 336.488
33.79000 332.691
33.80000 328.649
33.81000 325.592
33.82000 327.763
33.83000 329.729
33.84000 333.630
33.85000 341.317
33.86000 349.102
33.87000 351.927
33.88000 348.339
33.89000 344.731
33.90000 342.052
33.91000 340.143
33.92000 338.248
33.93000 336.973
33.94000 336.033
33.95000 335.492
33.96000 341.860
33.97000 350.737
33.98000 358.896
33.99000 353.651
34.00000 346.080
34.01000 339.096
34.02000 335.368
34.03000 332.143
34.04000 328.943
34.05000 325.838
34.06000 322.741
34.07000 320.525
34.08000 329.014
34.09000 335.856
34.10000 340.155
34.11000 340.355
34.12000 340.500
34.13000 338.992
34.14000 335.755
34.15000 332.536
34.16000 330.482
34.17000 329.225
34.18000 327.822
34.19000 322.480
34.20000 315.375
34.21000 309.055
34.22000 312.528
34.23000 318.935
34.24000 324.670
34.25000 328.532
34.26000 331.581
34.27000 333.483
34.28000 330.230
34.29000 326.354
34.30000 323.703
34.31000 324.695
34.32000 325.927
34.33000 326.755
34.34000 321.553
34.35000 317.565
34.36000 317.404
34.37000 322.288
34.38000 327.191
34.39000 329.028
34.40000 328.290
34.41000 327.561
34.42000 329.142
34.43000 331.921
34.44000 334.301
34.45000 329.510
34.46000 322.065
34.47000 315.417
34.48000 316.252
34.49000 318.929
34.50000 321.253
34.51000 322.196
34.52000 322.814
34.53000 322.941
34.54000 321.262
34.55000 319.416
34.56000 318.840
34.57000 321.385
34.58000 324.073
34.59000 325.753
34.60000 315.767
34.61000 308.440
34.62000 306.184
34.63000 309.343
34.64000 312.491
34.65000 314.291
34.66000 315.167
34.67000 316.022
34.68000 321.563
34.69000 328.908
34.70000 335.961
34.71000 339.277
34.72000 341.451
34.73000 342.400
34.74000 334.414
34.75000 324.638
34.76000 316.450
34.77000 318.766
34.78000 321.774
34.79000 322.655
34.80000 317.096
34.81000 311.096
34.82000 307.254
34.83000 307.794
34.84000 308.461
34.85000 308.844
34.86000 326.269
34.87000 338.503
34.88000 337.848
34.89000 326.133
34.90000 314.646
34.91000 314.965
34.92000 321.924
34.93000 328.622
34.94000 328.160
34.95000 325.194
34.96000 322.621
34.97000 323.843
34.98000 326.019
34.99000 327.444
35.00000 324.521
35.01000 320.899
35.02000 317.986
35.03000 315.835
35.04000 314.151
35.05000 311.930
35.06000 308.367
35.07000 304.740
35.08000 303.907
35.09000 307.752
35.10000 311.669
35.11000 313.713
35.12000 329.773
35.13000 340.530
35.14000 337.248
35.15000 324.163
35.16000 311.424
35.17000 308.922
35.18000 311.175
35.19000 313.305
35.20000 311.367
35.21000 308.423
35.22000 306.459
35.23000 311.824
35.24000 318.688
35.25000 324.656
35.26000 326.429
35.27000 327.669
35.28000 328.621
35.29000 320.047
35.30000 312.738
35.31000 307.291
35.32000 305.693
35.33000 304.212
35.34000 304.295
35.35000 306.522
35.36000 308.761
35.37000 308.147
35.38000 305.039
35.39000 302.009
35.40000 303.278
35.41000 307.010
35.42000 310.534
35.43000 310.018
35.44000 307.951
35.45000 306.037
35.46000 306.737
35.47000 307.968
35.48000 308.483
35.49000 304.759
35.50000 300.337
35.51000 297.610
35.52000 301.359
35.53000 305.742
35.54000 308.932
35.55000 311.079
35.56000 312.691
35.57000 312.345
35.58000 308.654
35.59000 304.906
35.60000 304.997
35.61000 309.363
35.62000 313.716
35.63000 310.936
35.64000 303.153
35.65000 295.756
35.66000 300.323
35.67000 310.552
35.68000 319.806
35.69000 315.720
35.70000 307.401
35.71000 299.894
35.72000 301.146
35.73000 303.851
35.74000 306.010
35.75000 305.556
35.76000 304.763
35.77000 304.432
35.78000 305.556
35.79000 306.785
35.80000 307.627
35.81000 305.953
35.82000 304.639
35.83000 304.519
35.84000 306.068
35.85000 307.629
35.86000 308.736
35.87000 309.437
35.88000 310.131
35.89000 312.156
35.90000 314.897
35.91000 317.471
35.92000 316.694
35.93000 314.604
35.94000 312.477
35.95000 309.957
35.96000 307.335
35.97000 305.038
35.98000 300.010
35.99000 295.302
36.00000 291.318
36.01000 290.158
36.02000 289.283
36.03000 289.861
36.04000 294.216
36.05000 298.766
36.06000 301.673
36.07000 299.636
36.08000 298.089
36.09000 297.286
36.10000 297.329
36.11000 297.376
36.12000 297.932
36.13000 298.857
36.14000 299.763
36.15000 301.307
36.16000 303.087
36.17000 304.685
36.18000 303.713
36.19000 301.911
36.20000 299.995
36.21000 297.188
36.22000 294.192
36.23000 291.655
36.24000 286.315
36.25000 281.530
36.26000 279.151
36.27000 284.478
36.28000 290.385
36.29000 295.647
36.30000 299.526
36.31000 303.359
36.32000 305.620
36.33000 299.242
36.34000 294.694
36.35000 293.524
36.36000 295.442
36.37000 297.354
36.38000 298.894
36.39000 300.213
36.40000 301.488
36.41000 299.038
36.42000 295.324
36.43000 292.146
36.44000 294.567
36.45000 298.479
36.46000 301.551
36.47000 299.418
36.48000 296.390
36.49000 293.924
36.50000 300.585
36.51000 306.796
36.52000 308.850
36.53000 299.908
36.54000 290.378
36.55000 285.651
36.56000 289.435
36.57000 293.383
36.58000 295.506
36.59000 308.595
36.60000 317.492
36.61000 315.739
36.62000 306.091
36.63000 296.649
36.64000 294.221
36.65000 295.238
36.66000 296.205
36.67000 296.544
36.68000 296.665
36.69000 296.985
36.70000 298.890
36.71000 301.140
36.72000 302.742
36.73000 301.114
36.74000 299.046
36.75000 297.435
36.76000 295.340
36.77000 293.642
36.78000 292.718
36.79000 293.489
36.80000 294.319
36.81000 298.208
36.82000 306.553
36.83000 314.934
36.84000 312.916
36.85000 301.195
36.86000 289.653
36.87000 290.347
36.88000 298.469
36.89000 306.366
36.90000 309.349
36.91000 310.336
36.92000 311.255
36.93000 309.681
36.94000 307.645
36.95000 306.147
36.96000 308.059
36.97000 310.570
36.98000 312.022
36.99000 309.180
37.00000 305.883
37.01000 303.443
37.02000 306.712
37.03000 309.493
37.04000 312.352
37.05000 315.351
37.06000 318.353
37.07000 318.700
37.08000 315.897
37.09000 313.096
37.10000 313.087
37.11000 315.174
37.12000 317.090
37.13000 312.841
37.14000 305.505
37.15000 298.864
37.16000 302.686
37.17000 310.022
37.18000 316.695
37.19000 312.902
37.20000 307.494
37.21000 303.016
37.22000 303.270
37.23000 304.185
37.24000 303.835
37.25000 299.278
37.26000 294.385
37.27000 290.969
37.28000 293.634
37.29000 295.816
37.30000 295.817
37.31000 292.578
37.32000 289.310
37.33000 291.107
37.34000 297.738
37.35000 304.313
37.36000 304.208
37.37000 300.046
37.38000 296.030
37.39000 295.324
37.40000 295.987
37.41000 296.299
37.42000 292.720
37.43000 288.065
37.44000 283.949
37.45000 289.137
37.46000 295.062
37.47000 299.315
37.48000 296.651
37.49000 293.235
37.50000 290.273
37.51000 288.561
37.52000 286.921
37.53000 285.850
37.54000 291.615
37.55000 295.957
37.56000 299.696
37.57000 302.707
37.58000 305.698
37.59000 304.601
37.60000 300.349
37.61000 296.170
37.62000 295.293
37.63000 296.075
37.64000 297.045
37.65000 300.947
37.66000 305.852
37.67000 309.407
37.68000 301.565
37.69000 291.144
37.70000 282.225
37.71000 279.297
37.72000 277.551
37.73000 277.319
37.74000 282.223
37.75000 287.549
37.76000 291.660
37.77000 293.014
37.78000 294.262
37.79000 295.017
37.80000 288.211
37.81000 283.306
37.82000 283.340
37.83000 288.188
37.84000 293.010
37.85000 295.822
37.86000 297.365
37.87000 298.862
37.88000 297.925
37.89000 296.061
37.90000 294.393
37.91000 294.946
37.92000 296.126
37.93000 296.822
37.94000 294.314
37.95000 291.218
37.96000 288.667
37.97000 299.371
37.98000 309.399
37.99000 315.821
38.00000 312.157
38.01000 307.893
38.02000 304.119
38.03000 301.263
38.04000 298.429
38.05000 296.860
38.06000 299.476
38.07000 301.285
38.08000 301.736
38.09000 301.119
38.10000 300.576
38.11000 303.009
38.12000 306.988
38.13000 310.791
38.14000 310.483
38.15000 308.861
38.16000 307.298
38.17000 306.246
38.18000 305.311
38.19000 304.926
38.20000 307.456
38.21000 310.414
38.22000 312.749
38.23000 314.183
38.24000 315.273
38.25000 314.015
38.26000 307.327
38.27000 300.420
38.28000 301.488
38.29000 314.872
38.30000 328.394
38.31000 333.829
38.32000 331.207
38.33000 328.607
38.34000 327.919
38.35000 328.460
38.36000 329.283
38.37000 336.993
38.38000 347.662
38.39000 357.666
38.40000 369.859
38.41000 381.535
38.42000 393.189
38.43000 404.695
38.44000 416.172
38.45000 428.910
38.46000 447.068
38.47000 465.848
38.48000 479.962
38.49000 525.728
38.50000 563.034
38.51000 595.124
38.52000 617.238
38.53000 639.109
38.54000 669.195
38.55000 709.647
38.56000 750.067
38.57000 799.051
38.58000 854.681
38.59000 910.218
38.60000 961.811
38.61000 1011.314
38.62000 1061.088
38.63000 1115.359
38.64000 1171.228
38.65000 1222.428
38.66000 1272.607
38.67000 1317.078
38.68000 1359.911
38.69000 1393.874
38.70000 1426.507
38.71000 1457.534
38.72000 1482.901
38.73000 1507.774
38.74000 1525.449
38.75000 1524.045
38.76000 1522.366
38.77000 1515.821
38.78000 1501.615
38.79000 1487.315
38.80000 1464.620
38.81000 1433.377
38.82000 1402.332
38.83000 1364.531
38.84000 1322.909
38.85000 1280.891
38.86000 1228.742
38.87000 1172.158
38.88000 1114.431
38.89000 1042.937
38.90000 967.409
38.91000 900.037
38.92000 852.015
38.93000 813.454
38.94000 774.652
38.95000 734.798
38.96000 694.820
38.97000 655.370
38.98000 617.452
38.99000 579.631
39.00000 554.423
39.01000 516.183
39.02000 487.624
39.03000 462.398
39.04000 441.466
39.05000 420.553
39.06000 401.141
39.07000 382.959
39.08000 365.036
39.09000 357.343
39.10000 355.235
39.11000 352.937
39.12000 347.366
39.13000 340.611
39.14000 333.559
39.15000 323.800
39.16000 313.391
39.17000 304.392
39.18000 299.807
39.19000 296.487
39.20000 295.383
39.21000 302.241
39.22000 309.813
39.23000 312.586
39.24000 303.837
39.25000 294.585
39.26000 288.855
39.27000 283.792
39.28000 280.159
39.29000 280.593
39.30000 285.262
39.31000 289.884
39.32000 289.702
39.33000 286.306
39.34000 282.996
39.35000 280.266
39.36000 277.908
39.37000 276.102
39.38000 281.159
39.39000 288.264
39.40000 294.252
39.41000 292.310
39.42000 288.819
39.43000 285.907
39.44000 277.492
39.45000 269.966
39.46000 264.533
39.47000 265.296
39.48000 266.467
39.49000 267.802
39.50000 269.465
39.51000 271.136
39.52000 272.087
39.53000 263.043
39.54000 256.722
39.55000 257.125
39.56000 263.155
39.57000 269.132
39.58000 272.569
39.59000 274.608
39.60000 276.567
39.61000 268.990
39.62000 258.605
39.63000 249.240
39.64000 249.402
39.65000 251.900
39.66000 255.136
39.67000 262.540
39.68000 270.597
39.69000 277.043
39.70000 282.525
39.71000 286.884
39.72000 289.088
39.73000 286.017
39.74000 282.705
39.75000 280.052
39.76000 278.476
39.77000 276.915
39.78000 276.111
39.79000 276.168
39.80000 276.194
39.81000 274.832
39.82000 272.523
39.83000 270.287
39.84000 270.099
39.85000 270.841
39.86000 271.542
39.87000 267.689
39.88000 262.887
39.89000 258.898
39.90000 260.811
39.91000 263.901
39.92000 265.974
39.93000 263.403
39.94000 260.258
39.95000 257.859
39.96000 272.961
39.97000 285.797
39.98000 291.467
39.99000 282.639
40.00000 273.395
40.01000 268.360
40.02000 268.970
40.03000 269.608
40.04000 265.862
40.05000 258.384
40.06000 251.000
40.07000 248.357
40.08000 248.370
40.09000 248.421
40.10000 249.156
40.11000 250.148
40.12000 251.064
40.13000 254.624
40.14000 258.407
40.15000 261.215
40.16000 258.388
40.17000 254.658
40.18000 252.544
40.19000 256.465
40.20000 260.958
40.21000 264.207
40.22000 267.231
40.23000 269.543
40.24000 271.474
40.25000 272.770
40.26000 274.056
40.27000 269.818
40.28000 259.578
40.29000 249.383
40.30000 246.138
40.31000 247.710
40.32000 249.301
40.33000 251.479
40.34000 253.926
40.35000 256.632
40.36000 262.728
40.37000 269.876
40.38000 276.306
40.39000 268.326
40.40000 258.762
40.41000 250.746
40.42000 249.945
40.43000 250.056
40.44000 250.306
40.45000 250.983
40.46000 251.690
40.47000 252.170
40.48000 253.642
40.49000 254.763
40.50000 255.316
40.51000 255.091
40.52000 254.861
40.53000 254.817
40.54000 254.937
40.55000 255.054
40.56000 255.930
40.57000 257.208
40.58000 258.361
40.59000 257.148
40.60000 255.028
40.61000 252.805
40.62000 249.553
40.63000 246.040
40.64000 242.973
40.65000 243.349
40.66000 244.153
40.67000 245.211
40.68000 247.238
40.69000 249.358
40.70000 250.766
40.71000 250.364
40.72000 249.873
40.73000 249.562
40.74000 252.539
40.75000 254.738
40.76000 254.811
40.77000 252.524
40.78000 250.250
40.79000 249.958
40.80000 251.074
40.81000 252.166
40.82000 252.436
40.83000 252.324
40.84000 252.188
40.85000 251.730
40.86000 251.170
40.87000 251.042
40.88000 254.200
40.89000 258.042
40.90000 261.282
40.91000 253.729
40.92000 246.253
40.93000 241.077
40.94000 243.103
40.95000 245.649
40.96000 246.191
40.97000 242.524
40.98000 238.723
40.99000 236.503
41.00000 242.678
41.01000 247.059
41.02000 247.786
41.03000 245.258
41.04000 242.769
41.05000 242.544
41.06000 243.637
41.07000 244.693
41.08000 246.828
41.09000 249.235
41.10000 251.290
41.11000 249.789
41.12000 247.363
41.13000 245.285
41.14000 245.307
41.15000 245.682
41.16000 245.985
41.17000 244.958
41.18000 244.012
41.19000 242.960
41.20000 241.630
41.21000 240.287
41.22000 239.736
41.23000 240.559
41.24000 241.406
41.25000 241.857
41.26000 239.020
41.27000 237.091
41.28000 235.873
41.29000 235.169
41.30000 234.580
41.31000 237.697
41.32000 242.594
41.33000 247.241
41.34000 246.491
41.35000 244.195
41.36000 241.691
41.37000 237.570
41.38000 233.106
41.39000 229.853
41.40000 232.478
41.41000 235.883
41.42000 238.520
41.43000 235.003
41.44000 231.845
41.45000 231.948
41.46000 239.028
41.47000 246.340
41.48000 249.574
41.49000 247.004
41.50000 244.392
41.51000 241.760
41.52000 239.114
41.53000 236.517
41.54000 236.975
41.55000 239.247
41.56000 241.318
41.57000 239.230
41.58000 235.489
41.59000 232.013
41.60000 230.805
41.61000 230.258
41.62000 230.253
41.63000 233.586
41.64000 237.491
41.65000 240.269
41.66000 238.584
41.67000 236.440
41.68000 234.865
41.69000 233.528
41.70000 232.505
41.71000 233.424
41.72000 237.777
41.73000 242.194
41.74000 243.356
41.75000 240.750
41.76000 238.147
41.77000 238.168
41.78000 240.112
41.79000 242.170
41.80000 248.124
41.81000 255.986
41.82000 263.012
41.83000 257.960
41.84000 248.940
41.85000 240.761
41.86000 243.660
41.87000 248.335
41.88000 251.138
41.89000 244.662
41.90000 236.924
41.91000 232.300
41.92000 237.801
41.93000 244.082
41.94000 248.435
41.95000 242.727
41.96000 238.167
41.97000 236.160
41.98000 237.857
41.99000 239.584
42.00000 236.449
42.01000 228.792
42.02000 221.207
42.03000 224.640
42.04000 234.537
42.05000 244.178
42.06000 248.289
42.07000 250.162
42.08000 251.301
42.09000 244.604
42.10000 235.788
42.11000 228.021
42.12000 230.480
42.13000 234.142
42.14000 237.183
42.15000 237.719
42.16000 237.990
42.17000 237.248
42.18000 233.782
42.19000 230.167
42.20000 227.826
42.21000 238.478
42.22000 246.463
42.23000 248.240
42.24000 242.680
42.25000 237.130
42.26000 235.990
42.27000 238.171
42.28000 240.313
42.29000 236.925
42.30000 230.997
42.31000 225.421
42.32000 225.111
42.33000 226.563
42.34000 227.922
42.35000 228.513
42.36000 228.935
42.37000 229.294
42.38000 228.762
42.39000 228.211
42.40000 227.888
42.41000 228.319
42.42000 228.810
42.43000 230.486
42.44000 234.791
42.45000 239.193
42.46000 241.829
42.47000 238.884
42.48000 236.757
42.49000 233.429
42.50000 228.960
42.51000 224.566
42.52000 225.691
42.53000 230.217
42.54000 234.606
42.55000 235.257
42.56000 234.415
42.57000 233.703
42.58000 234.420
42.59000 235.531
42.60000 236.409
42.61000 235.786
42.62000 234.894
42.63000 234.162
42.64000 233.150
42.65000 232.293
42.66000 231.440
42.67000 230.592
42.68000 229.746
42.69000 228.724
42.70000 227.381
42.71000 226.031
42.72000 225.292
42.73000 226.084
42.74000 226.638
42.75000 228.922
42.76000 232.537
42.77000 236.162
42.78000 240.143
42.79000 244.307
42.80000 248.278
42.81000 238.967
42.82000 226.122
42.83000 214.822
42.84000 216.498
42.85000 221.101
42.86000 225.987
42.87000 232.333
42.88000 238.888
42.89000 244.035
42.90000 236.938
42.91000 230.460
42.92000 226.048
42.93000 226.311
42.94000 226.753
42.95000 226.879
42.96000 226.529
42.97000 226.175
42.98000 223.623
42.99000 218.940
43.00000 214.341
43.01000 216.287
43.02000 222.350
43.03000 228.210
43.04000 229.345
43.05000 228.494
43.06000 227.698
43.07000 228.817
43.08000 230.321
43.09000 231.339
43.10000 229.151
43.11000 226.377
43.12000 223.650
43.13000 221.114
43.14000 218.600
43.15000 216.722
43.16000 224.828
43.17000 231.606
43.18000 233.869
43.19000 227.689
43.20000 221.316
43.21000 217.222
43.22000 215.935
43.23000 214.658
43.24000 217.553
43.25000 223.688
43.26000 229.666
43.27000 229.404
43.28000 225.910
43.29000 222.495
43.30000 220.337
43.31000 218.615
43.32000 217.043
43.33000 222.060
43.34000 227.863
43.35000 231.929
43.36000 226.828
43.37000 220.390
43.38000 215.952
43.39000 218.405
43.40000 221.438
43.41000 223.578
43.42000 229.200
43.43000 233.573
43.44000 235.940
43.45000 235.224
43.46000 234.473
43.47000 232.238
43.48000 228.532
43.49000 224.852
43.50000 221.749
43.51000 219.059
43.52000 216.542
43.53000 218.226
43.54000 221.710
43.55000 224.987
43.56000 225.855
43.57000 226.034
43.58000 226.192
43.59000 228.909
43.60000 231.681
43.61000 233.771
43.62000 232.943
43.63000 231.783
43.64000 229.763
43.65000 225.304
43.66000 220.696
43.67000 217.650
43.68000 220.819
43.69000 223.268
43.70000 222.913
43.71000 219.033
43.72000 215.153
43.73000 214.523
43.74000 216.496
43.75000 218.439
43.76000 215.694
43.77000 210.634
43.78000 205.968
43.79000 207.806
43.80000 211.947
43.81000 215.849
43.82000 217.640
43.83000 218.936
43.84000 220.052
43.85000 218.921
43.86000 217.678
43.87000 217.270
43.88000 219.790
43.89000 222.563
43.90000 224.189
43.91000 223.120
43.92000 221.938
43.93000 221.214
43.94000 221.518
43.95000 221.745
43.96000 222.146
43.97000 222.725
43.98000 223.290
43.99000 222.667
44.00000 221.266
44.01000 219.903
44.02000 220.576
44.03000 222.062
44.04000 223.336
44.05000 222.079
44.06000 220.083
44.07000 218.467
44.08000 219.478
44.09000 220.989
44.10000 222.243
44.11000 219.758
44.12000 217.343
44.13000 215.453
44.14000 215.086
44.15000 214.814
44.16000 215.388
44.17000 217.603
44.18000 219.861
44.19000 221.131
44.20000 222.887
44.21000 224.105
44.22000 224.322
44.23000 223.722
44.24000 223.180
44.25000 225.234
44.26000 228.684
44.27000 231.992
44.28000 227.719
44.29000 221.175
44.30000 215.340
44.31000 215.926
44.32000 218.049
44.33000 219.993
44.34000 220.949
44.35000 221.754
44.36000 222.395
44.37000 218.987
44.38000 215.948
44.39000 215.329
44.40000 220.497
44.41000 225.916
44.42000 228.385
44.43000 226.133
44.44000 223.821
44.45000 222.643
44.46000 231.363
44.47000 237.159
44.48000 237.624
44.49000 234.536
44.50000 231.454
44.51000 228.527
44.52000 225.669
44.53000 222.979
44.54000 224.027
44.55000 226.003
44.56000 227.000
44.57000 221.092
44.58000 213.839
44.59000 209.520
44.60000 218.287
44.61000 228.622
44.62000 236.462
44.63000 230.845
44.64000 225.742
44.65000 220.298
44.66000 214.178
44.67000 208.040
44.68000 208.735
44.69000 218.373
44.70000 228.039
44.71000 233.406
44.72000 235.182
44.73000 236.760
44.74000 229.009
44.75000 216.145
44.76000 204.506
44.77000 214.578
44.78000 232.629
44.79000 249.244
44.80000 246.037
44.81000 238.840
44.82000 232.470
44.83000 230.745
44.84000 229.745
44.85000 230.627
44.86000 238.376
44.87000 246.755
44.88000 252.772
44.89000 245.941
44.90000 240.271
44.91000 239.165
44.92000 245.502
44.93000 251.943
44.94000 257.431
44.95000 261.907
44.96000 266.359
44.97000 269.724
44.98000 272.318
44.99000 274.760
45.00000 273.011
45.01000 269.364
45.02000 266.143
45.03000 268.326
45.04000 272.149
45.05000 275.576
45.06000 277.133
45.07000 278.168
45.08000 279.110
45.09000 279.629
45.10000 280.095
45.11000 280.754
45.12000 281.988
45.13000 283.261
45.14000 284.120
45.15000 283.493
45.16000 282.995
45.17000 279.689
45.18000 272.634
45.19000 265.564
45.20000 261.297
45.21000 259.416
45.22000 257.559
45.23000 258.091
45.24000 259.909
45.25000 261.696
45.26000 262.913
45.27000 263.917
45.28000 264.304
45.29000 258.811
45.30000 251.853
45.31000 245.802
45.32000 245.982
45.33000 246.983
45.34000 247.897
45.35000 248.484
45.36000 249.040
45.37000 248.143
45.38000 243.634
45.39000 238.956
45.40000 236.019
45.41000 231.755
45.42000 228.658
45.43000 230.394
45.44000 237.360
45.45000 244.270
45.46000 244.096
45.47000 239.011
45.48000 234.043
45.49000 234.058
45.50000 236.273
45.51000 238.269
45.52000 237.407
45.53000 235.660
45.54000 233.791
45.55000 231.014
45.56000 228.054
45.57000 225.569
45.58000 225.171
45.59000 225.058
45.60000 225.426
45.61000 227.265
45.62000 229.207
45.63000 229.610
45.64000 226.853
45.65000 224.002
45.66000 222.354
45.67000 223.847
45.68000 224.905
45.69000 225.223
45.70000 224.896
45.71000 224.565
45.72000 223.989
45.73000 223.274
45.74000 222.586
45.75000 218.910
45.76000 214.387
45.77000 210.452
45.78000 212.286
45.79000 215.585
45.80000 218.367
45.81000 218.107
45.82000 217.350
45.83000 216.741
45.84000 213.895
45.85000 211.408
45.86000 211.968
45.87000 220.237
45.88000 228.883
45.89000 232.659
45.90000 228.187
45.91000 223.580
45.92000 221.160
45.93000 212.597
45.94000 206.829
45.95000 206.233
45.96000 209.294
45.97000 212.228
45.98000 211.259
45.99000 208.457
46.00000 205.804
46.01000 210.212
46.02000 216.315
46.03000 221.315
46.04000 217.954
46.05000 212.860
46.06000 208.496
46.07000 207.590
46.08000 207.130
46.09000 206.776
46.10000 207.919
46.11000 208.908
46.12000 208.479
46.13000 205.081
46.14000 201.589
46.15000 198.725
46.16000 196.731
46.17000 194.745
46.18000 196.279
46.19000 200.932
46.20000 205.538
46.21000 207.427
46.22000 207.740
46.23000 207.940
46.24000 205.898
46.25000 202.984
46.26000 200.284
46.27000 203.932
46.28000 208.696
46.29000 212.919
46.30000 213.890
46.31000 214.318
46.32000 212.513
46.33000 202.068
46.34000 190.764
46.35000 182.508
46.36000 192.714
46.37000 201.304
46.38000 205.131
46.39000 200.729
46.40000 196.183
46.41000 194.615
46.42000 196.411
46.43000 198.203
46.44000 197.444
46.45000 194.869
46.46000 192.417
46.47000 193.904
46.48000 197.276
46.49000 200.677
46.50000 204.480
46.51000 208.413
46.52000 211.968
46.53000 206.240
46.54000 199.475
46.55000 193.824
46.56000 193.563
46.57000 194.015
46.58000 195.237
46.59000 198.909
46.60000 202.762
46.61000 205.412
46.62000 204.623
46.63000 203.945
46.64000 204.119
46.65000 205.500
46.66000 206.889
46.67000 207.402
46.68000 207.121
46.69000 206.843
46.70000 204.338
46.71000 200.597
46.72000 197.095
46.73000 198.493
46.74000 201.831
46.75000 204.733
46.76000 203.130
46.77000 200.336
46.78000 197.884
46.79000 194.932
46.80000 192.323
46.81000 190.455
46.82000 191.512
46.83000 192.868
46.84000 194.410
46.85000 196.439
46.86000 198.494
46.87000 199.813
46.88000 197.157
46.89000 195.167
46.90000 192.362
46.91000 188.619
46.92000 184.921
46.93000 189.392
46.94000 199.872
46.95000 210.146
46.96000 209.633
46.97000 204.072
46.98000 198.891
46.99000 199.184
47.00000 201.266
47.01000 202.811
47.02000 200.076
47.03000 196.417
47.04000 193.312
47.05000 192.531
47.06000 192.139
47.07000 191.501
47.08000 190.065
47.09000 188.567
47.10000 189.497
47.11000 195.699
47.12000 202.085
47.13000 205.871
47.14000 196.329
47.15000 189.503
47.16000 187.442
47.17000 189.793
47.18000 192.113
47.19000 192.407
47.20000 191.479
47.21000 190.582
47.22000 190.488
47.23000 190.707
47.24000 190.965
47.25000 191.647
47.26000 192.442
47.27000 193.055
47.28000 192.515
47.29000 191.775
47.30000 191.170
47.31000 195.455
47.32000 199.380
47.33000 199.627
47.34000 190.034
47.35000 179.904
47.36000 177.547
47.37000 189.133
47.38000 200.998
47.39000 207.418
47.40000 200.815
47.41000 196.293
47.42000 194.645
47.43000 195.155
47.44000 195.621
47.45000 194.558
47.46000 192.736
47.47000 191.002
47.48000 188.767
47.49000 186.544
47.50000 184.789
47.51000 186.853
47.52000 189.757
47.53000 192.503
47.54000 194.453
47.55000 196.293
47.56000 197.729
47.57000 188.798
47.58000 181.022
47.59000 177.126
47.60000 181.816
47.61000 186.817
47.62000 187.409
47.63000 181.499
47.64000 175.531
47.65000 177.133
47.66000 185.894
47.67000 194.569
47.68000 197.068
47.69000 195.771
47.70000 194.327
47.71000 189.585
47.72000 183.489
47.73000 177.801
47.74000 181.316
47.75000 186.790
47.76000 191.482
47.77000 191.152
47.78000 189.927
47.79000 188.195
47.80000 184.385
47.81000 180.352
47.82000 177.357
47.83000 182.554
47.84000 186.952
47.85000 189.198
47.86000 187.510
47.87000 185.738
47.88000 184.449
47.89000 183.738
47.90000 183.031
47.91000 184.449
47.92000 187.477
47.93000 190.336
47.94000 186.919
47.95000 180.323
47.96000 174.195
47.97000 175.248
47.98000 178.740
47.99000 181.922
48.00000 180.532
48.01000 178.391
48.02000 176.455
48.03000 175.575
48.04000 174.845
48.05000 175.286
48.06000 179.669
48.07000 184.372
48.08000 187.666
48.09000 180.375
48.10000 174.558
48.11000 171.671
48.12000 173.191
48.13000 174.756
48.14000 176.549
48.15000 178.565
48.16000 180.564
48.17000 181.725
48.18000 182.350
48.19000 183.053
48.20000 185.583
48.21000 188.878
48.22000 191.674
48.23000 188.859
48.24000 184.474
48.25000 180.589
48.26000 183.686
48.27000 187.465
48.28000 190.085
48.29000 187.854
48.30000 185.088
48.31000 182.774
48.32000 181.720
48.33000 180.740
48.34000 180.097
48.35000 181.754
48.36000 183.011
48.37000 183.007
48.38000 181.455
48.39000 179.916
48.40000 182.522
48.41000 188.367
48.42000 194.116
48.43000 190.180
48.44000 181.535
48.45000 173.559
48.46000 176.185
48.47000 182.481
48.48000 187.962
48.49000 186.455
48.50000 183.347
48.51000 180.681
48.52000 177.056
48.53000 173.876
48.54000 171.318
48.55000 170.897
48.56000 170.654
48.57000 172.500
48.58000 179.143
48.59000 185.976
48.60000 190.129
48.61000 185.839
48.62000 182.710
48.63000 181.799
48.64000 183.079
48.65000 184.352
48.66000 184.946
48.67000 185.108
48.68000 185.266
48.69000 184.145
48.70000 182.562
48.71000 181.019
48.72000 179.935
48.73000 178.983
48.74000 177.849
48.75000 175.496
48.76000 172.917
48.77000 170.786
48.78000 174.303
48.79000 177.731
48.80000 180.885
48.81000 183.268
48.82000 185.604
48.83000 185.911
48.84000 182.366
48.85000 178.729
48.86000 176.705
48.87000 179.711
48.88000 181.788
48.89000 179.868
48.90000 174.760
48.91000 169.772
48.92000 169.750
48.93000 172.339
48.94000 174.817
48.95000 177.539
48.96000 180.154
48.97000 182.305
48.98000 180.374
48.99000 177.488
49.00000 175.850
49.01000 180.908
49.02000 186.960
49.03000 191.752
49.04000 188.474
49.05000 185.282
49.06000 183.131
49.07000 183.418
49.08000 183.805
49.09000 184.429
49.10000 185.423
49.11000 186.421
49.12000 186.923
49.13000 190.691
49.14000 193.153
49.15000 190.700
49.16000 185.045
49.17000 179.566
49.18000 178.533
49.19000 179.432
49.20000 180.276
49.21000 182.240
49.22000 184.328
49.23000 186.042
49.24000 185.186
49.25000 183.843
49.26000 182.067
49.27000 178.411
49.28000 174.536
49.29000 171.614
49.30000 181.510
49.31000 189.890
49.32000 193.912
49.33000 189.503
49.34000 184.880
49.35000 180.343
49.36000 175.915
49.37000 171.494
49.38000 170.826
49.39000 173.204
49.40000 175.534
49.41000 175.742
49.42000 174.813
49.43000 174.023
49.44000 175.595
49.45000 178.015
49.46000 180.236
49.47000 178.261
49.48000 175.607
49.49000 173.549
49.50000 174.757
49.51000 176.461
49.52000 178.374
49.53000 181.030
49.54000 183.752
49.55000 185.694
49.56000 177.978
49.57000 171.778
49.58000 168.670
49.59000 170.492
49.60000 172.377
49.61000 174.783
49.62000 177.728
49.63000 180.654
49.64000 179.661
49.65000 176.114
49.66000 172.675
49.67000 172.090
49.68000 172.768
49.69000 173.191
49.70000 170.480
49.71000 166.840
49.72000 163.587
49.73000 167.196
49.74000 171.500
49.75000 174.530
49.76000 171.900
49.77000 168.594
49.78000 166.590
49.79000 168.410
49.80000 170.479
49.81000 171.863
49.82000 172.906
49.83000 173.673
49.84000 176.055
49.85000 180.545
49.86000 185.038
49.87000 186.784
49.88000 186.250
49.89000 185.722
49.90000 183.501
49.91000 180.442
49.92000 177.448
49.93000 175.597
49.94000 174.164
49.95000 173.214
49.96000 176.720
49.97000 181.312
49.98000 185.289
49.99000 178.265
50.00000 170.835
50.01000 166.254
50.02000 172.031
50.03000 178.753
50.04000 182.612
50.05000 179.519
50.06000 176.114
50.07000 173.995
50.08000 169.157
50.09000 165.645
50.10000 165.751
50.11000 169.673
50.12000 173.565
50.13000 174.126
50.14000 172.432
50.15000 170.779
50.16000 168.301
50.17000 165.579
50.18000 163.439
50.19000 168.648
50.20000 176.078
50.21000 182.789
50.22000 184.326
50.23000 184.838
50.24000 185.266
50.25000 184.663
50.26000 184.058
50.27000 183.766
50.28000 184.411
50.29000 185.118
50.30000 184.518
50.31000 181.293
50.32000 177.995
50.33000 176.107
50.34000 173.686
50.35000 171.997
50.36000 172.596
50.37000 175.136
50.38000 177.618
50.39000 177.170
50.40000 175.092
50.41000 173.093
50.42000 176.052
50.43000 180.559
50.44000 184.463
50.45000 182.632
50.46000 179.378
50.47000 176.461
50.48000 175.477
50.49000 174.799
50.50000 174.255
50.51000 175.290
50.52000 176.249
50.53000 177.126
50.54000 177.802
50.55000 178.469
50.56000 180.920
50.57000 186.326
50.58000 191.777
50.59000 194.604
50.60000 186.831
50.61000 181.635
50.62000 182.869
50.63000 188.542
50.64000 194.004
50.65000 193.381
50.66000 189.961
50.67000 186.731
50.68000 190.554
50.69000 196.057
50.70000 200.858
50.71000 200.479
50.72000 199.053
50.73000 197.437
50.74000 194.942
50.75000 192.336
50.76000 190.342
50.77000 189.452
50.78000 188.810
50.79000 187.651
50.80000 185.433
50.81000 183.183
50.82000 184.683
50.83000 191.270
50.84000 197.881
50.85000 196.355
50.86000 187.801
50.87000 179.411
50.88000 179.771
50.89000 185.093
50.90000 190.183
50.91000 190.870
50.92000 189.883
50.93000 188.971
50.94000 185.648
50.95000 182.118
50.96000 179.168
50.97000 179.615
50.98000 180.615
50.99000 183.004
51.00000 190.644
51.01000 198.791
51.02000 204.701
51.03000 195.015
51.04000 186.989
51.05000 180.136
51.06000 175.264
51.07000 170.423
51.08000 169.632
51.09000 173.300
51.10000 176.954
51.11000 177.255
51.12000 175.214
51.13000 173.160
51.14000 170.686
51.15000 168.016
51.16000 165.758
51.17000 169.037
51.18000 174.054
51.19000 178.574
51.20000 179.710
51.21000 180.094
51.22000 179.319
51.23000 173.074
51.24000 166.126
51.25000 162.809
51.26000 170.783
51.27000 179.564
51.28000 185.558
51.29000 179.361
51.30000 174.442
51.31000 172.112
51.32000 173.364
51.33000 174.637
51.34000 173.206
51.35000 169.386
51.36000 165.608
51.37000 164.935
51.38000 166.029
51.39000 167.142
51.40000 168.619
51.41000 170.236
51.42000 171.594
51.43000 170.358
51.44000 168.453
51.45000 166.787
51.46000 166.387
51.47000 166.225
51.48000 165.829
51.49000 164.527
51.50000 163.136
51.51000 163.700
51.52000 169.286
51.53000 175.125
51.54000 178.841
51.55000 166.647
51.56000 157.586
51.57000 155.144
51.58000 160.144
51.59000 165.151
51.60000 170.194
51.61000 175.263
51.62000 180.226
51.63000 175.445
51.64000 166.385
51.65000 158.115
51.66000 160.775
51.67000 166.932
51.68000 171.866
51.69000 167.342
51.70000 160.826
51.71000 155.320
51.72000 158.603
51.73000 162.317
51.74000 164.659
51.75000 162.653
51.76000 160.327
51.77000 159.287
51.78000 160.978
51.79000 162.760
51.80000 163.805
51.81000 174.438
51.82000 181.974
51.83000 179.010
51.84000 166.563
51.85000 154.304
51.86000 153.368
51.87000 159.103
51.88000 164.644
51.89000 166.752
51.90000 167.462
51.91000 167.937
51.92000 165.994
51.93000 163.415
51.94000 161.027
51.95000 159.807
51.96000 158.786
51.97000 157.956
51.98000 161.242
51.99000 164.265
52.00000 166.179
52.01000 165.191
52.02000 164.051
52.03000 162.127
52.04000 158.828
52.05000 155.503
52.06000 153.725
52.07000 159.568
52.08000 163.532
52.09000 162.850
52.10000 158.764
52.11000 154.770
52.12000 153.815
52.13000 154.339
52.14000 154.836
52.15000 163.422
52.16000 173.787
52.17000 182.188
52.18000 175.032
52.19000 164.532
52.20000 155.692
52.21000 155.018
52.22000 155.444
52.23000 155.775
52.24000 161.628
52.25000 166.616
52.26000 170.049
52.27000 170.113
52.28000 170.061
52.29000 168.521
52.30000 164.835
52.31000 161.132
52.32000 157.439
52.33000 153.757
52.34000 150.141
52.35000 150.799
52.36000 154.025
52.37000 157.063
52.38000 156.102
52.39000 153.534
52.40000 151.143
52.41000 149.875
52.42000 149.001
52.43000 148.628
52.44000 151.389
52.45000 154.694
52.46000 158.108
52.47000 161.956
52.48000 165.850
52.49000 168.722
52.50000 167.166
52.51000 165.775
52.52000 165.436
52.53000 166.975
52.54000 168.552
52.55000 169.393
52.56000 169.369
52.57000 169.343
52.58000 165.600
52.59000 159.124
52.60000 152.845
52.61000 153.484
52.62000 157.548
52.63000 161.247
52.64000 159.542
52.65000 156.042
52.66000 152.863
52.67000 152.799
52.68000 153.345
52.69000 153.885
52.70000 154.392
52.71000 154.894
52.72000 155.730
52.73000 157.664
52.74000 159.684
52.75000 161.089
52.76000 161.203
52.77000 161.254
52.78000 160.354
52.79000 158.060
52.80000 155.753
52.81000 156.261
52.82000 159.421
52.83000 162.554
52.84000 160.502
52.85000 155.375
52.86000 150.607
52.87000 153.730
52.88000 160.086
52.89000 165.513
52.90000 160.841
52.91000 153.407
52.92000 146.845
52.93000 150.808
52.94000 155.839
52.95000 158.349
52.96000 150.560
52.97000 141.666
52.98000 137.557
52.99000 146.443
53.00000 156.060
53.01000 162.314
53.02000 156.437
53.03000 151.942
53.04000 151.090
53.05000 154.597
53.06000 158.097
53.07000 158.098
53.08000 155.430
53.09000 152.810
53.10000 152.529
53.11000 153.397
53.12000 154.540
53.13000 159.862
53.14000 166.600
53.15000 172.097
53.16000 167.275
53.17000 160.144
53.18000 154.053
53.19000 154.717
53.20000 156.080
53.21000 157.418
53.22000 158.671
53.23000 159.916
53.24000 160.749
53.25000 160.655
53.26000 160.526
53.27000 160.448
53.28000 161.772
53.29000 162.724
53.30000 165.288
53.31000 169.403
53.32000 173.479
53.33000 174.513
53.34000 173.649
53.35000 172.810
53.36000 173.226
53.37000 174.116
53.38000 174.717
53.39000 172.077
53.40000 168.533
53.41000 165.316
53.42000 164.240
53.43000 163.552
53.44000 162.987
53.45000 159.496
53.46000 156.362
53.47000 154.695
53.48000 157.084
53.49000 159.710
53.50000 160.796
53.51000 159.023
53.52000 157.186
53.53000 156.175
53.54000 164.800
53.55000 170.738
53.56000 171.581
53.57000 168.459
53.58000 165.402
53.59000 164.858
53.60000 165.607
53.61000 166.322
53.62000 164.691
53.63000 162.423
53.64000 160.759
53.65000 164.252
53.66000 168.923
53.67000 172.391
53.68000 169.561
53.69000 165.821
53.70000 162.875
53.71000 165.630
53.72000 168.217
53.73000 168.916
53.74000 165.294
53.75000 161.503
53.76000 159.914
53.77000 161.691
53.78000 163.504
53.79000 167.189
53.80000 172.715
53.81000 178.142
53.82000 175.361
53.83000 167.357
53.84000 159.500
53.85000 155.170
53.86000 152.339
53.87000 149.688
53.88000 155.638
53.89000 163.274
53.90000 169.265
53.91000 164.251
53.92000 157.200
53.93000 152.567
53.94000 158.217
53.95000 165.029
53.96000 170.134
53.97000 163.765
53.98000 158.252
53.99000 155.074
54.00000 156.312
54.01000 157.656
54.02000 158.648
54.03000 159.203
54.04000 159.755
54.05000 157.711
54.06000 153.624
54.07000 149.677
54.08000 151.457
54.09000 156.239
54.10000 160.834
54.11000 162.384
54.12000 162.865
54.13000 163.305
54.14000 163.169
54.15000 162.928
54.16000 162.888
54.17000 163.918
54.18000 165.107
54.19000 165.335
54.20000 162.219
54.21000 158.815
54.22000 156.405
54.23000 155.711
54.24000 155.237
54.25000 154.950
54.26000 154.954
54.27000 154.962
54.28000 154.691
54.29000 154.141
54.30000 153.594
54.31000 154.354
54.32000 155.937
54.33000 157.501
54.34000 158.609
54.35000 159.520
54.36000 160.391
54.37000 160.792
54.38000 161.058
54.39000 161.294
54.40000 160.112
54.41000 158.850
54.42000 157.395
54.43000 155.097
54.44000 152.701
54.45000 152.333
54.46000 157.790
54.47000 163.611
54.48000 167.475
54.49000 162.879
54.50000 159.325
54.51000 157.677
54.52000 158.457
54.53000 159.250
54.54000 161.559
54.55000 165.099
54.56000 168.586
54.57000 165.595
54.58000 159.335
54.59000 153.654
54.60000 157.748
54.61000 165.343
54.62000 171.869
54.63000 168.809
54.64000 163.471
54.65000 158.865
54.66000 161.320
54.67000 164.310
54.68000 165.104
54.69000 158.099
54.70000 150.407
54.71000 146.903
54.72000 153.352
54.73000 160.225
54.74000 164.462
54.75000 157.633
54.76000 152.631
54.77000 152.486
54.78000 157.335
54.79000 162.154
54.80000 163.970
54.81000 163.799
54.82000 163.632
54.83000 161.399
54.84000 158.400
54.85000 155.598
54.86000 155.196
54.87000 155.503
54.88000 156.120
54.89000 158.907
54.90000 162.114
54.91000 164.781
54.92000 161.347
54.93000 157.904
54.94000 155.560
54.95000 156.437
54.96000 157.522
54.97000 157.808
54.98000 156.526
54.99000 155.203
55.00000 154.454
55.01000 159.867
55.02000 163.641
55.03000 163.254
55.04000 159.424
55.05000 155.705
55.06000 157.083
55.07000 161.235
55.08000 165.219
55.09000 166.623
55.10000 167.055
55.11000 167.280
55.12000 165.608
55.13000 163.476
55.14000 161.745
55.15000 162.248
55.16000 163.098
55.17000 163.776
55.18000 163.493
55.19000 163.194
55.20000 164.487
55.21000 169.633
55.22000 174.950
55.23000 176.938
55.24000 173.537
55.25000 170.061
55.26000 168.281
55.27000 173.749
55.28000 177.419
55.29000 180.277
55.30000 182.589
55.31000 184.751
55.32000 182.813
55.33000 179.031
55.34000 175.468
55.35000 179.575
55.36000 185.451
55.37000 190.595
55.38000 190.499
55.39000 189.370
55.40000 187.783
55.41000 184.127
55.42000 180.218
55.43000 177.244
55.44000 182.940
55.45000 187.877
55.46000 189.816
55.47000 185.754
55.48000 181.524
55.49000 183.416
55.50000 193.420
55.51000 203.453
55.52000 211.180
55.53000 216.943
55.54000 222.736
55.55000 230.010
55.56000 238.104
55.57000 246.146
55.58000 253.259
55.59000 260.025
55.60000 266.263
55.61000 270.814
55.62000 274.516
55.63000 279.201
55.64000 289.492
55.65000 300.669
55.66000 313.333
55.67000 331.488
55.68000 350.155
55.69000 363.608
55.70000 372.244
55.71000 378.689
55.72000 390.009
55.73000 409.371
55.74000 428.853
55.75000 447.079
55.76000 463.957
55.77000 480.752
55.78000 496.144
55.79000 510.403
55.80000 525.112
55.81000 552.659
55.82000 586.087
55.83000 617.874
55.84000 628.426
55.85000 632.460
55.86000 636.083
55.87000 671.371
55.88000 707.825
55.89000 739.791
55.90000 751.076
55.91000 759.779
55.92000 772.084
55.93000 795.335
55.94000 819.340
55.95000 835.599
55.96000 830.308
55.97000 825.893
55.98000 820.321
55.99000 813.187
56.00000 806.053
56.01000 805.821
56.02000 811.541
56.03000 817.192
56.04000 822.395
56.05000 827.222
56.06000 830.860
56.07000 812.144
56.08000 784.962
56.09000 758.235
56.10000 735.938
56.11000 714.757
56.12000 696.301
56.13000 680.290
56.14000 666.947
56.15000 651.655
56.16000 629.028
56.17000 605.696
56.18000 581.720
56.19000 556.125
56.20000 530.451
56.21000 514.256
56.22000 501.442
56.23000 492.203
56.24000 478.671
56.25000 460.432
56.26000 442.174
56.27000 421.586
56.28000 399.364
56.29000 377.638
56.30000 357.202
56.31000 338.188
56.32000 319.833
56.33000 310.279
56.34000 303.478
56.35000 296.326
56.36000 286.536
56.37000 276.203
56.38000 267.509
56.39000 256.741
56.40000 247.540
56.41000 238.220
56.42000 228.533
56.43000 218.820
56.44000 212.694
56.45000 214.018
56.46000 215.574
56.47000 216.477
56.48000 202.658
56.49000 192.896
56.50000 189.579
56.51000 191.937
56.52000 194.259
56.53000 194.528
56.54000 193.616
56.55000 192.736
56.56000 193.796
56.57000 195.496
56.58000 196.448
56.59000 189.933
56.60000 181.498
56.61000 173.706
56.62000 169.745
56.63000 166.418
56.64000 163.729
56.65000 168.114
56.66000 172.248
56.67000 174.709
56.68000 172.889
56.69000 170.855
56.70000 167.860
56.71000 163.219
56.72000 158.550
56.73000 156.082
56.74000 158.955
56.75000 160.894
56.76000 160.507
56.77000 158.455
56.78000 156.449
56.79000 155.849
56.80000 155.919
56.81000 155.984
56.82000 155.731
56.83000 155.403
56.84000 155.126
56.85000 155.240
56.86000 155.437
56.87000 155.271
56.88000 153.363
56.89000 151.227
56.90000 149.578
56.91000 149.183
56.92000 148.943
56.93000 148.242
56.94000 146.566
56.95000 144.859
56.96000 145.582
56.97000 149.725
56.98000 153.890
56.99000 157.844
57.00000 161.606
57.01000 165.283
57.02000 163.977
57.03000 159.744
57.04000 155.534
57.05000 151.783
57.06000 148.213
57.07000 144.899
57.08000 146.905
57.09000 149.971
57.10000 152.741
57.11000 153.714
57.12000 154.383
57.13000 155.499
57.14000 158.367
57.15000 161.413
57.16000 163.645
57.17000 160.565
57.18000 157.973
57.19000 154.130
57.20000 148.102
57.21000 142.033
57.22000 139.662
57.23000 141.521
57.24000 143.378
57.25000 144.525
57.26000 145.149
57.27000 145.782
57.28000 146.688
57.29000 147.727
57.30000 148.709
57.31000 148.879
57.32000 148.786
57.33000 148.701
57.34000 150.030
57.35000 151.467
57.36000 151.695
57.37000 146.000
57.38000 139.510
57.39000 135.231
57.40000 138.065
57.41000 141.437
57.42000 143.766
57.43000 141.751
57.44000 140.127
57.45000 140.971
57.46000 145.357
57.47000 149.770
57.48000 150.124
57.49000 146.750
57.50000 143.409
57.51000 144.728
57.52000 148.750
57.53000 152.596
57.54000 152.712
57.55000 151.333
57.56000 149.920
57.57000 148.132
57.58000 146.244
57.59000 144.583
57.60000 146.453
57.61000 148.588
57.62000 150.128
57.63000 149.295
57.64000 148.215
57.65000 146.783
57.66000 144.415
57.67000 141.997
57.68000 140.437
57.69000 136.141
57.70000 132.964
57.71000 132.401
57.72000 134.890
57.73000 137.386
57.74000 140.271
57.75000 143.446
57.76000 146.560
57.77000 146.200
57.78000 144.200
57.79000 142.453
57.80000 144.401
57.81000 147.571
57.82000 150.196
57.83000 148.409
57.84000 145.658
57.85000 143.318
57.86000 142.022
57.87000 141.054
57.88000 140.195
57.89000 139.689
57.90000 139.211
57.91000 139.000
57.92000 139.375
57.93000 139.771
57.94000 140.007
57.95000 135.406
57.96000 132.116
57.97000 132.672
57.98000 136.835
57.99000 140.988
58.00000 144.333
58.01000 147.187
58.02000 149.951
58.03000 145.303
58.04000 138.045
58.05000 131.466
58.06000 132.240
58.07000 135.018
58.08000 137.641
58.09000 139.284
58.10000 140.754
58.11000 141.957
58.12000 140.699
58.13000 139.452
58.14000 138.891
58.15000 140.182
58.16000 141.576
58.17000 141.917
58.18000 140.347
58.19000 138.737
58.20000 137.860
58.21000 137.633
58.22000 137.477
58.23000 137.296
58.24000 137.095
58.25000 136.901
58.26000 136.976
58.27000 137.187
58.28000 137.388
58.29000 137.569
58.30000 137.730
58.31000 137.872
58.32000 137.851
58.33000 137.793
58.34000 137.715
58.35000 137.529
58.36000 137.329
58.37000 137.172
58.38000 137.406
58.39000 137.619
58.40000 139.176
58.41000 143.742
58.42000 148.421
58.43000 149.602
58.44000 145.562
58.45000 141.472
58.46000 137.685
58.47000 134.189
58.48000 130.748
58.49000 131.429
58.50000 134.673
58.51000 137.839
58.52000 139.227
58.53000 139.876
58.54000 140.482
58.55000 140.034
58.56000 139.363
58.57000 138.613
58.58000 137.355
58.59000 136.006
58.60000 134.636
58.61000 133.180
58.62000 131.714
58.63000 130.622
58.64000 136.487
58.65000 141.366
58.66000 142.457
58.67000 136.543
58.68000 130.475
58.69000 128.076
58.70000 130.142
58.71000 132.214
58.72000 131.191
58.73000 127.787
58.74000 124.526
58.75000 126.766
58.76000 131.824
58.77000 136.628
58.78000 137.431
58.79000 136.861
58.80000 136.340
58.81000 138.735
58.82000 141.448
58.83000 143.344
58.84000 140.977
58.85000 137.997
58.86000 135.249
58.87000 133.294
58.88000 131.404
58.89000 130.075
58.90000 126.733
58.91000 124.141
58.92000 124.385
58.93000 128.943
58.94000 133.547
58.95000 136.502
58.96000 137.841
58.97000 139.169
58.98000 137.963
58.99000 135.197
59.00000 132.558
59.01000 132.942
59.02000 134.605
59.03000 136.022
59.04000 134.619
59.05000 132.417
59.06000 130.463
59.07000 132.548
59.08000 135.000
59.09000 137.489
59.10000 140.132
59.11000 142.793
59.12000 143.793
59.13000 140.126
59.14000 136.181
59.15000 133.582
59.16000 137.391
59.17000 140.308
59.18000 140.901
59.19000 138.607
59.20000 136.312
59.21000 135.860
59.22000 136.867
59.23000 137.857
59.24000 134.115
59.25000 128.098
59.26000 122.463
59.27000 123.041
59.28000 125.794
59.29000 128.301
59.30000 128.666
59.31000 128.535
59.32000 128.422
59.33000 130.051
59.34000 131.646
59.35000 133.278
59.36000 135.036
59.37000 136.805
59.38000 137.587
59.39000 136.078
59.40000 134.476
59.41000 133.497
59.42000 128.846
59.43000 125.490
59.44000 126.032
59.45000 130.481
59.46000 134.922
59.47000 138.776
59.48000 142.251
59.49000 145.630
59.50000 143.683
59.51000 139.644
59.52000 135.842
59.53000 134.832
59.54000 134.628
59.55000 134.095
59.56000 131.319
59.57000 128.120
59.58000 125.471
59.59000 125.798
59.60000 126.352
59.61000 127.874
59.62000 132.168
59.63000 136.633
59.64000 137.766
59.65000 132.500
59.66000 127.075
59.67000 124.037
59.68000 127.269
59.69000 129.518
59.70000 129.775
59.71000 128.423
59.72000 127.140
59.73000 128.839
59.74000 132.124
59.75000 135.271
59.76000 136.125
59.77000 136.158
59.78000 136.042
59.79000 134.588
59.80000 132.818
59.81000 131.234
59.82000 130.664
59.83000 130.248
59.84000 129.917
59.85000 130.600
59.86000 131.221
59.87000 131.794
59.88000 132.252
59.89000 132.705
59.90000 133.315
59.91000 134.172
59.92000 135.033
59.93000 135.469
59.94000 134.220
59.95000 133.380
59.96000 132.213
59.97000 130.830
59.98000 129.385
59.99000 126.331
60.00000 122.569
60.01000 119.033
60.02000 120.674
60.03000 123.564
60.04000 126.024
60.05000 125.483
60.06000 124.364
60.07000 123.955
60.08000 126.674
60.09000 129.763
60.10000 132.100
60.11000 132.409
60.12000 132.550
60.13000 133.001
60.14000 134.058
60.15000 135.132
60.16000 134.390
60.17000 131.301
60.18000 128.207
60.19000 128.778
60.20000 132.358
60.21000 135.858
60.22000 135.714
60.23000 133.593
60.24000 131.502
60.25000 129.926
60.26000 128.538
60.27000 127.262
60.28000 128.812
60.29000 130.804
60.30000 132.398
60.31000 131.777
60.32000 130.814
60.33000 130.512
60.34000 132.592
60.35000 134.888
60.36000 136.531
60.37000 134.462
60.38000 132.758
60.39000 132.502
60.40000 134.586
60.41000 136.700
60.42000 135.272
60.43000 130.136
60.44000 125.029
60.45000 124.500
60.46000 127.013
60.47000 129.561
60.48000 133.024
60.49000 136.899
60.50000 140.211
60.51000 136.505
60.52000 130.693
60.53000 125.490
60.54000 128.968
60.55000 133.491
60.56000 137.094
60.57000 136.563
60.58000 135.531
60.59000 134.424
60.60000 133.095
60.61000 131.752
60.62000 130.849
60.63000 135.406
60.64000 138.903
60.65000 138.992
60.66000 134.582
60.67000 130.154
60.68000 127.713
60.69000 126.942
60.70000 126.182
60.71000 130.207
60.72000 136.696
60.73000 142.729
60.74000 140.542
60.75000 135.309
60.76000 130.982
60.77000 135.172
60.78000 141.461
60.79000 146.919
60.80000 139.479
60.81000 131.406
60.82000 125.562
60.83000 127.911
60.84000 131.022
60.85000 133.545
60.86000 134.626
60.87000 135.640
60.88000 136.274
60.89000 132.487
60.90000 129.707
60.91000 128.795
60.92000 129.880
60.93000 130.992
60.94000 135.184
60.95000 141.489
60.96000 147.644
60.97000 146.518
60.98000 142.263
60.99000 138.380
61.00000 139.275
61.01000 141.633
61.02000 143.666
61.03000 143.328
61.04000 142.516
61.05000 141.835
61.06000 139.370
61.07000 137.136
61.08000 136.129
61.09000 138.835
61.10000 141.796
61.11000 142.087
61.12000 136.955
61.13000 131.666
61.14000 128.623
61.15000 130.550
61.16000 131.919
61.17000 134.898
61.18000 139.261
61.19000 143.520
61.20000 142.354
61.21000 138.135
61.22000 134.073
61.23000 132.486
61.24000 131.872
61.25000 131.301
61.26000 131.143
61.27000 131.089
61.28000 131.553
61.29000 135.022
61.30000 138.976
61.31000 142.156
61.32000 134.526
61.33000 127.502
61.34000 124.009
61.35000 129.354
61.36000 135.121
61.37000 138.391
61.38000 137.474
61.39000 136.491
61.40000 135.978
61.41000 134.982
61.42000 134.319
61.43000 135.049
61.44000 136.754
61.45000 138.530
61.46000 142.400
61.47000 147.245
61.48000 151.826
61.49000 152.866
61.50000 152.807
61.51000 153.234
61.52000 157.299
61.53000 162.108
61.54000 167.720
61.55000 177.096
61.56000 186.951
61.57000 194.516
61.58000 205.338
61.59000 214.074
61.60000 222.962
61.61000 232.166
61.62000 241.380
61.63000 246.746
61.64000 246.823
61.65000 246.867
61.66000 246.793
61.67000 246.616
61.68000 246.468
61.69000 247.965
61.70000 250.407
61.71000 252.644
61.72000 250.920
61.73000 247.671
61.74000 244.665
61.75000 244.218
61.76000 244.406
61.77000 242.954
61.78000 231.779
61.79000 219.001
61.80000 206.700
61.81000 196.225
61.82000 185.928
61.83000 178.432
61.84000 168.705
61.85000 161.131
61.86000 156.599
61.87000 157.262
61.88000 158.012
61.89000 156.966
61.90000 153.915
61.91000 150.876
61.92000 147.391
61.93000 143.626
61.94000 139.947
61.95000 138.966
61.96000 139.262
61.97000 139.558
61.98000 139.860
61.99000 140.164
62.00000 140.438
62.01000 140.598
62.02000 140.717
62.03000 141.391
62.04000 144.718
62.05000 148.391
62.06000 149.645
62.07000 143.290
62.08000 136.379
62.09000 131.644
62.10000 134.738
62.11000 137.245
62.12000 138.676
62.13000 138.598
62.14000 138.510
62.15000 137.753
62.16000 136.397
62.17000 135.054
62.18000 137.378
62.19000 141.746
62.20000 145.965
62.21000 147.163
62.22000 147.178
62.23000 147.055
62.24000 145.520
62.25000 143.616
62.26000 141.947
62.27000 137.187
62.28000 132.655
62.29000 129.528
62.30000 131.883
62.31000 134.791
62.32000 137.542
62.33000 139.888
62.34000 142.213
62.35000 143.699
62.36000 143.847
62.37000 143.936
62.38000 142.026
62.39000 137.837
62.40000 133.658
62.41000 131.632
62.42000 131.170
62.43000 130.718
62.44000 131.708
62.45000 133.331
62.46000 134.967
62.47000 136.787
62.48000 138.667
62.49000 140.453
62.50000 141.510
62.51000 142.410
62.52000 143.173
62.53000 144.168
62.54000 145.028
62.55000 145.564
62.56000 145.065
62.57000 144.489
62.58000 143.556
62.59000 141.858
62.60000 140.133
62.61000 139.116
62.62000 139.133
62.63000 139.150
62.64000 139.007
62.65000 138.716
62.66000 138.376
62.67000 134.980
62.68000 129.761
62.69000 124.714
62.70000 126.602
62.71000 130.995
62.72000 135.142
62.73000 136.699
62.74000 137.567
62.75000 137.957
62.76000 135.381
62.77000 132.295
62.78000 129.781
62.79000 131.679
62.80000 133.603
62.81000 136.227
62.82000 140.704
62.83000 145.280
62.84000 146.758
62.85000 142.739
62.86000 138.613
62.87000 136.393
62.88000 135.958
62.89000 135.683
62.90000 139.289
62.91000 145.773
62.92000 152.032
62.93000 150.574
62.94000 145.322
62.95000 140.327
62.96000 140.249
62.97000 141.678
62.98000 142.736
62.99000 140.810
63.00000 138.234
63.01000 137.364
63.02000 144.992
63.03000 153.782
63.04000 160.628
63.05000 156.709
63.06000 152.922
63.07000 150.418
63.08000 150.719
63.09000 151.120
63.10000 148.302
63.11000 140.792
63.12000 133.242
63.13000 134.502
63.14000 143.992
63.15000 153.350
63.16000 153.696
63.17000 148.563
63.18000 143.685
63.19000 144.357
63.20000 147.286
63.21000 150.015
63.22000 151.052
63.23000 151.575
63.24000 151.785
63.25000 150.014
63.26000 147.894
63.27000 146.393
63.28000 147.405
63.29000 148.683
63.30000 149.629
63.31000 146.504
63.32000 143.905
63.33000 141.640
63.34000 139.982
63.35000 138.336
63.36000 137.381
63.37000 137.245
63.38000 137.111
63.39000 138.728
63.40000 141.650
63.41000 144.505
63.42000 144.964
63.43000 144.223
63.44000 143.399
63.45000 141.328
63.46000 138.838
63.47000 136.572
63.48000 139.978
63.49000 144.106
63.50000 147.426
63.51000 146.642
63.52000 145.284
63.53000 145.089
63.54000 148.770
63.55000 152.761
63.56000 155.548
63.57000 153.459
63.58000 151.747
63.59000 150.979
63.60000 151.616
63.61000 152.266
63.62000 150.582
63.63000 146.668
63.64000 142.786
63.65000 142.886
63.66000 145.405
63.67000 147.918
63.68000 150.281
63.69000 152.583
63.70000 154.742
63.71000 155.330
63.72000 155.483
63.73000 155.618
63.74000 154.762
63.75000 153.868
63.76000 153.340
63.77000 154.329
63.78000 155.483
63.79000 156.512
63.80000 157.198
63.81000 157.865
63.82000 158.301
63.83000 153.042
63.84000 149.090
63.85000 146.931
63.86000 146.949
63.87000 146.969
63.88000 146.474
63.89000 145.580
63.90000 144.702
63.91000 147.853
63.92000 152.889
63.93000 157.673
63.94000 158.527
63.95000 158.037
63.96000 157.639
63.97000 158.034
63.98000 158.607
63.99000 159.098
64.00000 162.516
64.01000 165.753
64.02000 167.547
64.03000 164.445
64.04000 160.941
64.05000 157.371
64.06000 153.654
64.07000 149.931
64.08000 147.679
64.09000 143.354
64.10000 140.256
64.11000 142.167
64.12000 148.967
64.13000 155.720
64.14000 158.739
64.15000 159.400
64.16000 160.042
64.17000 162.033
64.18000 164.463
64.19000 166.583
64.20000 165.185
64.21000 162.793
64.22000 160.533
64.23000 159.150
64.24000 157.929
64.25000 156.921
64.26000 157.330
64.27000 157.796
64.28000 157.482
64.29000 154.983
64.30000 152.354
64.31000 150.283
64.32000 149.262
64.33000 148.265
64.34000 147.713
64.35000 154.040
64.36000 158.403
64.37000 157.861
64.38000 153.454
64.39000 149.186
64.40000 150.545
64.41000 154.830
64.42000 158.927
64.43000 157.795
64.44000 155.044
64.45000 152.719
64.46000 154.090
64.47000 156.316
64.48000 158.728
64.49000 162.131
64.50000 165.679
64.51000 168.481
64.52000 166.257
64.53000 164.130
64.54000 162.402
64.55000 161.596
64.56000 160.827
64.57000 160.178
64.58000 159.714
64.59000 159.251
64.60000 159.543
64.61000 160.587
64.62000 161.656
64.63000 164.939
64.64000 169.647
64.65000 174.269
64.66000 176.753
64.67000 178.318
64.68000 179.786
64.69000 173.438
64.70000 165.608
64.71000 159.076
64.72000 161.349
64.73000 165.274
64.74000 168.292
64.75000 167.408
64.76000 166.076
64.77000 165.074
64.78000 167.430
64.79000 169.435
64.80000 170.580
64.81000 170.079
64.82000 169.539
64.83000 169.392
64.84000 169.742
64.85000 170.093
64.86000 171.020
64.87000 172.404
64.88000 173.820
64.89000 176.605
64.90000 180.117
64.91000 183.301
64.92000 181.015
64.93000 176.783
64.94000 172.904
64.95000 175.438
64.96000 179.042
64.97000 181.636
64.98000 178.759
64.99000 175.060
65.00000 172.585
65.01000 174.425
65.02000 176.641
65.03000 178.217
65.04000 181.732
65.05000 184.469
65.06000 185.068
65.07000 182.293
65.08000 179.477
65.09000 177.762
65.10000 177.171
65.11000 176.584
65.12000 180.828
65.13000 188.139
65.14000 195.278
65.15000 197.989
65.16000 198.761
65.17000 199.601
65.18000 201.259
65.19000 203.158
65.20000 204.851
65.21000 200.179
65.22000 195.052
65.23000 191.280
65.24000 193.458
65.25000 196.336
65.26000 200.228
65.27000 207.071
65.28000 214.101
65.29000 218.789
65.30000 217.905
65.31000 217.145
65.32000 219.697
65.33000 226.519
65.34000 233.344
65.35000 234.713
65.36000 231.602
65.37000 228.536
65.38000 232.033
65.39000 238.874
65.40000 245.284
65.41000 244.245
65.42000 240.506
65.43000 237.560
65.44000 241.836
65.45000 247.850
65.46000 253.050
65.47000 256.190
65.48000 258.589
65.49000 262.159
65.50000 269.938
65.51000 278.096
65.52000 284.304
65.53000 285.829
65.54000 287.149
65.55000 287.967
65.56000 283.569
65.57000 280.356
65.58000 280.955
65.59000 285.525
65.60000 290.121
65.61000 297.423
65.62000 306.536
65.63000 315.421
65.64000 325.796
65.65000 336.336
65.66000 347.070
65.67000 360.222
65.68000 374.097
65.69000 390.695
65.70000 426.645
65.71000 466.379
65.72000 499.516
65.73000 556.582
65.74000 606.289
65.75000 656.012
65.76000 705.784
65.77000 755.558
65.78000 799.749
65.79000 832.845
65.80000 865.638
65.81000 884.303
65.82000 929.905
65.83000 961.734
65.84000 972.116
65.85000 964.524
65.86000 957.387
65.87000 972.060
65.88000 998.740
65.89000 1024.374
65.90000 1012.621
65.91000 988.701
65.92000 964.073
65.93000 932.827
65.94000 899.958
65.95000 866.038
65.96000 826.173
65.97000 785.375
65.98000 752.730
65.99000 676.910
66.00000 612.380
66.01000 554.318
66.02000 512.091
66.03000 470.587
66.04000 432.617
66.05000 400.440
66.06000 368.346
66.07000 351.795
66.08000 336.974
66.09000 327.021
66.10000 320.671
66.11000 316.779
66.12000 312.733
66.13000 304.341
66.14000 293.974
66.15000 284.193
66.16000 283.362
66.17000 285.101
66.18000 286.967
66.19000 289.758
66.20000 292.734
66.21000 295.410
66.22000 296.716
66.23000 297.852
66.24000 298.719
66.25000 315.008
66.26000 328.671
66.27000 339.539
66.28000 344.749
66.29000 349.795
66.30000 353.210
66.31000 354.436
66.32000 355.649
66.33000 364.320
66.34000 379.337
66.35000 394.206
66.36000 401.460
66.37000 404.442
66.38000 407.418
66.39000 410.284
66.40000 413.109
66.41000 415.716
66.42000 418.224
66.43000 420.449
66.44000 421.959
66.45000 419.336
66.46000 416.050
66.47000 413.541
66.48000 413.937
66.49000 414.608
66.50000 415.093
66.51000 390.070
66.52000 369.937
66.53000 355.284
66.54000 349.779
66.55000 344.416
66.56000 340.594
66.57000 338.448
66.58000 336.312
66.59000 330.731
66.60000 322.839
66.61000 315.073
66.62000 311.009
66.63000 308.659
66.64000 306.166
66.65000 301.774
66.66000 296.793
66.67000 292.313
66.68000 298.796
66.69000 306.437
66.70000 312.095
66.71000 308.505
66.72000 303.744
66.73000 300.525
66.74000 302.052
66.75000 303.912
66.76000 305.178
66.77000 303.256
66.78000 301.749
66.79000 301.343
66.80000 302.446
66.81000 303.557
66.82000 304.883
66.83000 306.395
66.84000 307.889
66.85000 310.270
66.86000 313.087
66.87000 315.784
66.88000 316.159
66.89000 315.644
66.90000 315.618
66.91000 320.405
66.92000 326.422
66.93000 331.675
66.94000 333.731
66.95000 335.042
66.96000 335.081
66.97000 330.278
66.98000 325.002
66.99000 323.136
67.00000 329.938
67.01000 337.168
67.02000 341.750
67.03000 329.851
67.04000 321.019
67.05000 319.916
67.06000 327.400
67.07000 334.837
67.08000 334.693
67.09000 329.167
67.10000 323.761
67.11000 326.579
67.12000 333.009
67.13000 339.289
67.14000 343.510
67.15000 347.080
67.16000 350.249
67.17000 350.359
67.18000 349.832
67.19000 349.388
67.20000 352.979
67.21000 356.415
67.22000 359.510
67.23000 361.539
67.24000 363.490
67.25000 362.708
67.26000 356.179
67.27000 349.467
67.28000 345.546
67.29000 356.223
67.30000 363.802
67.31000 366.847
67.32000 365.849
67.33000 364.931
67.34000 368.714
67.35000 375.238
67.36000 381.534
67.37000 385.840
67.38000 389.164
67.39000 392.109
67.40000 391.224
67.41000 389.341
67.42000 387.760
67.43000 387.994
67.44000 388.533
67.45000 388.970
67.46000 392.325
67.47000 395.296
67.48000 396.897
67.49000 394.956
67.50000 392.832
67.51000 391.246
67.52000 390.592
67.53000 389.955
67.54000 389.616
67.55000 395.684
67.56000 399.816
67.57000 403.574
67.58000 407.061
67.59000 410.618
67.60000 416.446
67.61000 423.367
67.62000 429.935
67.63000 424.467
67.64000 415.843
67.65000 408.468
67.66000 410.855
67.67000 415.316
67.68000 419.473
67.69000 422.152
67.70000 424.634
67.71000 426.557
67.72000 421.953
67.73000 417.909
67.74000 413.554
67.75000 408.532
67.76000 403.487
67.77000 410.914
67.78000 436.103
67.79000 461.418
67.80000 469.762
67.81000 462.645
67.82000 455.643
67.83000 455.794
67.84000 460.194
67.85000 464.334
67.86000 463.074
67.87000 459.667
67.88000 456.500
67.89000 463.727
67.90000 472.740
67.91000 480.785
67.92000 482.847
67.93000 483.885
67.94000 486.596
67.95000 495.939
67.96000 505.965
67.97000 513.337
67.98000 513.883
67.99000 514.025
68.00000 512.584
68.01000 508.346
68.02000 504.055
68.03000 503.046
68.04000 505.839
68.05000 508.628
68.06000 513.237
68.07000 519.144
68.08000 524.756
68.09000 520.323
68.10000 510.968
68.11000 502.325
68.12000 504.016
68.13000 509.102
68.14000 513.716
68.15000 531.413
68.16000 549.529
68.17000 563.995
68.18000 560.345
68.19000 554.229
68.20000 549.977
68.21000 551.797
68.22000 554.084
68.23000 555.669
68.24000 563.992
68.25000 570.435
68.26000 573.650
68.27000 572.176
68.28000 570.666
68.29000 578.472
68.30000 594.951
68.31000 611.278
68.32000 612.440
68.33000 604.576
68.34000 597.432
68.35000 605.798
68.36000 620.450
68.37000 634.576
68.38000 643.075
68.39000 650.052
68.40000 656.200
68.41000 655.803
68.42000 654.473
68.43000 654.439
68.44000 659.646
68.45000 665.407
68.46000 672.848
68.47000 684.800
68.48000 697.002
68.49000 704.905
68.50000 721.332
68.51000 733.479
68.52000 743.702
68.53000 751.648
68.54000 759.606
68.55000 770.925
68.56000 784.777
68.57000 798.376
68.58000 826.398
68.59000 860.378
68.60000 893.074
68.61000 906.537
68.62000 913.559
68.63000 924.547
68.64000 968.074
68.65000 1018.801
68.66000 1062.039
68.67000 1126.636
68.68000 1183.479
68.69000 1236.384
68.70000 1276.224
68.71000 1315.026
68.72000 1355.706
68.73000 1400.563
68.74000 1445.573
68.75000 1472.543
68.76000 1559.076
68.77000 1620.914
68.78000 1672.095
68.79000 1713.139
68.80000 1754.172
68.81000 1794.408
68.82000 1834.150
68.83000 1872.677
68.84000 1980.275
68.85000 2109.192
68.86000 2238.784
68.87000 2375.798
68.88000 2514.860
68.89000 2684.025
68.90000 3047.501
68.91000 3445.759
68.92000 3772.504
68.93000 5159.949
68.94000 6393.006
68.95000 8008.287
68.96000 10670.221
68.97000 13391.938
68.98000 16586.457
68.99000 20649.168
69.00000 24730.633
69.01000 26965.500
69.02000 32723.254
69.03000 36683.992
69.04000 39835.730
69.05000 42365.105
69.06000 44867.824
69.07000 46365.699
69.08000 47352.340
69.09000 48293.625
69.10000 48687.402
69.11000 48879.465
69.12000 49103.590
69.13000 49597.363
69.14000 50152.012
69.15000 50715.078
69.16000 51321.707
69.17000 51934.551
69.18000 52415.855
69.19000 51848.672
69.20000 51326.148
69.21000 50327.906
69.22000 48252.340
69.23000 46135.520
69.24000 43644.348
69.25000 40587.703
69.26000 37525.402
69.27000 34939.156
69.28000 32815.746
69.29000 30699.676
69.30000 29160.611
69.31000 27984.678
69.32000 26827.670
69.33000 26113.061
69.34000 25584.529
69.35000 25090.084
69.36000 24366.063
69.37000 23649.662
69.38000 22861.961
69.39000 21603.480
69.40000 20258.912
69.41000 18779.625
69.42000 16733.916
69.43000 14625.156
69.44000 13049.573
69.45000 10563.749
69.46000 8583.889
69.47000 6878.461
69.48000 5686.571
69.49000 4506.451
69.50000 3626.043
69.51000 3115.090
69.52000 2606.137
69.53000 2256.765
69.54000 2033.807
69.55000 1812.645
69.56000 1662.975
69.57000 1550.367
69.58000 1439.821
69.59000 1362.247
69.60000 1296.139
69.61000 1235.725
69.62000 1191.326
69.63000 1155.165
69.64000 1120.284
69.65000 1092.165
69.66000 1065.034
69.67000 1037.016
69.68000 1005.938
69.69000 974.602
69.70000 952.485
69.71000 920.870
69.72000 896.589
69.73000 874.136
69.74000 854.500
69.75000 834.895
69.76000 821.651
69.77000 814.728
69.78000 807.853
69.79000 791.415
69.80000 769.198
69.81000 747.496
69.82000 738.315
69.83000 734.500
69.84000 730.431
69.85000 723.409
69.86000 715.542
69.87000 708.546
69.88000 692.104
69.89000 676.305
69.90000 663.433
69.91000 663.120
69.92000 664.242
69.93000 663.677
69.94000 658.323
69.95000 652.674
69.96000 648.939
69.97000 641.567
69.98000 636.062
69.99000 631.222
70.00000 627.218
