20.00000 576.740
20.01000 570.081
20.02000 562.471
20.03000 557.419
20.04000 562.253
20.05000 568.071
20.06000 572.319
20.07000 570.495
20.08000 568.852
20.09000 565.856
20.10000 560.527
20.11000 555.158
20.12000 553.583
20.13000 556.287
20.14000 558.985
20.15000 562.473
20.16000 566.492
20.17000 570.387
20.18000 570.335
20.19000 568.394
20.20000 566.375
20.21000 563.284
20.22000 559.848
20.23000 556.743
20.24000 564.428
20.25000 573.193
20.26000 579.742
20.27000 575.586
20.28000 570.017
20.29000 564.280
20.30000 558.011
20.31000 551.704
20.32000 547.367
20.33000 553.363
20.34000 558.116
20.35000 560.003
20.36000 557.833
20.37000 555.631
20.38000 550.975
20.39000 544.094
20.40000 537.284
20.41000 547.328
20.42000 566.897
20.43000 585.592
20.44000 586.384
20.45000 580.093
20.46000 573.935
20.47000 569.146
20.48000 564.718
20.49000 560.831
20.50000 556.040
20.51000 551.792
20.52000 548.406
20.53000 548.420
20.54000 548.781
20.55000 549.437
20.56000 550.863
20.57000 552.330
20.58000 553.271
20.59000 545.693
20.60000 540.051
20.61000 537.380
20.62000 538.127
20.63000 538.898
20.64000 543.058
20.65000 549.707
20.66000 556.225
20.67000 554.479
20.68000 548.922
20.69000 543.796
20.70000 544.871
20.71000 547.973
20.72000 550.618
20.73000 549.634
20.74000 547.869
20.75000 546.370
20.76000 546.839
20.77000 547.454
20.78000 548.295
20.79000 549.863
20.80000 551.487
20.81000 552.433
20.82000 551.906
20.83000 551.328
20.84000 550.986
20.85000 540.299
20.86000 532.685
20.87000 534.224
20.88000 544.232
20.89000 554.061
20.90000 552.112
20.91000 543.069
20.92000 534.319
20.93000 538.755
20.94000 547.969
20.95000 556.089
20.96000 552.599
20.97000 545.984
20.98000 540.095
20.99000 538.751
21.00000 538.199
21.01000 537.748
21.02000 544.016
21.03000 549.721
21.04000 550.519
21.05000 538.203
21.06000 525.171
21.07000 522.782
21.08000 539.462
21.09000 556.523
21.10000 565.749
21.11000 555.052
21.12000 547.709
21.13000 540.929
21.14000 534.571
21.15000 528.327
21.16000 526.101
21.17000 525.870
21.18000 525.651
21.19000 533.598
21.20000 543.474
21.21000 551.865
21.22000 548.164
21.23000 541.804
21.24000 537.239
21.25000 541.716
21.26000 547.443
21.27000 551.915
21.28000 548.442
21.29000 545.173
21.30000 542.379
21.31000 540.634
21.32000 538.926
21.33000 537.824
21.34000 537.613
21.35000 537.410
21.36000 538.667
21.37000 541.305
21.38000 543.944
21.39000 546.743
21.40000 549.639
21.41000 552.200
21.42000 547.328
21.43000 539.405
21.44000 532.013
21.45000 533.606
21.46000 537.282
21.47000 539.691
21.48000 533.979
21.49000 526.822
21.50000 523.081
21.51000 533.338
21.52000 545.102
21.53000 553.832
21.54000 548.428
21.55000 543.609
21.56000 540.736
21.57000 541.421
21.58000 542.180
21.59000 541.997
21.60000 540.681
21.61000 539.366
21.62000 538.539
21.63000 538.089
21.64000 537.694
21.65000 539.366
21.66000 542.083
21.67000 545.117
21.68000 553.009
21.69000 562.551
21.70000 571.242
21.71000 570.304
21.72000 567.559
21.73000 565.054
21.74000 563.779
21.75000 562.679
21.76000 560.403
21.77000 554.174
21.78000 547.624
21.79000 543.036
21.80000 548.626
21.81000 553.144
21.82000 557.722
21.83000 562.389
21.84000 567.056
21.85000 568.555
21.86000 566.994
21.87000 565.445
21.88000 568.235
21.89000 573.643
21.90000 579.100
21.91000 585.701
21.92000 592.781
21.93000 598.895
21.94000 594.157
21.95000 586.385
21.96000 579.501
21.97000 586.195
21.98000 594.123
21.99000 601.738
22.00000 608.051
22.01000 614.219
22.02000 615.124
22.03000 601.421
22.04000 586.863
22.05000 577.319
22.06000 588.263
22.07000 596.650
22.08000 598.212
22.09000 591.412
22.10000 584.630
22.11000 588.437
22.12000 600.506
22.13000 612.376
22.14000 611.174
22.15000 603.491
22.16000 596.305
22.17000 596.990
22.18000 600.398
22.19000 603.667
22.20000 605.739
22.21000 607.539
22.22000 609.081
22.23000 602.876
22.24000 596.686
22.25000 590.850
22.26000 586.230
22.27000 581.711
22.28000 577.118
22.29000 572.355
22.30000 567.585
22.31000 564.686
22.32000 571.588
22.33000 576.589
22.34000 577.902
22.35000 575.573
22.36000 573.249
22.37000 571.327
22.38000 569.661
22.39000 568.043
22.40000 563.362
22.41000 557.674
22.42000 552.309
22.43000 550.678
22.44000 550.112
22.45000 548.765
22.46000 542.184
22.47000 534.630
22.48000 528.391
22.49000 534.732
22.50000 541.133
22.51000 545.693
22.52000 545.047
22.53000 544.085
22.54000 542.586
22.55000 540.070
22.56000 537.529
22.57000 536.116
22.58000 536.925
22.59000 537.493
22.60000 539.092
22.61000 541.513
22.62000 543.691
22.63000 535.838
22.64000 522.715
22.65000 510.158
22.66000 516.866
22.67000 529.439
22.68000 540.317
22.69000 536.315
22.70000 528.837
22.71000 522.052
22.72000 518.984
22.73000 516.468
22.74000 514.476
22.75000 515.305
22.76000 516.166
22.77000 516.909
22.78000 517.375
22.79000 517.829
22.80000 519.093
22.81000 521.619
22.82000 524.160
22.83000 525.436
22.84000 524.296
22.85000 523.529
22.86000 522.255
22.87000 520.651
22.88000 519.041
22.89000 517.266
22.90000 515.419
22.91000 513.685
22.92000 514.607
22.93000 516.151
22.94000 518.418
22.95000 525.656
22.96000 533.835
22.97000 538.520
22.98000 528.002
22.99000 515.717
23.00000 506.456
23.01000 511.581
23.02000 516.301
23.03000 517.789
23.04000 513.030
23.05000 508.114
23.06000 506.661
23.07000 509.626
23.08000 512.603
23.09000 512.494
23.10000 509.886
23.11000 507.302
23.12000 505.778
23.13000 504.822
23.14000 504.002
23.15000 505.504
23.16000 507.840
23.17000 509.984
23.18000 509.765
23.19000 509.068
23.20000 509.454
23.21000 515.774
23.22000 522.995
23.23000 528.528
23.24000 528.045
23.25000 527.029
23.26000 526.305
23.27000 513.431
23.28000 503.217
23.29000 496.953
23.30000 496.975
23.31000 497.078
23.32000 499.842
23.33000 505.350
23.34000 510.826
23.35000 512.448
23.36000 511.528
23.37000 510.629
23.38000 510.301
23.39000 510.226
23.40000 510.099
23.41000 509.322
23.42000 508.354
23.43000 507.489
23.44000 506.784
23.45000 506.197
23.46000 506.525
23.47000 510.917
23.48000 515.794
23.49000 518.804
23.50000 516.336
23.51000 513.512
23.52000 511.623
23.53000 512.550
23.54000 513.293
23.55000 514.642
23.56000 516.781
23.57000 518.927
23.58000 523.067
23.59000 528.863
23.60000 534.578
23.61000 533.190
23.62000 528.073
23.63000 523.188
23.64000 522.393
23.65000 523.093
23.66000 523.132
23.67000 517.045
23.68000 509.470
23.69000 502.910
23.70000 506.063
23.71000 510.029
23.72000 514.171
23.73000 518.951
23.74000 523.790
23.75000 525.181
23.76000 518.204
23.77000 510.853
23.78000 506.281
23.79000 514.634
23.80000 520.780
23.81000 529.941
23.82000 542.281
23.83000 554.521
23.84000 555.863
23.85000 549.834
23.86000 543.952
23.87000 539.737
23.88000 536.426
23.89000 533.550
23.90000 536.164
23.91000 540.436
23.92000 544.124
23.93000 543.620
23.94000 542.286
23.95000 541.172
23.96000 542.336
23.97000 543.534
23.98000 542.343
23.99000 534.009
24.00000 525.196
24.01000 522.461
24.02000 531.919
24.03000 541.720
24.04000 547.325
24.05000 547.678
24.06000 547.895
24.07000 540.756
24.08000 527.388
24.09000 514.210
24.10000 510.458
24.11000 511.948
24.12000 513.380
24.13000 514.781
24.14000 516.084
24.15000 517.714
24.16000 522.445
24.17000 527.945
24.18000 533.113
24.19000 536.379
24.20000 539.343
24.21000 541.720
24.22000 524.670
24.23000 509.393
24.24000 497.062
24.25000 492.015
24.26000 487.308
24.27000 488.881
24.28000 500.845
24.29000 512.965
24.30000 519.249
24.31000 519.035
24.32000 518.852
24.33000 514.094
24.34000 506.181
24.35000 498.514
24.36000 497.929
24.37000 500.595
24.38000 503.113
24.39000 503.568
24.40000 503.404
24.41000 503.434
24.42000 504.895
24.43000 506.645
24.44000 507.938
24.45000 507.115
24.46000 506.027
24.47000 505.194
24.48000 509.762
24.49000 513.661
24.50000 514.182
24.51000 507.794
24.52000 501.203
24.53000 497.482
24.54000 497.654
24.55000 497.847
24.56000 497.744
24.57000 497.385
24.58000 496.873
24.59000 488.306
24.60000 475.173
24.61000 462.816
24.62000 465.090
24.63000 472.920
24.64000 480.158
24.65000 486.906
24.66000 492.852
24.67000 497.578
24.68000 495.168
24.69000 491.599
24.70000 488.313
24.71000 486.092
24.72000 483.975
24.73000 482.438
24.74000 485.780
24.75000 488.530
24.76000 484.942
24.77000 470.668
24.78000 456.221
24.79000 454.675
24.80000 467.315
24.81000 479.908
24.82000 486.184
24.83000 487.997
24.84000 489.684
24.85000 487.601
24.86000 483.755
24.87000 480.175
24.88000 480.177
24.89000 481.303
24.90000 482.318
24.91000 480.271
24.92000 477.921
24.93000 476.359
24.94000 478.505
24.95000 481.127
24.96000 482.795
24.97000 481.501
24.98000 479.995
24.99000 478.967
25.00000 475.499
25.01000 472.849
25.02000 470.103
25.03000 467.223
25.04000 464.348
25.05000 467.842
25.06000 476.962
25.07000 485.981
25.08000 484.245
25.09000 476.483
25.10000 469.100
25.11000 469.143
25.12000 472.059
25.13000 474.715
25.14000 474.771
25.15000 474.157
25.16000 473.619
25.17000 479.921
25.18000 486.292
25.19000 489.850
25.20000 482.578
25.21000 474.235
25.22000 468.634
25.23000 470.069
25.24000 471.858
25.25000 472.996
25.26000 477.109
25.27000 480.134
25.28000 481.623
25.29000 481.388
25.30000 481.156
25.31000 481.599
25.32000 482.526
25.33000 483.434
25.34000 481.244
25.35000 477.720
25.36000 474.241
25.37000 471.369
25.38000 468.691
25.39000 466.680
25.40000 469.824
25.41000 474.052
25.42000 477.625
25.43000 471.651
25.44000 465.607
25.45000 462.350
25.46000 467.919
25.47000 474.137
25.48000 477.059
25.49000 472.982
25.50000 468.676
25.51000 466.149
25.52000 464.546
25.53000 463.420
25.54000 462.228
25.55000 460.977
25.56000 459.791
25.57000 462.531
25.58000 467.583
25.59000 472.463
25.60000 472.984
25.61000 471.855
25.62000 470.945
25.63000 472.294
25.64000 474.237
25.65000 475.290
25.66000 470.908
25.67000 465.603
25.68000 461.295
25.69000 469.614
25.70000 477.448
25.71000 481.216
25.72000 474.357
25.73000 466.942
25.74000 462.211
25.75000 462.182
25.76000 462.239
25.77000 462.270
25.78000 478.665
25.79000 489.792
25.80000 489.721
25.81000 481.453
25.82000 473.220
25.83000 466.161
25.84000 459.672
25.85000 453.509
25.86000 454.407
25.87000 457.362
25.88000 460.077
25.89000 460.901
25.90000 461.319
25.91000 462.233
25.92000 465.585
25.93000 469.264
25.94000 472.121
25.95000 463.410
25.96000 455.785
25.97000 453.905
25.98000 464.447
25.99000 475.414
26.00000 474.760
26.01000 457.386
26.02000 439.883
26.03000 436.774
26.04000 446.922
26.05000 456.979
26.06000 461.129
26.07000 461.735
26.08000 462.252
26.09000 460.883
26.10000 458.757
26.11000 456.779
26.12000 459.073
26.13000 462.181
26.14000 464.295
26.15000 460.199
26.16000 455.026
26.17000 451.079
26.18000 452.039
26.19000 453.511
26.20000 454.596
26.21000 457.752
26.22000 460.283
26.23000 460.220
26.24000 455.526
26.25000 450.741
26.26000 450.217
26.27000 454.683
26.28000 459.143
26.29000 457.774
26.30000 452.093
26.31000 446.630
26.32000 448.776
26.33000 454.687
26.34000 460.178
26.35000 459.493
26.36000 456.757
26.37000 454.273
26.38000 449.432
26.39000 444.701
26.40000 441.940
26.41000 449.066
26.42000 457.554
26.43000 463.312
26.44000 460.096
26.45000 456.176
26.46000 453.451
26.47000 452.247
26.48000 451.381
26.49000 450.165
26.50000 448.435
26.51000 446.701
26.52000 441.025
26.53000 431.639
26.54000 422.336
26.55000 425.576
26.56000 436.280
26.57000 446.635
26.58000 449.306
26.59000 448.833
26.60000 448.850
26.61000 454.185
26.62000 460.974
26.63000 466.965
26.64000 468.938
26.65000 470.027
26.66000 469.827
26.67000 464.368
26.68000 458.347
26.69000 455.324
26.70000 460.439
26.71000 466.011
26.72000 469.634
26.73000 474.842
26.74000 478.684
26.75000 473.463
26.76000 457.406
26.77000 441.374
26.78000 435.648
26.79000 437.773
26.80000 439.861
26.81000 445.487
26.82000 452.641
26.83000 459.258
26.84000 457.690
26.85000 453.355
26.86000 448.871
26.87000 443.155
26.88000 437.164
26.89000 432.048
26.90000 441.068
26.91000 450.344
26.92000 456.029
26.93000 449.678
26.94000 442.356
26.95000 437.722
26.96000 439.125
26.97000 440.755
26.98000 441.735
26.99000 437.281
27.00000 434.076
27.01000 437.057
27.02000 445.988
27.03000 454.806
27.04000 455.072
27.05000 450.005
27.06000 445.089
27.07000 448.478
27.08000 454.973
27.09000 460.671
27.10000 457.466
27.11000 451.781
27.12000 447.812
27.13000 455.055
27.14000 464.328
27.15000 471.951
27.16000 453.380
27.17000 435.754
27.18000 427.588
27.19000 445.586
27.20000 465.105
27.21000 473.778
27.22000 462.339
27.23000 450.451
27.24000 443.910
27.25000 451.867
27.26000 457.345
27.27000 456.041
27.28000 449.464
27.29000 443.116
27.30000 445.688
27.31000 452.842
27.32000 459.673
27.33000 463.357
27.34000 465.773
27.35000 467.127
27.36000 459.438
27.37000 449.686
27.38000 442.052
27.39000 445.502
27.40000 450.552
27.41000 454.527
27.42000 446.025
27.43000 438.381
27.44000 431.656
27.45000 427.034
27.46000 422.493
27.47000 424.306
27.48000 435.814
27.49000 447.425
27.50000 450.885
27.51000 446.333
27.52000 441.805
27.53000 439.192
27.54000 437.797
27.55000 436.624
27.56000 440.760
27.57000 447.152
27.58000 453.137
27.59000 450.579
27.60000 446.045
27.61000 441.832
27.62000 439.760
27.63000 438.085
27.64000 436.382
27.65000 434.562
27.66000 432.729
27.67000 431.355
27.68000 431.906
27.69000 432.426
27.70000 434.512
27.71000 439.554
27.72000 444.667
27.73000 446.792
27.74000 445.197
27.75000 443.593
27.76000 447.093
27.77000 454.607
27.78000 461.833
27.79000 457.295
27.80000 446.598
27.81000 436.293
27.82000 432.358
27.83000 430.660
27.84000 429.106
27.85000 431.594
27.86000 434.643
27.87000 438.117
27.88000 443.865
27.89000 449.948
27.90000 453.860
27.91000 450.211
27.92000 445.915
27.93000 442.873
27.94000 432.578
27.95000 424.528
27.96000 422.017
27.97000 428.123
27.98000 434.330
27.99000 435.656
28.00000 432.080
28.01000 428.527
28.02000 436.127
28.03000 450.729
28.04000 464.304
28.05000 452.271
28.06000 429.158
28.07000 407.967
28.08000 409.509
28.09000 417.635
28.10000 424.870
28.11000 424.765
28.12000 423.469
28.13000 421.984
28.14000 419.679
28.15000 417.279
28.16000 414.771
28.17000 411.955
28.18000 409.120
28.19000 407.237
28.20000 412.963
28.21000 417.335
28.22000 422.246
28.23000 427.843
28.24000 433.425
28.25000 432.954
28.26000 427.580
28.27000 422.285
28.28000 423.705
28.29000 428.558
28.30000 433.200
28.31000 434.287
28.32000 434.103
28.33000 433.502
28.34000 429.154
28.35000 423.917
28.36000 419.400
28.37000 427.829
28.38000 436.639
28.39000 442.838
28.40000 439.765
28.41000 435.876
28.42000 432.765
28.43000 431.503
28.44000 430.319
28.45000 429.590
28.46000 426.921
28.47000 424.988
28.48000 422.503
28.49000 419.450
28.50000 416.466
28.51000 420.164
28.52000 428.277
28.53000 436.180
28.54000 436.827
28.55000 434.396
28.56000 432.297
28.57000 434.259
28.58000 437.420
28.59000 440.180
28.60000 440.130
28.61000 439.539
28.62000 439.048
28.63000 439.467
28.64000 439.903
28.65000 438.936
28.66000 433.867
28.67000 428.534
28.68000 426.341
28.69000 430.309
28.70000 434.439
28.71000 436.776
28.72000 428.320
28.73000 422.412
28.74000 418.578
28.75000 416.457
28.76000 414.357
28.77000 413.179
28.78000 412.502
28.79000 411.852
28.80000 415.258
28.81000 419.824
28.82000 423.833
28.83000 422.724
28.84000 420.375
28.85000 417.689
28.86000 413.123
28.87000 408.266
28.88000 404.391
28.89000 409.934
28.90000 415.097
28.91000 417.319
28.92000 412.432
28.93000 407.229
28.94000 407.122
28.95000 415.257
28.96000 423.505
28.97000 427.729
28.98000 430.743
28.99000 432.683
29.00000 425.461
29.01000 412.064
29.02000 399.153
29.03000 399.453
29.04000 405.685
29.05000 411.558
29.06000 412.339
29.07000 411.651
29.08000 410.969
29.09000 410.327
29.10000 409.694
29.11000 408.386
29.12000 404.035
29.13000 399.313
29.14000 395.722
29.15000 400.799
29.16000 405.247
29.17000 411.060
29.18000 419.601
29.19000 428.219
29.20000 429.060
29.21000 419.605
29.22000 410.111
29.23000 405.654
29.24000 405.446
29.25000 405.347
29.26000 410.564
29.27000 418.726
29.28000 426.207
29.29000 421.385
29.30000 411.993
29.31000 403.336
29.32000 407.665
29.33000 414.412
29.34000 419.532
29.35000 415.385
29.36000 409.772
29.37000 404.898
29.38000 402.747
29.39000 400.850
29.40000 399.483
29.41000 405.635
29.42000 410.614
29.43000 413.955
29.44000 414.597
29.45000 415.199
29.46000 417.179
29.47000 420.635
29.48000 424.074
29.49000 421.967
29.50000 416.118
29.51000 410.383
29.52000 407.885
29.53000 406.869
29.54000 406.348
29.55000 412.231
29.56000 420.078
29.57000 427.124
29.58000 419.854
29.59000 410.975
29.60000 404.242
29.61000 407.394
29.62000 411.778
29.63000 415.109
29.64000 415.241
29.65000 415.154
29.66000 415.094
29.67000 406.905
29.68000 400.624
29.69000 401.277
29.70000 411.293
29.71000 421.351
29.72000 424.515
29.73000 421.741
29.74000 419.000
29.75000 418.370
29.76000 418.917
29.77000 419.235
29.78000 415.248
29.79000 409.632
29.80000 404.362
29.81000 402.455
29.82000 401.395
29.83000 400.471
29.84000 403.509
29.85000 406.653
29.86000 410.252
29.87000 415.568
29.88000 421.048
29.89000 423.510
29.90000 418.396
29.91000 412.918
29.92000 409.464
29.93000 405.970
29.94000 403.440
29.95000 402.021
29.96000 401.819
29.97000 401.642
29.98000 404.539
29.99000 409.592
30.00000 414.532
30.01000 425.736
30.02000 439.275
30.03000 451.465
30.04000 445.678
30.05000 434.274
30.06000 424.917
30.07000 430.926
30.08000 440.089
30.09000 447.798
30.10000 442.716
30.11000 437.118
30.12000 431.671
30.13000 426.696
30.14000 421.755
30.15000 417.965
30.16000 416.566
30.17000 415.240
30.18000 414.469
30.19000 419.568
30.20000 423.167
30.21000 419.854
30.22000 410.462
30.23000 401.374
30.24000 409.234
30.25000 426.846
30.26000 443.829
30.27000 446.735
30.28000 444.363
30.29000 441.703
30.30000 436.177
30.31000 429.914
30.32000 424.632
30.33000 425.181
30.34000 426.695
30.35000 427.918
30.36000 421.349
30.37000 415.382
30.38000 412.679
30.39000 418.319
30.40000 424.375
30.41000 427.362
30.42000 425.090
30.43000 422.729
30.44000 421.482
30.45000 427.177
30.46000 431.004
30.47000 428.234
30.48000 420.749
30.49000 413.528
30.50000 414.560
30.51000 419.512
30.52000 424.205
30.53000 426.656
30.54000 428.257
30.55000 429.376
30.56000 426.784
30.57000 423.415
30.58000 419.845
30.59000 415.308
30.60000 410.644
30.61000 407.043
30.62000 412.871
30.63000 418.038
30.64000 422.556
30.65000 425.701
30.66000 428.802
30.67000 428.878
30.68000 424.702
30.69000 420.498
30.70000 419.133
30.71000 420.318
30.72000 421.460
30.73000 420.000
30.74000 417.015
30.75000 414.099
30.76000 412.600
30.77000 411.657
30.78000 410.783
30.79000 418.253
30.80000 426.956
30.81000 434.919
30.82000 438.384
30.83000 441.090
30.84000 443.018
30.85000 441.904
30.86000 440.482
30.87000 439.440
30.88000 439.478
30.89000 439.551
30.90000 445.317
30.91000 461.021
30.92000 476.906
30.93000 484.614
30.94000 482.980
30.95000 481.341
30.96000 479.700
30.97000 478.072
30.98000 476.653
30.99000 482.131
31.00000 490.947
31.01000 499.863
31.02000 510.205
31.03000 521.009
31.04000 530.790
31.05000 549.740
31.06000 568.160
31.07000 583.502
31.08000 583.772
31.09000 582.023
31.10000 586.273
31.11000 609.808
31.12000 634.800
31.13000 652.049
31.14000 666.946
31.15000 678.080
31.16000 698.405
31.17000 731.909
31.18000 765.510
31.19000 789.457
31.20000 804.544
31.21000 819.485
31.22000 848.441
31.23000 885.000
31.24000 921.554
31.25000 958.004
31.26000 994.413
31.27000 1030.214
31.28000 1059.628
31.29000 1087.336
31.30000 1111.702
31.31000 1145.656
31.32000 1176.294
31.33000 1207.148
31.34000 1238.865
31.35000 1270.672
31.36000 1293.055
31.37000 1290.423
31.38000 1286.446
31.39000 1283.883
31.40000 1314.354
31.41000 1337.078
31.42000 1348.050
31.43000 1345.313
31.44000 1342.471
31.45000 1323.530
31.46000 1292.614
31.47000 1262.286
31.48000 1240.173
31.49000 1222.770
31.50000 1204.588
31.51000 1175.005
31.52000 1141.651
31.53000 1108.733
31.54000 1079.337
31.55000 1050.710
31.56000 1026.366
31.57000 983.304
31.58000 944.980
31.59000 910.549
31.60000 888.871
31.61000 868.186
31.62000 842.373
31.63000 805.301
31.64000 767.830
31.65000 745.501
31.66000 718.649
31.67000 699.592
31.68000 678.926
31.69000 656.752
31.70000 634.680
31.71000 619.654
31.72000 608.923
31.73000 598.530
31.74000 578.931
31.75000 556.841
31.76000 536.131
31.77000 530.323
31.78000 528.573
31.79000 526.659
31.80000 523.702
31.81000 520.560
31.82000 517.989
31.83000 499.748
31.84000 483.435
31.85000 470.809
31.86000 468.159
31.87000 466.065
31.88000 463.081
31.89000 458.484
31.90000 453.853
31.91000 451.334
31.92000 454.062
31.93000 455.926
31.94000 454.717
31.95000 451.175
31.96000 447.552
31.97000 440.976
31.98000 432.916
31.99000 425.237
32.00000 422.934
32.01000 422.479
32.02000 422.117
32.03000 422.528
32.04000 423.111
32.05000 423.148
32.06000 420.401
32.07000 417.262
32.08000 414.804
32.09000 416.493
32.10000 418.108
32.11000 421.083
32.12000 427.099
32.13000 433.228
32.14000 434.217
32.15000 427.544
32.16000 420.798
32.17000 416.395
32.18000 414.236
32.19000 412.090
32.20000 410.884
32.21000 410.263
32.22000 409.598
32.23000 407.957
32.24000 405.910
32.25000 403.998
32.26000 411.091
32.27000 419.794
32.28000 426.693
32.29000 421.867
32.30000 414.927
32.31000 408.825
32.32000 406.193
32.33000 403.941
32.34000 402.265
32.35000 396.771
32.36000 392.325
32.37000 391.959
32.38000 399.133
32.39000 406.474
32.40000 410.102
32.41000 409.215
32.42000 408.319
32.43000 405.873
32.44000 402.247
32.45000 398.693
32.46000 397.911
32.47000 398.549
32.48000 399.256
32.49000 401.056
32.50000 403.232
32.51000 405.218
32.52000 402.340
32.53000 398.807
32.54000 395.134
32.55000 390.723
32.56000 386.207
32.57000 382.964
32.58000 384.052
32.59000 385.498
32.60000 386.515
32.61000 382.439
32.62000 379.202
32.63000 379.881
32.64000 386.515
32.65000 393.211
32.66000 390.623
32.67000 378.947
32.68000 367.359
32.69000 364.752
32.70000 367.782
32.71000 370.467
32.72000 364.980
32.73000 356.035
32.74000 348.049
32.75000 351.028
32.76000 357.110
32.77000 362.507
32.78000 365.610
32.79000 367.933
32.80000 371.050
32.81000 377.529
32.82000 384.385
32.83000 392.053
32.84000 402.001
32.85000 412.086
32.86000 418.725
32.87000 422.872
32.88000 425.883
32.89000 432.281
32.90000 442.884
32.91000 453.485
32.92000 460.180
32.93000 463.789
32.94000 467.340
32.95000 465.522
32.96000 461.050
32.97000 457.073
32.98000 461.119
32.99000 467.972
33.00000 473.598
33.01000 468.558
33.02000 461.045
33.03000 454.590
33.04000 442.900
33.05000 432.359
33.06000 424.320
33.07000 424.957
33.08000 426.332
33.09000 422.504
33.10000 406.597
33.11000 390.199
33.12000 380.188
33.13000 384.103
33.14000 387.016
33.15000 382.834
33.16000 371.553
33.17000 360.349
33.18000 355.849
33.19000 355.679
33.20000 355.514
33.21000 351.293
33.22000 345.615
33.23000 340.396
33.24000 340.599
33.25000 342.366
33.26000 343.782
33.27000 342.806
33.28000 341.380
33.29000 340.200
33.30000 349.521
33.31000 358.212
33.32000 363.584
33.33000 359.461
33.34000 354.750
33.35000 351.093
33.36000 349.458
33.37000 347.874
33.38000 346.987
33.39000 344.089
33.40000 342.083
33.41000 342.408
33.42000 344.613
33.43000 346.768
33.44000 346.773
33.45000 345.637
33.46000 344.548
33.47000 343.569
33.48000 342.693
33.49000 342.139
33.50000 344.458
33.51000 347.456
33.52000 349.843
33.53000 348.911
33.54000 347.479
33.55000 346.343
33.56000 339.368
33.57000 333.343
33.58000 332.253
33.59000 342.833
33.60000 353.908
33.61000 360.257
33.62000 359.140
33.63000 357.930
33.64000 357.318
33.65000 352.177
33.66000 348.715
33.67000 343.104
33.68000 336.078
33.69000 329.494
33.70000 334.310
33.71000 344.132
33.72000 353.366
33.73000 356.060
33.74000 356.765
33.75000 356.481
33.76000 349.312
33.77000 340.821
33.78000 333.460
33.79000 331.081
33.80000 329.290
33.81000 327.935
33.82000 335.493
33.83000 341.868
33.84000 343.984
33.85000 337.771
33.86000 331.340
33.87000 334.467
33.88000 349.945
33.89000 365.454
33.90000 363.417
33.91000 346.991
33.92000 330.895
33.93000 329.840
33.94000 336.935
33.95000 343.702
33.96000 344.814
33.97000 343.872
33.98000 343.006
33.99000 343.427
34.00000 344.081
34.01000 344.966
34.02000 347.136
34.03000 349.503
34.04000 350.521
34.05000 346.676
34.06000 342.393
34.07000 339.328
34.08000 336.669
34.09000 334.652
34.10000 334.989
34.11000 339.120
34.12000 343.302
34.13000 348.097
34.14000 353.532
34.15000 358.937
34.16000 356.245
34.17000 348.224
34.18000 340.635
34.19000 344.710
34.20000 354.005
34.21000 362.254
34.22000 357.451
34.23000 348.735
34.24000 340.934
34.25000 346.389
34.26000 353.418
34.27000 359.819
34.28000 363.402
34.29000 366.645
34.30000 366.695
34.31000 357.264
34.32000 347.205
34.33000 340.447
34.34000 351.838
34.35000 360.670
34.36000 365.940
34.37000 366.514
34.38000 367.065
34.39000 366.898
34.40000 366.128
34.41000 365.369
34.42000 359.441
34.43000 350.896
34.44000 342.738
34.45000 341.522
34.46000 342.876
34.47000 344.135
34.48000 344.505
34.49000 344.656
34.50000 344.787
34.51000 343.628
34.52000 342.468
34.53000 339.911
34.54000 332.225
34.55000 324.062
34.56000 320.838
34.57000 329.736
34.58000 339.190
34.59000 345.098
34.60000 346.187
34.61000 346.922
34.62000 346.658
34.63000 345.328
34.64000 343.966
34.65000 338.921
34.66000 331.354
34.67000 323.967
34.68000 322.685
34.69000 324.121
34.70000 325.506
34.71000 326.235
34.72000 326.763
34.73000 326.583
34.74000 321.236
34.75000 314.854
34.76000 309.509
34.77000 315.828
34.78000 322.285
34.79000 327.096
34.80000 326.930
34.81000 326.422
34.82000 326.491
34.83000 327.730
34.84000 329.002
34.85000 329.733
34.86000 338.452
34.87000 344.578
34.88000 348.215
34.89000 349.718
34.90000 351.094
34.91000 345.913
34.92000 337.044
34.93000 328.508
34.94000 325.077
34.95000 323.664
34.96000 323.106
34.97000 330.787
34.98000 340.536
34.99000 347.217
35.00000 336.110
35.01000 322.140
35.02000 310.906
35.03000 316.000
35.04000 321.392
35.05000 324.001
35.06000 319.649
35.07000 314.965
35.08000 312.748
35.09000 314.662
35.10000 316.641
35.11000 317.673
35.12000 313.091
35.13000 310.038
35.14000 313.247
35.15000 320.827
35.16000 328.137
35.17000 327.475
35.18000 323.108
35.19000 318.980
35.20000 312.214
35.21000 305.244
35.22000 299.666
35.23000 304.496
35.24000 311.453
35.25000 316.824
35.26000 314.768
35.27000 311.768
35.28000 309.466
35.29000 308.587
35.30000 307.972
35.31000 309.036
35.32000 313.572
35.33000 318.214
35.34000 319.698
35.35000 316.847
35.36000 313.972
35.37000 310.299
35.38000 305.933
35.39000 301.716
35.40000 305.705
35.41000 314.398
35.42000 322.535
35.43000 319.907
35.44000 313.144
35.45000 306.884
35.46000 309.889
35.47000 314.721
35.48000 317.794
35.49000 310.448
35.50000 301.386
35.51000 295.460
35.52000 301.514
35.53000 308.741
35.54000 314.002
35.55000 314.134
35.56000 314.040
35.57000 313.154
35.58000 310.918
35.59000 308.659
35.60000 310.893
35.61000 318.134
35.62000 325.349
35.63000 321.779
35.64000 310.637
35.65000 299.941
35.66000 303.055
35.67000 312.705
35.68000 321.813
35.69000 323.511
35.70000 322.857
35.71000 322.267
35.72000 312.459
35.73000 302.151
35.74000 295.010
35.75000 302.990
35.76000 312.940
35.77000 320.284
35.78000 319.439
35.79000 317.997
35.80000 317.009
35.81000 315.139
35.82000 313.716
35.83000 314.052
35.84000 316.850
35.85000 319.661
35.86000 318.158
35.87000 312.794
35.88000 307.487
35.89000 305.199
35.90000 304.686
35.91000 304.169
35.92000 303.571
35.93000 302.940
35.94000 302.411
35.95000 302.922
35.96000 303.703
35.97000 304.388
35.98000 301.175
35.99000 297.855
36.00000 295.173
36.01000 294.976
36.02000 295.030
36.03000 295.573
36.04000 297.387
36.05000 299.267
36.06000 300.469
36.07000 298.881
36.08000 297.689
36.09000 296.786
36.10000 296.211
36.11000 295.652
36.12000 297.692
36.13000 301.620
36.14000 305.468
36.15000 306.487
36.16000 306.156
36.17000 306.280
36.18000 312.822
36.19000 321.439
36.20000 329.118
36.21000 329.444
36.22000 328.203
36.23000 327.152
36.24000 317.119
36.25000 307.713
36.26000 299.459
36.27000 294.893
36.28000 290.603
36.29000 288.232
36.30000 289.978
36.31000 291.863
36.32000 292.975
36.33000 295.260
36.34000 296.881
36.35000 297.941
36.36000 298.491
36.37000 298.982
36.38000 295.742
36.39000 290.279
36.40000 284.998
36.41000 289.358
36.42000 297.102
36.43000 304.410
36.44000 307.174
36.45000 308.727
36.46000 310.302
36.47000 312.014
36.48000 313.750
36.49000 315.163
36.50000 310.474
36.51000 306.128
36.52000 301.456
36.53000 295.919
36.54000 290.336
36.55000 289.199
36.56000 295.943
36.57000 302.840
36.58000 306.548
36.59000 301.322
36.60000 297.742
36.61000 294.120
36.62000 290.468
36.63000 286.878
36.64000 285.396
36.65000 284.950
36.66000 284.526
36.67000 287.759
36.68000 291.862
36.69000 295.717
36.70000 297.586
36.71000 299.024
36.72000 299.871
36.73000 297.780
36.74000 295.287
36.75000 293.346
36.76000 289.997
36.77000 287.243
36.78000 286.925
36.79000 291.936
36.80000 297.135
36.81000 298.556
36.82000 294.474
36.83000 290.347
36.84000 291.723
36.85000 298.234
36.86000 304.667
36.87000 305.782
36.88000 303.670
36.89000 301.549
36.90000 299.243
36.91000 296.863
36.92000 294.645
36.93000 298.177
36.94000 302.785
36.95000 306.501
36.96000 304.570
36.97000 301.647
36.98000 300.173
36.99000 304.571
37.00000 309.592
37.01000 313.307
37.02000 309.663
37.03000 306.519
37.04000 305.909
37.05000 309.876
37.06000 313.938
37.07000 314.284
37.08000 310.224
37.09000 306.168
37.10000 304.840
37.11000 305.570
37.12000 306.314
37.13000 307.553
37.14000 309.040
37.15000 310.361
37.16000 309.201
37.17000 307.207
37.18000 305.393
37.19000 302.584
37.20000 299.904
37.21000 297.488
37.22000 296.411
37.23000 295.521
37.24000 294.259
37.25000 291.758
37.26000 289.157
37.27000 287.342
37.28000 290.714
37.29000 293.405
37.30000 297.784
37.31000 304.670
37.32000 311.579
37.33000 313.646
37.34000 311.094
37.35000 308.564
37.36000 301.364
37.37000 291.459
37.38000 281.994
37.39000 282.452
37.40000 287.018
37.41000 291.510
37.42000 295.191
37.43000 298.649
37.44000 301.706
37.45000 302.462
37.46000 302.757
37.47000 302.073
37.48000 297.336
37.49000 292.159
37.50000 289.360
37.51000 293.094
37.52000 297.202
37.53000 299.885
37.54000 301.348
37.55000 302.402
37.56000 304.301
37.57000 307.223
37.58000 310.135
37.59000 309.827
37.60000 307.035
37.61000 304.291
37.62000 299.476
37.63000 293.802
37.64000 288.421
37.65000 287.598
37.66000 288.335
37.67000 288.947
37.68000 288.511
37.69000 287.838
37.70000 287.262
37.71000 289.922
37.72000 292.556
37.73000 293.600
37.74000 289.257
37.75000 284.470
37.76000 282.283
37.77000 285.998
37.78000 289.941
37.79000 292.325
37.80000 292.849
37.81000 293.208
37.82000 292.525
37.83000 290.823
37.84000 289.211
37.85000 294.632
37.86000 304.491
37.87000 314.064
37.88000 312.724
37.89000 307.084
37.90000 301.409
37.91000 295.343
37.92000 289.167
37.93000 284.223
37.94000 287.438
37.95000 292.150
37.96000 296.033
37.97000 300.175
37.98000 303.608
37.99000 305.851
38.00000 304.768
38.01000 303.487
38.02000 304.480
38.03000 309.740
38.04000 315.099
38.05000 318.065
38.06000 314.104
38.07000 311.366
38.08000 311.058
38.09000 312.662
38.10000 314.178
38.11000 312.121
38.12000 308.206
38.13000 304.463
38.14000 301.309
38.15000 298.565
38.16000 296.528
38.17000 300.607
38.18000 306.100
38.19000 310.391
38.20000 308.313
38.21000 305.301
38.22000 302.924
38.23000 310.258
38.24000 316.802
38.25000 322.185
38.26000 324.882
38.27000 327.472
38.28000 325.324
38.29000 315.861
38.30000 306.315
38.31000 306.847
38.32000 317.422
38.33000 327.974
38.34000 336.551
38.35000 343.856
38.36000 351.125
38.37000 357.478
38.38000 363.438
38.39000 369.027
38.40000 369.104
38.41000 367.730
38.42000 368.751
38.43000 386.002
38.44000 406.294
38.45000 425.110
38.46000 437.578
38.47000 449.318
38.48000 458.142
38.49000 488.760
38.50000 513.747
38.51000 537.862
38.52000 560.308
38.53000 582.713
38.54000 611.147
38.55000 647.187
38.56000 683.195
38.57000 715.897
38.58000 745.817
38.59000 776.000
38.60000 817.343
38.61000 864.597
38.62000 911.244
38.63000 947.785
38.64000 980.737
38.65000 1010.934
38.66000 1052.594
38.67000 1092.097
38.68000 1129.592
38.69000 1156.215
38.70000 1181.208
38.71000 1205.510
38.72000 1227.371
38.73000 1249.021
38.74000 1264.405
38.75000 1258.763
38.76000 1253.797
38.77000 1243.476
38.78000 1224.720
38.79000 1205.862
38.80000 1183.901
38.81000 1158.779
38.82000 1133.818
38.83000 1106.753
38.84000 1078.721
38.85000 1050.400
38.86000 1014.687
38.87000 975.739
38.88000 936.595
38.89000 895.094
38.90000 852.903
38.91000 815.267
38.92000 763.933
38.93000 716.988
38.94000 671.704
38.95000 633.710
38.96000 596.572
38.97000 562.360
38.98000 536.643
38.99000 511.466
39.00000 494.685
39.01000 466.070
39.02000 444.659
39.03000 427.774
39.04000 416.716
39.05000 405.694
39.06000 400.489
39.07000 400.052
39.08000 399.622
39.09000 384.369
39.10000 361.782
39.11000 339.814
39.12000 328.496
39.13000 321.032
39.14000 313.948
39.15000 310.318
39.16000 307.518
39.17000 305.098
39.18000 302.171
39.19000 299.619
39.20000 296.643
39.21000 292.146
39.22000 287.514
39.23000 284.915
39.24000 287.200
39.25000 289.699
39.26000 291.247
39.27000 289.375
39.28000 287.997
39.29000 287.021
39.30000 286.465
39.31000 285.940
39.32000 288.550
39.33000 293.258
39.34000 297.848
39.35000 298.352
39.36000 297.094
39.37000 295.315
39.38000 287.067
39.39000 276.887
39.40000 268.584
39.41000 273.604
39.42000 281.225
39.43000 287.581
39.44000 286.151
39.45000 284.188
39.46000 283.483
39.47000 286.499
39.48000 289.760
39.49000 292.027
39.50000 292.319
39.51000 292.558
39.52000 292.693
39.53000 289.147
39.54000 286.662
39.55000 283.195
39.56000 278.905
39.57000 274.703
39.58000 274.689
39.59000 276.979
39.60000 279.179
39.61000 280.237
39.62000 280.834
39.63000 280.706
39.64000 273.811
39.65000 265.257
39.66000 258.282
39.67000 260.237
39.68000 263.592
39.69000 266.275
39.70000 265.683
39.71000 264.961
39.72000 267.183
39.73000 276.610
39.74000 286.364
39.75000 289.836
39.76000 283.027
39.77000 276.071
39.78000 272.485
39.79000 273.338
39.80000 273.909
39.81000 274.125
39.82000 274.099
39.83000 274.034
39.84000 272.881
39.85000 271.235
39.86000 269.681
39.87000 265.846
39.88000 261.695
39.89000 258.576
39.90000 262.957
39.91000 268.835
39.92000 272.694
39.93000 267.331
39.94000 260.829
39.95000 255.867
39.96000 258.433
39.97000 260.858
39.98000 261.299
39.99000 257.726
40.00000 254.038
40.01000 255.700
40.02000 264.533
40.03000 273.396
40.04000 273.443
40.05000 265.971
40.06000 258.593
40.07000 256.008
40.08000 256.109
40.09000 256.196
40.10000 256.035
40.11000 255.780
40.12000 255.545
40.13000 262.339
40.14000 270.004
40.15000 275.593
40.16000 269.193
40.17000 260.870
40.18000 254.029
40.19000 252.715
40.20000 251.925
40.21000 251.353
40.22000 253.293
40.23000 254.873
40.24000 255.242
40.25000 253.592
40.26000 251.911
40.27000 255.633
40.28000 265.226
40.29000 274.778
40.30000 275.577
40.31000 270.345
40.32000 265.183
40.33000 262.048
40.34000 259.850
40.35000 257.531
40.36000 253.620
40.37000 249.215
40.38000 245.253
40.39000 246.669
40.40000 248.869
40.41000 251.467
40.42000 255.915
40.43000 260.597
40.44000 263.887
40.45000 262.898
40.46000 261.610
40.47000 260.734
40.48000 259.275
40.49000 258.172
40.50000 254.953
40.51000 248.841
40.52000 242.716
40.53000 241.752
40.54000 245.292
40.55000 248.790
40.56000 254.486
40.57000 261.270
40.58000 267.584
40.59000 264.872
40.60000 258.704
40.61000 253.179
40.62000 253.991
40.63000 256.418
40.64000 258.537
40.65000 251.453
40.66000 244.101
40.67000 238.833
40.68000 241.501
40.69000 244.942
40.70000 249.065
40.71000 254.917
40.72000 260.855
40.73000 264.617
40.74000 263.362
40.75000 262.391
40.76000 258.237
40.77000 250.550
40.78000 242.918
40.79000 243.460
40.80000 249.801
40.81000 256.004
40.82000 256.114
40.83000 253.462
40.84000 250.783
40.85000 247.727
40.86000 244.552
40.87000 242.584
40.88000 249.804
40.89000 258.934
40.90000 266.632
40.91000 265.655
40.92000 263.899
40.93000 261.057
40.94000 254.811
40.95000 248.319
40.96000 244.542
40.97000 246.469
40.98000 248.576
40.99000 249.807
41.00000 251.677
41.01000 252.994
41.02000 252.885
41.03000 251.505
41.04000 250.189
41.05000 252.669
41.06000 257.359
41.07000 261.885
41.08000 255.819
41.09000 246.217
41.10000 237.474
41.11000 237.428
41.12000 239.644
41.13000 242.067
41.14000 245.740
41.15000 249.622
41.16000 252.767
41.17000 251.327
41.18000 249.780
41.19000 248.881
41.20000 249.661
41.21000 250.526
41.22000 250.812
41.23000 250.095
41.24000 249.361
41.25000 248.971
41.26000 260.087
41.27000 267.598
41.28000 265.202
41.29000 255.639
41.30000 246.310
41.31000 244.553
41.32000 246.436
41.33000 248.222
41.34000 247.185
41.35000 245.389
41.36000 243.541
41.37000 241.286
41.38000 238.945
41.39000 237.285
41.40000 238.932
41.41000 241.018
41.42000 242.633
41.43000 240.143
41.44000 237.922
41.45000 237.555
41.46000 241.152
41.47000 244.881
41.48000 247.499
41.49000 248.535
41.50000 249.559
41.51000 250.537
41.52000 251.472
41.53000 252.352
41.54000 249.813
41.55000 245.246
41.56000 240.768
41.57000 238.132
41.58000 236.229
41.59000 234.460
41.60000 233.782
41.61000 233.433
41.62000 233.054
41.63000 232.497
41.64000 231.910
41.65000 231.522
41.66000 231.920
41.67000 232.400
41.68000 232.753
41.69000 237.511
41.70000 241.371
41.71000 243.325
41.72000 241.908
41.73000 240.428
41.74000 238.385
41.75000 235.691
41.76000 233.004
41.77000 231.107
41.78000 229.803
41.79000 228.555
41.80000 229.175
41.81000 230.711
41.82000 232.486
41.83000 237.721
41.84000 244.092
41.85000 249.870
41.86000 247.708
41.87000 244.283
41.88000 241.645
41.89000 242.906
41.90000 244.698
41.91000 246.464
41.92000 248.147
41.93000 249.823
41.94000 250.984
41.95000 247.143
41.96000 244.121
41.97000 242.432
41.98000 242.679
41.99000 242.942
42.00000 243.942
42.01000 245.627
42.02000 247.296
42.03000 244.703
42.04000 239.633
42.05000 234.746
42.06000 233.797
42.07000 234.442
42.08000 235.484
42.09000 240.776
42.10000 247.217
42.11000 252.892
42.12000 248.918
42.13000 244.039
42.14000 240.285
42.15000 241.072
42.16000 242.337
42.17000 244.443
42.18000 248.803
42.19000 253.287
42.20000 256.191
42.21000 252.631
42.22000 249.931
42.23000 250.412
42.24000 254.650
42.25000 258.867
42.26000 257.314
42.27000 251.415
42.28000 245.624
42.29000 245.232
42.30000 247.452
42.31000 249.577
42.32000 250.292
42.33000 250.535
42.34000 250.305
42.35000 246.199
42.36000 241.237
42.37000 237.008
42.38000 235.087
42.39000 233.742
42.40000 233.752
42.41000 238.254
42.42000 243.113
42.43000 245.423
42.44000 242.073
42.45000 238.516
42.46000 236.386
42.47000 236.397
42.48000 236.419
42.49000 238.158
42.50000 241.528
42.51000 244.875
42.52000 246.537
42.53000 247.159
42.54000 247.763
42.55000 246.610
42.56000 244.832
42.57000 242.774
42.58000 237.639
42.59000 231.657
42.60000 226.222
42.61000 224.322
42.62000 223.053
42.63000 222.013
42.64000 224.524
42.65000 226.900
42.66000 228.688
42.67000 228.868
42.68000 228.956
42.69000 227.609
42.70000 223.627
42.71000 219.589
42.72000 217.379
42.73000 229.731
42.74000 238.222
42.75000 241.215
42.76000 239.983
42.77000 238.712
42.78000 235.945
42.79000 232.418
42.80000 229.054
42.81000 232.359
42.82000 237.538
42.83000 242.440
42.84000 245.021
42.85000 247.079
42.86000 248.386
42.87000 245.807
42.88000 242.674
42.89000 240.215
42.90000 229.559
42.91000 220.497
42.92000 215.592
42.93000 220.091
42.94000 224.949
42.95000 230.616
42.96000 237.505
42.97000 244.407
42.98000 245.504
42.99000 240.966
43.00000 236.438
43.01000 232.714
43.02000 229.496
43.03000 226.547
43.04000 229.885
43.05000 235.865
43.06000 241.458
43.07000 236.084
43.08000 228.402
43.09000 222.032
43.10000 224.310
43.11000 228.167
43.12000 230.831
43.13000 228.484
43.14000 225.579
43.15000 223.410
43.16000 229.483
43.17000 234.597
43.18000 236.179
43.19000 231.161
43.20000 225.993
43.21000 226.640
43.22000 234.448
43.23000 242.260
43.24000 241.939
43.25000 235.273
43.26000 228.773
43.27000 228.839
43.28000 232.307
43.29000 235.623
43.30000 236.520
43.31000 236.576
43.32000 236.628
43.33000 234.390
43.34000 231.935
43.35000 228.822
43.36000 222.235
43.37000 215.141
43.38000 210.000
43.39000 211.589
43.40000 213.745
43.41000 215.266
43.42000 214.997
43.43000 214.738
43.44000 216.741
43.45000 222.223
43.46000 227.743
43.47000 231.203
43.48000 232.618
43.49000 234.024
43.50000 235.896
43.51000 238.031
43.52000 239.941
43.53000 236.355
43.54000 230.417
43.55000 225.041
43.56000 226.202
43.57000 229.236
43.58000 231.933
43.59000 226.132
43.60000 219.722
43.61000 215.249
43.62000 219.072
43.63000 223.841
43.64000 227.005
43.65000 225.614
43.66000 223.945
43.67000 222.841
43.68000 228.181
43.69000 232.237
43.70000 232.702
43.71000 228.655
43.72000 224.599
43.73000 222.425
43.74000 221.759
43.75000 221.102
43.76000 221.001
43.77000 221.187
43.78000 221.180
43.79000 217.997
43.80000 213.689
43.81000 210.169
43.82000 213.607
43.83000 218.679
43.84000 223.046
43.85000 225.492
43.86000 227.321
43.87000 227.791
43.88000 223.488
43.89000 218.772
43.90000 215.178
43.91000 214.218
43.92000 213.368
43.93000 212.846
43.94000 220.012
43.95000 225.212
43.96000 226.046
43.97000 222.452
43.98000 218.912
43.99000 220.442
44.00000 225.286
44.01000 230.000
44.02000 227.169
44.03000 221.340
44.04000 215.920
44.05000 215.417
44.06000 216.350
44.07000 217.433
44.08000 219.557
44.09000 221.880
44.10000 223.808
44.11000 224.417
44.12000 224.792
44.13000 224.571
44.14000 222.625
44.15000 220.569
44.16000 219.796
44.17000 221.513
44.18000 223.294
44.19000 224.296
44.20000 223.917
44.21000 223.646
44.22000 221.363
44.23000 217.436
44.24000 213.625
44.25000 214.932
44.26000 218.992
44.27000 222.885
44.28000 222.581
44.29000 220.885
44.30000 219.372
44.31000 219.531
44.32000 220.090
44.33000 220.755
44.34000 222.000
44.35000 223.334
44.36000 224.395
44.37000 219.032
44.38000 214.247
44.39000 212.031
44.40000 215.961
44.41000 220.157
44.42000 223.151
44.43000 224.221
44.44000 225.265
44.45000 225.797
44.46000 224.853
44.47000 224.270
44.48000 228.792
44.49000 236.717
44.50000 244.401
44.51000 245.691
44.52000 244.140
44.53000 242.681
44.54000 241.849
44.55000 241.260
44.56000 240.202
44.57000 235.835
44.58000 230.825
44.59000 226.180
44.60000 223.169
44.61000 220.354
44.62000 218.219
44.63000 229.247
44.64000 238.585
44.65000 245.220
44.66000 246.509
44.67000 247.653
44.68000 247.958
44.69000 247.163
44.70000 246.365
44.71000 245.035
44.72000 243.266
44.73000 241.481
44.74000 238.897
44.75000 235.875
44.76000 233.086
44.77000 234.422
44.78000 237.274
44.79000 239.899
44.80000 244.514
44.81000 249.076
44.82000 252.884
44.83000 252.451
44.84000 251.355
44.85000 251.427
44.86000 255.760
44.87000 260.483
44.88000 263.875
44.89000 260.764
44.90000 258.159
44.91000 255.458
44.92000 252.599
44.93000 249.737
44.94000 251.726
44.95000 258.853
44.96000 265.944
44.97000 264.998
44.98000 258.671
44.99000 252.547
45.00000 252.054
45.01000 254.110
45.02000 256.108
45.03000 257.385
45.04000 258.442
45.05000 259.389
45.06000 259.208
45.07000 258.854
45.08000 258.636
45.09000 259.032
45.10000 259.503
45.11000 262.002
45.12000 270.595
45.13000 279.598
45.14000 285.672
45.15000 274.058
45.16000 265.042
45.17000 262.018
45.18000 266.994
45.19000 272.001
45.20000 270.727
45.21000 264.105
45.22000 257.567
45.23000 260.354
45.24000 268.142
45.25000 275.506
45.26000 275.069
45.27000 271.713
45.28000 268.412
45.29000 265.649
45.30000 263.020
45.31000 260.734
45.32000 255.762
45.33000 251.155
45.34000 248.231
45.35000 251.570
45.36000 255.499
45.37000 257.922
45.38000 256.603
45.39000 255.108
45.40000 254.170
45.41000 247.698
45.42000 242.958
45.43000 241.047
45.44000 242.196
45.45000 243.340
45.46000 243.812
45.47000 243.818
45.48000 243.824
45.49000 242.551
45.50000 240.767
45.51000 239.085
45.52000 238.743
45.53000 238.816
45.54000 238.542
45.55000 235.705
45.56000 232.348
45.57000 229.530
45.58000 230.898
45.59000 232.475
45.60000 233.470
45.61000 232.682
45.62000 231.769
45.63000 229.289
45.64000 223.588
45.65000 217.790
45.66000 214.438
45.67000 217.161
45.68000 219.092
45.69000 219.019
45.70000 217.205
45.71000 215.424
45.72000 215.481
45.73000 216.583
45.74000 217.645
45.75000 216.262
45.76000 214.085
45.77000 211.898
45.78000 209.607
45.79000 207.289
45.80000 205.178
45.81000 204.282
45.82000 203.584
45.83000 203.021
45.84000 204.690
45.85000 206.221
45.86000 206.392
45.87000 203.121
45.88000 199.683
45.89000 200.638
45.90000 209.035
45.91000 217.555
45.92000 222.029
45.93000 218.243
45.94000 215.677
45.95000 213.536
45.96000 211.695
45.97000 209.892
45.98000 209.261
45.99000 209.181
46.00000 209.104
46.01000 207.399
46.02000 205.357
46.03000 203.338
46.04000 201.495
46.05000 199.689
46.06000 198.269
46.07000 198.679
46.08000 199.325
46.09000 199.823
46.10000 207.190
46.11000 213.414
46.12000 214.725
46.13000 205.757
46.14000 196.466
46.15000 194.927
46.16000 204.161
46.17000 213.460
46.18000 213.514
46.19000 205.372
46.20000 197.375
46.21000 197.685
46.22000 202.813
46.23000 207.621
46.24000 206.066
46.25000 202.039
46.26000 198.306
46.27000 198.175
46.28000 198.897
46.29000 200.123
46.30000 204.378
46.31000 209.138
46.32000 212.864
46.33000 212.587
46.34000 211.913
46.35000 211.420
46.36000 208.263
46.37000 205.724
46.38000 204.859
46.39000 206.885
46.40000 208.961
46.41000 209.788
46.42000 209.207
46.43000 208.627
46.44000 207.141
46.45000 205.022
46.46000 203.039
46.47000 205.358
46.48000 209.738
46.49000 213.558
46.50000 209.576
46.51000 203.089
46.52000 197.224
46.53000 192.320
46.54000 188.183
46.55000 186.217
46.56000 194.752
46.57000 204.675
46.58000 211.552
46.59000 208.740
46.60000 205.208
46.61000 202.779
46.62000 197.670
46.63000 193.771
46.64000 193.128
46.65000 197.100
46.66000 201.105
46.67000 203.387
46.68000 204.108
46.69000 204.822
46.70000 205.572
46.71000 206.327
46.72000 207.119
46.73000 208.665
46.74000 210.509
46.75000 211.911
46.76000 208.735
46.77000 204.349
46.78000 200.498
46.79000 199.799
46.80000 199.660
46.81000 199.681
46.82000 200.335
46.83000 201.053
46.84000 201.754
46.85000 202.411
46.86000 203.065
46.87000 203.485
46.88000 198.584
46.89000 194.938
46.90000 194.405
46.91000 197.462
46.92000 200.509
46.93000 200.947
46.94000 199.466
46.95000 198.015
46.96000 195.283
46.97000 192.052
46.98000 189.217
46.99000 192.076
47.00000 196.798
47.01000 200.632
47.02000 197.399
47.03000 192.640
47.04000 188.602
47.05000 189.195
47.06000 190.218
47.07000 192.709
47.08000 199.953
47.09000 207.562
47.10000 210.581
47.11000 203.631
47.12000 196.336
47.13000 192.009
47.14000 194.008
47.15000 195.458
47.16000 195.500
47.17000 194.239
47.18000 192.996
47.19000 193.016
47.20000 193.796
47.21000 194.551
47.22000 192.333
47.23000 189.103
47.24000 186.401
47.25000 189.314
47.26000 193.738
47.27000 197.129
47.28000 194.030
47.29000 189.801
47.30000 186.348
47.31000 187.549
47.32000 188.931
47.33000 190.088
47.34000 190.641
47.35000 191.160
47.36000 192.675
47.37000 195.978
47.38000 199.316
47.39000 201.122
47.40000 194.692
47.41000 190.303
47.42000 190.349
47.43000 193.724
47.44000 197.000
47.45000 196.772
47.46000 194.804
47.47000 192.931
47.48000 191.145
47.49000 189.519
47.50000 188.092
47.51000 188.290
47.52000 188.846
47.53000 189.346
47.54000 189.571
47.55000 189.758
47.56000 189.903
47.57000 188.154
47.58000 186.639
47.59000 185.775
47.60000 186.350
47.61000 186.978
47.62000 184.511
47.63000 177.483
47.64000 170.415
47.65000 173.553
47.66000 186.343
47.67000 198.976
47.68000 200.338
47.69000 194.774
47.70000 189.439
47.71000 189.205
47.72000 191.067
47.73000 192.804
47.74000 189.229
47.75000 184.668
47.76000 181.463
47.77000 186.958
47.78000 194.002
47.79000 199.097
47.80000 196.197
47.81000 192.434
47.82000 189.641
47.83000 187.382
47.84000 185.650
47.85000 185.047
47.86000 186.508
47.87000 188.014
47.88000 186.798
47.89000 182.314
47.90000 177.835
47.91000 179.627
47.92000 186.182
47.93000 192.639
47.94000 195.463
47.95000 196.448
47.96000 197.171
47.97000 193.857
47.98000 189.173
47.99000 184.905
48.00000 185.240
48.01000 186.452
48.02000 187.561
48.03000 188.135
48.04000 188.633
48.05000 188.761
48.06000 187.644
48.07000 186.426
48.08000 185.573
48.09000 177.942
48.10000 171.977
48.11000 169.395
48.12000 171.901
48.13000 174.457
48.14000 178.100
48.15000 182.792
48.16000 187.448
48.17000 188.385
48.18000 187.017
48.19000 185.699
48.20000 185.548
48.21000 185.885
48.22000 186.241
48.23000 186.807
48.24000 187.432
48.25000 187.985
48.26000 187.242
48.27000 186.394
48.28000 185.750
48.29000 185.960
48.30000 186.263
48.31000 184.856
48.32000 178.694
48.33000 172.253
48.34000 168.029
48.35000 170.753
48.36000 172.871
48.37000 173.767
48.38000 173.165
48.39000 172.565
48.40000 173.496
48.41000 175.623
48.42000 177.715
48.43000 179.356
48.44000 180.720
48.45000 182.082
48.46000 183.420
48.47000 184.751
48.48000 185.814
48.49000 184.586
48.50000 182.833
48.51000 181.330
48.52000 182.317
48.53000 183.457
48.54000 184.444
48.55000 184.910
48.56000 185.332
48.57000 186.879
48.58000 191.011
48.59000 195.244
48.60000 197.817
48.61000 190.510
48.62000 185.217
48.63000 183.877
48.64000 186.445
48.65000 188.987
48.66000 189.423
48.67000 188.513
48.68000 187.629
48.69000 179.124
48.70000 167.953
48.71000 158.286
48.72000 166.019
48.73000 178.719
48.74000 189.692
48.75000 189.063
48.76000 186.279
48.77000 183.979
48.78000 186.220
48.79000 188.492
48.80000 189.772
48.81000 188.242
48.82000 186.542
48.83000 187.533
48.84000 193.629
48.85000 199.848
48.86000 203.310
48.87000 194.953
48.88000 189.165
48.89000 188.435
48.90000 191.739
48.91000 194.910
48.92000 192.545
48.93000 187.270
48.94000 182.221
48.95000 183.625
48.96000 187.053
48.97000 189.899
48.98000 187.630
48.99000 184.164
49.00000 181.181
49.01000 180.793
49.02000 180.789
49.03000 180.787
49.04000 185.649
49.05000 189.895
49.06000 191.460
49.07000 186.755
49.08000 181.791
49.09000 178.987
49.10000 179.560
49.11000 180.173
49.12000 180.481
49.13000 176.514
49.14000 173.864
49.15000 171.188
49.16000 168.494
49.17000 166.126
49.18000 171.957
49.19000 181.353
49.20000 190.175
49.21000 187.763
49.22000 182.583
49.23000 178.662
49.24000 183.399
49.25000 189.779
49.26000 194.251
49.27000 190.413
49.28000 185.607
49.29000 181.984
49.30000 183.864
49.31000 185.608
49.32000 186.805
49.33000 186.947
49.34000 187.062
49.35000 185.047
49.36000 180.309
49.37000 175.568
49.38000 173.310
49.39000 173.073
49.40000 172.889
49.41000 175.038
49.42000 178.437
49.43000 181.481
49.44000 178.486
49.45000 173.319
49.46000 168.578
49.47000 166.637
49.48000 165.503
49.49000 165.288
49.50000 170.117
49.51000 175.712
49.52000 181.064
49.53000 185.547
49.54000 189.954
49.55000 193.096
49.56000 188.097
49.57000 184.018
49.58000 181.077
49.59000 179.949
49.60000 178.845
49.61000 177.311
49.62000 175.334
49.63000 173.369
49.64000 174.101
49.65000 176.590
49.66000 179.065
49.67000 181.166
49.68000 183.102
49.69000 184.904
49.70000 185.062
49.71000 184.734
49.72000 184.440
49.73000 181.141
49.74000 177.759
49.75000 175.594
49.76000 178.834
49.77000 182.720
49.78000 184.987
49.79000 182.498
49.80000 179.700
49.81000 177.828
49.82000 171.442
49.83000 166.617
49.84000 165.656
49.85000 169.735
49.86000 173.835
49.87000 177.685
49.88000 181.329
49.89000 184.923
49.90000 184.280
49.91000 181.405
49.92000 178.611
49.93000 177.237
49.94000 176.383
49.95000 175.710
49.96000 176.706
49.97000 178.108
49.98000 179.323
49.99000 176.591
50.00000 173.744
50.01000 172.358
50.02000 176.283
50.03000 180.691
50.04000 182.708
50.05000 178.914
50.06000 174.860
50.07000 172.337
50.08000 168.374
50.09000 165.505
50.10000 164.815
50.11000 166.424
50.12000 168.049
50.13000 171.448
50.14000 176.049
50.15000 180.537
50.16000 178.448
50.17000 173.617
50.18000 169.237
50.19000 170.555
50.20000 173.595
50.21000 176.334
50.22000 176.907
50.23000 177.052
50.24000 177.173
50.25000 179.712
50.26000 182.066
50.27000 182.297
50.28000 176.174
50.29000 169.624
50.30000 166.327
50.31000 169.566
50.32000 172.989
50.33000 174.947
50.34000 181.209
50.35000 185.591
50.36000 187.289
50.37000 186.710
50.38000 186.115
50.39000 184.729
50.40000 182.902
50.41000 181.145
50.42000 180.489
50.43000 180.259
50.44000 180.370
50.45000 183.710
50.46000 187.852
50.47000 191.150
50.48000 189.613
50.49000 187.308
50.50000 185.460
50.51000 181.596
50.52000 178.315
50.53000 176.932
50.54000 180.245
50.55000 183.777
50.56000 184.680
50.57000 181.228
50.58000 177.711
50.59000 175.886
50.60000 178.616
50.61000 180.485
50.62000 185.369
50.63000 192.336
50.64000 199.225
50.65000 203.908
50.66000 207.576
50.67000 211.041
50.68000 208.829
50.69000 205.194
50.70000 202.437
50.71000 206.148
50.72000 211.166
50.73000 213.617
50.74000 204.190
50.75000 193.275
50.76000 184.920
50.77000 183.144
50.78000 182.102
50.79000 182.921
50.80000 187.547
50.81000 192.285
50.82000 192.254
50.83000 185.748
50.84000 179.210
50.85000 181.962
50.86000 192.735
50.87000 203.318
50.88000 203.791
50.89000 198.529
50.90000 193.498
50.91000 192.841
50.92000 193.846
50.93000 194.774
50.94000 187.482
50.95000 179.068
50.96000 172.155
50.97000 174.028
50.98000 177.327
50.99000 180.581
51.00000 183.660
51.01000 186.721
51.02000 188.943
51.03000 182.351
51.04000 176.957
51.05000 175.308
51.06000 179.981
51.07000 184.756
51.08000 184.117
51.09000 177.519
51.10000 170.947
51.11000 169.542
51.12000 171.754
51.13000 173.974
51.14000 176.439
51.15000 179.018
51.16000 181.071
51.17000 176.050
51.18000 168.807
51.19000 162.281
51.20000 161.441
51.21000 161.732
51.22000 162.536
51.23000 165.758
51.24000 169.290
51.25000 171.646
51.26000 170.344
51.27000 168.781
51.28000 167.715
51.29000 170.882
51.30000 173.348
51.31000 174.953
51.32000 175.363
51.33000 175.766
51.34000 176.142
51.35000 176.495
51.36000 176.844
51.37000 176.123
51.38000 174.814
51.39000 173.633
51.40000 174.980
51.41000 177.305
51.42000 179.019
51.43000 174.614
51.44000 168.629
51.45000 163.394
51.46000 161.882
51.47000 161.116
51.48000 161.566
51.49000 166.702
51.50000 172.302
51.51000 174.923
51.52000 169.894
51.53000 164.479
51.54000 161.033
51.55000 164.837
51.56000 167.692
51.57000 169.998
51.58000 171.686
51.59000 173.356
51.60000 172.275
51.61000 169.220
51.62000 166.229
51.63000 167.132
51.64000 169.784
51.65000 172.069
51.66000 169.257
51.67000 164.814
51.68000 161.328
51.69000 165.231
51.70000 170.691
51.71000 175.305
51.72000 180.338
51.73000 184.593
51.74000 186.221
51.75000 179.526
51.76000 172.216
51.77000 167.495
51.78000 168.272
51.79000 169.229
51.80000 169.790
51.81000 164.890
51.82000 161.409
51.83000 159.302
51.84000 158.435
51.85000 157.570
51.86000 156.831
51.87000 156.166
51.88000 155.523
51.89000 154.212
51.90000 152.726
51.91000 151.716
51.92000 155.603
51.93000 160.778
51.94000 165.520
51.95000 167.614
51.96000 169.259
51.97000 170.595
51.98000 165.450
51.99000 160.715
52.00000 157.451
52.01000 158.035
52.02000 158.821
52.03000 159.083
52.04000 158.429
52.05000 157.758
52.06000 157.399
52.07000 152.153
52.08000 148.589
52.09000 148.128
52.10000 149.938
52.11000 151.719
52.12000 152.490
52.13000 152.769
52.14000 153.035
52.15000 155.471
52.16000 158.375
52.17000 161.173
52.18000 163.140
52.19000 164.928
52.20000 165.809
52.21000 162.227
52.22000 158.043
52.23000 154.794
52.24000 157.981
52.25000 160.905
52.26000 162.541
52.27000 161.387
52.28000 160.137
52.29000 160.808
52.30000 164.247
52.31000 167.708
52.32000 168.711
52.33000 167.450
52.34000 166.178
52.35000 164.203
52.36000 161.806
52.37000 159.454
52.38000 158.062
52.39000 157.057
52.40000 156.121
52.41000 158.045
52.42000 160.476
52.43000 162.311
52.44000 160.415
52.45000 157.872
52.46000 155.747
52.47000 155.301
52.48000 155.029
52.49000 154.829
52.50000 157.341
52.51000 159.402
52.52000 160.953
52.53000 161.595
52.54000 162.220
52.55000 160.544
52.56000 156.173
52.57000 151.810
52.58000 153.356
52.59000 159.276
52.60000 165.052
52.61000 165.781
52.62000 164.011
52.63000 162.201
52.64000 159.800
52.65000 157.203
52.66000 154.844
52.67000 156.333
52.68000 158.393
52.69000 159.417
52.70000 155.239
52.71000 150.343
52.72000 146.718
52.73000 147.278
52.74000 148.166
52.75000 148.783
52.76000 158.384
52.77000 165.865
52.78000 170.176
52.79000 169.832
52.80000 169.448
52.81000 170.594
52.82000 173.183
52.83000 175.750
52.84000 172.685
52.85000 166.297
52.86000 160.034
52.87000 156.536
52.88000 154.171
52.89000 152.469
52.90000 157.975
52.91000 165.453
52.92000 172.054
52.93000 170.325
52.94000 167.558
52.95000 165.362
52.96000 165.499
52.97000 165.886
52.98000 166.360
52.99000 167.071
53.00000 167.795
53.01000 168.265
53.02000 165.328
53.03000 163.122
53.04000 161.421
53.05000 160.322
53.06000 159.225
53.07000 158.336
53.08000 157.603
53.09000 156.884
53.10000 159.121
53.11000 162.721
53.12000 166.075
53.13000 165.662
53.14000 163.974
53.15000 162.603
53.16000 163.869
53.17000 165.724
53.18000 167.309
53.19000 165.295
53.20000 163.171
53.21000 161.773
53.22000 162.811
53.23000 164.045
53.24000 164.201
53.25000 161.933
53.26000 159.574
53.27000 158.153
53.28000 162.641
53.29000 165.874
53.30000 164.230
53.31000 157.891
53.32000 151.671
53.33000 154.531
53.34000 163.057
53.35000 171.329
53.36000 170.529
53.37000 166.182
53.38000 162.139
53.39000 161.508
53.40000 161.829
53.41000 161.751
53.42000 159.064
53.43000 155.905
53.44000 153.307
53.45000 161.090
53.46000 168.425
53.47000 173.891
53.48000 174.185
53.49000 174.176
53.50000 172.636
53.51000 168.250
53.52000 163.800
53.53000 161.351
53.54000 160.352
53.55000 159.666
53.56000 158.989
53.57000 158.320
53.58000 157.616
53.59000 155.582
53.60000 152.864
53.61000 150.268
53.62000 152.041
53.63000 155.090
53.64000 157.484
53.65000 154.286
53.66000 149.812
53.67000 147.842
53.68000 158.987
53.69000 172.027
53.70000 182.294
53.71000 167.212
53.72000 153.434
53.73000 144.737
53.74000 147.667
53.75000 151.054
53.76000 152.212
53.77000 149.965
53.78000 147.682
53.79000 149.024
53.80000 153.932
53.81000 158.805
53.82000 160.776
53.83000 160.900
53.84000 161.058
53.85000 162.006
53.86000 163.291
53.87000 164.495
53.88000 163.131
53.89000 161.226
53.90000 159.810
53.91000 161.668
53.92000 164.132
53.93000 164.982
53.94000 158.975
53.95000 152.192
53.96000 147.109
53.97000 152.349
53.98000 156.926
53.99000 160.093
54.00000 160.592
54.01000 161.028
54.02000 161.229
54.03000 161.138
54.04000 161.046
54.05000 161.564
54.06000 162.561
54.07000 163.530
54.08000 163.297
54.09000 162.435
54.10000 161.539
54.11000 160.095
54.12000 158.458
54.13000 156.960
54.14000 156.911
54.15000 157.168
54.16000 157.588
54.17000 158.886
54.18000 160.314
54.19000 159.531
54.20000 151.042
54.21000 141.892
54.22000 135.412
54.23000 146.507
54.24000 155.488
54.25000 159.417
54.26000 155.478
54.27000 151.448
54.28000 148.636
54.29000 147.050
54.30000 145.475
54.31000 149.920
54.32000 158.144
54.33000 166.022
54.34000 165.273
54.35000 160.787
54.36000 156.492
54.37000 154.460
54.38000 153.083
54.39000 151.858
54.40000 154.572
54.41000 157.577
54.42000 159.428
54.43000 156.266
54.44000 152.525
54.45000 150.299
54.46000 152.431
54.47000 154.835
54.48000 156.431
54.49000 160.898
54.50000 164.252
54.51000 166.924
54.52000 168.726
54.53000 170.511
54.54000 167.348
54.55000 160.175
54.56000 153.106
54.57000 150.442
54.58000 150.139
54.59000 150.056
54.60000 153.677
54.61000 158.626
54.62000 163.079
54.63000 163.082
54.64000 162.027
54.65000 161.117
54.66000 161.576
54.67000 162.141
54.68000 162.148
54.69000 160.172
54.70000 158.022
54.71000 155.727
54.72000 153.089
54.73000 150.437
54.74000 148.802
54.75000 157.117
54.76000 163.176
54.77000 168.351
54.78000 172.618
54.79000 176.819
54.80000 174.599
54.81000 168.133
54.82000 161.835
54.83000 160.470
54.84000 161.245
54.85000 162.000
54.86000 162.525
54.87000 162.982
54.88000 163.137
54.89000 161.171
54.90000 158.797
54.91000 156.821
54.92000 159.924
54.93000 162.991
54.94000 165.262
54.95000 165.202
54.96000 164.991
54.97000 165.134
54.98000 165.973
54.99000 166.829
55.00000 167.314
55.01000 165.573
55.02000 164.356
55.03000 163.297
55.04000 162.370
55.05000 161.471
55.06000 161.901
55.07000 163.053
55.08000 164.159
55.09000 167.005
55.10000 170.259
55.11000 172.875
55.12000 169.624
55.13000 164.949
55.14000 161.205
55.15000 162.650
55.16000 164.898
55.17000 166.693
55.18000 171.284
55.19000 175.195
55.20000 175.896
55.21000 168.826
55.22000 161.410
55.23000 156.757
55.24000 156.575
55.25000 156.454
55.26000 156.392
55.27000 169.734
55.28000 178.610
55.29000 177.560
55.30000 169.814
55.31000 162.387
55.32000 163.663
55.33000 168.851
55.34000 173.740
55.35000 174.465
55.36000 173.982
55.37000 174.303
55.38000 180.386
55.39000 187.606
55.40000 193.631
55.41000 194.256
55.42000 194.223
55.43000 194.198
55.44000 193.334
55.45000 192.610
55.46000 193.248
55.47000 196.615
55.48000 200.057
55.49000 205.948
55.50000 215.086
55.51000 224.231
55.52000 225.470
55.53000 220.046
55.54000 214.863
55.55000 221.484
55.56000 234.653
55.57000 247.412
55.58000 252.760
55.59000 255.353
55.60000 257.743
55.61000 261.343
55.62000 264.834
55.63000 269.049
55.64000 277.393
55.65000 286.389
55.66000 295.659
55.67000 305.938
55.68000 316.311
55.69000 323.786
55.70000 335.162
55.71000 344.016
55.72000 353.180
55.73000 362.853
55.74000 372.535
55.75000 383.834
55.76000 396.870
55.77000 409.842
55.78000 421.589
55.79000 432.368
55.80000 443.256
55.81000 457.254
55.82000 472.678
55.83000 487.857
55.84000 499.871
55.85000 510.914
55.86000 520.832
55.87000 543.270
55.88000 565.109
55.89000 584.627
55.90000 593.453
55.91000 600.945
55.92000 606.390
55.93000 605.610
55.94000 604.401
55.95000 603.582
55.96000 611.227
55.97000 617.110
55.98000 623.751
55.99000 631.417
56.00000 639.083
56.01000 642.868
56.02000 643.307
56.03000 643.740
56.04000 627.586
56.05000 602.696
56.06000 579.095
56.07000 579.719
56.08000 589.518
56.09000 597.053
56.10000 582.606
56.11000 562.618
56.12000 545.201
56.13000 523.551
56.14000 504.466
56.15000 485.563
56.16000 467.347
56.17000 449.196
56.18000 435.080
56.19000 431.101
56.20000 427.610
56.21000 425.408
56.22000 405.608
56.23000 391.066
56.24000 376.409
56.25000 361.623
56.26000 346.883
56.27000 338.158
56.28000 333.654
56.29000 329.250
56.30000 317.020
56.31000 301.794
56.32000 287.172
56.33000 280.617
56.34000 276.584
56.35000 271.867
56.36000 262.003
56.37000 251.081
56.38000 241.892
56.39000 236.370
56.40000 232.157
56.41000 228.612
56.42000 227.137
56.43000 225.810
56.44000 222.530
56.45000 215.191
56.46000 207.727
56.47000 203.389
56.48000 197.039
56.49000 192.573
56.50000 188.978
56.51000 186.153
56.52000 183.372
56.53000 183.077
56.54000 184.214
56.55000 185.311
56.56000 186.228
56.57000 187.026
56.58000 187.546
56.59000 185.296
56.60000 182.334
56.61000 179.505
56.62000 177.464
56.63000 175.555
56.64000 174.011
56.65000 178.125
56.66000 181.925
56.67000 183.580
56.68000 179.741
56.69000 175.628
56.70000 172.637
56.71000 171.569
56.72000 170.533
56.73000 169.986
56.74000 167.630
56.75000 166.026
56.76000 163.868
56.77000 161.315
56.78000 158.826
56.79000 158.339
56.80000 158.803
56.81000 159.242
56.82000 158.228
56.83000 156.866
56.84000 156.002
56.85000 158.969
56.86000 162.740
56.87000 166.047
56.88000 167.125
56.89000 167.911
56.90000 168.519
56.91000 165.352
56.92000 162.622
56.93000 161.099
56.94000 162.131
56.95000 163.247
56.96000 164.003
56.97000 164.252
56.98000 164.498
56.99000 164.661
57.00000 164.749
57.01000 164.796
57.02000 162.353
57.03000 158.448
57.04000 154.677
57.05000 153.608
57.06000 153.602
57.07000 153.597
57.08000 153.587
57.09000 153.577
57.10000 153.421
57.11000 152.370
57.12000 151.169
57.13000 150.548
57.14000 152.201
57.15000 154.084
57.16000 155.464
57.17000 152.479
57.18000 150.000
57.19000 149.018
57.20000 150.655
57.21000 152.339
57.22000 153.076
57.23000 152.730
57.24000 152.385
57.25000 152.856
57.26000 153.915
57.27000 154.820
57.28000 150.676
57.29000 144.085
57.30000 137.884
57.31000 137.228
57.32000 138.374
57.33000 139.412
57.34000 139.481
57.35000 139.359
57.36000 139.502
57.37000 140.948
57.38000 142.569
57.39000 143.319
57.40000 141.268
57.41000 139.005
57.42000 137.443
57.43000 144.497
57.44000 150.018
57.45000 152.435
57.46000 150.397
57.47000 148.324
57.48000 146.940
57.49000 146.190
57.50000 145.446
57.51000 144.224
57.52000 142.746
57.53000 141.444
57.54000 143.841
57.55000 147.720
57.56000 150.711
57.57000 144.360
57.58000 135.511
57.59000 127.728
57.60000 130.698
57.61000 134.854
57.62000 137.956
57.63000 136.854
57.64000 135.314
57.65000 135.137
57.66000 138.583
57.67000 142.224
57.68000 144.572
57.69000 144.769
57.70000 144.882
57.71000 146.091
57.72000 148.581
57.73000 151.057
57.74000 150.336
57.75000 147.236
57.76000 144.194
57.77000 141.246
57.78000 138.451
57.79000 135.837
57.80000 135.873
57.81000 136.788
57.82000 138.104
57.83000 142.665
57.84000 147.936
57.85000 152.418
57.86000 148.111
57.87000 143.478
57.88000 139.982
57.89000 140.215
57.90000 140.738
57.91000 141.679
57.92000 143.538
57.93000 145.430
57.94000 146.557
57.95000 147.006
57.96000 147.320
57.97000 146.198
57.98000 143.728
57.99000 141.297
58.00000 141.526
58.01000 143.376
58.02000 145.169
58.03000 140.910
58.04000 134.546
58.05000 129.064
58.06000 133.134
58.07000 139.807
58.08000 145.716
58.09000 146.752
58.10000 146.928
58.11000 147.072
58.12000 145.271
58.13000 143.625
58.14000 141.827
58.15000 139.619
58.16000 137.388
58.17000 134.727
58.18000 131.285
58.19000 127.826
58.20000 125.944
58.21000 138.413
58.22000 146.954
58.23000 148.295
58.24000 144.165
58.25000 140.155
58.26000 140.508
58.27000 143.057
58.28000 145.485
58.29000 143.615
58.30000 140.536
58.31000 137.673
58.32000 136.597
58.33000 135.918
58.34000 135.842
58.35000 138.844
58.36000 142.279
58.37000 144.969
58.38000 138.954
58.39000 133.589
58.40000 130.341
58.41000 131.832
58.42000 133.499
58.43000 135.462
58.44000 137.867
58.45000 140.275
58.46000 140.421
58.47000 138.397
58.48000 136.356
58.49000 132.973
58.50000 128.757
58.51000 124.736
58.52000 125.160
58.53000 127.433
58.54000 129.556
58.55000 132.509
58.56000 135.397
58.57000 138.126
58.58000 139.823
58.59000 141.333
58.60000 142.437
58.61000 141.853
58.62000 141.084
58.63000 140.512
58.64000 141.788
58.65000 142.865
58.66000 144.104
58.67000 145.643
58.68000 147.188
58.69000 146.398
58.70000 142.764
58.71000 139.131
58.72000 136.499
58.73000 134.652
58.74000 132.867
58.75000 133.453
58.76000 135.254
58.77000 136.943
58.78000 136.874
58.79000 136.201
58.80000 135.586
58.81000 137.132
58.82000 138.939
58.83000 140.122
58.84000 138.053
58.85000 135.516
58.86000 133.905
58.87000 135.453
58.88000 137.262
58.89000 138.534
58.90000 137.690
58.91000 136.988
58.92000 136.041
58.93000 134.722
58.94000 133.399
58.95000 131.941
58.96000 130.351
58.97000 128.773
58.98000 132.902
58.99000 140.518
59.00000 147.747
59.01000 145.775
59.02000 139.905
59.03000 134.542
59.04000 134.975
59.05000 137.051
59.06000 138.893
59.07000 133.092
59.08000 126.845
59.09000 122.601
59.10000 126.845
59.11000 132.044
59.12000 136.054
59.13000 136.723
59.14000 137.192
59.15000 137.500
59.16000 136.756
59.17000 136.189
59.18000 135.348
59.19000 134.166
59.20000 132.983
59.21000 132.135
59.22000 131.550
59.23000 130.975
59.24000 134.055
59.25000 138.887
59.26000 143.535
59.27000 145.194
59.28000 145.807
59.29000 145.853
59.30000 140.964
59.31000 134.929
59.32000 129.743
59.33000 128.914
59.34000 128.755
59.35000 128.764
59.36000 129.351
59.37000 129.988
59.38000 131.289
59.39000 134.131
59.40000 137.036
59.41000 138.811
59.42000 134.268
59.43000 130.966
59.44000 133.909
59.45000 143.107
59.46000 152.238
59.47000 155.454
59.48000 154.847
59.49000 154.256
59.50000 149.621
59.51000 143.552
59.52000 138.168
59.53000 140.868
59.54000 145.902
59.55000 149.736
59.56000 145.391
59.57000 139.506
59.58000 134.632
59.59000 135.753
59.60000 137.249
59.61000 138.782
59.62000 140.422
59.63000 142.069
59.64000 141.112
59.65000 135.157
59.66000 129.077
59.67000 125.673
59.68000 124.081
59.69000 122.992
59.70000 125.239
59.71000 130.180
59.72000 135.034
59.73000 136.139
59.74000 135.249
59.75000 134.397
59.76000 135.516
59.77000 137.217
59.78000 138.848
59.79000 139.858
59.80000 140.722
59.81000 141.208
59.82000 139.646
59.83000 137.774
59.84000 136.289
59.85000 137.891
59.86000 139.399
59.87000 139.995
59.88000 138.430
59.89000 136.773
59.90000 135.285
59.91000 134.064
59.92000 132.846
59.93000 132.229
59.94000 139.987
59.95000 145.083
59.96000 140.858
59.97000 130.490
59.98000 120.480
59.99000 119.703
60.00000 122.986
60.01000 126.072
60.02000 129.226
60.03000 132.125
60.04000 134.508
60.05000 133.293
60.06000 131.386
60.07000 130.254
60.08000 132.538
60.09000 135.226
60.10000 137.259
60.11000 134.736
60.12000 132.528
60.13000 131.470
60.14000 132.663
60.15000 133.915
60.16000 135.039
60.17000 135.998
60.18000 136.956
60.19000 137.858
60.20000 138.712
60.21000 139.512
60.22000 137.899
60.23000 134.978
60.24000 132.205
60.25000 132.003
60.26000 132.736
60.27000 133.410
60.28000 137.587
60.29000 142.074
60.30000 145.199
60.31000 140.761
60.32000 135.157
60.33000 130.855
60.34000 131.252
60.35000 132.073
60.36000 132.661
60.37000 133.855
60.38000 134.787
60.39000 134.581
60.40000 132.539
60.41000 130.472
60.42000 128.735
60.43000 127.345
60.44000 125.962
60.45000 127.671
60.46000 131.407
60.47000 135.128
60.48000 138.450
60.49000 141.592
60.50000 144.052
60.51000 137.985
60.52000 129.360
60.53000 121.639
60.54000 123.446
60.55000 126.656
60.56000 129.873
60.57000 133.122
60.58000 136.375
60.59000 137.714
60.60000 133.360
60.61000 128.628
60.62000 125.448
60.63000 127.948
60.64000 129.922
60.65000 131.338
60.66000 132.017
60.67000 132.693
60.68000 133.145
60.69000 133.410
60.70000 133.672
60.71000 132.746
60.72000 131.206
60.73000 129.665
60.74000 128.098
60.75000 126.522
60.76000 125.713
60.77000 132.109
60.78000 140.280
60.79000 147.372
60.80000 139.772
60.81000 131.324
60.82000 125.081
60.83000 126.950
60.84000 129.573
60.85000 133.150
60.86000 139.071
60.87000 145.101
60.88000 148.870
60.89000 138.947
60.90000 131.642
60.91000 127.866
60.92000 127.863
60.93000 127.891
60.94000 131.464
60.95000 137.467
60.96000 143.328
60.97000 142.955
60.98000 139.878
60.99000 137.009
61.00000 136.836
61.01000 137.486
61.02000 138.262
61.03000 139.950
61.04000 141.821
61.05000 143.388
61.06000 139.389
61.07000 135.489
61.08000 133.758
61.09000 138.597
61.10000 143.886
61.11000 145.617
61.12000 140.119
61.13000 134.410
61.14000 131.127
61.15000 136.496
61.16000 140.281
61.17000 141.447
61.18000 140.365
61.19000 139.243
61.20000 136.103
61.21000 131.827
61.22000 127.710
61.23000 129.397
61.24000 133.035
61.25000 136.215
61.26000 134.971
61.27000 132.615
61.28000 130.754
61.29000 131.759
61.30000 133.227
61.31000 134.407
61.32000 137.743
61.33000 140.614
61.34000 144.309
61.35000 150.065
61.36000 155.920
61.37000 155.766
61.38000 145.542
61.39000 135.161
61.40000 129.741
61.41000 137.651
61.42000 142.977
61.43000 144.553
61.44000 143.509
61.45000 142.508
61.46000 142.782
61.47000 143.648
61.48000 144.467
61.49000 149.835
61.50000 156.072
61.51000 162.307
61.52000 168.534
61.53000 174.759
61.54000 181.245
61.55000 188.958
61.56000 196.827
61.57000 202.868
61.58000 215.473
61.59000 225.802
61.60000 236.421
61.61000 247.637
61.62000 258.871
61.63000 267.651
61.64000 273.057
61.65000 278.439
61.66000 278.937
61.67000 275.158
61.68000 271.430
61.69000 270.562
61.70000 271.334
61.71000 271.956
61.72000 269.647
61.73000 266.212
61.74000 263.033
61.75000 262.171
61.76000 261.930
61.77000 260.728
61.78000 253.823
61.79000 245.980
61.80000 236.560
61.81000 221.117
61.82000 205.082
61.83000 193.408
61.84000 186.397
61.85000 181.177
61.86000 176.549
61.87000 172.930
61.88000 169.329
61.89000 166.684
61.90000 165.106
61.91000 163.535
61.92000 158.555
61.93000 151.216
61.94000 143.975
61.95000 139.777
61.96000 137.020
61.97000 134.809
61.98000 140.067
61.99000 147.697
62.00000 154.584
62.01000 153.374
62.02000 150.825
62.03000 148.293
62.04000 145.844
62.05000 143.405
62.06000 141.696
62.07000 142.281
62.08000 143.032
62.09000 143.548
62.10000 139.737
62.11000 136.778
62.12000 135.219
62.13000 135.620
62.14000 136.038
62.15000 139.536
62.16000 145.793
62.17000 151.984
62.18000 149.929
62.19000 143.206
62.20000 136.889
62.21000 138.719
62.22000 143.741
62.23000 148.469
62.24000 150.192
62.25000 151.132
62.26000 151.955
62.27000 146.401
62.28000 140.715
62.29000 137.179
62.30000 142.033
62.31000 147.732
62.32000 149.589
62.33000 141.461
62.34000 132.818
62.35000 127.292
62.36000 134.608
62.37000 140.102
62.38000 142.051
62.39000 139.961
62.40000 137.887
62.41000 139.057
62.42000 142.587
62.43000 146.044
62.44000 145.918
62.45000 144.133
62.46000 142.538
62.47000 143.629
62.48000 145.589
62.49000 147.357
62.50000 147.612
62.51000 147.545
62.52000 147.488
62.53000 147.001
62.54000 146.545
62.55000 147.029
62.56000 150.525
62.57000 154.248
62.58000 156.761
62.59000 156.676
62.60000 156.503
62.61000 156.401
62.62000 148.456
62.63000 142.804
62.64000 139.395
62.65000 138.038
62.66000 136.673
62.67000 134.771
62.68000 132.549
62.69000 130.401
62.70000 131.524
62.71000 133.816
62.72000 136.266
62.73000 140.372
62.74000 144.919
62.75000 149.046
62.76000 150.574
62.77000 151.654
62.78000 152.534
62.79000 147.222
62.80000 142.359
62.81000 138.774
62.82000 138.572
62.83000 138.551
62.84000 138.848
62.85000 139.710
62.86000 140.583
62.87000 141.052
62.88000 141.012
62.89000 140.988
62.90000 141.909
62.91000 143.531
62.92000 145.108
62.93000 145.144
62.94000 144.421
62.95000 143.733
62.96000 145.184
62.97000 147.179
62.98000 148.931
62.99000 148.730
63.00000 148.104
63.01000 147.410
63.02000 146.381
63.03000 145.306
63.04000 144.469
63.05000 143.251
63.06000 142.258
63.07000 141.783
63.08000 142.444
63.09000 143.145
63.10000 145.095
63.11000 148.868
63.12000 152.656
63.13000 152.437
63.14000 148.475
63.15000 144.564
63.16000 144.178
63.17000 145.934
63.18000 147.637
63.19000 148.187
63.20000 148.267
63.21000 148.342
63.22000 149.062
63.23000 149.872
63.24000 150.858
63.25000 152.964
63.26000 155.267
63.27000 155.281
63.28000 146.009
63.29000 135.750
63.30000 128.158
63.31000 131.983
63.32000 135.442
63.33000 138.303
63.34000 140.080
63.35000 141.835
63.36000 143.634
63.37000 145.485
63.38000 147.332
63.39000 145.992
63.40000 142.264
63.41000 138.672
63.42000 139.980
63.43000 143.742
63.44000 147.420
63.45000 149.815
63.46000 151.779
63.47000 153.566
63.48000 152.837
63.49000 151.698
63.50000 150.429
63.51000 148.493
63.52000 146.464
63.53000 145.281
63.54000 146.914
63.55000 148.772
63.56000 150.069
63.57000 147.204
63.58000 144.923
63.59000 142.648
63.60000 140.381
63.61000 138.114
63.62000 138.125
63.63000 140.310
63.64000 142.478
63.65000 148.632
63.66000 157.099
63.67000 165.212
63.68000 165.303
63.69000 162.072
63.70000 158.737
63.71000 154.254
63.72000 149.453
63.73000 145.208
63.74000 146.674
63.75000 148.828
63.76000 151.479
63.77000 156.192
63.78000 161.129
63.79000 162.292
63.80000 153.084
63.81000 143.279
63.82000 136.875
63.83000 140.399
63.84000 143.146
63.85000 146.207
63.86000 149.649
63.87000 153.092
63.88000 156.447
63.89000 159.733
63.90000 162.963
63.91000 158.567
63.92000 150.555
63.93000 143.133
63.94000 144.897
63.95000 149.807
63.96000 154.060
63.97000 152.765
63.98000 150.212
63.99000 148.027
64.00000 154.085
64.01000 160.193
64.02000 163.589
64.03000 157.782
64.04000 151.218
64.05000 147.523
64.06000 150.350
64.07000 153.428
64.08000 155.290
64.09000 162.408
64.10000 167.520
64.11000 169.939
64.12000 169.729
64.13000 169.492
64.14000 166.980
64.15000 163.033
64.16000 159.200
64.17000 157.131
64.18000 155.875
64.19000 154.584
64.20000 152.904
64.21000 151.114
64.22000 149.942
64.23000 152.873
64.24000 156.557
64.25000 159.594
64.26000 167.321
64.27000 174.113
64.28000 177.387
64.29000 170.813
64.30000 163.652
64.31000 159.879
64.32000 162.467
64.33000 165.202
64.34000 166.716
64.35000 164.793
64.36000 163.459
64.37000 162.342
64.38000 161.394
64.39000 160.502
64.40000 161.868
64.41000 164.409
64.42000 166.837
64.43000 164.593
64.44000 160.988
64.45000 157.683
64.46000 156.985
64.47000 156.890
64.48000 157.649
64.49000 162.942
64.50000 168.901
64.51000 173.606
64.52000 170.190
64.53000 166.896
64.54000 163.763
64.55000 160.999
64.56000 158.251
64.57000 158.462
64.58000 163.251
64.59000 168.091
64.60000 168.944
64.61000 165.820
64.62000 162.700
64.63000 159.967
64.64000 157.482
64.65000 155.090
64.66000 154.988
64.67000 155.870
64.68000 156.697
64.69000 159.991
64.70000 163.637
64.71000 167.111
64.72000 169.416
64.73000 171.502
64.74000 173.003
64.75000 171.983
64.76000 170.675
64.77000 169.691
64.78000 166.689
64.79000 164.245
64.80000 163.712
64.81000 166.838
64.82000 170.053
64.83000 173.275
64.84000 176.505
64.85000 179.730
64.86000 181.281
64.87000 181.484
64.88000 181.618
64.89000 178.799
64.90000 174.416
64.91000 170.227
64.92000 169.281
64.93000 169.488
64.94000 169.679
64.95000 167.567
64.96000 165.204
64.97000 164.131
64.98000 170.052
64.99000 177.023
65.00000 182.820
65.01000 184.481
65.02000 185.781
65.03000 186.704
65.04000 182.294
65.05000 178.766
65.06000 178.319
65.07000 182.727
65.08000 187.194
65.09000 186.545
65.10000 180.678
65.11000 174.847
65.12000 176.903
65.13000 184.032
65.14000 190.879
65.15000 190.487
65.16000 186.923
65.17000 184.037
65.18000 189.328
65.19000 197.017
65.20000 203.877
65.21000 200.969
65.22000 196.811
65.23000 193.323
65.24000 192.787
65.25000 192.597
65.26000 193.840
65.27000 199.251
65.28000 204.928
65.29000 208.713
65.30000 215.660
65.31000 220.865
65.32000 223.193
65.33000 221.814
65.34000 220.434
65.35000 224.826
65.36000 233.955
65.37000 242.956
65.38000 242.281
65.39000 236.548
65.40000 231.205
65.41000 232.601
65.42000 236.438
65.43000 240.544
65.44000 247.102
65.45000 254.250
65.46000 260.430
65.47000 259.752
65.48000 258.283
65.49000 258.222
65.50000 263.227
65.51000 268.687
65.52000 272.683
65.53000 273.159
65.54000 273.481
65.55000 273.681
65.56000 275.688
65.57000 277.149
65.58000 283.036
65.59000 293.535
65.60000 303.948
65.61000 305.506
65.62000 301.134
65.63000 296.872
65.64000 303.102
65.65000 313.519
65.66000 324.602
65.67000 343.942
65.68000 365.752
65.69000 388.982
65.70000 422.306
65.71000 457.605
65.72000 487.043
65.73000 538.717
65.74000 583.786
65.75000 630.779
65.76000 683.478
65.77000 736.552
65.78000 788.668
65.79000 838.880
65.80000 889.041
65.81000 917.591
65.82000 981.254
65.83000 1025.691
65.84000 1045.333
65.85000 1044.196
65.86000 1043.377
65.87000 1057.794
65.88000 1080.599
65.89000 1102.509
65.90000 1088.540
65.91000 1063.065
65.92000 1037.727
65.93000 1013.663
65.94000 989.913
65.95000 961.975
65.96000 910.352
65.97000 855.012
65.98000 810.732
65.99000 739.904
66.00000 680.652
66.01000 625.182
66.02000 578.971
66.03000 533.182
66.04000 491.342
66.05000 455.972
66.06000 420.694
66.07000 402.502
66.08000 375.012
66.09000 356.532
66.10000 342.544
66.11000 331.622
66.12000 320.800
66.13000 312.769
66.14000 306.008
66.15000 299.629
66.16000 296.106
66.17000 293.675
66.18000 291.302
66.19000 289.355
66.20000 287.494
66.21000 287.192
66.22000 294.020
66.23000 301.730
66.24000 307.615
66.25000 310.849
66.26000 313.255
66.27000 317.979
66.28000 327.398
66.29000 336.951
66.30000 349.684
66.31000 366.684
66.32000 383.693
66.33000 396.022
66.34000 404.331
66.35000 412.621
66.36000 419.990
66.37000 426.843
66.38000 433.255
66.39000 431.486
66.40000 426.640
66.41000 422.166
66.42000 426.328
66.43000 431.999
66.44000 437.475
66.45000 441.836
66.46000 446.016
66.47000 449.185
66.48000 448.572
66.49000 447.600
66.50000 446.897
66.51000 435.105
66.52000 425.651
66.53000 409.731
66.54000 383.016
66.55000 356.133
66.56000 343.776
66.57000 347.219
66.58000 350.652
66.59000 345.380
66.60000 334.168
66.61000 323.159
66.62000 318.085
66.63000 315.761
66.64000 313.371
66.65000 310.107
66.66000 306.573
66.67000 303.394
66.68000 304.295
66.69000 305.814
66.70000 306.259
66.71000 301.693
66.72000 296.493
66.73000 293.907
66.74000 299.361
66.75000 305.381
66.76000 309.474
66.77000 316.088
66.78000 321.083
66.79000 323.101
66.80000 321.043
66.81000 318.964
66.82000 320.764
66.83000 325.952
66.84000 331.081
66.85000 335.589
66.86000 339.643
66.87000 343.350
66.88000 340.399
66.89000 334.898
66.90000 329.460
66.91000 324.654
66.92000 320.008
66.93000 315.953
66.94000 322.721
66.95000 330.031
66.96000 336.384
66.97000 339.085
66.98000 341.431
66.99000 343.276
67.00000 343.851
67.01000 344.362
67.02000 344.687
67.03000 346.510
67.04000 347.851
67.05000 349.622
67.06000 351.870
67.07000 354.088
67.08000 351.863
67.09000 346.482
67.10000 341.218
67.11000 340.435
67.12000 341.712
67.13000 342.963
67.14000 343.842
67.15000 344.604
67.16000 346.129
67.17000 353.468
67.18000 362.017
67.19000 369.227
67.20000 373.166
67.21000 376.101
67.22000 377.688
67.23000 375.053
67.24000 372.111
67.25000 370.566
67.26000 371.957
67.27000 373.442
67.28000 374.310
67.29000 373.952
67.30000 373.697
67.31000 375.812
67.32000 380.042
67.33000 384.240
67.34000 386.487
67.35000 387.597
67.36000 388.669
67.37000 387.250
67.38000 384.999
67.39000 383.122
67.40000 385.039
67.41000 387.944
67.42000 391.411
67.43000 398.271
67.44000 405.700
67.45000 411.721
67.46000 418.593
67.47000 424.261
67.48000 427.022
67.49000 422.255
67.50000 417.102
67.51000 414.846
67.52000 417.614
67.53000 420.471
67.54000 421.990
67.55000 410.030
67.56000 401.958
67.57000 406.245
67.58000 419.485
67.59000 432.491
67.60000 437.935
67.61000 439.741
67.62000 441.454
67.63000 438.354
67.64000 434.062
67.65000 430.240
67.66000 430.096
67.67000 430.733
67.68000 431.946
67.69000 435.960
67.70000 440.348
67.71000 443.745
67.72000 443.816
67.73000 443.674
67.74000 442.745
67.75000 440.128
67.76000 437.455
67.77000 437.038
67.78000 439.833
67.79000 442.650
67.80000 450.023
67.81000 461.536
67.82000 472.932
67.83000 477.070
67.84000 476.894
67.85000 476.942
67.86000 481.631
67.87000 488.166
67.88000 494.240
67.89000 492.942
67.90000 490.006
67.91000 488.846
67.92000 498.659
67.93000 510.353
67.94000 518.019
67.95000 509.725
67.96000 499.788
67.97000 492.482
67.98000 503.258
67.99000 512.338
68.00000 518.643
68.01000 520.045
68.02000 521.352
68.03000 522.055
68.04000 522.055
68.05000 522.055
68.06000 528.020
68.07000 538.313
68.08000 548.419
68.09000 552.149
68.10000 552.755
68.11000 553.422
68.12000 554.976
68.13000 556.822
68.14000 558.496
68.15000 564.777
68.16000 571.200
68.17000 574.963
68.18000 565.524
68.19000 554.288
68.20000 548.489
68.21000 560.389
68.22000 573.655
68.23000 582.850
68.24000 575.942
68.25000 570.319
68.26000 569.824
68.27000 576.781
68.28000 583.800
68.29000 592.592
68.30000 603.035
68.31000 613.382
68.32000 618.650
68.33000 620.799
68.34000 623.013
68.35000 626.649
68.36000 630.861
68.37000 635.343
68.38000 642.711
68.39000 650.861
68.40000 658.042
68.41000 665.444
68.42000 671.857
68.43000 677.079
68.44000 677.494
68.45000 677.401
68.46000 683.304
68.47000 705.322
68.48000 728.228
68.49000 743.065
68.50000 745.158
68.51000 746.501
68.52000 755.037
68.53000 772.083
68.54000 789.098
68.55000 796.739
68.56000 797.312
68.57000 797.875
68.58000 825.110
68.59000 864.231
68.60000 902.674
68.61000 930.967
68.62000 955.861
68.63000 982.596
68.64000 1024.434
68.65000 1069.613
68.66000 1108.122
68.67000 1167.582
68.68000 1220.056
68.69000 1268.184
68.70000 1301.887
68.71000 1334.444
68.72000 1374.214
68.73000 1430.016
68.74000 1486.405
68.75000 1520.193
68.76000 1586.329
68.77000 1633.508
68.78000 1689.485
68.79000 1753.829
68.80000 1818.158
68.81000 1881.332
68.82000 1943.792
68.83000 2004.342
68.84000 2071.625
68.85000 2137.982
68.86000 2208.782
68.87000 2328.479
68.88000 2461.665
68.89000 2620.983
68.90000 2948.991
68.91000 3307.193
68.92000 3601.074
68.93000 4739.055
68.94000 5748.104
68.95000 7141.137
68.96000 9585.650
68.97000 12090.223
68.98000 15175.998
68.99000 19329.023
69.00000 23505.098
69.01000 25791.771
69.02000 32467.209
69.03000 37060.613
69.04000 40940.758
69.05000 44272.203
69.06000 47569.055
69.07000 49561.797
69.08000 50891.047
69.09000 52159.191
69.10000 52707.805
69.11000 52989.094
69.12000 53288.754
69.13000 53742.938
69.14000 54232.008
69.15000 54751.504
69.16000 55428.461
69.17000 56127.879
69.18000 56677.180
69.19000 56576.027
69.20000 56452.477
69.21000 55800.969
69.22000 53953.863
69.23000 52060.980
69.24000 49615.148
69.25000 46334.094
69.26000 43044.645
69.27000 40000.863
69.28000 37196.055
69.29000 34401.730
69.30000 32431.486
69.31000 30979.865
69.32000 29553.436
69.33000 28715.734
69.34000 28125.664
69.35000 27573.646
69.36000 26874.715
69.37000 26202.229
69.38000 25468.842
69.39000 24333.357
69.40000 23124.342
69.41000 21738.895
69.42000 19611.650
69.43000 17401.836
69.44000 15750.749
69.45000 12928.495
69.46000 10674.331
69.47000 8674.199
69.48000 7149.432
69.49000 5635.561
69.50000 4490.364
69.51000 3799.633
69.52000 3111.486
69.53000 2639.795
69.54000 2339.561
69.55000 2042.087
69.56000 1854.528
69.57000 1723.951
69.58000 1595.662
69.59000 1503.978
69.60000 1425.022
69.61000 1352.868
69.62000 1300.870
69.63000 1258.806
69.64000 1215.584
69.65000 1166.240
69.66000 1116.002
69.67000 1071.528
69.68000 1046.921
69.69000 1023.989
69.70000 1007.803
69.71000 992.734
69.72000 981.332
69.73000 964.399
69.74000 938.947
69.75000 913.400
69.76000 885.772
69.77000 856.078
69.78000 826.593
69.79000 811.598
69.80000 805.992
69.81000 800.262
69.82000 791.537
69.83000 781.527
69.84000 771.303
69.85000 758.582
69.86000 745.146
69.87000 733.200
69.88000 731.033
69.89000 730.737
69.90000 728.105
69.91000 715.452
69.92000 701.656
69.93000 688.439
69.94000 676.873
69.95000 665.407
69.96000 657.824
69.97000 652.219
69.98000 648.117
69.99000 649.069
70.00000 656.380
