20.00000 552.682
20.01000 555.703
20.02000 559.156
20.03000 562.950
20.04000 568.065
20.05000 573.312
20.06000 577.142
20.07000 568.977
20.08000 562.214
20.09000 560.826
20.10000 568.711
20.11000 576.759
20.12000 577.119
20.13000 568.808
20.14000 560.521
20.15000 554.795
20.16000 550.948
20.17000 547.233
20.18000 547.703
20.19000 550.176
20.20000 553.130
20.21000 562.780
20.22000 574.578
20.23000 585.241
20.24000 578.980
20.25000 570.329
20.26000 563.241
20.27000 563.707
20.28000 565.171
20.29000 566.908
20.30000 569.513
20.31000 572.183
20.32000 574.019
20.33000 564.484
20.34000 557.051
20.35000 552.217
20.36000 551.064
20.37000 549.938
20.38000 547.876
20.39000 544.967
20.40000 542.088
20.41000 545.164
20.42000 551.614
20.43000 557.691
20.44000 556.122
20.45000 551.528
20.46000 547.604
20.47000 550.613
20.48000 555.451
20.49000 559.697
20.50000 552.253
20.51000 544.147
20.52000 537.119
20.53000 534.338
20.54000 531.992
20.55000 533.271
20.56000 544.063
20.57000 555.354
20.58000 562.601
20.59000 556.401
20.60000 551.698
20.61000 550.153
20.62000 552.244
20.63000 554.315
20.64000 551.988
20.65000 546.429
20.66000 540.980
20.67000 540.248
20.68000 541.757
20.69000 543.320
20.70000 545.670
20.71000 548.277
20.72000 550.051
20.73000 545.206
20.74000 538.935
20.75000 533.613
20.76000 544.572
20.77000 555.609
20.78000 564.457
20.79000 566.218
20.80000 567.438
20.81000 566.934
20.82000 562.688
20.83000 558.314
20.84000 555.720
20.85000 546.353
20.86000 539.689
20.87000 535.236
20.88000 532.830
20.89000 530.479
20.90000 531.759
20.91000 535.225
20.92000 538.579
20.93000 540.538
20.94000 541.857
20.95000 542.690
20.96000 538.350
20.97000 532.619
20.98000 528.624
20.99000 535.521
21.00000 544.314
21.01000 551.491
21.02000 540.737
21.03000 530.401
21.04000 526.406
21.05000 539.363
21.06000 553.243
21.07000 561.300
21.08000 558.919
21.09000 556.330
21.10000 554.930
21.11000 553.483
21.12000 552.497
21.13000 552.301
21.14000 552.698
21.15000 553.049
21.16000 551.764
21.17000 549.666
21.18000 547.669
21.19000 543.374
21.20000 538.691
21.21000 536.022
21.22000 549.763
21.23000 567.114
21.24000 579.758
21.25000 568.699
21.26000 554.358
21.27000 543.161
21.28000 542.024
21.29000 541.750
21.30000 544.665
21.31000 554.632
21.32000 564.853
21.33000 568.629
21.34000 562.910
21.35000 557.107
21.36000 556.422
21.37000 560.575
21.38000 564.599
21.39000 559.506
21.40000 548.816
21.41000 538.526
21.42000 537.098
21.43000 539.310
21.44000 541.373
21.45000 546.176
21.46000 551.208
21.47000 554.715
21.48000 548.446
21.49000 540.438
21.50000 534.503
21.51000 537.068
21.52000 540.547
21.53000 543.130
21.54000 548.715
21.55000 553.186
21.56000 555.090
21.57000 552.303
21.58000 549.417
21.59000 547.205
21.60000 545.802
21.61000 544.404
21.62000 544.563
21.63000 545.905
21.64000 547.119
21.65000 543.558
21.66000 537.581
21.67000 531.880
21.68000 530.392
21.69000 530.333
21.70000 530.280
21.71000 541.370
21.72000 553.407
21.73000 562.970
21.74000 559.809
21.75000 554.845
21.76000 551.154
21.77000 551.742
21.78000 552.678
21.79000 553.334
21.80000 555.965
21.81000 558.012
21.82000 559.487
21.83000 560.104
21.84000 560.714
21.85000 567.351
21.86000 579.808
21.87000 592.167
21.88000 599.879
21.89000 604.599
21.90000 609.374
21.91000 615.432
21.92000 622.025
21.93000 627.940
21.94000 626.226
21.95000 622.380
21.96000 618.973
21.97000 629.500
21.98000 640.799
21.99000 651.060
22.00000 656.984
22.01000 662.429
22.02000 667.607
22.03000 672.042
22.04000 676.435
22.05000 679.314
22.06000 680.205
22.07000 680.828
22.08000 682.333
22.09000 684.919
22.10000 687.489
22.11000 685.119
22.12000 678.893
22.13000 672.769
22.14000 671.549
22.15000 672.815
22.16000 674.151
22.17000 676.605
22.18000 679.445
22.19000 681.086
22.20000 672.463
22.21000 661.489
22.22000 652.079
22.23000 645.978
22.24000 641.230
22.25000 636.854
22.26000 633.752
22.27000 630.756
22.28000 624.497
22.29000 610.752
22.30000 596.712
22.31000 588.181
22.32000 587.184
22.33000 586.530
22.34000 583.992
22.35000 579.593
22.36000 575.210
22.37000 572.106
22.38000 569.820
22.39000 567.598
22.40000 570.415
22.41000 575.133
22.42000 579.763
22.43000 583.381
22.44000 586.711
22.45000 588.481
22.46000 579.779
22.47000 569.134
22.48000 560.341
22.49000 561.668
22.50000 563.707
22.51000 564.357
22.52000 561.079
22.53000 557.562
22.54000 553.735
22.55000 549.322
22.56000 544.895
22.57000 542.431
22.58000 539.561
22.59000 537.579
22.60000 536.816
22.61000 537.023
22.62000 537.108
22.63000 532.144
22.64000 524.528
22.65000 517.241
22.66000 520.239
22.67000 526.408
22.68000 532.353
22.69000 536.338
22.70000 539.865
22.71000 543.455
22.72000 547.382
22.73000 551.358
22.74000 554.505
22.75000 539.811
22.76000 526.770
22.77000 515.575
22.78000 508.698
22.79000 501.998
22.80000 502.092
22.81000 512.793
22.82000 523.619
22.83000 529.057
22.84000 514.749
22.85000 505.332
22.86000 508.153
22.87000 518.935
22.88000 529.339
22.89000 530.224
22.90000 526.975
22.91000 523.925
22.92000 519.627
22.93000 515.376
22.94000 511.571
22.95000 510.823
22.96000 510.655
22.97000 511.858
22.98000 519.028
22.99000 526.891
23.00000 532.819
23.01000 523.454
23.02000 515.371
23.03000 512.013
23.04000 517.787
23.05000 523.793
23.06000 523.399
23.07000 514.837
23.08000 506.259
23.09000 504.128
23.10000 507.226
23.11000 510.167
23.12000 506.242
23.13000 498.639
23.14000 491.608
23.15000 494.271
23.16000 500.415
23.17000 506.053
23.18000 509.169
23.19000 511.410
23.20000 513.257
23.21000 512.941
23.22000 512.297
23.23000 510.669
23.24000 505.538
23.25000 500.097
23.26000 496.217
23.27000 488.701
23.28000 482.851
23.29000 483.984
23.30000 496.232
23.31000 508.622
23.32000 515.474
23.33000 516.613
23.34000 517.745
23.35000 515.344
23.36000 510.667
23.37000 506.100
23.38000 504.446
23.39000 504.080
23.40000 503.484
23.41000 500.080
23.42000 495.844
23.43000 492.058
23.44000 493.725
23.45000 496.097
23.46000 498.371
23.47000 500.209
23.48000 501.994
23.49000 504.323
23.50000 508.247
23.51000 512.273
23.52000 514.967
23.53000 514.020
23.54000 513.246
23.55000 505.771
23.56000 489.568
23.57000 473.356
23.58000 470.337
23.59000 478.265
23.60000 486.084
23.61000 488.808
23.62000 488.753
23.63000 488.871
23.64000 492.022
23.65000 496.283
23.66000 500.196
23.67000 500.886
23.68000 500.793
23.69000 500.712
23.70000 502.595
23.71000 504.456
23.72000 506.583
23.73000 509.673
23.74000 512.852
23.75000 512.678
23.76000 504.371
23.77000 495.701
23.78000 490.308
23.79000 502.362
23.80000 511.218
23.81000 512.292
23.82000 505.166
23.83000 498.042
23.84000 491.387
23.85000 485.050
23.86000 478.867
23.87000 479.875
23.88000 483.934
23.89000 487.273
23.90000 481.516
23.91000 473.013
23.92000 466.964
23.93000 478.559
23.94000 493.642
23.95000 506.246
23.96000 507.164
23.97000 506.742
23.98000 506.002
23.99000 504.313
24.00000 502.561
24.01000 499.876
24.02000 495.319
24.03000 490.710
24.04000 488.075
24.05000 491.230
24.06000 493.446
24.07000 491.422
24.08000 485.806
24.09000 480.367
24.10000 483.685
24.11000 491.871
24.12000 499.743
24.13000 494.024
24.14000 483.918
24.15000 474.171
24.16000 467.828
24.17000 462.330
24.18000 459.834
24.19000 474.516
24.20000 491.926
24.21000 505.888
24.22000 501.381
24.23000 496.331
24.24000 490.183
24.25000 481.320
24.26000 472.330
24.27000 469.902
24.28000 478.329
24.29000 486.918
24.30000 491.372
24.31000 497.535
24.32000 501.660
24.33000 501.455
24.34000 498.265
24.35000 495.078
24.36000 491.993
24.37000 488.955
24.38000 486.085
24.39000 488.266
24.40000 491.693
24.41000 494.476
24.42000 492.517
24.43000 489.600
24.44000 486.586
24.45000 483.123
24.46000 479.603
24.47000 476.910
24.48000 476.074
24.49000 475.515
24.50000 476.187
24.51000 479.375
24.52000 482.638
24.53000 486.166
24.54000 490.054
24.55000 493.941
24.56000 490.380
24.57000 480.396
24.58000 470.706
24.59000 476.553
24.60000 491.205
24.61000 504.658
24.62000 495.492
24.63000 477.736
24.64000 461.324
24.65000 462.865
24.66000 468.324
24.67000 473.419
24.68000 476.392
24.69000 479.020
24.70000 480.242
24.71000 476.155
24.72000 471.557
24.73000 468.221
24.74000 472.169
24.75000 475.474
24.76000 480.444
24.77000 488.221
24.78000 496.044
24.79000 495.513
24.80000 485.796
24.81000 476.117
24.82000 471.460
24.83000 470.348
24.84000 469.245
24.85000 468.407
24.86000 467.693
24.87000 467.283
24.88000 470.954
24.89000 475.904
24.90000 480.364
24.91000 475.781
24.92000 470.125
24.93000 466.314
24.94000 471.202
24.95000 477.205
24.96000 480.318
24.97000 474.450
24.98000 467.940
24.99000 463.498
25.00000 459.044
25.01000 455.713
25.02000 455.670
25.03000 460.175
25.04000 464.709
25.05000 470.344
25.06000 476.951
25.07000 483.485
25.08000 479.802
25.09000 470.443
25.10000 461.514
25.11000 461.035
25.12000 463.824
25.13000 466.330
25.14000 466.001
25.15000 464.940
25.16000 464.012
25.17000 465.182
25.18000 466.483
25.19000 469.134
25.20000 476.982
25.21000 485.344
25.22000 489.942
25.23000 484.880
25.24000 479.333
25.25000 475.803
25.26000 471.265
25.27000 467.956
25.28000 464.863
25.29000 462.012
25.30000 459.213
25.31000 464.082
25.32000 474.454
25.33000 484.607
25.34000 486.297
25.35000 484.044
25.36000 481.569
25.37000 476.008
25.38000 469.462
25.39000 464.081
25.40000 467.704
25.41000 473.221
25.42000 477.883
25.43000 466.806
25.44000 455.815
25.45000 450.355
25.46000 462.406
25.47000 475.748
25.48000 480.417
25.49000 466.678
25.50000 452.337
25.51000 443.920
25.52000 446.766
25.53000 448.829
25.54000 453.594
25.55000 460.796
25.56000 467.925
25.57000 470.630
25.58000 470.731
25.59000 470.829
25.60000 471.182
25.61000 471.609
25.62000 471.949
25.63000 471.403
25.64000 470.623
25.65000 469.463
25.66000 465.985
25.67000 462.113
25.68000 458.968
25.69000 456.422
25.70000 454.396
25.71000 452.979
25.72000 453.156
25.73000 453.417
25.74000 455.402
25.75000 460.409
25.76000 465.472
25.77000 468.178
25.78000 469.277
25.79000 470.018
25.80000 469.630
25.81000 468.414
25.82000 467.284
25.83000 468.956
25.84000 471.989
25.85000 474.870
25.86000 470.701
25.87000 464.731
25.88000 459.336
25.89000 458.500
25.90000 458.642
25.91000 458.370
25.92000 456.060
25.93000 453.477
25.94000 451.471
25.95000 452.070
25.96000 452.704
25.97000 454.205
25.98000 457.580
25.99000 461.020
26.00000 463.060
26.01000 463.086
26.02000 463.096
26.03000 459.617
26.04000 452.928
26.05000 446.384
26.06000 449.220
26.07000 457.685
26.08000 465.731
26.09000 464.924
26.10000 460.562
26.11000 456.502
26.12000 449.968
26.13000 443.464
26.14000 437.930
26.15000 438.452
26.16000 440.024
26.17000 440.884
26.18000 438.895
26.19000 436.608
26.20000 434.922
26.21000 436.191
26.22000 437.297
26.23000 442.295
26.24000 454.243
26.25000 466.327
26.26000 468.209
26.27000 458.140
26.28000 448.082
26.29000 446.732
26.30000 451.848
26.31000 456.888
26.32000 459.295
26.33000 460.399
26.34000 461.514
26.35000 462.775
26.36000 464.085
26.37000 465.275
26.38000 463.541
26.39000 461.443
26.40000 459.020
26.41000 454.970
26.42000 450.695
26.43000 445.761
26.44000 438.656
26.45000 431.381
26.46000 426.323
26.47000 430.626
26.48000 434.123
26.49000 440.234
26.50000 450.182
26.51000 460.162
26.52000 465.980
26.53000 467.878
26.54000 469.760
26.55000 463.829
26.56000 453.325
26.57000 443.140
26.58000 439.966
26.59000 439.662
26.60000 439.953
26.61000 446.706
26.62000 455.225
26.63000 462.743
26.64000 457.682
26.65000 451.392
26.66000 446.497
26.67000 447.298
26.68000 448.710
26.69000 451.241
26.70000 456.811
26.71000 462.552
26.72000 466.284
26.73000 452.595
26.74000 442.295
26.75000 435.509
26.76000 432.925
26.77000 430.369
26.78000 432.263
26.79000 437.549
26.80000 442.740
26.81000 443.375
26.82000 441.769
26.83000 440.299
26.84000 440.882
26.85000 442.160
26.86000 444.155
26.87000 452.098
26.88000 461.371
26.89000 469.290
26.90000 454.222
26.91000 438.800
26.92000 427.729
26.93000 431.239
26.94000 435.927
26.95000 440.221
26.96000 443.632
26.97000 447.010
26.98000 449.042
26.99000 459.662
27.00000 467.274
27.01000 466.137
27.02000 456.584
27.03000 447.101
27.04000 442.923
27.05000 442.053
27.06000 441.209
27.07000 440.690
27.08000 440.326
27.09000 439.651
27.10000 435.503
27.11000 430.387
27.12000 426.830
27.13000 433.457
27.14000 441.927
27.15000 448.891
27.16000 453.928
27.17000 457.893
27.18000 458.425
27.19000 449.462
27.20000 439.948
27.21000 434.582
27.22000 436.911
27.23000 439.411
27.24000 440.787
27.25000 440.182
27.26000 439.756
27.27000 437.616
27.28000 434.145
27.29000 430.777
27.30000 431.417
27.31000 434.117
27.32000 436.695
27.33000 437.197
27.34000 436.999
27.35000 436.745
27.36000 436.020
27.37000 435.186
27.38000 434.920
27.39000 437.623
27.40000 440.754
27.41000 443.219
27.42000 443.477
27.43000 443.537
27.44000 444.459
27.45000 447.354
27.46000 450.326
27.47000 448.770
27.48000 440.306
27.49000 431.768
27.50000 430.080
27.51000 435.125
27.52000 440.108
27.53000 440.000
27.54000 436.655
27.55000 433.435
27.56000 433.198
27.57000 434.227
27.58000 435.191
27.59000 435.985
27.60000 436.663
27.61000 437.142
27.62000 436.294
27.63000 435.199
27.64000 435.523
27.65000 441.867
27.66000 448.891
27.67000 454.153
27.68000 448.500
27.69000 443.573
27.70000 437.665
27.71000 429.902
27.72000 422.095
27.73000 421.719
27.74000 430.603
27.75000 439.498
27.76000 441.377
27.77000 437.708
27.78000 434.106
27.79000 433.247
27.80000 433.824
27.81000 434.252
27.82000 432.261
27.83000 429.420
27.84000 426.821
27.85000 430.827
27.86000 435.757
27.87000 440.544
27.88000 444.567
27.89000 448.479
27.90000 451.190
27.91000 449.725
27.92000 447.902
27.93000 446.612
27.94000 441.659
27.95000 437.782
27.96000 434.692
27.97000 432.828
27.98000 430.979
27.99000 431.543
28.00000 434.531
28.01000 437.499
28.02000 438.063
28.03000 437.084
28.04000 436.037
28.05000 433.317
28.06000 429.873
28.07000 427.151
28.08000 432.972
28.09000 441.268
28.10000 448.654
28.11000 436.665
28.12000 423.068
28.13000 413.198
28.14000 419.475
28.15000 427.620
28.16000 432.895
28.17000 429.929
28.18000 426.451
28.19000 424.142
28.20000 428.601
28.21000 432.022
28.22000 431.194
28.23000 424.964
28.24000 418.742
28.25000 422.244
28.26000 433.622
28.27000 444.831
28.28000 440.560
28.29000 428.403
28.30000 416.777
28.31000 414.098
28.32000 414.620
28.33000 415.320
28.34000 417.616
28.35000 420.290
28.36000 422.597
28.37000 429.335
28.38000 435.618
28.39000 440.114
28.40000 438.262
28.41000 435.850
28.42000 434.836
28.43000 437.139
28.44000 439.583
28.45000 441.089
28.46000 436.267
28.47000 432.749
28.48000 427.175
28.49000 419.491
28.50000 411.884
28.51000 411.882
28.52000 416.905
28.53000 421.798
28.54000 420.984
28.55000 417.809
28.56000 414.992
28.57000 416.544
28.58000 419.385
28.59000 422.083
28.60000 423.785
28.61000 425.294
28.62000 426.550
28.63000 425.652
28.64000 424.698
28.65000 423.779
28.66000 422.961
28.67000 422.150
28.68000 420.608
28.69000 417.633
28.70000 414.620
28.71000 412.915
28.72000 412.388
28.73000 412.028
28.74000 412.822
28.75000 414.571
28.76000 416.289
28.77000 416.557
28.78000 416.038
28.79000 415.540
28.80000 416.791
28.81000 418.556
28.82000 420.486
28.83000 423.930
28.84000 427.741
28.85000 430.593
28.86000 428.101
28.87000 424.783
28.88000 422.136
28.89000 426.302
28.90000 430.163
28.91000 428.630
28.92000 414.052
28.93000 398.895
28.94000 393.316
28.95000 403.226
28.96000 413.347
28.97000 418.530
28.98000 413.346
28.99000 409.882
29.00000 408.631
29.01000 408.872
29.02000 409.301
29.03000 414.829
29.04000 422.647
29.05000 430.014
29.06000 431.794
29.07000 431.885
29.08000 431.970
29.09000 432.012
29.10000 432.045
29.11000 430.665
29.12000 422.911
29.13000 414.382
29.14000 407.893
29.15000 409.950
29.16000 412.016
29.17000 411.276
29.18000 404.924
29.19000 398.415
29.20000 395.655
29.21000 397.856
29.22000 400.078
29.23000 400.914
29.24000 400.583
29.25000 400.336
29.26000 404.239
29.27000 410.442
29.28000 416.102
29.29000 411.955
29.30000 404.165
29.31000 396.985
29.32000 400.444
29.33000 405.892
29.34000 410.758
29.35000 412.304
29.36000 413.326
29.37000 413.624
29.38000 411.255
29.39000 408.638
29.40000 406.752
29.41000 400.192
29.42000 395.001
29.43000 392.495
29.44000 394.415
29.45000 396.400
29.46000 400.628
29.47000 407.261
29.48000 413.862
29.49000 416.104
29.50000 415.360
29.51000 414.472
29.52000 409.493
29.53000 402.641
29.54000 396.657
29.55000 401.906
29.56000 410.598
29.57000 418.404
29.58000 406.622
29.59000 392.869
29.60000 383.551
29.61000 394.654
29.62000 408.302
29.63000 419.326
29.64000 422.381
29.65000 424.887
29.66000 426.584
29.67000 429.687
29.68000 432.030
29.69000 432.018
29.70000 428.825
29.71000 425.614
29.72000 421.570
29.73000 416.809
29.74000 412.105
29.75000 413.341
29.76000 417.816
29.77000 422.013
29.78000 420.990
29.79000 417.992
29.80000 415.549
29.81000 418.481
29.82000 422.766
29.83000 426.499
29.84000 427.814
29.85000 428.603
29.86000 429.382
29.87000 430.121
29.88000 430.857
29.89000 432.471
29.90000 436.292
29.91000 440.218
29.92000 442.693
29.93000 441.958
29.94000 441.388
29.95000 440.608
29.96000 439.599
29.97000 438.610
29.98000 440.422
29.99000 444.197
30.00000 447.887
30.01000 446.930
30.02000 443.937
30.03000 441.517
30.04000 446.734
30.05000 454.338
30.06000 460.655
30.07000 457.317
30.08000 451.996
30.09000 447.520
30.10000 449.338
30.11000 451.523
30.12000 452.874
30.13000 451.644
30.14000 450.231
30.15000 446.683
30.16000 438.703
30.17000 430.588
30.18000 425.873
30.19000 428.055
30.20000 429.613
30.21000 427.143
30.22000 421.130
30.23000 415.273
30.24000 418.054
30.25000 425.807
30.26000 433.283
30.27000 436.468
30.28000 437.907
30.29000 438.683
30.30000 432.860
30.31000 425.342
30.32000 418.466
30.33000 415.411
30.34000 412.988
30.35000 411.030
30.36000 415.684
30.37000 419.998
30.38000 424.965
30.39000 431.603
30.40000 438.323
30.41000 441.223
30.42000 437.579
30.43000 433.824
30.44000 431.840
30.45000 424.146
30.46000 418.950
30.47000 418.537
30.48000 421.543
30.49000 424.458
30.50000 424.547
30.51000 423.294
30.52000 422.106
30.53000 425.222
30.54000 429.355
30.55000 432.367
30.56000 426.761
30.57000 419.350
30.58000 414.668
30.59000 423.078
30.60000 433.202
30.61000 441.017
30.62000 439.903
30.63000 438.501
30.64000 437.022
30.65000 435.381
30.66000 433.735
30.67000 435.145
30.68000 440.849
30.69000 446.581
30.70000 448.724
30.71000 447.644
30.72000 446.515
30.73000 442.424
30.74000 436.596
30.75000 431.224
30.76000 435.068
30.77000 442.532
30.78000 449.459
30.79000 453.963
30.80000 457.449
30.81000 460.550
30.82000 461.312
30.83000 461.679
30.84000 462.278
30.85000 463.785
30.86000 465.385
30.87000 466.557
30.88000 475.295
30.89000 482.345
30.90000 488.768
30.91000 494.099
30.92000 499.409
30.93000 505.129
30.94000 511.317
30.95000 517.483
30.96000 528.566
30.97000 543.110
30.98000 557.480
30.99000 566.118
31.00000 571.982
31.01000 578.665
31.02000 596.959
31.03000 619.021
31.04000 638.994
31.05000 663.808
31.06000 686.579
31.07000 712.208
31.08000 751.833
31.09000 793.333
31.10000 837.859
31.11000 892.112
31.12000 947.100
31.13000 985.052
31.14000 1052.853
31.15000 1104.560
31.16000 1176.368
31.17000 1276.989
31.18000 1377.828
31.19000 1462.668
31.20000 1532.829
31.21000 1602.310
31.22000 1688.410
31.23000 1782.446
31.24000 1876.684
31.25000 1975.139
31.26000 2075.282
31.27000 2176.144
31.28000 2284.565
31.29000 2395.005
31.30000 2492.127
31.31000 2580.992
31.32000 2656.226
31.33000 2727.799
31.34000 2784.775
31.35000 2840.235
31.36000 2886.266
31.37000 2907.272
31.38000 2926.932
31.39000 2939.605
31.40000 2916.360
31.41000 2898.873
31.42000 2871.427
31.43000 2832.364
31.44000 2793.188
31.45000 2735.838
31.46000 2664.968
31.47000 2595.447
31.48000 2524.662
31.49000 2455.854
31.50000 2385.006
31.51000 2284.287
31.52000 2173.688
31.53000 2063.992
31.54000 1961.584
31.55000 1860.766
31.56000 1775.032
31.57000 1681.028
31.58000 1601.124
31.59000 1518.257
31.60000 1425.681
31.61000 1332.348
31.62000 1245.982
31.63000 1174.910
31.64000 1104.381
31.65000 1062.354
31.66000 990.166
31.67000 938.828
31.68000 901.574
31.69000 877.525
31.70000 853.227
31.71000 811.856
31.72000 760.079
31.73000 709.933
31.74000 680.300
31.75000 660.182
31.76000 639.888
31.77000 617.703
31.78000 595.002
31.79000 573.240
31.80000 557.456
31.81000 542.726
31.82000 530.674
31.83000 523.291
31.84000 517.650
31.85000 510.228
31.86000 497.987
31.87000 485.478
31.88000 474.472
31.89000 466.190
31.90000 457.965
31.91000 453.491
31.92000 450.470
31.93000 448.384
31.94000 443.188
31.95000 435.631
31.96000 428.352
31.97000 431.212
31.98000 439.166
31.99000 446.745
32.00000 444.337
32.01000 438.985
32.02000 433.995
32.03000 432.008
32.04000 430.689
32.05000 429.290
32.06000 427.484
32.07000 425.621
32.08000 424.162
32.09000 412.270
32.10000 402.102
32.11000 393.191
32.12000 387.090
32.13000 381.093
32.14000 380.271
32.15000 387.165
32.16000 394.131
32.17000 397.290
32.18000 396.802
32.19000 396.354
32.20000 398.889
32.21000 403.278
32.22000 407.336
32.23000 403.869
32.24000 397.276
32.25000 391.117
32.26000 389.012
32.27000 388.124
32.28000 387.222
32.29000 386.228
32.30000 385.216
32.31000 384.490
32.32000 384.943
32.33000 385.526
32.34000 385.960
32.35000 388.479
32.36000 390.533
32.37000 390.446
32.38000 386.404
32.39000 382.275
32.40000 380.802
32.41000 382.557
32.42000 384.316
32.43000 385.425
32.44000 386.026
32.45000 386.503
32.46000 382.212
32.47000 375.479
32.48000 369.108
32.49000 368.406
32.50000 369.651
32.51000 370.787
32.52000 373.600
32.53000 376.434
32.54000 379.267
32.55000 382.097
32.56000 384.927
32.57000 386.453
32.58000 383.541
32.59000 380.263
32.60000 377.958
32.61000 384.485
32.62000 389.689
32.63000 388.993
32.64000 379.327
32.65000 369.568
32.66000 367.361
32.67000 372.547
32.68000 377.694
32.69000 377.008
32.70000 372.700
32.71000 368.687
32.72000 371.679
32.73000 377.636
32.74000 382.711
32.75000 377.709
32.76000 369.855
32.77000 362.885
32.78000 364.675
32.79000 367.623
32.80000 373.979
32.81000 394.755
32.82000 417.149
32.83000 437.645
32.84000 452.813
32.85000 467.661
32.86000 477.437
32.87000 458.979
32.88000 444.898
32.89000 442.814
32.90000 455.619
32.91000 468.438
32.92000 472.813
32.93000 470.515
32.94000 468.254
32.95000 465.394
32.96000 462.321
32.97000 459.774
32.98000 465.719
32.99000 474.637
33.00000 482.560
33.01000 481.840
33.02000 479.116
33.03000 476.776
33.04000 461.782
33.05000 447.525
33.06000 433.787
33.07000 421.851
33.08000 410.068
33.09000 398.015
33.10000 385.333
33.11000 372.626
33.12000 364.867
33.13000 367.679
33.14000 369.776
33.15000 368.646
33.16000 364.288
33.17000 359.967
33.18000 358.829
33.19000 359.748
33.20000 360.641
33.21000 352.736
33.22000 341.606
33.23000 331.764
33.24000 337.053
33.25000 346.708
33.26000 354.451
33.27000 349.175
33.28000 341.451
33.29000 335.055
33.30000 329.530
33.31000 325.052
33.32000 322.275
33.33000 324.362
33.34000 326.750
33.35000 328.184
33.36000 327.789
33.37000 327.349
33.38000 327.103
33.39000 335.677
33.40000 341.631
33.41000 344.927
33.42000 346.080
33.43000 347.178
33.44000 345.897
33.45000 343.352
33.46000 340.914
33.47000 340.225
33.48000 340.163
33.49000 340.005
33.50000 338.980
33.51000 337.751
33.52000 337.274
33.53000 340.891
33.54000 345.124
33.55000 348.484
33.56000 343.318
33.57000 338.560
33.58000 336.140
33.59000 339.250
33.60000 342.594
33.61000 344.839
33.62000 345.349
33.63000 345.838
33.64000 346.085
33.65000 333.573
33.66000 325.259
33.67000 322.495
33.68000 323.387
33.69000 324.416
33.70000 328.982
33.71000 335.103
33.72000 340.856
33.73000 340.213
33.74000 337.908
33.75000 335.249
33.76000 330.123
33.77000 324.523
33.78000 320.976
33.79000 326.472
33.80000 333.035
33.81000 337.999
33.82000 329.541
33.83000 322.235
33.84000 318.343
33.85000 321.130
33.86000 324.090
33.87000 326.800
33.88000 329.184
33.89000 331.564
33.90000 335.844
33.91000 341.669
33.92000 347.314
33.93000 344.783
33.94000 337.823
33.95000 331.152
33.96000 329.483
33.97000 329.631
33.98000 329.768
33.99000 330.742
34.00000 331.793
34.01000 333.019
34.02000 335.217
34.03000 337.565
34.04000 339.864
34.05000 341.983
34.06000 344.086
34.07000 345.591
34.08000 338.630
34.09000 333.029
34.10000 330.869
34.11000 334.255
34.12000 337.716
34.13000 339.262
34.14000 338.808
34.15000 338.356
34.16000 336.643
34.17000 334.115
34.18000 331.396
34.19000 323.490
34.20000 313.262
34.21000 304.356
34.22000 311.930
34.23000 324.445
34.24000 335.646
34.25000 338.168
34.26000 338.884
34.27000 339.163
34.28000 337.481
34.29000 335.563
34.30000 332.283
34.31000 324.962
34.32000 317.374
34.33000 312.276
34.34000 318.911
34.35000 324.080
34.36000 325.623
34.37000 322.385
34.38000 319.131
34.39000 319.402
34.40000 322.634
34.41000 325.823
34.42000 328.787
34.43000 331.551
34.44000 334.001
34.45000 330.837
34.46000 325.594
34.47000 321.020
34.48000 322.732
34.49000 325.990
34.50000 328.818
34.51000 327.892
34.52000 326.599
34.53000 324.873
34.54000 321.554
34.55000 318.088
34.56000 315.235
34.57000 313.888
34.58000 312.612
34.59000 311.813
34.60000 313.823
34.61000 315.302
34.62000 313.036
34.63000 306.770
34.64000 300.542
34.65000 298.846
34.66000 300.252
34.67000 301.624
34.68000 307.302
34.69000 314.610
34.70000 321.700
34.71000 325.980
34.72000 329.400
34.73000 332.342
34.74000 331.786
34.75000 330.529
34.76000 329.477
34.77000 328.967
34.78000 328.599
34.79000 328.057
34.80000 326.989
34.81000 325.885
34.82000 323.765
34.83000 319.581
34.84000 315.337
34.85000 312.897
34.86000 316.714
34.87000 319.404
34.88000 319.861
34.89000 318.401
34.90000 316.968
34.91000 316.900
34.92000 317.600
34.93000 318.274
34.94000 316.923
34.95000 314.940
34.96000 313.359
34.97000 315.644
34.98000 318.899
34.99000 320.987
35.00000 316.303
35.01000 310.528
35.02000 305.885
35.03000 307.726
35.04000 309.720
35.05000 311.506
35.06000 312.775
35.07000 314.018
35.08000 315.136
35.09000 316.042
35.10000 316.946
35.11000 317.417
35.12000 313.263
35.13000 310.459
35.14000 308.492
35.15000 307.108
35.16000 305.831
35.17000 307.704
35.18000 311.040
35.19000 314.194
35.20000 307.112
35.21000 297.677
35.22000 289.676
35.23000 292.395
35.24000 297.307
35.25000 302.469
35.26000 308.804
35.27000 315.287
35.28000 320.264
35.29000 316.497
35.30000 313.033
35.31000 310.270
35.32000 308.955
35.33000 307.684
35.34000 308.927
35.35000 313.621
35.36000 318.333
35.37000 321.617
35.38000 323.647
35.39000 325.654
35.40000 326.460
35.41000 326.577
35.42000 326.459
35.43000 321.801
35.44000 315.398
35.45000 309.473
35.46000 310.323
35.47000 312.646
35.48000 314.398
35.49000 312.770
35.50000 310.586
35.51000 308.861
35.52000 308.895
35.53000 309.100
35.54000 309.250
35.55000 307.161
35.56000 305.467
35.57000 303.999
35.58000 302.916
35.59000 301.839
35.60000 301.886
35.61000 303.188
35.62000 304.484
35.63000 305.513
35.64000 306.343
35.65000 307.184
35.66000 308.359
35.67000 309.693
35.68000 310.671
35.69000 306.782
35.70000 301.349
35.71000 296.447
35.72000 299.350
35.73000 303.331
35.74000 307.088
35.75000 309.778
35.76000 312.328
35.77000 314.174
35.78000 313.808
35.79000 313.281
35.80000 312.920
35.81000 308.577
35.82000 305.228
35.83000 303.915
35.84000 305.455
35.85000 307.011
35.86000 305.849
35.87000 302.254
35.88000 298.697
35.89000 300.851
35.90000 306.219
35.91000 311.274
35.92000 310.046
35.93000 306.359
35.94000 303.091
35.95000 304.096
35.96000 306.215
35.97000 308.071
35.98000 304.284
35.99000 300.220
36.00000 297.370
36.01000 299.255
36.02000 301.616
36.03000 302.101
36.04000 297.717
36.05000 293.082
36.06000 290.121
36.07000 297.264
36.08000 302.595
36.09000 306.312
36.10000 308.190
36.11000 310.045
36.12000 308.367
36.13000 304.124
36.14000 299.967
36.15000 300.915
36.16000 304.196
36.17000 307.000
36.18000 303.089
36.19000 297.006
36.20000 292.452
36.21000 299.881
36.22000 309.862
36.23000 318.314
36.24000 311.082
36.25000 303.273
36.26000 297.235
36.27000 296.867
36.28000 296.926
36.29000 297.080
36.30000 297.442
36.31000 297.811
36.32000 298.028
36.33000 293.174
36.34000 289.722
36.35000 290.672
36.36000 295.648
36.37000 300.527
36.38000 299.368
36.39000 294.610
36.40000 290.011
36.41000 293.500
36.42000 299.837
36.43000 305.423
36.44000 303.164
36.45000 298.818
36.46000 295.684
36.47000 300.063
36.48000 305.733
36.49000 310.350
36.50000 307.469
36.51000 304.483
36.52000 301.995
36.53000 300.827
36.54000 299.729
36.55000 299.956
36.56000 302.533
36.57000 305.156
36.58000 306.566
36.59000 293.143
36.60000 284.012
36.61000 285.138
36.62000 293.866
36.63000 302.496
36.64000 307.789
36.65000 311.441
36.66000 314.913
36.67000 313.240
36.68000 310.125
36.69000 307.264
36.70000 306.440
36.71000 306.059
36.72000 305.598
36.73000 304.736
36.74000 303.819
36.75000 303.105
36.76000 307.825
36.77000 311.919
36.78000 311.148
36.79000 299.738
36.80000 287.952
36.81000 285.422
36.82000 296.371
36.83000 307.433
36.84000 310.895
36.85000 307.262
36.86000 303.634
36.87000 300.356
36.88000 297.291
36.89000 294.496
36.90000 297.542
36.91000 302.962
36.92000 308.013
36.93000 308.694
36.94000 308.237
36.95000 307.764
36.96000 307.181
36.97000 306.579
36.98000 305.631
36.99000 303.281
37.00000 300.782
37.01000 298.933
37.02000 304.128
37.03000 308.461
37.04000 310.594
37.05000 308.750
37.06000 306.825
37.07000 305.400
37.08000 304.569
37.09000 303.741
37.10000 310.217
37.11000 322.135
37.12000 333.719
37.13000 333.296
37.14000 326.862
37.15000 320.479
37.16000 314.876
37.17000 309.535
37.18000 304.677
37.19000 301.259
37.20000 298.517
37.21000 295.903
37.22000 293.936
37.23000 292.060
37.24000 292.219
37.25000 299.150
37.26000 306.621
37.27000 311.836
37.28000 312.298
37.29000 312.515
37.30000 313.494
37.31000 315.606
37.32000 317.727
37.33000 312.975
37.34000 301.667
37.35000 290.452
37.36000 289.055
37.37000 293.650
37.38000 298.066
37.39000 298.468
37.40000 297.209
37.41000 295.705
37.42000 291.498
37.43000 286.543
37.44000 282.161
37.45000 285.994
37.46000 290.580
37.47000 294.180
37.48000 293.708
37.49000 292.793
37.50000 293.044
37.51000 296.498
37.52000 300.136
37.53000 302.511
37.54000 289.968
37.55000 280.521
37.56000 279.278
37.57000 287.971
37.58000 296.653
37.59000 297.085
37.60000 291.154
37.61000 285.324
37.62000 285.728
37.63000 289.190
37.64000 292.414
37.65000 291.922
37.66000 290.158
37.67000 288.914
37.68000 292.046
37.69000 296.170
37.70000 299.699
37.71000 301.648
37.72000 303.102
37.73000 304.087
37.74000 303.482
37.75000 302.747
37.76000 302.515
37.77000 303.426
37.78000 304.381
37.79000 304.958
37.80000 304.515
37.81000 304.191
37.82000 301.767
37.83000 297.295
37.84000 292.850
37.85000 290.521
37.86000 289.527
37.87000 288.562
37.88000 290.203
37.89000 292.804
37.90000 295.272
37.91000 296.239
37.92000 296.781
37.93000 297.300
37.94000 297.666
37.95000 298.005
37.96000 298.284
37.97000 300.326
37.98000 302.170
37.99000 304.151
38.00000 306.519
38.01000 308.910
38.02000 308.569
38.03000 303.103
38.04000 297.518
38.05000 294.427
38.06000 305.289
38.07000 312.792
38.08000 314.482
38.09000 311.597
38.10000 308.771
38.11000 308.306
38.12000 309.068
38.13000 309.796
38.14000 308.398
38.15000 306.408
38.16000 305.319
38.17000 312.033
38.18000 320.550
38.19000 326.704
38.20000 320.334
38.21000 312.131
38.22000 305.654
38.23000 311.907
38.24000 317.789
38.25000 323.027
38.26000 326.777
38.27000 330.468
38.28000 339.208
38.29000 355.748
38.30000 372.376
38.31000 376.321
38.32000 367.628
38.33000 359.058
38.34000 361.130
38.35000 370.047
38.36000 379.211
38.37000 394.420
38.38000 412.226
38.39000 428.923
38.40000 440.759
38.41000 450.265
38.42000 461.241
38.43000 482.181
38.44000 504.987
38.45000 527.714
38.46000 550.099
38.47000 572.445
38.48000 589.240
38.49000 646.167
38.50000 692.607
38.51000 735.986
38.52000 773.515
38.53000 810.901
38.54000 857.988
38.55000 917.316
38.56000 976.588
38.57000 1020.618
38.58000 1052.268
38.59000 1084.522
38.60000 1142.398
38.61000 1213.846
38.62000 1284.525
38.63000 1342.418
38.64000 1395.769
38.65000 1444.662
38.66000 1483.673
38.67000 1516.340
38.68000 1547.165
38.69000 1568.016
38.70000 1587.372
38.71000 1601.470
38.72000 1597.038
38.73000 1590.991
38.74000 1586.694
38.75000 1568.927
38.76000 1554.972
38.77000 1538.423
38.78000 1517.791
38.79000 1497.109
38.80000 1465.119
38.81000 1421.612
38.82000 1378.381
38.83000 1317.592
38.84000 1246.333
38.85000 1175.710
38.86000 1121.346
38.87000 1074.100
38.88000 1026.177
38.89000 970.105
38.90000 911.645
38.91000 859.498
38.92000 800.228
38.93000 747.473
38.94000 695.946
38.95000 649.808
38.96000 604.305
38.97000 564.392
38.98000 540.718
38.99000 518.077
39.00000 502.987
39.01000 478.469
39.02000 460.137
39.03000 438.169
39.04000 411.521
39.05000 384.885
39.06000 370.980
39.07000 367.515
39.08000 364.099
39.09000 359.755
39.10000 355.049
39.11000 350.191
39.12000 342.731
39.13000 334.329
39.14000 326.209
39.15000 320.653
39.16000 315.715
39.17000 311.446
39.18000 314.218
39.19000 317.491
39.20000 318.194
39.21000 309.671
39.22000 300.321
39.23000 294.670
39.24000 297.904
39.25000 301.525
39.26000 303.768
39.27000 297.894
39.28000 293.592
39.29000 292.476
39.30000 294.675
39.31000 296.812
39.32000 292.597
39.33000 284.133
39.34000 275.882
39.35000 271.342
39.36000 268.589
39.37000 266.464
39.38000 272.138
39.39000 280.142
39.40000 286.488
39.41000 281.077
39.42000 273.369
39.43000 266.941
39.44000 268.232
39.45000 270.074
39.46000 272.794
39.47000 278.115
39.48000 283.607
39.49000 283.925
39.50000 273.974
39.51000 263.743
39.52000 257.922
39.53000 263.358
39.54000 267.181
39.55000 271.008
39.56000 274.838
39.57000 278.606
39.58000 279.421
39.59000 278.613
39.60000 277.837
39.61000 274.592
39.62000 270.703
39.63000 267.354
39.64000 269.057
39.65000 271.998
39.66000 274.338
39.67000 273.275
39.68000 271.678
39.69000 270.401
39.70000 272.937
39.71000 275.272
39.72000 276.558
39.73000 275.279
39.74000 273.884
39.75000 274.324
39.76000 277.769
39.77000 281.257
39.78000 283.054
39.79000 275.015
39.80000 269.639
39.81000 268.900
39.82000 271.324
39.83000 273.666
39.84000 273.699
39.85000 272.685
39.86000 271.728
39.87000 271.467
39.88000 271.422
39.89000 271.082
39.90000 268.597
39.91000 265.684
39.92000 263.847
39.93000 266.924
39.94000 270.608
39.95000 273.419
39.96000 261.734
39.97000 251.751
39.98000 246.302
39.99000 250.025
40.00000 254.012
40.01000 254.354
40.02000 249.809
40.03000 245.243
40.04000 247.997
40.05000 256.988
40.06000 265.817
40.07000 266.367
40.08000 262.276
40.09000 258.289
40.10000 256.217
40.11000 254.865
40.12000 253.616
40.13000 253.370
40.14000 253.375
40.15000 253.872
40.16000 257.215
40.17000 261.014
40.18000 262.783
40.19000 256.975
40.20000 250.449
40.21000 245.731
40.22000 244.898
40.23000 244.399
40.24000 245.409
40.25000 248.935
40.26000 252.500
40.27000 255.969
40.28000 259.334
40.29000 262.684
40.30000 262.938
40.31000 261.059
40.32000 259.258
40.33000 259.723
40.34000 261.237
40.35000 262.535
40.36000 260.980
40.37000 258.540
40.38000 256.344
40.39000 257.054
40.40000 258.194
40.41000 258.888
40.42000 257.501
40.43000 255.851
40.44000 253.956
40.45000 251.309
40.46000 248.609
40.47000 246.774
40.48000 254.589
40.49000 260.642
40.50000 262.078
40.51000 257.201
40.52000 252.287
40.53000 247.455
40.54000 242.693
40.55000 237.986
40.56000 236.939
40.57000 237.957
40.58000 239.078
40.59000 242.166
40.60000 246.006
40.61000 249.711
40.62000 252.082
40.63000 254.113
40.64000 255.886
40.65000 251.441
40.66000 246.767
40.67000 243.369
40.68000 244.836
40.69000 246.777
40.70000 247.349
40.71000 244.446
40.72000 241.372
40.73000 239.424
40.74000 241.540
40.75000 243.123
40.76000 245.180
40.77000 247.762
40.78000 250.352
40.79000 253.974
40.80000 258.329
40.81000 262.590
40.82000 261.294
40.83000 257.536
40.84000 253.625
40.85000 247.627
40.86000 240.970
40.87000 235.129
40.88000 235.508
40.89000 237.181
40.90000 238.592
40.91000 241.988
40.92000 245.040
40.93000 247.544
40.94000 248.331
40.95000 248.995
40.96000 252.611
40.97000 262.429
40.98000 272.443
40.99000 278.293
41.00000 262.427
41.01000 251.167
41.02000 245.442
41.03000 244.647
41.04000 243.866
41.05000 243.843
41.06000 244.262
41.07000 244.666
41.08000 245.309
41.09000 246.002
41.10000 246.842
41.11000 249.172
41.12000 251.889
41.13000 253.651
41.14000 249.654
41.15000 244.692
41.16000 240.671
41.17000 243.627
41.18000 246.603
41.19000 247.495
41.20000 242.997
41.21000 238.223
41.22000 235.484
41.23000 236.272
41.24000 237.123
41.25000 237.575
41.26000 241.703
41.27000 244.493
41.28000 243.761
41.29000 240.481
41.30000 237.411
41.31000 241.099
41.32000 248.033
41.33000 254.613
41.34000 252.977
41.35000 249.027
41.36000 245.443
41.37000 244.725
41.38000 244.615
41.39000 244.581
41.40000 244.913
41.41000 245.295
41.42000 245.590
41.43000 242.894
41.44000 240.575
41.45000 240.681
41.46000 245.975
41.47000 251.442
41.48000 254.723
41.49000 254.894
41.50000 255.041
41.51000 251.982
41.52000 246.008
41.53000 240.091
41.54000 237.725
41.55000 237.467
41.56000 237.388
41.57000 241.024
41.58000 246.136
41.59000 250.887
41.60000 248.082
41.61000 243.743
41.62000 240.204
41.63000 241.600
41.64000 243.840
41.65000 244.685
41.66000 240.003
41.67000 234.753
41.68000 230.893
41.69000 240.158
41.70000 247.861
41.71000 251.807
41.72000 249.116
41.73000 246.298
41.74000 242.634
41.75000 237.989
41.76000 233.358
41.77000 236.769
41.78000 246.044
41.79000 255.016
41.80000 253.724
41.81000 247.407
41.82000 241.402
41.83000 239.910
41.84000 239.900
41.85000 239.892
41.86000 233.842
41.87000 227.351
41.88000 223.094
41.89000 229.916
41.90000 238.244
41.91000 245.160
41.92000 247.484
41.93000 249.454
41.94000 250.819
41.95000 238.258
41.96000 228.437
41.97000 224.292
41.98000 228.383
41.99000 232.541
42.00000 234.493
42.01000 234.393
42.02000 234.294
42.03000 238.667
42.04000 245.605
42.05000 252.018
42.06000 247.131
42.07000 237.667
42.08000 228.798
42.09000 226.279
42.10000 225.476
42.11000 224.768
42.12000 231.969
42.13000 239.365
42.14000 245.804
42.15000 248.374
42.16000 250.537
42.17000 251.316
42.18000 248.379
42.19000 245.238
42.20000 243.204
42.21000 239.905
42.22000 237.472
42.23000 236.523
42.24000 237.327
42.25000 238.127
42.26000 237.560
42.27000 235.964
42.28000 234.397
42.29000 234.163
42.30000 234.580
42.31000 234.711
42.32000 230.566
42.33000 224.990
42.34000 220.582
42.35000 225.744
42.36000 233.022
42.37000 239.224
42.38000 238.902
42.39000 237.867
42.40000 236.763
42.41000 235.431
42.42000 234.081
42.43000 233.622
42.44000 235.144
42.45000 236.738
42.46000 237.693
42.47000 235.104
42.48000 233.243
42.49000 232.002
42.50000 231.351
42.51000 230.752
42.52000 233.873
42.53000 239.289
42.54000 244.540
42.55000 243.566
42.56000 240.213
42.57000 237.041
42.58000 235.861
42.59000 235.231
42.60000 235.162
42.61000 238.713
42.62000 242.912
42.63000 246.356
42.64000 239.618
42.65000 233.183
42.66000 229.112
42.67000 231.504
42.68000 234.264
42.69000 235.565
42.70000 234.190
42.71000 232.757
42.72000 231.973
42.73000 234.282
42.74000 235.863
42.75000 234.853
42.76000 231.854
42.77000 228.949
42.78000 229.601
42.79000 232.061
42.80000 234.407
42.81000 230.367
42.82000 224.597
42.83000 219.961
42.84000 224.856
42.85000 231.900
42.86000 237.395
42.87000 234.881
42.88000 231.225
42.89000 228.355
42.90000 221.907
42.91000 216.514
42.92000 214.805
42.93000 221.431
42.94000 228.376
42.95000 232.474
42.96000 232.277
42.97000 232.037
42.98000 232.198
42.99000 232.750
43.00000 233.263
43.01000 230.811
43.02000 226.495
43.03000 222.461
43.04000 225.031
43.05000 230.376
43.06000 235.375
43.07000 235.887
43.08000 235.208
43.09000 234.312
43.10000 231.993
43.11000 229.415
43.12000 227.252
43.13000 226.831
43.14000 226.605
43.15000 226.436
43.16000 220.711
43.17000 215.993
43.18000 213.531
43.19000 215.287
43.20000 217.139
43.21000 218.888
43.22000 220.509
43.23000 222.127
43.24000 225.631
43.25000 230.588
43.26000 235.420
43.27000 235.285
43.28000 232.576
43.29000 229.748
43.30000 225.010
43.31000 219.608
43.32000 214.672
43.33000 212.278
43.34000 210.672
43.35000 210.590
43.36000 218.554
43.37000 227.691
43.38000 234.155
43.39000 231.413
43.40000 227.896
43.41000 225.415
43.42000 228.582
43.43000 231.155
43.44000 231.009
43.45000 226.676
43.46000 222.297
43.47000 219.543
43.48000 218.403
43.49000 217.270
43.50000 215.048
43.51000 212.173
43.52000 209.538
43.53000 212.758
43.54000 218.483
43.55000 223.773
43.56000 223.993
43.57000 222.761
43.58000 221.666
43.59000 225.325
43.60000 229.270
43.61000 232.104
43.62000 230.185
43.63000 227.723
43.64000 225.735
43.65000 225.091
43.66000 224.529
43.67000 224.157
43.68000 228.380
43.69000 231.578
43.70000 231.013
43.71000 225.718
43.72000 220.420
43.73000 218.839
43.74000 220.233
43.75000 221.606
43.76000 222.152
43.77000 222.258
43.78000 222.135
43.79000 218.238
43.80000 213.005
43.81000 208.635
43.82000 211.889
43.83000 216.933
43.84000 221.276
43.85000 219.887
43.86000 217.986
43.87000 217.394
43.88000 221.400
43.89000 225.804
43.90000 228.993
43.91000 229.330
43.92000 229.548
43.93000 229.682
43.94000 225.315
43.95000 222.148
43.96000 218.274
43.97000 213.682
43.98000 209.130
43.99000 208.171
44.00000 209.560
44.01000 210.911
44.02000 215.146
44.03000 220.376
44.04000 225.272
44.05000 226.166
44.06000 225.892
44.07000 225.535
44.08000 224.614
44.09000 223.586
44.10000 222.732
44.11000 219.620
44.12000 216.830
44.13000 214.883
44.14000 215.376
44.15000 216.023
44.16000 216.499
44.17000 216.644
44.18000 216.780
44.19000 216.857
44.20000 221.638
44.21000 224.957
44.22000 223.118
44.23000 217.065
44.24000 211.145
44.25000 211.166
44.26000 214.382
44.27000 217.465
44.28000 217.339
44.29000 216.141
44.30000 215.561
44.31000 220.584
44.32000 226.948
44.33000 232.611
44.34000 234.406
44.35000 235.610
44.36000 236.569
44.37000 226.957
44.38000 218.448
44.39000 214.617
44.40000 221.978
44.41000 229.824
44.42000 234.494
44.43000 234.086
44.44000 233.612
44.45000 233.371
44.46000 218.872
44.47000 209.274
44.48000 212.626
44.49000 224.606
44.50000 236.018
44.51000 232.365
44.52000 222.017
44.53000 212.277
44.54000 217.117
44.55000 225.507
44.56000 232.494
44.57000 229.556
44.58000 224.687
44.59000 221.855
44.60000 228.107
44.61000 235.448
44.62000 241.017
44.63000 238.771
44.64000 236.606
44.65000 235.477
44.66000 236.399
44.67000 237.376
44.68000 238.074
44.69000 238.407
44.70000 238.738
44.71000 239.018
44.72000 239.254
44.73000 239.524
44.74000 241.381
44.75000 244.108
44.76000 246.794
44.77000 248.759
44.78000 250.458
44.79000 252.022
44.80000 254.343
44.81000 256.584
44.82000 258.335
44.83000 257.330
44.84000 255.895
44.85000 256.415
44.86000 264.072
44.87000 272.384
44.88000 278.353
44.89000 275.583
44.90000 273.163
44.91000 276.926
44.92000 290.769
44.93000 304.754
44.94000 307.901
44.95000 299.568
44.96000 291.276
44.97000 293.215
44.98000 301.996
44.99000 310.627
45.00000 315.089
45.01000 317.664
45.02000 320.085
45.03000 320.560
45.04000 320.445
45.05000 320.342
45.06000 323.808
45.07000 327.456
45.08000 329.395
45.09000 323.553
45.10000 316.755
45.11000 312.224
45.12000 314.507
45.13000 317.250
45.14000 319.101
45.15000 315.263
45.16000 312.287
45.17000 312.757
45.18000 317.827
45.19000 322.909
45.20000 321.406
45.21000 314.295
45.22000 307.274
45.23000 303.885
45.24000 302.561
45.25000 301.390
45.26000 303.045
45.27000 305.758
45.28000 307.532
45.29000 300.336
45.30000 290.906
45.31000 282.706
45.32000 289.157
45.33000 296.656
45.34000 300.616
45.35000 291.413
45.36000 280.969
45.37000 273.414
45.38000 273.036
45.39000 272.996
45.40000 272.970
45.41000 270.156
45.42000 268.091
45.43000 269.130
45.44000 273.527
45.45000 277.886
45.46000 277.427
45.47000 273.629
45.48000 269.917
45.49000 266.157
45.50000 262.533
45.51000 259.212
45.52000 259.846
45.53000 261.703
45.54000 263.451
45.55000 264.401
45.56000 265.189
45.57000 265.850
45.58000 260.913
45.59000 256.214
45.60000 252.388
45.61000 251.232
45.62000 250.262
45.63000 248.797
45.64000 246.317
45.65000 243.807
45.66000 242.355
45.67000 242.195
45.68000 242.085
45.69000 239.978
45.70000 236.134
45.71000 232.404
45.72000 234.731
45.73000 240.507
45.74000 246.071
45.75000 246.643
45.76000 245.392
45.77000 244.348
45.78000 245.338
45.79000 246.844
45.80000 247.387
45.81000 242.264
45.82000 236.217
45.83000 231.342
45.84000 233.829
45.85000 236.428
45.86000 237.544
45.87000 234.905
45.88000 232.083
45.89000 228.982
45.90000 225.410
45.91000 221.829
45.92000 219.948
45.93000 225.222
45.94000 228.781
45.95000 229.780
45.96000 228.970
45.97000 228.182
45.98000 228.079
45.99000 228.296
46.00000 228.503
46.01000 224.220
46.02000 218.979
46.03000 213.881
46.04000 209.870
46.05000 206.085
46.06000 203.810
46.07000 208.694
46.08000 214.503
46.09000 218.974
46.10000 210.623
46.11000 203.283
46.12000 200.044
46.13000 205.389
46.14000 211.003
46.15000 213.313
46.16000 211.031
46.17000 208.720
46.18000 205.350
46.19000 201.044
46.20000 196.789
46.21000 195.417
46.22000 195.718
46.23000 196.278
46.24000 201.962
46.25000 209.638
46.26000 216.753
46.27000 216.766
46.28000 215.122
46.29000 214.276
46.30000 218.223
46.31000 222.969
46.32000 224.623
46.33000 214.323
46.34000 202.831
46.35000 194.439
46.36000 199.521
46.37000 203.967
46.38000 205.848
46.39000 203.299
46.40000 200.673
46.41000 201.220
46.42000 205.349
46.43000 209.466
46.44000 214.575
46.45000 220.346
46.46000 225.855
46.47000 223.012
46.48000 216.171
46.49000 209.585
46.50000 206.570
46.51000 204.702
46.52000 203.013
46.53000 203.157
46.54000 203.625
46.55000 204.272
46.56000 205.784
46.57000 207.410
46.58000 207.202
46.59000 201.160
46.60000 194.686
46.61000 190.233
46.62000 203.485
46.63000 213.865
46.64000 216.112
46.65000 206.831
46.66000 197.470
46.67000 195.542
46.68000 200.351
46.69000 205.112
46.70000 208.269
46.71000 210.428
46.72000 212.392
46.73000 210.342
46.74000 206.702
46.75000 203.394
46.76000 203.527
46.77000 204.568
46.78000 205.483
46.79000 202.486
46.80000 199.338
46.81000 197.338
46.82000 199.868
46.83000 202.861
46.84000 204.669
46.85000 203.366
46.86000 201.899
46.87000 200.957
46.88000 203.926
46.89000 206.144
46.90000 206.258
46.91000 203.946
46.92000 201.639
46.93000 200.826
46.94000 201.112
46.95000 201.393
46.96000 198.260
46.97000 193.640
46.98000 189.386
46.99000 190.392
47.00000 193.118
47.01000 195.186
47.02000 192.019
47.03000 187.724
47.04000 184.078
47.05000 191.086
47.06000 198.173
47.07000 201.727
47.08000 193.829
47.09000 185.055
47.10000 179.364
47.11000 180.371
47.12000 181.610
47.13000 182.345
47.14000 194.649
47.15000 203.417
47.16000 204.676
47.17000 198.980
47.18000 193.329
47.19000 190.573
47.20000 189.563
47.21000 188.586
47.22000 185.853
47.23000 182.600
47.24000 179.777
47.25000 181.515
47.26000 184.483
47.27000 187.628
47.28000 191.881
47.29000 196.327
47.30000 199.957
47.31000 190.312
47.32000 181.280
47.33000 176.243
47.34000 181.895
47.35000 188.131
47.36000 190.379
47.37000 185.476
47.38000 180.430
47.39000 177.699
47.40000 183.807
47.41000 187.994
47.42000 191.292
47.43000 193.922
47.44000 196.404
47.45000 193.635
47.46000 188.258
47.47000 183.139
47.48000 183.959
47.49000 186.552
47.50000 188.802
47.51000 188.256
47.52000 187.095
47.53000 186.169
47.54000 186.429
47.55000 186.852
47.56000 187.183
47.57000 188.858
47.58000 190.279
47.59000 192.037
47.60000 194.540
47.61000 197.070
47.62000 196.529
47.63000 191.460
47.64000 186.351
47.65000 184.409
47.66000 185.463
47.67000 186.513
47.68000 187.318
47.69000 187.972
47.70000 188.618
47.71000 189.069
47.72000 189.442
47.73000 189.789
47.74000 189.537
47.75000 189.160
47.76000 188.796
47.77000 188.511
47.78000 188.240
47.79000 188.108
47.80000 188.545
47.81000 189.044
47.82000 189.413
47.83000 188.877
47.84000 188.420
47.85000 187.070
47.86000 184.087
47.87000 181.069
47.88000 181.768
47.89000 186.932
47.90000 192.093
47.91000 192.990
47.92000 190.637
47.93000 188.300
47.94000 186.567
47.95000 185.139
47.96000 183.647
47.97000 181.161
47.98000 178.338
47.99000 175.767
48.00000 175.716
48.01000 176.173
48.02000 176.617
48.03000 176.997
48.04000 177.367
48.05000 178.026
48.06000 179.655
48.07000 181.363
48.08000 182.560
48.09000 183.852
48.10000 184.832
48.11000 184.814
48.12000 183.293
48.13000 181.757
48.14000 180.949
48.15000 180.843
48.16000 180.739
48.17000 180.803
48.18000 180.968
48.19000 181.076
48.20000 179.842
48.21000 178.044
48.22000 176.598
48.23000 179.097
48.24000 182.700
48.25000 185.892
48.26000 182.244
48.27000 178.011
48.28000 174.885
48.29000 176.392
48.30000 178.412
48.31000 179.295
48.32000 177.020
48.33000 174.560
48.34000 172.947
48.35000 177.149
48.36000 180.336
48.37000 182.712
48.38000 184.093
48.39000 185.466
48.40000 185.386
48.41000 184.170
48.42000 182.974
48.43000 186.714
48.44000 192.796
48.45000 198.638
48.46000 200.653
48.47000 201.344
48.48000 201.899
48.49000 201.284
48.50000 200.402
48.51000 199.645
48.52000 193.764
48.53000 188.169
48.54000 184.680
48.55000 188.421
48.56000 192.768
48.57000 196.073
48.58000 196.986
48.59000 197.804
48.60000 198.301
48.61000 185.051
48.62000 175.485
48.63000 171.268
48.64000 172.334
48.65000 173.413
48.66000 175.475
48.67000 178.164
48.68000 180.778
48.69000 176.704
48.70000 170.121
48.71000 164.388
48.72000 168.488
48.73000 175.394
48.74000 181.284
48.75000 180.344
48.76000 178.135
48.77000 176.310
48.78000 183.646
48.79000 190.549
48.80000 194.560
48.81000 190.389
48.82000 185.721
48.83000 182.599
48.84000 182.411
48.85000 182.294
48.86000 182.229
48.87000 185.159
48.88000 187.188
48.89000 188.005
48.90000 187.854
48.91000 187.603
48.92000 183.173
48.93000 176.547
48.94000 170.205
48.95000 169.796
48.96000 171.364
48.97000 172.646
48.98000 171.411
48.99000 169.589
49.00000 169.130
49.01000 175.993
49.02000 183.944
49.03000 190.239
49.04000 183.000
49.05000 176.245
49.06000 170.636
49.07000 167.707
49.08000 164.889
49.09000 166.130
49.10000 173.713
49.11000 181.372
49.12000 185.220
49.13000 176.970
49.14000 171.533
49.15000 172.719
49.16000 178.217
49.17000 183.516
49.18000 183.800
49.19000 181.903
49.20000 180.122
49.21000 180.750
49.22000 181.962
49.23000 182.847
49.24000 181.480
49.25000 179.686
49.26000 177.958
49.27000 176.519
49.28000 175.114
49.29000 174.054
49.30000 173.900
49.31000 173.825
49.32000 175.038
49.33000 178.745
49.34000 182.515
49.35000 184.097
49.36000 182.883
49.37000 181.662
49.38000 179.727
49.39000 177.222
49.40000 174.756
49.41000 174.024
49.42000 174.220
49.43000 174.532
49.44000 176.830
49.45000 179.840
49.46000 182.603
49.47000 181.480
49.48000 179.653
49.49000 177.728
49.50000 175.271
49.51000 172.732
49.52000 172.495
49.53000 180.464
49.54000 189.161
49.55000 195.363
49.56000 186.147
49.57000 178.614
49.58000 172.818
49.59000 169.789
49.60000 166.796
49.61000 168.172
49.62000 174.057
49.63000 179.906
49.64000 180.205
49.65000 176.864
49.66000 173.649
49.67000 173.731
49.68000 175.273
49.69000 176.712
49.70000 176.888
49.71000 176.690
49.72000 176.513
49.73000 176.568
49.74000 176.655
49.75000 175.993
49.76000 172.005
49.77000 167.620
49.78000 164.646
49.79000 165.821
49.80000 167.266
49.81000 168.233
49.82000 171.162
49.83000 173.374
49.84000 174.024
49.85000 172.637
49.86000 171.252
49.87000 175.002
49.88000 183.018
49.89000 190.924
49.90000 188.641
49.91000 181.010
49.92000 173.801
49.93000 174.010
49.94000 176.935
49.95000 179.612
49.96000 179.991
49.97000 179.811
49.98000 179.655
49.99000 178.987
50.00000 178.351
50.01000 177.541
50.02000 176.101
50.03000 174.604
50.04000 174.618
50.05000 178.304
50.06000 182.154
50.07000 184.550
50.08000 179.789
50.09000 176.288
50.10000 176.486
50.11000 180.587
50.12000 184.632
50.13000 182.549
50.14000 176.316
50.15000 170.236
50.16000 169.951
50.17000 172.177
50.18000 174.435
50.19000 177.110
50.20000 179.911
50.21000 182.521
50.22000 183.755
50.23000 184.717
50.24000 185.520
50.25000 185.866
50.26000 186.107
50.27000 186.235
50.28000 186.025
50.29000 185.793
50.30000 186.351
50.31000 188.496
50.32000 190.685
50.33000 191.938
50.34000 186.300
50.35000 182.344
50.36000 180.676
50.37000 180.950
50.38000 181.322
50.39000 186.539
50.40000 194.452
50.41000 202.062
50.42000 197.651
50.43000 189.313
50.44000 181.949
50.45000 183.842
50.46000 188.031
50.47000 192.833
50.48000 201.144
50.49000 210.013
50.50000 217.126
50.51000 217.896
50.52000 218.037
50.53000 217.684
50.54000 216.110
50.55000 214.478
50.56000 213.956
50.57000 215.270
50.58000 216.612
50.59000 217.308
50.60000 223.752
50.61000 228.090
50.62000 230.753
50.63000 232.259
50.64000 233.757
50.65000 234.999
50.66000 236.123
50.67000 237.185
50.68000 234.501
50.69000 230.978
50.70000 228.700
50.71000 235.591
50.72000 244.336
50.73000 250.375
50.74000 243.898
50.75000 235.852
50.76000 229.694
50.77000 224.924
50.78000 221.235
50.79000 219.696
50.80000 222.555
50.81000 225.545
50.82000 225.366
50.83000 220.886
50.84000 216.385
50.85000 217.563
50.86000 223.647
50.87000 229.620
50.88000 229.757
50.89000 226.584
50.90000 223.498
50.91000 222.042
50.92000 221.207
50.93000 220.435
50.94000 218.525
50.95000 216.553
50.96000 214.204
50.97000 209.658
50.98000 204.755
50.99000 201.340
51.00000 203.550
51.01000 206.302
51.02000 208.299
51.03000 200.420
51.04000 193.996
51.05000 190.821
51.06000 193.131
51.07000 195.530
51.08000 195.473
51.09000 192.714
51.10000 189.965
51.11000 190.046
51.12000 192.099
51.13000 194.071
51.14000 193.614
51.15000 192.020
51.16000 190.264
51.17000 186.344
51.18000 181.744
51.19000 177.599
51.20000 174.327
51.21000 171.614
51.22000 169.574
51.23000 170.711
51.24000 172.256
51.25000 173.548
51.26000 174.055
51.27000 174.505
51.28000 174.813
51.29000 180.765
51.30000 185.348
51.31000 185.777
51.32000 180.453
51.33000 175.098
51.34000 174.653
51.35000 178.550
51.36000 182.403
51.37000 179.554
51.38000 172.988
51.39000 166.784
51.40000 167.706
51.41000 171.388
51.42000 174.680
51.43000 174.069
51.44000 172.449
51.45000 171.033
51.46000 168.122
51.47000 165.414
51.48000 164.493
51.49000 170.461
51.50000 177.112
51.51000 180.220
51.52000 174.229
51.53000 167.779
51.54000 163.675
51.55000 162.343
51.56000 161.411
51.57000 159.934
51.58000 157.846
51.59000 155.793
51.60000 159.059
51.61000 166.146
51.62000 173.084
51.63000 171.208
51.64000 165.364
51.65000 159.899
51.66000 159.659
51.67000 161.092
51.68000 162.993
51.69000 168.522
51.70000 174.814
51.71000 180.132
51.72000 168.964
51.73000 157.811
51.74000 150.912
51.75000 157.491
51.76000 165.066
51.77000 168.982
51.78000 165.130
51.79000 161.023
51.80000 158.611
51.81000 159.374
51.82000 159.928
51.83000 160.559
51.84000 161.260
51.85000 161.970
51.86000 163.227
51.87000 164.806
51.88000 166.331
51.89000 164.935
51.90000 162.531
51.91000 160.215
51.92000 158.792
51.93000 157.606
51.94000 156.934
51.95000 159.416
51.96000 162.432
51.97000 164.883
51.98000 161.645
51.99000 158.531
52.00000 156.120
52.01000 155.546
52.02000 155.069
52.03000 154.782
52.04000 154.831
52.05000 154.886
52.06000 154.915
52.07000 159.189
52.08000 162.091
52.09000 162.225
52.10000 160.330
52.11000 158.489
52.12000 158.406
52.13000 159.178
52.14000 159.911
52.15000 161.812
52.16000 163.919
52.17000 165.962
52.18000 167.490
52.19000 168.907
52.20000 169.188
52.21000 163.877
52.22000 157.812
52.23000 153.103
52.24000 163.244
52.25000 172.207
52.26000 176.937
52.27000 172.504
52.28000 167.756
52.29000 161.687
52.30000 153.717
52.31000 145.732
52.32000 146.510
52.33000 155.365
52.34000 164.074
52.35000 163.226
52.36000 156.639
52.37000 150.427
52.38000 152.185
52.39000 157.147
52.40000 161.764
52.41000 160.506
52.42000 157.944
52.43000 155.555
52.44000 154.254
52.45000 153.141
52.46000 153.701
52.47000 160.962
52.48000 168.924
52.49000 174.796
52.50000 167.817
52.51000 161.870
52.52000 158.199
52.53000 158.596
52.54000 159.073
52.55000 159.131
52.56000 158.696
52.57000 158.262
52.58000 162.143
52.59000 169.197
52.60000 175.975
52.61000 173.110
52.62000 165.469
52.63000 158.250
52.64000 157.267
52.65000 158.354
52.66000 159.342
52.67000 158.211
52.68000 156.802
52.69000 156.446
52.70000 161.374
52.71000 167.032
52.72000 172.163
52.73000 175.558
52.74000 178.817
52.75000 181.084
52.76000 171.205
52.77000 163.428
52.78000 159.043
52.79000 159.642
52.80000 160.284
52.81000 160.218
52.82000 159.484
52.83000 158.757
52.84000 155.692
52.85000 151.283
52.86000 147.121
52.87000 148.414
52.88000 151.942
52.89000 155.186
52.90000 155.355
52.91000 154.683
52.92000 154.089
52.93000 152.942
52.94000 151.867
52.95000 152.125
52.96000 157.830
52.97000 164.118
52.98000 167.531
52.99000 163.133
53.00000 158.296
53.01000 155.150
53.02000 155.252
53.03000 155.377
53.04000 157.928
53.05000 163.383
53.06000 168.820
53.07000 169.034
53.08000 165.265
53.09000 161.563
53.10000 160.183
53.11000 159.983
53.12000 159.795
53.13000 159.794
53.14000 159.855
53.15000 160.192
53.16000 162.825
53.17000 165.971
53.18000 168.658
53.19000 169.181
53.20000 169.364
53.21000 168.929
53.22000 166.422
53.23000 163.748
53.24000 162.017
53.25000 162.405
53.26000 162.872
53.27000 163.153
53.28000 158.093
53.29000 154.458
53.30000 157.072
53.31000 165.704
53.32000 174.242
53.33000 175.695
53.34000 172.725
53.35000 169.843
53.36000 170.615
53.37000 172.792
53.38000 174.622
53.39000 172.573
53.40000 169.442
53.41000 166.831
53.42000 167.621
53.43000 169.028
53.44000 170.185
53.45000 164.869
53.46000 159.915
53.47000 156.266
53.48000 156.227
53.49000 156.400
53.50000 157.702
53.51000 161.101
53.52000 164.548
53.53000 166.445
53.54000 165.047
53.55000 164.088
53.56000 165.942
53.57000 169.984
53.58000 173.825
53.59000 169.864
53.60000 161.892
53.61000 154.279
53.62000 153.593
53.63000 155.177
53.64000 157.190
53.65000 162.860
53.66000 169.366
53.67000 174.137
53.68000 169.829
53.69000 164.208
53.70000 159.782
53.71000 158.923
53.72000 158.472
53.73000 158.670
53.74000 160.352
53.75000 162.092
53.76000 161.846
53.77000 158.566
53.78000 155.253
53.79000 154.809
53.80000 157.186
53.81000 159.562
53.82000 161.776
53.83000 163.888
53.84000 165.990
53.85000 167.865
53.86000 169.644
53.87000 171.310
53.88000 166.525
53.89000 160.503
53.90000 155.247
53.91000 155.107
53.92000 155.913
53.93000 156.140
53.94000 153.905
53.95000 151.391
53.96000 149.507
53.97000 150.738
53.98000 151.846
53.99000 152.584
54.00000 152.623
54.01000 152.645
54.02000 152.060
54.03000 150.717
54.04000 149.374
54.05000 148.712
54.06000 148.593
54.07000 148.445
54.08000 147.112
54.09000 145.159
54.10000 143.671
54.11000 149.754
54.12000 158.498
54.13000 166.500
54.14000 161.704
54.15000 154.787
54.16000 149.517
54.17000 153.055
54.18000 157.895
54.19000 161.870
54.20000 162.829
54.21000 163.530
54.22000 164.027
54.23000 157.543
54.24000 152.398
54.25000 149.876
54.26000 151.439
54.27000 153.051
54.28000 154.381
54.29000 155.427
54.30000 156.466
54.31000 157.053
54.32000 157.342
54.33000 157.565
54.34000 156.159
54.35000 154.048
54.36000 152.052
54.37000 151.422
54.38000 151.189
54.39000 150.981
54.40000 151.506
54.41000 152.082
54.42000 152.706
54.43000 153.538
54.44000 154.393
54.45000 155.396
54.46000 156.823
54.47000 158.276
54.48000 159.241
54.49000 167.856
54.50000 174.366
54.51000 174.624
54.52000 166.925
54.53000 159.205
54.54000 154.182
54.55000 151.346
54.56000 148.551
54.57000 149.054
54.58000 151.249
54.59000 153.433
54.60000 155.417
54.61000 157.329
54.62000 158.916
54.63000 157.580
54.64000 155.550
54.65000 153.798
54.66000 157.627
54.67000 161.591
54.68000 164.367
54.69000 162.919
54.70000 161.099
54.71000 160.082
54.72000 160.977
54.73000 161.953
54.74000 162.555
54.75000 157.897
54.76000 154.505
54.77000 153.525
54.78000 155.024
54.79000 156.524
54.80000 158.043
54.81000 159.577
54.82000 161.070
54.83000 163.296
54.84000 165.725
54.85000 167.615
54.86000 162.915
54.87000 156.268
54.88000 150.458
54.89000 150.504
54.90000 151.680
54.91000 152.659
54.92000 154.263
54.93000 155.652
54.94000 155.342
54.95000 150.059
54.96000 144.455
54.97000 142.654
54.98000 148.325
54.99000 154.193
55.00000 157.514
55.01000 152.449
55.02000 148.917
55.03000 152.717
55.04000 162.582
55.05000 172.259
55.06000 173.271
55.07000 169.567
55.08000 166.012
55.09000 161.564
55.10000 157.101
55.11000 153.558
55.12000 158.485
55.13000 165.465
55.14000 171.371
55.15000 171.277
55.16000 170.256
55.17000 169.440
55.18000 165.723
55.19000 162.510
55.20000 159.833
55.21000 158.454
55.22000 157.133
55.23000 159.311
55.24000 167.154
55.25000 175.075
55.26000 179.133
55.27000 168.944
55.28000 162.172
55.29000 163.747
55.30000 170.953
55.31000 177.884
55.32000 177.312
55.33000 173.368
55.34000 169.651
55.35000 169.439
55.36000 170.211
55.37000 171.728
55.38000 178.588
55.39000 186.500
55.40000 193.239
55.41000 194.681
55.42000 195.477
55.43000 196.083
55.44000 198.276
55.45000 200.084
55.46000 201.282
55.47000 201.259
55.48000 201.202
55.49000 205.755
55.50000 216.418
55.51000 227.100
55.52000 233.435
55.53000 236.093
55.54000 238.729
55.55000 240.343
55.56000 241.390
55.57000 242.747
55.58000 249.713
55.59000 258.765
55.60000 267.109
55.61000 282.605
55.62000 298.063
55.63000 313.169
55.64000 326.266
55.65000 339.044
55.66000 351.763
55.67000 364.264
55.68000 376.745
55.69000 385.740
55.70000 416.728
55.71000 441.250
55.72000 465.064
55.73000 487.707
55.74000 510.333
55.75000 532.360
55.76000 553.744
55.77000 575.022
55.78000 592.886
55.79000 608.221
55.80000 623.894
55.81000 649.206
55.82000 678.932
55.83000 708.473
55.84000 735.619
55.85000 762.030
55.86000 785.750
55.87000 809.239
55.88000 829.749
55.89000 849.267
55.90000 864.210
55.91000 878.582
55.92000 890.248
55.93000 893.692
55.94000 896.570
55.95000 898.519
55.96000 901.920
55.97000 904.487
55.98000 901.376
55.99000 890.588
56.00000 879.752
56.01000 864.754
56.02000 846.164
56.03000 827.800
56.04000 814.930
56.05000 805.411
56.06000 795.166
56.07000 771.294
56.08000 742.259
56.09000 714.611
56.10000 700.417
56.11000 689.615
56.12000 680.203
56.13000 640.609
56.14000 602.603
56.15000 567.711
56.16000 544.545
56.17000 522.504
56.18000 502.617
56.19000 488.141
56.20000 473.925
56.21000 464.958
56.22000 436.633
56.23000 415.899
56.24000 401.461
56.25000 393.928
56.26000 386.359
56.27000 373.505
56.28000 356.943
56.29000 340.751
56.30000 326.682
56.31000 314.146
56.32000 302.050
56.33000 295.828
56.34000 291.443
56.35000 285.702
56.36000 269.765
56.37000 251.734
56.38000 236.563
56.39000 231.408
56.40000 228.178
56.41000 224.071
56.42000 217.245
56.43000 210.225
56.44000 205.595
56.45000 205.928
56.46000 206.413
56.47000 206.696
56.48000 206.262
56.49000 205.947
56.50000 197.854
56.51000 182.914
56.52000 168.216
56.53000 167.081
56.54000 173.758
56.55000 180.197
56.56000 182.048
56.57000 182.123
56.58000 181.860
56.59000 178.231
56.60000 173.736
56.61000 169.832
56.62000 169.443
56.63000 169.637
56.64000 169.793
56.65000 167.912
56.66000 166.219
56.67000 163.929
56.68000 160.111
56.69000 156.216
56.70000 154.608
56.71000 156.917
56.72000 159.294
56.73000 160.550
56.74000 162.019
56.75000 163.004
56.76000 161.865
56.77000 159.208
56.78000 156.574
56.79000 154.655
56.80000 153.076
56.81000 151.580
56.82000 150.075
56.83000 148.685
56.84000 147.687
56.85000 149.698
56.86000 152.341
56.87000 154.688
56.88000 155.618
56.89000 156.363
56.90000 156.938
56.91000 152.470
56.92000 148.634
56.93000 147.074
56.94000 150.333
56.95000 153.748
56.96000 153.422
56.97000 147.831
56.98000 142.205
56.99000 144.220
57.00000 153.098
57.01000 161.836
57.02000 162.180
57.03000 157.595
57.04000 153.144
57.05000 151.388
57.06000 150.693
57.07000 150.047
57.08000 147.624
57.09000 145.019
57.10000 143.558
57.11000 149.060
57.12000 155.739
57.13000 160.218
57.14000 156.081
57.15000 151.072
57.16000 147.401
57.17000 149.128
57.18000 150.678
57.19000 151.740
57.20000 151.951
57.21000 152.147
57.22000 152.445
57.23000 152.859
57.24000 153.272
57.25000 151.028
57.26000 146.879
57.27000 142.798
57.28000 140.941
57.29000 140.160
57.30000 139.640
57.31000 142.824
57.32000 147.211
57.33000 151.183
57.34000 150.951
57.35000 149.953
57.36000 149.009
57.37000 148.332
57.38000 147.690
57.39000 147.883
57.40000 150.762
57.41000 153.843
57.42000 155.971
57.43000 150.645
57.44000 146.452
57.45000 143.140
57.46000 141.089
57.47000 139.051
57.48000 141.577
57.49000 148.294
57.50000 154.947
57.51000 151.432
57.52000 142.031
57.53000 133.123
57.54000 134.610
57.55000 140.261
57.56000 145.411
57.57000 145.292
57.58000 143.764
57.59000 142.420
57.60000 143.718
57.61000 145.227
57.62000 147.049
57.63000 150.123
57.64000 153.327
57.65000 153.252
57.66000 144.469
57.67000 135.217
57.68000 129.250
57.69000 136.162
57.70000 141.394
57.71000 144.798
57.72000 146.070
57.73000 147.333
57.74000 147.757
57.75000 147.556
57.76000 147.359
57.77000 145.813
57.78000 143.682
57.79000 141.653
57.80000 141.127
57.81000 141.097
57.82000 141.151
57.83000 141.882
57.84000 142.761
57.85000 143.508
57.86000 143.766
57.87000 143.927
57.88000 143.866
57.89000 143.079
57.90000 142.236
57.91000 140.824
57.92000 138.163
57.93000 135.457
57.94000 133.844
57.95000 131.482
57.96000 129.804
57.97000 131.643
57.98000 136.780
57.99000 141.857
58.00000 142.729
58.01000 141.037
58.02000 139.398
58.03000 138.255
58.04000 137.366
58.05000 136.790
58.06000 139.600
58.07000 143.334
58.08000 146.731
58.09000 147.990
58.10000 148.871
58.11000 149.593
58.12000 148.496
58.13000 147.439
58.14000 146.382
58.15000 145.323
58.16000 144.265
58.17000 143.663
58.18000 143.890
58.19000 144.135
58.20000 144.268
58.21000 143.543
58.22000 143.040
58.23000 141.542
58.24000 139.290
58.25000 137.182
58.26000 140.372
58.27000 146.227
58.28000 151.807
58.29000 147.165
58.30000 139.666
58.31000 133.575
58.32000 139.144
58.33000 147.313
58.34000 152.852
58.35000 144.953
58.36000 135.165
58.37000 127.500
58.38000 133.668
58.39000 139.483
58.40000 141.625
58.41000 135.542
58.42000 129.153
58.43000 127.033
58.44000 131.282
58.45000 135.593
58.46000 137.809
58.47000 138.018
58.48000 138.226
58.49000 138.404
58.50000 138.564
58.51000 138.593
58.52000 135.663
58.53000 131.501
58.54000 127.614
58.55000 131.137
58.56000 136.201
58.57000 140.203
58.58000 137.285
58.59000 133.119
58.60000 130.266
58.61000 132.868
58.62000 136.068
58.63000 138.452
58.64000 138.219
58.65000 137.920
58.66000 138.582
58.67000 141.018
58.68000 143.495
58.69000 142.933
58.70000 138.673
58.71000 134.414
58.72000 134.371
58.73000 137.577
58.74000 140.662
58.75000 139.044
58.76000 135.017
58.77000 131.057
58.78000 128.149
58.79000 125.603
58.80000 123.280
58.81000 129.141
58.82000 135.990
58.83000 141.598
58.84000 140.730
58.85000 138.931
58.86000 137.125
58.87000 135.298
58.88000 133.469
58.89000 132.183
58.90000 133.183
58.91000 134.007
58.92000 133.977
58.93000 132.644
58.94000 131.298
58.95000 131.456
58.96000 133.088
58.97000 134.707
58.98000 138.305
58.99000 143.075
59.00000 147.573
59.01000 145.605
59.02000 140.897
59.03000 136.448
59.04000 134.963
59.05000 134.317
59.06000 133.744
59.07000 133.845
59.08000 134.039
59.09000 134.382
59.10000 135.355
59.11000 136.398
59.12000 136.269
59.13000 132.845
59.14000 129.224
59.15000 126.839
59.16000 134.505
59.17000 140.325
59.18000 143.711
59.19000 144.071
59.20000 144.417
59.21000 142.817
59.22000 139.677
59.23000 136.587
59.24000 134.405
59.25000 132.751
59.26000 131.049
59.27000 128.570
59.28000 125.820
59.29000 123.557
59.30000 125.544
59.31000 128.516
59.32000 131.071
59.33000 136.247
59.34000 140.953
59.35000 144.538
59.36000 144.232
59.37000 143.595
59.38000 141.844
59.39000 137.506
59.40000 133.063
59.41000 130.349
59.42000 128.744
59.43000 127.604
59.44000 126.912
59.45000 126.669
59.46000 126.433
59.47000 126.844
59.48000 127.672
59.49000 128.478
59.50000 128.281
59.51000 127.681
59.52000 127.288
59.53000 129.335
59.54000 132.087
59.55000 134.193
59.56000 131.902
59.57000 128.784
59.58000 126.201
59.59000 129.123
59.60000 132.059
59.61000 134.204
59.62000 134.089
59.63000 133.833
59.64000 135.114
59.65000 139.345
59.66000 143.650
59.67000 146.060
59.68000 138.476
59.69000 133.210
59.70000 132.609
59.71000 135.775
59.72000 138.879
59.73000 139.338
59.74000 138.389
59.75000 137.480
59.76000 137.058
59.77000 136.826
59.78000 136.563
59.79000 136.022
59.80000 135.415
59.81000 134.030
59.82000 128.415
59.83000 122.162
59.84000 117.199
59.85000 126.057
59.86000 134.164
59.87000 139.245
59.88000 137.163
59.89000 134.777
59.90000 133.398
59.91000 133.609
59.92000 133.840
59.93000 133.957
59.94000 132.941
59.95000 132.256
59.96000 131.150
59.97000 129.767
59.98000 128.483
59.99000 129.758
60.00000 132.159
60.01000 134.415
60.02000 132.207
60.03000 128.990
60.04000 126.468
60.05000 128.790
60.06000 132.043
60.07000 135.551
60.08000 140.182
60.09000 144.946
60.10000 148.549
60.11000 145.181
60.12000 142.189
60.13000 139.952
60.14000 139.193
60.15000 138.473
60.16000 136.065
60.17000 131.473
60.18000 126.878
60.19000 124.699
60.20000 124.513
60.21000 124.304
60.22000 123.064
60.23000 121.264
60.24000 119.720
60.25000 122.621
60.26000 127.137
60.27000 131.289
60.28000 135.278
60.29000 138.805
60.30000 141.618
60.31000 140.463
60.32000 138.697
60.33000 137.304
60.34000 137.258
60.35000 137.334
60.36000 137.389
60.37000 135.687
60.38000 134.328
60.39000 134.226
60.40000 136.152
60.41000 138.105
60.42000 138.894
60.43000 138.463
60.44000 138.035
60.45000 138.024
60.46000 138.290
60.47000 138.457
60.48000 135.936
60.49000 132.210
60.50000 128.758
60.51000 128.719
60.52000 129.704
60.53000 130.586
60.54000 132.400
60.55000 134.142
60.56000 135.266
60.57000 133.608
60.58000 131.612
60.59000 129.763
60.60000 128.348
60.61000 126.961
60.62000 126.029
60.63000 127.212
60.64000 128.135
60.65000 129.269
60.66000 130.682
60.67000 132.089
60.68000 128.886
60.69000 121.804
60.70000 114.815
60.71000 114.860
60.72000 118.685
60.73000 122.582
60.74000 127.768
60.75000 133.431
60.76000 138.619
60.77000 139.334
60.78000 138.948
60.79000 138.612
60.80000 131.292
60.81000 124.116
60.82000 118.818
60.83000 120.427
60.84000 122.677
60.85000 124.214
60.86000 123.999
60.87000 123.704
60.88000 123.519
60.89000 129.768
60.90000 134.345
60.91000 135.978
60.92000 134.462
60.93000 132.952
60.94000 132.125
60.95000 131.767
60.96000 131.418
60.97000 128.104
60.98000 123.640
60.99000 119.783
61.00000 123.750
61.01000 130.108
61.02000 135.722
61.03000 135.902
61.04000 134.992
61.05000 134.230
61.06000 134.447
61.07000 134.728
61.08000 134.738
61.09000 133.927
61.10000 133.059
61.11000 133.805
61.12000 137.826
61.13000 141.943
61.14000 144.311
61.15000 143.336
61.16000 142.642
61.17000 142.159
61.18000 141.858
61.19000 141.526
61.20000 139.597
61.21000 136.768
61.22000 134.045
61.23000 136.312
61.24000 140.207
61.25000 143.418
61.26000 140.029
61.27000 134.982
61.28000 131.199
61.29000 134.752
61.30000 139.486
61.31000 143.295
61.32000 143.341
61.33000 143.088
61.34000 142.353
61.35000 140.412
61.36000 138.414
61.37000 136.477
61.38000 134.645
61.39000 132.813
61.40000 131.857
61.41000 135.709
61.42000 138.320
61.43000 141.517
61.44000 145.123
61.45000 148.597
61.46000 148.162
61.47000 145.910
61.48000 143.780
61.49000 147.367
61.50000 152.301
61.51000 157.345
61.52000 163.212
61.53000 169.248
61.54000 176.200
61.55000 187.441
61.56000 199.229
61.57000 208.279
61.58000 214.120
61.59000 218.557
61.60000 225.348
61.61000 237.011
61.62000 248.824
61.63000 258.356
61.64000 264.755
61.65000 271.132
61.66000 274.704
61.67000 275.815
61.68000 276.933
61.69000 278.418
61.70000 280.113
61.71000 281.830
61.72000 283.974
61.73000 286.282
61.74000 288.419
61.75000 274.880
61.76000 259.099
61.77000 244.050
61.78000 233.347
61.79000 223.359
61.80000 213.170
61.81000 202.205
61.82000 191.165
61.83000 183.127
61.84000 173.652
61.85000 166.303
61.86000 160.962
61.87000 159.051
61.88000 157.198
61.89000 155.750
61.90000 154.752
61.91000 153.758
61.92000 152.039
61.93000 149.824
61.94000 147.716
61.95000 148.937
61.96000 151.736
61.97000 154.211
61.98000 152.254
61.99000 148.890
62.00000 145.853
62.01000 147.733
62.02000 150.287
62.03000 151.938
62.04000 149.268
62.05000 146.034
62.06000 142.790
62.07000 139.516
62.08000 136.239
62.09000 133.994
62.10000 136.835
62.11000 139.085
62.12000 140.450
62.13000 140.574
62.14000 140.687
62.15000 139.174
62.16000 136.202
62.17000 133.261
62.18000 132.288
62.19000 132.462
62.20000 132.753
62.21000 135.382
62.22000 138.926
62.23000 142.279
62.24000 143.681
62.25000 144.574
62.26000 145.355
62.27000 147.469
62.28000 149.475
62.29000 150.848
62.30000 149.749
62.31000 148.401
62.32000 147.437
62.33000 147.470
62.34000 147.555
62.35000 147.610
62.36000 145.686
62.37000 144.260
62.38000 142.342
62.39000 139.865
62.40000 137.412
62.41000 139.104
62.42000 143.810
62.43000 148.420
62.44000 149.265
62.45000 148.330
62.46000 147.351
62.47000 145.759
62.48000 143.969
62.49000 142.207
62.50000 140.673
62.51000 139.187
62.52000 137.929
62.53000 136.399
62.54000 135.088
62.55000 134.484
62.56000 136.150
62.57000 137.987
62.58000 138.775
62.59000 137.307
62.60000 135.764
62.61000 134.853
62.62000 132.176
62.63000 130.277
62.64000 130.818
62.65000 133.590
62.66000 136.353
62.67000 138.478
62.68000 140.221
62.69000 141.907
62.70000 140.904
62.71000 138.944
62.72000 137.206
62.73000 137.791
62.74000 138.996
62.75000 140.119
62.76000 140.737
62.77000 141.269
62.78000 141.702
62.79000 141.226
62.80000 140.760
62.81000 141.447
62.82000 145.186
62.83000 149.088
62.84000 149.011
62.85000 141.875
62.86000 134.604
62.87000 130.691
62.88000 131.853
62.89000 132.652
62.90000 133.628
62.91000 134.733
62.92000 135.813
62.93000 136.013
62.94000 135.781
62.95000 135.561
62.96000 136.170
62.97000 136.987
62.98000 137.896
62.99000 139.550
63.00000 141.365
63.01000 142.692
63.02000 141.581
63.03000 140.138
63.04000 139.013
63.05000 136.522
63.06000 134.453
63.07000 134.492
63.08000 139.150
63.09000 143.970
63.10000 147.279
63.11000 148.384
63.12000 149.470
63.13000 148.178
63.14000 144.664
63.15000 141.191
63.16000 140.508
63.17000 141.519
63.18000 142.529
63.19000 143.523
63.20000 144.511
63.21000 145.431
63.22000 144.736
63.23000 143.710
63.24000 142.688
63.25000 141.689
63.26000 140.695
63.27000 140.643
63.28000 144.418
63.29000 148.600
63.30000 151.694
63.31000 149.672
63.32000 147.883
63.33000 146.047
63.34000 144.124
63.35000 142.200
63.36000 141.685
63.37000 142.843
63.38000 144.001
63.39000 144.869
63.40000 145.513
63.41000 146.078
63.42000 143.789
63.43000 140.069
63.44000 136.712
63.45000 138.816
63.46000 142.758
63.47000 146.343
63.48000 147.864
63.49000 148.804
63.50000 149.339
63.51000 147.813
63.52000 145.999
63.53000 144.089
63.54000 141.858
63.55000 139.602
63.56000 138.026
63.57000 136.918
63.58000 136.094
63.59000 138.040
63.60000 144.105
63.61000 150.207
63.62000 152.672
63.63000 151.662
63.64000 150.661
63.65000 147.541
63.66000 143.191
63.67000 139.088
63.68000 140.603
63.69000 144.445
63.70000 148.226
63.71000 151.328
63.72000 154.242
63.73000 156.819
63.74000 151.953
63.75000 146.593
63.76000 142.165
63.77000 141.595
63.78000 141.446
63.79000 142.532
63.80000 147.013
63.81000 151.690
63.82000 154.744
63.83000 155.001
63.84000 155.145
63.85000 151.988
63.86000 144.829
63.87000 137.690
63.88000 137.695
63.89000 143.216
63.90000 148.644
63.91000 149.693
63.92000 148.546
63.93000 147.582
63.94000 149.473
63.95000 152.342
63.96000 154.699
63.97000 152.738
63.98000 149.797
63.99000 147.280
64.00000 142.928
64.01000 139.034
64.02000 136.779
64.03000 140.083
64.04000 143.845
64.05000 147.431
64.06000 150.620
64.07000 153.792
64.08000 155.712
64.09000 153.208
64.10000 151.392
64.11000 152.230
64.12000 155.660
64.13000 159.036
64.14000 158.179
64.15000 154.647
64.16000 151.217
64.17000 152.402
64.18000 155.375
64.19000 158.236
64.20000 159.828
64.21000 161.061
64.22000 161.758
64.23000 158.900
64.24000 155.389
64.25000 152.495
64.26000 154.055
64.27000 155.750
64.28000 156.403
64.29000 154.140
64.30000 151.704
64.31000 151.032
64.32000 153.674
64.33000 156.393
64.34000 157.898
64.35000 157.280
64.36000 156.857
64.37000 158.758
64.38000 162.488
64.39000 166.173
64.40000 167.998
64.41000 168.855
64.42000 169.675
64.43000 174.962
64.44000 181.332
64.45000 186.529
64.46000 181.555
64.47000 174.230
64.48000 167.735
64.49000 165.650
64.50000 164.211
64.51000 163.075
64.52000 161.261
64.53000 159.760
64.54000 160.207
64.55000 165.165
64.56000 170.304
64.57000 172.255
64.58000 169.274
64.59000 166.238
64.60000 164.937
64.61000 165.368
64.62000 165.804
64.63000 166.758
64.64000 168.045
64.65000 169.387
64.66000 172.090
64.67000 175.378
64.68000 178.462
64.69000 178.737
64.70000 178.251
64.71000 177.764
64.72000 177.278
64.73000 176.791
64.74000 176.269
64.75000 175.596
64.76000 174.907
64.77000 174.388
64.78000 175.753
64.79000 176.912
64.80000 176.714
64.81000 173.923
64.82000 171.069
64.83000 170.230
64.84000 171.937
64.85000 173.650
64.86000 175.138
64.87000 176.440
64.88000 177.709
64.89000 177.600
64.90000 176.761
64.91000 176.245
64.92000 181.111
64.93000 187.891
64.94000 194.105
64.95000 191.858
64.96000 188.081
64.97000 185.240
64.98000 187.480
64.99000 190.482
65.00000 192.120
65.01000 188.948
65.02000 185.355
65.03000 182.802
65.04000 191.794
65.05000 199.010
65.06000 202.677
65.07000 200.749
65.08000 198.752
65.09000 199.705
65.10000 203.666
65.11000 207.601
65.12000 210.758
65.13000 213.365
65.14000 216.006
65.15000 219.496
65.16000 223.358
65.17000 226.792
65.18000 225.065
65.19000 221.824
65.20000 218.933
65.21000 222.191
65.22000 226.051
65.23000 229.930
65.24000 233.893
65.25000 237.865
65.26000 242.266
65.27000 247.909
65.28000 253.632
65.29000 257.447
65.30000 262.652
65.31000 266.532
65.32000 270.356
65.33000 274.105
65.34000 277.854
65.35000 281.404
65.36000 284.792
65.37000 288.131
65.38000 291.706
65.39000 295.301
65.40000 298.925
65.41000 303.034
65.42000 307.319
65.43000 311.695
65.44000 316.905
65.45000 322.315
65.46000 326.993
65.47000 335.196
65.48000 342.626
65.49000 348.605
65.50000 349.368
65.51000 349.663
65.52000 353.095
65.53000 364.069
65.54000 375.374
65.55000 382.377
65.56000 381.769
65.57000 381.260
65.58000 382.312
65.59000 384.990
65.60000 387.732
65.61000 397.081
65.62000 410.853
65.63000 424.279
65.64000 437.270
65.65000 449.484
65.66000 462.029
65.67000 478.671
65.68000 496.537
65.69000 516.283
65.70000 549.380
65.71000 585.089
65.72000 614.868
65.73000 692.784
65.74000 762.200
65.75000 823.707
65.76000 861.790
65.77000 898.329
65.78000 940.354
65.79000 993.280
65.80000 1046.505
65.81000 1076.799
65.82000 1106.912
65.83000 1127.881
65.84000 1138.401
65.85000 1140.166
65.86000 1141.912
65.87000 1142.802
65.88000 1143.219
65.89000 1143.620
65.90000 1126.260
65.91000 1103.872
65.92000 1081.139
65.93000 1055.181
65.94000 1028.433
65.95000 995.084
65.96000 924.403
65.97000 847.863
65.98000 786.619
65.99000 723.002
66.00000 671.386
66.01000 622.038
66.02000 578.243
66.03000 534.702
66.04000 492.504
66.05000 452.507
66.06000 412.542
66.07000 391.931
66.08000 371.720
66.09000 358.121
66.10000 346.254
66.11000 335.571
66.12000 325.081
66.13000 320.031
66.14000 317.455
66.15000 315.024
66.16000 309.276
66.17000 303.081
66.18000 297.727
66.19000 298.495
66.20000 300.486
66.21000 303.050
66.22000 308.235
66.23000 313.744
66.24000 317.949
66.25000 324.799
66.26000 330.340
66.27000 336.608
66.28000 344.349
66.29000 352.133
66.30000 365.150
66.31000 385.190
66.32000 405.250
66.33000 413.780
66.34000 412.448
66.35000 411.287
66.36000 418.915
66.37000 431.474
66.38000 443.633
66.39000 448.385
66.40000 450.350
66.41000 452.165
66.42000 454.291
66.43000 456.267
66.44000 457.258
66.45000 452.554
66.46000 446.936
66.47000 440.868
66.48000 433.121
66.49000 425.214
66.50000 419.496
66.51000 411.247
66.52000 404.824
66.53000 395.582
66.54000 381.634
66.55000 367.613
66.56000 353.398
66.57000 338.971
66.58000 324.612
66.59000 321.276
66.60000 325.571
66.61000 329.529
66.62000 323.608
66.63000 313.112
66.64000 303.367
66.65000 303.545
66.66000 306.805
66.67000 309.737
66.68000 307.581
66.69000 304.783
66.70000 303.229
66.71000 307.480
66.72000 312.466
66.73000 316.886
66.74000 319.561
66.75000 322.115
66.76000 323.851
66.77000 317.966
66.78000 313.399
66.79000 311.657
66.80000 313.782
66.81000 315.928
66.82000 317.109
66.83000 317.447
66.84000 317.780
66.85000 318.606
66.86000 319.688
66.87000 320.714
66.88000 320.681
66.89000 320.242
66.90000 320.264
66.91000 324.828
66.92000 330.552
66.93000 335.549
66.94000 341.854
66.95000 347.432
66.96000 350.694
66.97000 345.129
66.98000 338.704
66.99000 333.709
67.00000 332.351
67.01000 331.172
67.02000 330.425
67.03000 336.374
67.04000 340.771
67.05000 347.193
67.06000 355.864
67.07000 364.462
67.08000 362.360
67.09000 352.659
67.10000 343.168
67.11000 344.589
67.12000 350.897
67.13000 356.661
67.14000 355.019
67.15000 351.031
67.16000 347.239
67.17000 344.934
67.18000 342.937
67.19000 341.254
67.20000 347.753
67.21000 354.069
67.22000 359.907
67.23000 364.253
67.24000 368.491
67.25000 370.550
67.26000 368.030
67.27000 365.365
67.28000 363.808
67.29000 368.192
67.30000 371.301
67.31000 369.023
67.32000 361.940
67.33000 355.059
67.34000 359.954
67.35000 371.712
67.36000 383.062
67.37000 385.475
67.38000 384.462
67.39000 383.661
67.40000 385.004
67.41000 386.905
67.42000 389.039
67.43000 392.579
67.44000 396.356
67.45000 399.417
67.46000 396.220
67.47000 393.104
67.48000 392.884
67.49000 400.161
67.50000 407.822
67.51000 413.044
67.52000 414.036
67.53000 414.952
67.54000 415.439
67.55000 417.003
67.56000 418.077
67.57000 420.528
67.58000 423.976
67.59000 427.365
67.60000 428.842
67.61000 429.398
67.62000 429.926
67.63000 431.849
67.64000 434.037
67.65000 435.240
67.66000 428.754
67.67000 420.633
67.68000 415.859
67.69000 427.354
67.70000 441.013
67.71000 451.590
67.72000 442.477
67.73000 434.071
67.74000 431.734
67.75000 442.396
67.76000 453.492
67.77000 462.965
67.78000 470.126
67.79000 477.269
67.80000 477.556
67.81000 471.601
67.82000 465.663
67.83000 460.802
67.84000 456.581
67.85000 452.910
67.86000 460.672
67.87000 472.980
67.88000 484.420
67.89000 485.773
67.90000 484.578
67.91000 484.184
67.92000 488.740
67.93000 494.145
67.94000 497.565
67.95000 493.124
67.96000 487.873
67.97000 484.012
67.98000 497.596
67.99000 508.820
68.00000 516.440
68.01000 517.687
68.02000 518.812
68.03000 519.214
68.04000 518.778
68.05000 518.343
68.06000 517.616
68.07000 516.681
68.08000 515.901
68.09000 520.386
68.10000 527.451
68.11000 534.407
68.12000 539.771
68.13000 544.612
68.14000 549.002
68.15000 548.983
68.16000 548.123
68.17000 548.037
68.18000 551.789
68.19000 556.064
68.20000 561.675
68.21000 571.636
68.22000 581.934
68.23000 589.071
68.24000 586.500
68.25000 584.308
68.26000 584.233
68.27000 587.230
68.28000 590.257
68.29000 604.416
68.30000 628.937
68.31000 653.233
68.32000 658.267
68.33000 651.768
68.34000 645.524
68.35000 644.792
68.36000 646.293
68.37000 647.609
68.38000 646.931
68.39000 645.713
68.40000 644.640
68.41000 654.933
68.42000 665.518
68.43000 675.888
68.44000 685.383
68.45000 694.786
68.46000 705.673
68.47000 720.549
68.48000 735.644
68.49000 745.421
68.50000 751.004
68.51000 755.027
68.52000 760.168
68.53000 766.633
68.54000 773.121
68.55000 784.058
68.56000 798.349
68.57000 812.379
68.58000 846.904
68.59000 890.083
68.60000 932.751
68.61000 967.758
68.62000 1000.199
68.63000 1033.860
68.64000 1077.529
68.65000 1123.412
68.66000 1162.522
68.67000 1199.736
68.68000 1230.818
68.69000 1270.988
68.70000 1341.310
68.71000 1414.029
68.72000 1479.591
68.73000 1529.244
68.74000 1578.314
68.75000 1607.717
68.76000 1691.570
68.77000 1751.472
68.78000 1808.456
68.79000 1862.665
68.80000 1917.184
68.81000 1994.292
68.82000 2085.344
68.83000 2173.612
68.84000 2279.679
68.85000 2387.097
68.86000 2501.759
68.87000 2696.152
68.88000 2912.540
68.89000 3165.705
68.90000 3656.268
68.91000 4189.325
68.92000 4626.663
68.93000 6349.554
68.94000 7877.918
68.95000 9818.437
68.96000 12887.571
68.97000 16021.171
68.98000 19639.381
68.99000 24147.469
69.00000 28674.777
69.01000 31153.773
69.02000 37349.832
69.03000 41611.914
69.04000 44989.613
69.05000 47686.961
69.06000 50353.898
69.07000 51874.309
69.08000 52811.395
69.09000 53705.402
69.10000 54211.031
69.11000 54557.320
69.12000 54922.086
69.13000 55442.238
69.14000 55997.473
69.15000 56556.238
69.16000 57133.320
69.17000 57713.012
69.18000 58168.277
69.19000 57407.137
69.20000 56718.414
69.21000 55483.426
69.22000 53011.355
69.23000 50491.918
69.24000 47611.230
69.25000 44184.871
69.26000 40753.059
69.27000 37954.891
69.28000 35772.723
69.29000 33597.891
69.30000 31999.723
69.31000 30764.471
69.32000 29546.967
69.33000 28744.256
69.34000 28116.014
69.35000 27528.285
69.36000 26661.922
69.37000 25803.676
69.38000 24859.412
69.39000 23347.209
69.40000 21731.150
69.41000 19989.846
69.42000 17721.953
69.43000 15395.446
69.44000 13657.171
69.45000 11118.066
69.46000 9101.716
69.47000 7363.646
69.48000 6146.314
69.49000 4940.918
69.50000 4013.161
69.51000 3427.650
69.52000 2844.215
69.53000 2439.602
69.54000 2176.712
69.55000 1916.332
69.56000 1755.896
69.57000 1647.273
69.58000 1540.581
69.59000 1464.779
69.60000 1399.720
69.61000 1340.265
69.62000 1289.711
69.63000 1246.629
69.64000 1204.637
69.65000 1168.412
69.66000 1133.029
69.67000 1095.808
69.68000 1052.250
69.69000 1008.158
69.70000 977.036
69.71000 957.961
69.72000 943.850
69.73000 928.597
69.74000 911.584
69.75000 894.552
69.76000 879.028
69.77000 865.002
69.78000 851.076
69.79000 828.694
69.80000 801.329
69.81000 774.405
69.82000 758.222
69.83000 746.642
69.84000 735.445
69.85000 728.721
69.86000 723.280
69.87000 718.442
69.88000 716.379
69.89000 715.039
69.90000 713.078
69.91000 708.454
69.92000 703.526
69.93000 695.846
69.94000 680.343
69.95000 664.361
69.96000 653.791
69.97000 659.411
69.98000 663.847
69.99000 663.574
70.00000 657.373
