20.00000 551.457
20.01000 553.996
20.02000 556.898
20.03000 560.254
20.04000 565.362
20.05000 570.645
20.06000 574.502
20.07000 570.493
20.08000 567.095
20.09000 563.769
20.10000 560.568
20.11000 557.369
20.12000 556.314
20.13000 557.679
20.14000 559.040
20.15000 560.223
20.16000 561.268
20.17000 562.289
20.18000 562.558
20.19000 562.468
20.20000 562.439
20.21000 563.267
20.22000 564.371
20.23000 565.368
20.24000 561.571
20.25000 557.340
20.26000 555.218
20.27000 563.290
20.28000 572.707
20.29000 578.442
20.30000 572.473
20.31000 565.637
20.32000 560.937
20.33000 563.633
20.34000 565.839
20.35000 565.433
20.36000 561.329
20.37000 557.203
20.38000 559.791
20.39000 568.462
20.40000 577.044
20.41000 578.839
20.42000 576.672
20.43000 574.573
20.44000 573.872
20.45000 573.724
20.46000 573.399
20.47000 571.231
20.48000 568.578
20.49000 566.249
20.50000 561.055
20.51000 556.173
20.52000 552.757
20.53000 555.117
20.54000 558.068
20.55000 562.943
20.56000 572.866
20.57000 583.054
20.58000 589.592
20.59000 576.870
20.60000 567.332
20.61000 565.477
20.62000 572.470
20.63000 579.417
20.64000 576.512
20.65000 566.368
20.66000 556.423
20.67000 550.827
20.68000 547.480
20.69000 544.356
20.70000 544.439
20.71000 545.571
20.72000 547.668
20.73000 557.439
20.74000 568.864
20.75000 578.559
20.76000 564.142
20.77000 549.318
20.78000 536.805
20.79000 531.773
20.80000 527.314
20.81000 525.507
20.82000 529.456
20.83000 533.604
20.84000 536.063
20.85000 538.140
20.86000 539.606
20.87000 540.686
20.88000 541.410
20.89000 542.167
20.90000 545.140
20.91000 549.447
20.92000 553.614
20.93000 551.830
20.94000 547.878
20.95000 543.801
20.96000 538.398
20.97000 532.637
20.98000 528.889
20.99000 537.754
21.00000 548.816
21.01000 557.844
21.02000 556.826
21.03000 555.131
21.04000 554.098
21.05000 554.831
21.06000 555.661
21.07000 553.443
21.08000 545.765
21.09000 537.978
21.10000 533.767
21.11000 539.796
21.12000 543.920
21.13000 544.913
21.14000 543.559
21.15000 542.101
21.16000 536.969
21.17000 530.013
21.18000 523.392
21.19000 531.127
21.20000 542.714
21.21000 552.848
21.22000 551.141
21.23000 546.831
21.24000 544.149
21.25000 549.673
21.26000 556.334
21.27000 561.533
21.28000 551.295
21.29000 542.160
21.30000 537.473
21.31000 542.622
21.32000 548.127
21.33000 548.204
21.34000 540.288
21.35000 532.301
21.36000 534.750
21.37000 547.059
21.38000 559.198
21.39000 559.267
21.40000 551.927
21.41000 544.885
21.42000 544.475
21.43000 546.789
21.44000 548.947
21.45000 545.819
21.46000 541.671
21.47000 538.041
21.48000 537.728
21.49000 538.006
21.50000 539.011
21.51000 542.996
21.52000 547.302
21.53000 550.497
21.54000 540.482
21.55000 532.121
21.56000 529.323
21.57000 536.684
21.58000 544.261
21.59000 550.298
21.60000 554.488
21.61000 558.663
21.62000 553.668
21.63000 541.732
21.64000 530.009
21.65000 526.129
21.66000 526.218
21.67000 526.524
21.68000 530.143
21.69000 534.886
21.70000 539.207
21.71000 543.090
21.72000 546.442
21.73000 549.570
21.74000 551.543
21.75000 553.354
21.76000 554.784
21.77000 554.938
21.78000 554.988
21.79000 555.023
21.80000 553.383
21.81000 552.094
21.82000 553.406
21.83000 558.624
21.84000 563.881
21.85000 566.936
21.86000 567.864
21.87000 568.784
21.88000 572.391
21.89000 577.586
21.90000 582.457
21.91000 579.844
21.92000 574.099
21.93000 569.250
21.94000 574.460
21.95000 582.484
21.96000 589.590
21.97000 598.843
21.98000 607.186
21.99000 612.229
22.00000 603.476
22.01000 593.199
22.02000 586.868
22.03000 591.486
22.04000 596.746
22.05000 600.195
22.06000 607.167
22.07000 612.352
22.08000 616.668
22.09000 619.918
22.10000 623.133
22.11000 617.443
22.12000 604.804
22.13000 592.375
22.14000 594.149
22.15000 602.950
22.16000 611.478
22.17000 615.676
22.18000 618.378
22.19000 620.207
22.20000 614.574
22.21000 607.231
22.22000 600.936
22.23000 602.317
22.24000 604.423
22.25000 603.868
22.26000 594.190
22.27000 583.749
22.28000 578.278
22.29000 584.213
22.30000 590.598
22.31000 594.477
22.32000 590.159
22.33000 587.014
22.34000 581.750
22.35000 574.394
22.36000 567.075
22.37000 562.841
22.38000 560.575
22.39000 558.374
22.40000 557.243
22.41000 556.603
22.42000 556.051
22.43000 556.511
22.44000 557.261
22.45000 557.379
22.46000 553.258
22.47000 548.351
22.48000 544.298
22.49000 553.239
22.50000 561.821
22.51000 565.581
22.52000 555.705
22.53000 545.003
22.54000 538.070
22.55000 538.284
22.56000 538.668
22.57000 538.882
22.58000 532.484
22.59000 528.050
22.60000 524.919
22.61000 522.825
22.62000 520.814
22.63000 522.220
22.64000 525.421
22.65000 528.483
22.66000 527.087
22.67000 524.323
22.68000 522.233
22.69000 526.055
22.70000 531.258
22.71000 533.936
22.72000 523.072
22.73000 510.199
22.74000 500.009
22.75000 510.396
22.76000 520.166
22.77000 526.698
22.78000 525.662
22.79000 524.314
22.80000 519.252
22.81000 508.390
22.82000 497.459
22.83000 491.970
22.84000 494.319
22.85000 495.910
22.86000 499.579
22.87000 504.601
22.88000 509.528
22.89000 512.095
22.90000 513.637
22.91000 515.085
22.92000 518.590
22.93000 522.332
22.94000 524.168
22.95000 512.917
22.96000 499.186
22.97000 488.851
22.98000 493.296
22.99000 499.458
23.00000 504.104
23.01000 502.534
23.02000 500.999
23.03000 501.331
23.04000 505.268
23.05000 509.297
23.06000 509.778
23.07000 505.729
23.08000 501.670
23.09000 502.873
23.10000 508.333
23.11000 513.587
23.12000 509.803
23.13000 501.180
23.14000 493.147
23.15000 495.131
23.16000 500.712
23.17000 505.834
23.18000 506.725
23.19000 506.620
23.20000 506.229
23.21000 504.266
23.22000 502.064
23.23000 501.448
23.24000 506.484
23.25000 512.021
23.26000 515.968
23.27000 510.085
23.28000 505.278
23.29000 501.053
23.30000 497.753
23.31000 494.465
23.32000 494.176
23.33000 496.978
23.34000 499.763
23.35000 497.590
23.36000 492.202
23.37000 487.079
23.38000 488.921
23.39000 493.844
23.40000 498.794
23.41000 504.077
23.42000 509.458
23.43000 514.266
23.44000 511.359
23.45000 507.523
23.46000 504.749
23.47000 506.682
23.48000 509.177
23.49000 510.911
23.50000 510.414
23.51000 509.771
23.52000 509.342
23.53000 503.596
23.54000 499.231
23.55000 495.888
23.56000 493.876
23.57000 491.877
23.58000 493.076
23.59000 496.931
23.60000 500.732
23.61000 503.606
23.62000 505.908
23.63000 508.129
23.64000 508.925
23.65000 509.201
23.66000 509.017
23.67000 504.577
23.68000 499.103
23.69000 494.363
23.70000 493.171
23.71000 492.627
23.72000 491.813
23.73000 490.021
23.74000 488.140
23.75000 488.266
23.76000 493.263
23.77000 498.479
23.78000 501.723
23.79000 500.752
23.80000 500.011
23.81000 499.768
23.82000 500.050
23.83000 500.304
23.84000 497.473
23.85000 492.555
23.86000 487.757
23.87000 488.672
23.88000 492.006
23.89000 494.551
23.90000 487.153
23.91000 476.753
23.92000 468.597
23.93000 476.589
23.94000 487.774
23.95000 497.120
23.96000 495.918
23.97000 493.849
23.98000 492.233
23.99000 491.972
24.00000 491.801
24.01000 494.150
24.02000 501.556
24.03000 509.105
24.04000 513.421
24.05000 499.134
24.06000 489.108
24.07000 486.204
24.08000 489.335
24.09000 492.440
24.10000 494.319
24.11000 495.516
24.12000 496.667
24.13000 496.020
24.14000 494.784
24.15000 493.813
24.16000 495.349
24.17000 497.506
24.18000 498.975
24.19000 496.515
24.20000 493.431
24.21000 490.958
24.22000 493.676
24.23000 496.271
24.24000 497.328
24.25000 494.585
24.26000 491.664
24.27000 486.913
24.28000 479.132
24.29000 471.305
24.30000 467.247
24.31000 471.540
24.32000 474.460
24.33000 479.821
24.34000 486.868
24.35000 493.727
24.36000 495.226
24.37000 494.264
24.38000 493.355
24.39000 494.403
24.40000 495.917
24.41000 497.024
24.42000 495.130
24.43000 492.629
24.44000 490.620
24.45000 490.882
24.46000 491.429
24.47000 491.847
24.48000 487.594
24.49000 483.982
24.50000 481.121
24.51000 479.794
24.52000 478.511
24.53000 478.323
24.54000 479.619
24.55000 480.923
24.56000 484.202
24.57000 489.180
24.58000 494.024
24.59000 491.777
24.60000 485.510
24.61000 479.649
24.62000 481.442
24.63000 486.143
24.64000 490.488
24.65000 487.810
24.66000 483.812
24.67000 480.599
24.68000 481.981
24.69000 484.109
24.70000 485.838
24.71000 486.064
24.72000 486.144
24.73000 486.203
24.74000 482.802
24.75000 480.060
24.76000 481.366
24.77000 489.498
24.78000 497.740
24.79000 499.577
24.80000 494.372
24.81000 489.186
24.82000 485.337
24.83000 482.458
24.84000 479.552
24.85000 475.797
24.86000 471.645
24.87000 467.640
24.88000 465.600
24.89000 464.176
24.90000 462.893
24.91000 473.439
24.92000 484.830
24.93000 495.378
24.94000 501.953
24.95000 508.018
24.96000 509.114
24.97000 494.775
24.98000 479.334
24.99000 468.798
25.00000 465.434
25.01000 463.086
25.02000 466.603
25.03000 478.233
25.04000 489.903
25.05000 490.509
25.06000 481.344
25.07000 472.280
25.08000 468.216
25.09000 467.067
25.10000 465.775
25.11000 461.673
25.12000 456.484
25.13000 452.533
25.14000 460.971
25.15000 472.604
25.16000 482.776
25.17000 476.961
25.18000 469.705
25.19000 464.081
25.20000 464.736
25.21000 466.012
25.22000 467.745
25.23000 470.649
25.24000 473.611
25.25000 475.496
25.26000 466.582
25.27000 459.970
25.28000 454.526
25.29000 450.394
25.30000 446.312
25.31000 449.687
25.32000 458.413
25.33000 466.956
25.34000 465.948
25.35000 460.607
25.36000 455.581
25.37000 454.925
25.38000 455.666
25.39000 456.629
25.40000 459.305
25.41000 462.341
25.42000 464.906
25.43000 460.939
25.44000 456.905
25.45000 454.156
25.46000 455.478
25.47000 457.100
25.48000 457.253
25.49000 454.292
25.50000 451.229
25.51000 449.431
25.52000 456.555
25.53000 461.620
25.54000 465.047
25.55000 466.997
25.56000 468.970
25.57000 472.335
25.58000 476.518
25.59000 480.559
25.60000 481.172
25.61000 480.475
25.62000 479.194
25.63000 471.907
25.64000 463.041
25.65000 455.277
25.66000 454.244
25.67000 454.354
25.68000 454.442
25.69000 465.587
25.70000 475.594
25.71000 480.616
25.72000 472.608
25.73000 463.920
25.74000 457.791
25.75000 456.146
25.76000 454.583
25.77000 453.748
25.78000 461.416
25.79000 466.624
25.80000 467.213
25.81000 464.423
25.82000 461.569
25.83000 456.635
25.84000 450.690
25.85000 445.043
25.86000 447.445
25.87000 452.085
25.88000 455.935
25.89000 453.535
25.90000 449.793
25.91000 446.962
25.92000 448.608
25.93000 450.858
25.94000 452.605
25.95000 461.298
25.96000 468.629
25.97000 469.701
25.98000 457.235
25.99000 444.305
26.00000 440.909
26.01000 451.229
26.02000 461.656
26.03000 464.345
26.04000 459.905
26.05000 455.496
26.06000 453.126
26.07000 451.980
26.08000 451.332
26.09000 461.222
26.10000 475.346
26.11000 488.489
26.12000 480.831
26.13000 468.872
26.14000 457.408
26.15000 449.032
26.16000 441.192
26.17000 436.203
26.18000 442.632
26.19000 450.252
26.20000 455.871
26.21000 454.864
26.22000 453.806
26.23000 453.726
26.24000 455.394
26.25000 457.096
26.26000 458.636
26.27000 459.984
26.28000 461.329
26.29000 464.830
26.30000 469.903
26.31000 474.758
26.32000 471.997
26.33000 465.466
26.34000 459.296
26.35000 458.436
26.36000 459.339
26.37000 460.158
26.38000 450.683
26.39000 440.322
26.40000 433.100
26.41000 441.635
26.42000 452.341
26.43000 461.998
26.44000 468.206
26.45000 474.143
26.46000 478.271
26.47000 470.694
26.48000 464.665
26.49000 459.399
26.50000 455.252
26.51000 451.115
26.52000 449.736
26.53000 450.951
26.54000 452.156
26.55000 451.675
26.56000 450.193
26.57000 448.878
26.58000 451.262
26.59000 455.160
26.60000 458.674
26.61000 458.018
26.62000 456.223
26.63000 454.639
26.64000 454.370
26.65000 454.340
26.66000 453.736
26.67000 450.793
26.68000 447.600
26.69000 447.398
26.70000 455.316
26.71000 463.690
26.72000 469.134
26.73000 461.794
26.74000 456.218
26.75000 450.795
26.76000 445.554
26.77000 440.339
26.78000 440.851
26.79000 445.725
26.80000 450.513
26.81000 447.777
26.82000 441.472
26.83000 435.465
26.84000 434.002
26.85000 434.075
26.86000 434.233
26.87000 435.098
26.88000 436.123
26.89000 436.997
26.90000 437.619
26.91000 438.113
26.92000 438.887
26.93000 440.597
26.94000 442.384
26.95000 442.458
26.96000 438.691
26.97000 434.780
26.98000 432.426
26.99000 435.266
27.00000 437.322
27.01000 440.967
27.02000 446.140
27.03000 451.253
27.04000 451.736
27.05000 449.334
27.06000 447.003
27.07000 444.643
27.08000 442.393
27.09000 440.602
27.10000 443.922
27.11000 448.666
27.12000 451.722
27.13000 443.749
27.14000 433.780
27.15000 425.584
27.16000 426.854
27.17000 428.752
27.18000 431.061
27.19000 434.506
27.20000 438.017
27.21000 439.103
27.22000 435.692
27.23000 432.181
27.24000 430.249
27.25000 434.910
27.26000 438.112
27.27000 436.641
27.28000 431.535
27.29000 426.588
27.30000 427.815
27.31000 432.214
27.32000 436.414
27.33000 436.439
27.34000 435.125
27.35000 433.818
27.36000 432.578
27.37000 431.352
27.38000 430.552
27.39000 431.977
27.40000 433.723
27.41000 435.098
27.42000 433.689
27.43000 432.374
27.44000 432.646
27.45000 436.546
27.46000 440.588
27.47000 442.422
27.48000 440.886
27.49000 439.314
27.50000 436.373
27.51000 432.087
27.52000 427.834
27.53000 426.337
27.54000 426.593
27.55000 426.964
27.56000 430.104
27.57000 434.420
27.58000 438.461
27.59000 442.874
27.60000 446.982
27.61000 449.830
27.62000 444.253
27.63000 437.119
27.64000 430.771
27.65000 427.758
27.66000 425.122
27.67000 423.147
27.68000 427.937
27.69000 431.993
27.70000 435.772
27.71000 439.025
27.72000 442.266
27.73000 443.840
27.74000 443.339
27.75000 442.832
27.76000 437.782
27.77000 429.168
27.78000 420.693
27.79000 417.905
27.80000 418.094
27.81000 418.219
27.82000 417.302
27.83000 416.019
27.84000 414.845
27.85000 421.580
27.86000 429.206
27.87000 434.426
27.88000 426.792
27.89000 417.260
27.90000 412.568
27.91000 424.734
27.92000 438.342
27.93000 447.977
27.94000 446.245
27.95000 444.575
27.96000 441.573
27.97000 436.499
27.98000 431.401
27.99000 427.774
28.00000 425.624
28.01000 423.489
28.02000 425.495
28.03000 430.112
28.04000 434.493
28.05000 432.983
28.06000 428.924
28.07000 424.828
28.08000 420.303
28.09000 415.654
28.10000 411.515
28.11000 419.174
28.12000 427.765
28.13000 433.939
28.14000 429.634
28.15000 424.118
28.16000 420.839
28.17000 423.986
28.18000 427.533
28.19000 429.888
28.20000 431.508
28.21000 432.691
28.22000 430.646
28.23000 424.497
28.24000 418.349
28.25000 417.822
28.26000 421.847
28.27000 425.812
28.28000 432.521
28.29000 440.452
28.30000 447.554
28.31000 440.707
28.32000 428.869
28.33000 418.195
28.34000 417.956
28.35000 420.193
28.36000 422.124
28.37000 414.174
28.38000 406.163
28.39000 402.042
28.40000 411.732
28.41000 422.638
28.42000 430.032
28.43000 429.088
28.44000 427.788
28.45000 426.988
28.46000 416.344
28.47000 408.617
28.48000 404.419
28.49000 403.846
28.50000 403.309
28.51000 406.290
28.52000 411.595
28.53000 416.763
28.54000 418.151
28.55000 417.886
28.56000 417.975
28.57000 422.380
28.58000 428.058
28.59000 432.914
28.60000 432.014
28.61000 430.005
28.62000 428.333
28.63000 417.792
28.64000 408.196
28.65000 401.852
28.66000 405.022
28.67000 408.805
28.68000 412.931
28.69000 417.733
28.70000 422.552
28.71000 425.278
28.72000 417.457
28.73000 412.000
28.74000 412.101
28.75000 416.797
28.76000 421.401
28.77000 421.758
28.78000 419.805
28.79000 417.932
28.80000 414.452
28.81000 410.651
28.82000 407.275
28.83000 407.800
28.84000 409.271
28.85000 410.619
28.86000 411.288
28.87000 411.851
28.88000 412.300
28.89000 426.525
28.90000 439.015
28.91000 444.526
28.92000 433.158
28.93000 421.041
28.94000 414.971
28.95000 418.680
28.96000 422.522
28.97000 424.490
28.98000 426.903
28.99000 428.454
29.00000 422.509
29.01000 411.512
29.02000 401.055
29.03000 405.274
29.04000 416.084
29.05000 426.270
29.06000 426.316
29.07000 423.567
29.08000 421.271
29.09000 422.224
29.10000 423.817
29.11000 424.460
29.12000 420.816
29.13000 416.650
29.14000 413.481
29.15000 411.417
29.16000 409.851
29.17000 410.586
29.18000 415.923
29.19000 421.387
29.20000 420.818
29.21000 412.262
29.22000 403.676
29.23000 401.126
29.24000 403.661
29.25000 406.249
29.26000 411.409
29.27000 417.993
29.28000 424.259
29.29000 424.783
29.30000 423.175
29.31000 421.692
29.32000 414.978
29.33000 407.811
29.34000 401.130
29.35000 397.225
29.36000 393.758
29.37000 392.041
29.38000 396.778
29.39000 402.116
29.40000 405.962
29.41000 399.902
29.42000 394.909
29.43000 393.344
29.44000 397.428
29.45000 401.595
29.46000 405.206
29.47000 408.219
29.48000 411.217
29.49000 413.307
29.50000 414.756
29.51000 415.996
29.52000 411.279
29.53000 403.835
29.54000 397.315
29.55000 402.726
29.56000 411.796
29.57000 419.940
29.58000 420.502
29.59000 419.660
29.60000 417.845
29.61000 411.553
29.62000 404.702
29.63000 400.868
29.64000 406.196
29.65000 412.154
29.66000 416.188
29.67000 409.321
29.68000 403.965
29.69000 400.591
29.70000 399.894
29.71000 399.215
29.72000 400.665
29.73000 403.950
29.74000 407.195
29.75000 411.045
29.76000 415.132
29.77000 419.052
29.78000 419.848
29.79000 419.462
29.80000 419.226
29.81000 420.459
29.82000 422.061
29.83000 423.457
29.84000 425.995
29.85000 428.321
29.86000 429.727
29.87000 427.673
29.88000 425.287
29.89000 423.674
29.90000 423.996
29.91000 424.412
29.92000 424.674
29.93000 421.781
29.94000 419.650
29.95000 421.968
29.96000 429.160
29.97000 436.271
29.98000 432.544
29.99000 421.219
30.00000 410.147
30.01000 411.843
30.02000 419.174
30.03000 426.255
30.04000 429.996
30.05000 432.693
30.06000 434.523
30.07000 429.845
30.08000 423.832
30.09000 418.774
30.10000 418.244
30.11000 418.285
30.12000 418.277
30.13000 418.116
30.14000 417.944
30.15000 418.026
30.16000 418.632
30.17000 419.254
30.18000 419.616
30.19000 417.047
30.20000 415.233
30.21000 415.216
30.22000 416.781
30.23000 418.364
30.24000 420.938
30.25000 424.083
30.26000 427.115
30.27000 426.275
30.28000 424.080
30.29000 422.592
30.30000 428.141
30.31000 435.498
30.32000 440.817
30.33000 434.009
30.34000 425.197
30.35000 418.076
30.36000 417.704
30.37000 417.942
30.38000 417.369
30.39000 414.723
30.40000 411.974
30.41000 408.749
30.42000 404.709
30.43000 400.655
30.44000 398.514
30.45000 405.249
30.46000 409.794
30.47000 409.450
30.48000 405.612
30.49000 401.947
30.50000 403.738
30.51000 408.119
30.52000 412.272
30.53000 413.881
30.54000 414.618
30.55000 415.034
30.56000 412.982
30.57000 410.412
30.58000 409.374
30.59000 415.683
30.60000 422.953
30.61000 428.566
30.62000 421.711
30.63000 415.554
30.64000 410.029
30.65000 405.844
30.66000 401.702
30.67000 402.534
30.68000 410.354
30.69000 418.220
30.70000 420.217
30.71000 416.945
30.72000 413.741
30.73000 414.667
30.74000 418.014
30.75000 421.368
30.76000 424.864
30.77000 428.415
30.78000 431.710
30.79000 437.170
30.80000 442.601
30.81000 446.363
30.82000 439.972
30.83000 431.865
30.84000 425.332
30.85000 424.949
30.86000 425.188
30.87000 425.363
30.88000 431.953
30.89000 437.299
30.90000 444.972
30.91000 456.707
30.92000 468.517
30.93000 477.137
30.94000 482.115
30.95000 487.071
30.96000 488.432
30.97000 487.182
30.98000 486.130
30.99000 491.591
31.00000 500.202
31.01000 509.398
31.02000 526.887
31.03000 547.068
31.04000 565.337
31.05000 582.364
31.06000 597.129
31.07000 610.550
31.08000 617.395
31.09000 623.359
31.10000 636.854
31.11000 674.559
31.12000 714.094
31.13000 741.380
31.14000 799.560
31.15000 844.065
31.16000 893.874
31.17000 951.286
31.18000 1008.755
31.19000 1060.624
31.20000 1107.355
31.21000 1153.634
31.22000 1205.036
31.23000 1258.367
31.24000 1311.845
31.25000 1368.378
31.26000 1426.135
31.27000 1485.287
31.28000 1559.090
31.29000 1636.808
31.30000 1705.152
31.31000 1761.643
31.32000 1808.487
31.33000 1856.963
31.34000 1911.953
31.35000 1967.619
31.36000 2012.325
31.37000 2027.940
31.38000 2041.990
31.39000 2051.046
31.40000 2053.521
31.41000 2055.235
31.42000 2056.471
31.43000 2057.150
31.44000 2057.641
31.45000 2022.895
31.46000 1961.934
31.47000 1902.133
31.48000 1851.175
31.49000 1806.276
31.50000 1760.817
31.51000 1707.156
31.52000 1650.782
31.53000 1593.422
31.54000 1528.099
31.55000 1461.039
31.56000 1404.011
31.57000 1333.022
31.58000 1271.791
31.59000 1209.086
31.60000 1141.547
31.61000 1073.631
31.62000 1015.187
31.63000 977.534
31.64000 940.620
31.65000 918.623
31.66000 845.771
31.67000 793.837
31.68000 760.865
31.69000 745.671
31.70000 730.313
31.71000 703.655
31.72000 670.111
31.73000 637.623
31.74000 613.518
31.75000 593.950
31.76000 575.374
31.77000 567.514
31.78000 562.572
31.79000 556.124
31.80000 540.095
31.81000 522.377
31.82000 507.880
31.83000 495.207
31.84000 484.984
31.85000 476.887
31.86000 474.541
31.87000 472.516
31.88000 470.610
31.89000 468.917
31.90000 467.229
31.91000 466.311
31.92000 456.858
31.93000 450.369
31.94000 445.436
31.95000 441.683
31.96000 437.910
31.97000 433.418
31.98000 428.566
31.99000 423.942
32.00000 422.968
32.01000 423.205
32.02000 423.522
32.03000 424.497
32.04000 425.619
32.05000 425.736
32.06000 420.720
32.07000 414.983
32.08000 410.492
32.09000 413.434
32.10000 416.261
32.11000 416.160
32.12000 409.510
32.13000 402.617
32.14000 402.706
32.15000 413.206
32.16000 423.805
32.17000 425.756
32.18000 419.425
32.19000 413.085
32.20000 406.106
32.21000 398.730
32.22000 391.774
32.23000 394.377
32.24000 400.951
32.25000 407.092
32.26000 399.667
32.27000 389.515
32.28000 381.037
32.29000 383.443
32.30000 387.811
32.31000 391.487
32.32000 392.291
32.33000 392.781
32.34000 393.146
32.35000 398.899
32.36000 403.617
32.37000 404.840
32.38000 399.604
32.39000 394.225
32.40000 390.359
32.41000 388.334
32.42000 386.317
32.43000 385.845
32.44000 386.563
32.45000 387.246
32.46000 386.533
32.47000 385.106
32.48000 383.713
32.49000 382.846
32.50000 382.161
32.51000 381.536
32.52000 380.784
32.53000 380.092
32.54000 379.187
32.55000 377.172
32.56000 374.997
32.57000 375.217
32.58000 383.589
32.59000 392.635
32.60000 398.994
32.61000 385.137
32.62000 374.044
32.63000 367.876
32.64000 369.194
32.65000 370.590
32.66000 374.231
32.67000 380.069
32.68000 385.862
32.69000 388.562
32.70000 389.290
32.71000 389.904
32.72000 387.831
32.73000 384.620
32.74000 381.070
32.75000 373.643
32.76000 365.119
32.77000 357.554
32.78000 354.785
32.79000 353.150
32.80000 355.086
32.81000 372.129
32.82000 390.869
32.83000 405.578
32.84000 408.969
32.85000 411.683
32.86000 413.470
32.87000 412.873
32.88000 412.392
32.89000 416.017
32.90000 424.736
32.91000 433.450
32.92000 436.516
32.93000 435.117
32.94000 433.741
32.95000 434.995
32.96000 437.538
32.97000 439.794
32.98000 437.417
32.99000 433.418
33.00000 431.297
33.01000 445.505
33.02000 463.498
33.03000 478.959
33.04000 455.508
33.05000 430.829
33.06000 410.346
33.07000 404.423
33.08000 399.739
33.09000 395.254
33.10000 391.230
33.11000 387.225
33.12000 384.779
33.13000 358.050
33.14000 338.736
33.15000 334.174
33.16000 344.372
33.17000 354.455
33.18000 354.511
33.19000 348.093
33.20000 341.851
33.21000 342.858
33.22000 346.789
33.23000 350.261
33.24000 348.335
33.25000 344.853
33.26000 341.641
33.27000 340.270
33.28000 339.246
33.29000 338.398
33.30000 336.388
33.31000 334.619
33.32000 336.069
33.33000 346.725
33.34000 357.952
33.35000 363.663
33.36000 358.793
33.37000 353.660
33.38000 350.788
33.39000 349.857
33.40000 349.216
33.41000 348.319
33.42000 347.216
33.43000 346.047
33.44000 342.109
33.45000 336.698
33.46000 331.516
33.47000 337.826
33.48000 347.532
33.49000 355.945
33.50000 352.822
33.51000 346.971
33.52000 341.239
33.53000 336.161
33.54000 331.182
33.55000 327.230
33.56000 332.372
33.57000 337.152
33.58000 338.632
33.59000 332.306
33.60000 325.649
33.61000 327.522
33.62000 342.875
33.63000 358.396
33.64000 366.243
33.65000 351.166
33.66000 341.110
33.67000 334.184
33.68000 329.320
33.69000 324.793
33.70000 328.993
33.71000 337.025
33.72000 344.576
33.73000 342.891
33.74000 338.871
33.75000 335.178
33.76000 333.757
33.77000 332.773
33.78000 332.878
33.79000 337.785
33.80000 343.258
33.81000 347.397
33.82000 340.478
33.83000 334.496
33.84000 328.905
33.85000 324.075
33.86000 319.265
33.87000 320.555
33.88000 329.731
33.89000 338.926
33.90000 341.391
33.91000 338.325
33.92000 335.200
33.93000 329.334
33.94000 321.985
33.95000 315.168
33.96000 317.590
33.97000 323.368
33.98000 328.679
33.99000 328.680
34.00000 327.537
34.01000 327.488
34.02000 333.512
34.03000 340.470
34.04000 344.964
34.05000 340.579
34.06000 335.394
34.07000 331.683
34.08000 331.538
34.09000 331.546
34.10000 331.696
34.11000 332.072
34.12000 332.451
34.13000 331.640
34.14000 329.583
34.15000 327.538
34.16000 325.456
34.17000 323.378
34.18000 321.172
34.19000 315.521
34.20000 308.327
34.21000 302.574
34.22000 314.790
34.23000 332.394
34.24000 348.149
34.25000 341.490
34.26000 331.843
34.27000 324.998
34.28000 330.748
34.29000 338.022
34.30000 344.181
34.31000 347.030
34.32000 349.659
34.33000 351.426
34.34000 332.510
34.35000 318.036
34.36000 311.912
34.37000 316.802
34.38000 321.739
34.39000 324.194
34.40000 324.565
34.41000 324.930
34.42000 326.489
34.43000 328.648
34.44000 330.588
34.45000 328.602
34.46000 325.164
34.47000 322.280
34.48000 324.605
34.49000 328.211
34.50000 331.341
34.51000 332.051
34.52000 332.332
34.53000 332.331
34.54000 331.292
34.55000 330.157
34.56000 328.302
34.57000 324.677
34.58000 320.972
34.59000 318.657
34.60000 319.279
34.61000 319.758
34.62000 319.202
34.63000 317.539
34.64000 315.900
34.65000 317.089
34.66000 320.213
34.67000 323.263
34.68000 325.234
34.69000 326.648
34.70000 328.010
34.71000 328.681
34.72000 329.143
34.73000 328.865
34.74000 323.191
34.75000 316.436
34.76000 310.779
34.77000 317.866
34.78000 325.073
34.79000 330.655
34.80000 331.320
34.81000 331.649
34.82000 330.238
34.83000 325.293
34.84000 320.246
34.85000 317.344
34.86000 317.828
34.87000 318.182
34.88000 319.970
34.89000 322.991
34.90000 325.892
34.91000 322.610
34.92000 315.850
34.93000 309.344
34.94000 312.146
34.95000 318.068
34.96000 323.390
34.97000 322.929
34.98000 321.017
34.99000 320.145
35.00000 325.307
35.01000 331.440
35.02000 336.372
35.03000 329.646
35.04000 323.291
35.05000 317.833
35.06000 314.615
35.07000 311.505
35.08000 308.777
35.09000 306.689
35.10000 304.612
35.11000 303.527
35.12000 308.399
35.13000 311.681
35.14000 313.020
35.15000 313.001
35.16000 313.090
35.17000 316.370
35.18000 321.131
35.19000 325.634
35.20000 323.680
35.21000 320.038
35.22000 316.483
35.23000 313.582
35.24000 310.815
35.25000 308.368
35.26000 307.417
35.27000 306.657
35.28000 306.074
35.29000 304.412
35.30000 303.038
35.31000 303.267
35.32000 306.810
35.33000 310.454
35.34000 313.134
35.35000 314.490
35.36000 315.838
35.37000 313.683
35.38000 308.468
35.39000 303.354
35.40000 303.810
35.41000 307.461
35.42000 311.161
35.43000 315.825
35.44000 320.858
35.45000 325.517
35.46000 324.579
35.47000 322.449
35.48000 320.478
35.49000 319.447
35.50000 318.571
35.51000 317.259
35.52000 314.281
35.53000 311.140
35.54000 308.854
35.55000 303.076
35.56000 298.494
35.57000 296.686
35.58000 299.609
35.59000 302.611
35.60000 305.558
35.61000 308.442
35.62000 311.314
35.63000 312.440
35.64000 312.323
35.65000 312.095
35.66000 308.390
35.67000 303.040
35.68000 298.362
35.69000 302.870
35.70000 310.293
35.71000 316.992
35.72000 314.351
35.73000 310.319
35.74000 306.847
35.75000 306.057
35.76000 305.615
35.77000 306.441
35.78000 311.249
35.79000 316.348
35.80000 319.841
35.81000 311.058
35.82000 304.185
35.83000 297.380
35.84000 290.670
35.85000 283.968
35.86000 286.322
35.87000 296.781
35.88000 307.130
35.89000 312.555
35.90000 315.047
35.91000 317.150
35.92000 311.466
35.93000 302.735
35.94000 294.994
35.95000 297.324
35.96000 302.282
35.97000 306.626
35.98000 305.276
35.99000 303.295
36.00000 302.504
36.01000 306.346
36.02000 310.654
36.03000 313.267
36.04000 311.480
36.05000 309.466
36.06000 308.179
36.07000 306.962
36.08000 306.077
36.09000 305.461
36.10000 305.151
36.11000 304.837
36.12000 303.783
36.13000 302.192
36.14000 300.634
36.15000 297.886
36.16000 294.694
36.17000 291.878
36.18000 294.377
36.19000 298.595
36.20000 301.825
36.21000 297.303
36.22000 291.130
36.23000 285.902
36.24000 279.560
36.25000 274.123
36.26000 271.800
36.27000 279.448
36.28000 287.846
36.29000 295.807
36.30000 302.830
36.31000 309.822
36.32000 313.947
36.33000 300.699
36.34000 291.255
36.35000 288.022
36.36000 290.468
36.37000 292.879
36.38000 293.138
36.39000 292.115
36.40000 291.126
36.41000 295.555
36.42000 301.775
36.43000 307.428
36.44000 307.171
36.45000 305.341
36.46000 303.485
36.47000 301.468
36.48000 299.423
36.49000 297.758
36.50000 297.030
36.51000 296.515
36.52000 296.319
36.53000 296.965
36.54000 297.656
36.55000 299.705
36.56000 304.159
36.57000 308.660
36.58000 311.080
36.59000 300.953
36.60000 294.051
36.61000 292.630
36.62000 295.271
36.63000 297.863
36.64000 298.787
36.65000 298.891
36.66000 298.990
36.67000 299.112
36.68000 299.232
36.69000 298.679
36.70000 292.718
36.71000 285.581
36.72000 279.945
36.73000 281.779
36.74000 284.634
36.75000 286.857
36.76000 282.058
36.77000 277.802
36.78000 279.361
36.79000 293.635
36.80000 308.357
36.81000 312.219
36.82000 300.262
36.83000 288.174
36.84000 284.918
36.85000 289.909
36.86000 294.856
36.87000 296.854
36.88000 297.061
36.89000 297.357
36.90000 299.592
36.91000 302.614
36.92000 305.430
36.93000 304.707
36.94000 303.184
36.95000 302.202
36.96000 304.644
36.97000 307.688
36.98000 309.771
36.99000 307.959
37.00000 305.735
37.01000 304.089
37.02000 306.049
37.03000 307.724
37.04000 308.361
37.05000 307.122
37.06000 305.844
37.07000 306.872
37.08000 310.636
37.09000 314.394
37.10000 314.525
37.11000 311.930
37.12000 309.289
37.13000 305.028
37.14000 299.954
37.15000 295.574
37.16000 301.625
37.17000 311.177
37.18000 319.866
37.19000 318.444
37.20000 315.201
37.21000 312.410
37.22000 311.915
37.23000 311.742
37.24000 311.351
37.25000 310.237
37.26000 309.066
37.27000 308.249
37.28000 299.766
37.29000 293.147
37.30000 292.771
37.31000 301.670
37.32000 310.654
37.33000 313.973
37.34000 311.889
37.35000 309.823
37.36000 305.794
37.37000 300.647
37.38000 295.850
37.39000 298.943
37.40000 305.303
37.41000 310.802
37.42000 306.790
37.43000 300.148
37.44000 294.274
37.45000 287.005
37.46000 280.507
37.47000 276.328
37.48000 281.730
37.49000 288.175
37.50000 292.124
37.51000 289.216
37.52000 285.914
37.53000 283.759
37.54000 293.461
37.55000 300.773
37.56000 304.762
37.57000 304.727
37.58000 304.684
37.59000 304.885
37.60000 305.274
37.61000 305.656
37.62000 303.792
37.63000 300.881
37.64000 298.313
37.65000 301.059
37.66000 305.622
37.67000 309.399
37.68000 306.539
37.69000 302.176
37.70000 298.442
37.71000 297.466
37.72000 296.976
37.73000 295.267
37.74000 289.421
37.75000 283.236
37.76000 279.194
37.77000 280.017
37.78000 281.028
37.79000 281.639
37.80000 285.611
37.81000 288.465
37.82000 288.744
37.83000 286.512
37.84000 284.332
37.85000 286.306
37.86000 290.902
37.87000 295.364
37.88000 297.666
37.89000 298.987
37.90000 300.209
37.91000 300.304
37.92000 300.081
37.93000 299.226
37.94000 294.183
37.95000 288.372
37.96000 283.583
37.97000 283.853
37.98000 284.541
37.99000 287.018
38.00000 294.499
38.01000 302.278
38.02000 307.538
38.03000 308.074
38.04000 308.501
38.05000 308.737
38.06000 308.655
38.07000 308.597
38.08000 307.960
38.09000 306.869
38.10000 305.719
38.11000 302.181
38.12000 297.401
38.13000 292.833
38.14000 296.956
38.15000 303.612
38.16000 309.853
38.17000 312.509
38.18000 314.336
38.19000 314.199
38.20000 303.645
38.21000 291.565
38.22000 282.029
38.23000 293.867
38.24000 304.818
38.25000 313.476
38.26000 316.826
38.27000 319.963
38.28000 324.426
38.29000 330.938
38.30000 337.473
38.31000 342.654
38.32000 346.486
38.33000 350.288
38.34000 351.445
38.35000 350.903
38.36000 350.756
38.37000 360.314
38.38000 374.043
38.39000 386.917
38.40000 396.065
38.41000 403.420
38.42000 411.759
38.43000 426.765
38.44000 443.019
38.45000 460.473
38.46000 483.087
38.47000 506.291
38.48000 523.732
38.49000 562.051
38.50000 593.017
38.51000 627.397
38.52000 668.305
38.53000 709.374
38.54000 751.820
38.55000 796.004
38.56000 840.123
38.57000 888.781
38.58000 940.867
38.59000 993.138
38.60000 1053.284
38.61000 1117.600
38.62000 1181.414
38.63000 1236.880
38.64000 1289.380
38.65000 1337.494
38.66000 1387.567
38.67000 1432.571
38.68000 1476.355
38.69000 1513.542
38.70000 1549.740
38.71000 1579.320
38.72000 1585.583
38.73000 1589.815
38.74000 1592.821
38.75000 1585.354
38.76000 1579.335
38.77000 1569.201
38.78000 1552.588
38.79000 1535.895
38.80000 1502.095
38.81000 1450.871
38.82000 1399.972
38.83000 1348.898
38.84000 1298.450
38.85000 1247.590
38.86000 1186.180
38.87000 1120.153
38.88000 1054.996
38.89000 1000.317
38.90000 948.708
38.91000 902.673
38.92000 850.585
38.93000 804.255
38.94000 757.195
38.95000 706.924
38.96000 656.276
38.97000 608.078
38.98000 566.991
38.99000 526.356
39.00000 499.273
39.01000 470.687
39.02000 449.496
39.03000 433.628
39.04000 424.615
39.05000 415.619
39.06000 402.948
39.07000 387.264
39.08000 371.802
39.09000 364.666
39.10000 362.100
39.11000 358.928
39.12000 345.317
39.13000 327.927
39.14000 311.945
39.15000 308.777
39.16000 308.689
39.17000 308.613
39.18000 308.368
39.19000 308.138
39.20000 307.749
39.21000 306.789
39.22000 305.777
39.23000 303.399
39.24000 297.741
39.25000 291.939
39.26000 288.346
39.27000 287.188
39.28000 286.379
39.29000 288.646
39.30000 294.113
39.31000 299.538
39.32000 300.493
39.33000 298.458
39.34000 296.475
39.35000 294.065
39.36000 291.584
39.37000 288.964
39.38000 284.619
39.39000 279.760
39.40000 275.135
39.41000 272.173
39.42000 269.535
39.43000 267.336
39.44000 268.156
39.45000 269.138
39.46000 270.821
39.47000 274.583
39.48000 278.481
39.49000 279.686
39.50000 275.544
39.51000 271.257
39.52000 268.818
39.53000 274.395
39.54000 278.298
39.55000 278.223
39.56000 274.817
39.57000 271.522
39.58000 273.563
39.59000 278.539
39.60000 283.319
39.61000 279.254
39.62000 272.396
39.63000 266.112
39.64000 265.186
39.65000 265.573
39.66000 266.502
39.67000 270.491
39.68000 274.959
39.69000 278.534
39.70000 275.596
39.71000 272.735
39.72000 272.151
39.73000 277.136
39.74000 282.375
39.75000 283.879
39.76000 279.271
39.77000 274.575
39.78000 272.155
39.79000 275.312
39.80000 277.430
39.81000 278.403
39.82000 278.596
39.83000 278.867
39.84000 281.333
39.85000 284.796
39.86000 288.063
39.87000 277.952
39.88000 264.952
39.89000 253.618
39.90000 254.395
39.91000 257.588
39.92000 260.900
39.93000 264.753
39.94000 268.672
39.95000 271.663
39.96000 267.967
39.97000 264.697
39.98000 263.315
39.99000 265.751
40.00000 268.296
40.01000 270.211
40.02000 271.280
40.03000 272.343
40.04000 274.423
40.05000 277.364
40.06000 280.184
40.07000 276.854
40.08000 270.077
40.09000 263.406
40.10000 258.698
40.11000 254.726
40.12000 251.061
40.13000 250.874
40.14000 251.486
40.15000 252.382
40.16000 254.911
40.17000 257.702
40.18000 260.115
40.19000 261.118
40.20000 261.987
40.21000 262.615
40.22000 266.082
40.23000 268.845
40.24000 270.961
40.25000 271.998
40.26000 273.018
40.27000 275.014
40.28000 278.071
40.29000 281.114
40.30000 279.790
40.31000 275.477
40.32000 271.148
40.33000 266.374
40.34000 261.394
40.35000 256.415
40.36000 251.456
40.37000 246.504
40.38000 242.049
40.39000 245.124
40.40000 249.162
40.41000 253.284
40.42000 257.794
40.43000 262.354
40.44000 263.335
40.45000 253.317
40.46000 242.528
40.47000 235.193
40.48000 248.624
40.49000 259.120
40.50000 260.085
40.51000 248.017
40.52000 235.881
40.53000 231.624
40.54000 234.243
40.55000 236.833
40.56000 243.638
40.57000 252.628
40.58000 261.035
40.59000 258.253
40.60000 251.186
40.61000 244.438
40.62000 240.826
40.63000 238.014
40.64000 235.560
40.65000 241.727
40.66000 248.212
40.67000 253.216
40.68000 252.584
40.69000 251.403
40.70000 250.405
40.71000 249.872
40.72000 249.363
40.73000 249.040
40.74000 249.226
40.75000 249.367
40.76000 251.937
40.77000 257.204
40.78000 262.417
40.79000 259.785
40.80000 251.588
40.81000 243.568
40.82000 241.114
40.83000 241.278
40.84000 241.462
40.85000 241.908
40.86000 242.438
40.87000 243.462
40.88000 248.261
40.89000 253.845
40.90000 258.553
40.91000 252.862
40.92000 246.985
40.93000 242.758
40.94000 243.699
40.95000 245.014
40.96000 245.547
40.97000 244.438
40.98000 243.276
40.99000 242.598
41.00000 244.588
41.01000 246.002
41.02000 248.460
41.03000 251.850
41.04000 255.164
41.05000 254.103
41.06000 250.494
41.07000 247.010
41.08000 248.257
41.09000 251.168
41.10000 253.189
41.11000 246.207
41.12000 236.883
41.13000 229.045
41.14000 230.165
41.15000 232.785
41.16000 234.908
41.17000 238.880
41.18000 242.265
41.19000 244.586
41.20000 244.152
41.21000 243.577
41.22000 242.578
41.23000 240.844
41.24000 239.097
41.25000 238.168
41.26000 249.914
41.27000 257.864
41.28000 257.540
41.29000 251.228
41.30000 245.083
41.31000 244.323
41.32000 246.151
41.33000 247.885
41.34000 249.159
41.35000 250.197
41.36000 251.284
41.37000 252.741
41.38000 254.277
41.39000 254.567
41.40000 248.800
41.41000 242.229
41.42000 237.142
41.43000 234.600
41.44000 232.733
41.45000 232.276
41.46000 234.836
41.47000 237.496
41.48000 238.628
41.49000 237.586
41.50000 236.527
41.51000 239.015
41.52000 244.726
41.53000 250.311
41.54000 248.104
41.55000 241.271
41.56000 234.748
41.57000 234.649
41.58000 237.102
41.59000 239.383
41.60000 232.561
41.61000 224.228
41.62000 218.169
41.63000 226.135
41.64000 236.502
41.65000 244.095
41.66000 240.704
41.67000 236.184
41.68000 232.861
41.69000 231.347
41.70000 230.251
41.71000 229.045
41.72000 227.644
41.73000 226.240
41.74000 227.639
41.75000 232.284
41.76000 236.918
41.77000 237.502
41.78000 235.114
41.79000 232.856
41.80000 234.980
41.81000 239.249
41.82000 243.103
41.83000 240.955
41.84000 236.836
41.85000 233.101
41.86000 243.651
41.87000 255.688
41.88000 264.637
41.89000 258.278
41.90000 249.838
41.91000 243.171
41.92000 242.272
41.93000 241.817
41.94000 241.502
41.95000 241.908
41.96000 242.232
41.97000 241.259
41.98000 238.403
41.99000 235.532
42.00000 231.735
42.01000 227.079
42.02000 222.466
42.03000 223.709
42.04000 228.400
42.05000 233.029
42.06000 236.337
42.07000 239.110
42.08000 241.588
42.09000 240.920
42.10000 239.403
42.11000 238.065
42.12000 234.885
42.13000 231.867
42.14000 229.292
42.15000 228.505
42.16000 227.908
42.17000 227.405
42.18000 227.155
42.19000 226.919
42.20000 226.766
42.21000 222.977
42.22000 220.151
42.23000 220.676
42.24000 225.161
42.25000 229.649
42.26000 233.289
42.27000 236.289
42.28000 239.235
42.29000 237.557
42.30000 233.713
42.31000 230.160
42.32000 230.947
42.33000 233.186
42.34000 235.137
42.35000 234.720
42.36000 233.780
42.37000 232.979
42.38000 234.158
42.39000 235.382
42.40000 236.223
42.41000 235.793
42.42000 235.263
42.43000 235.094
42.44000 235.728
42.45000 236.391
42.46000 236.788
42.47000 226.888
42.48000 219.792
42.49000 219.021
42.50000 224.259
42.51000 229.419
42.52000 228.962
42.53000 225.042
42.54000 221.241
42.55000 222.614
42.56000 225.935
42.57000 229.079
42.58000 230.283
42.59000 230.952
42.60000 231.669
42.61000 232.694
42.62000 233.773
42.63000 234.659
42.64000 228.135
42.65000 222.123
42.66000 219.213
42.67000 224.789
42.68000 230.848
42.69000 233.090
42.70000 228.331
42.71000 223.422
42.72000 220.734
42.73000 217.058
42.74000 214.546
42.75000 216.219
42.76000 221.108
42.77000 225.881
42.78000 226.300
42.79000 224.507
42.80000 222.797
42.81000 226.285
42.82000 231.169
42.83000 235.521
42.84000 235.405
42.85000 234.283
42.86000 232.086
42.87000 224.333
42.88000 215.788
42.89000 209.079
42.90000 211.726
42.91000 214.455
42.92000 217.903
42.93000 222.977
42.94000 228.112
42.95000 229.157
42.96000 224.029
42.97000 218.838
42.98000 221.811
42.99000 232.710
43.00000 243.466
43.01000 243.085
43.02000 235.702
43.03000 228.661
43.04000 229.587
43.05000 233.861
43.06000 237.860
43.07000 236.576
43.08000 234.063
43.09000 231.955
43.10000 232.521
43.11000 233.575
43.12000 233.959
43.13000 231.524
43.14000 228.776
43.15000 226.724
43.16000 221.339
43.17000 216.989
43.18000 216.411
43.19000 222.884
43.20000 229.519
43.21000 232.674
43.22000 231.541
43.23000 230.400
43.24000 230.085
43.25000 230.417
43.26000 230.713
43.27000 229.599
43.28000 227.756
43.29000 225.821
43.30000 222.430
43.31000 218.533
43.32000 214.972
43.33000 217.352
43.34000 220.679
43.35000 223.742
43.36000 225.406
43.37000 226.867
43.38000 227.848
43.39000 227.178
43.40000 226.368
43.41000 225.797
43.42000 228.076
43.43000 229.891
43.44000 228.853
43.45000 223.425
43.46000 217.949
43.47000 216.456
43.48000 218.915
43.49000 221.357
43.50000 225.111
43.51000 229.634
43.52000 233.907
43.53000 232.114
43.54000 227.725
43.55000 224.189
43.56000 230.574
43.57000 239.801
43.58000 248.004
43.59000 240.515
43.60000 231.477
43.61000 224.319
43.62000 225.219
43.63000 227.037
43.64000 227.713
43.65000 225.142
43.66000 222.373
43.67000 220.542
43.68000 221.716
43.69000 222.635
43.70000 222.571
43.71000 221.273
43.72000 219.971
43.73000 218.996
43.74000 218.282
43.75000 217.579
43.76000 218.033
43.77000 219.066
43.78000 220.286
43.79000 224.611
43.80000 230.034
43.81000 234.499
43.82000 230.506
43.83000 224.528
43.84000 219.381
43.85000 224.591
43.86000 230.313
43.87000 232.528
43.88000 222.425
43.89000 211.256
43.90000 205.104
43.91000 210.736
43.92000 216.859
43.93000 220.616
43.94000 220.955
43.95000 221.168
43.96000 224.112
43.97000 229.825
43.98000 235.492
43.99000 236.877
44.00000 235.462
44.01000 234.084
44.02000 231.354
44.03000 228.192
44.04000 225.389
44.05000 226.903
44.06000 229.676
44.07000 232.079
44.08000 231.920
44.09000 231.273
44.10000 230.736
44.11000 227.914
44.12000 225.360
44.13000 222.277
44.14000 217.659
44.15000 212.945
44.16000 210.066
44.17000 210.749
44.18000 211.522
44.19000 211.958
44.20000 217.748
44.21000 221.777
44.22000 223.835
44.23000 224.282
44.24000 224.743
44.25000 225.798
44.26000 227.172
44.27000 228.489
44.28000 229.411
44.29000 230.138
44.30000 230.502
44.31000 227.579
44.32000 223.870
44.33000 220.389
44.34000 218.173
44.35000 216.149
44.36000 214.539
44.37000 214.900
44.38000 215.333
44.39000 217.643
44.40000 224.442
44.41000 231.437
44.42000 236.432
44.43000 238.227
44.44000 239.980
44.45000 240.872
44.46000 224.070
44.47000 212.899
44.48000 211.815
44.49000 217.453
44.50000 222.798
44.51000 220.396
44.52000 214.551
44.53000 209.050
44.54000 207.300
44.55000 206.722
44.56000 206.971
44.57000 213.064
44.58000 220.293
44.59000 226.156
44.60000 225.924
44.61000 224.962
44.62000 224.232
44.63000 223.571
44.64000 223.056
44.65000 223.178
44.66000 224.560
44.67000 225.976
44.68000 226.179
44.69000 224.797
44.70000 223.409
44.71000 223.542
44.72000 224.941
44.73000 226.295
44.74000 225.538
44.75000 223.624
44.76000 222.140
44.77000 228.300
44.78000 237.268
44.79000 245.522
44.80000 241.019
44.81000 234.207
44.82000 228.413
44.83000 228.346
44.84000 229.173
44.85000 231.250
44.86000 237.890
44.87000 244.949
44.88000 250.018
44.89000 240.400
44.90000 232.535
44.91000 230.353
44.92000 237.436
44.93000 244.650
44.94000 248.879
44.95000 249.947
44.96000 251.008
44.97000 250.530
44.98000 249.026
44.99000 247.687
45.00000 250.966
45.01000 256.336
45.02000 261.673
45.03000 266.599
45.04000 271.401
45.05000 275.706
45.06000 276.545
45.07000 276.676
45.08000 276.435
45.09000 274.504
45.10000 272.364
45.11000 270.421
45.12000 269.065
45.13000 267.748
45.14000 266.860
45.15000 263.441
45.16000 260.843
45.17000 261.280
45.18000 265.769
45.19000 270.273
45.20000 271.245
45.21000 269.211
45.22000 267.203
45.23000 264.008
45.24000 260.251
45.25000 256.819
45.26000 259.353
45.27000 264.121
45.28000 268.143
45.29000 265.037
45.30000 260.155
45.31000 255.909
45.32000 254.823
45.33000 254.326
45.34000 255.398
45.35000 262.301
45.36000 269.755
45.37000 273.790
45.38000 269.338
45.39000 264.487
45.40000 261.441
45.41000 252.183
45.42000 245.422
45.43000 242.293
45.44000 243.092
45.45000 243.919
45.46000 247.938
45.47000 254.168
45.48000 260.255
45.49000 260.446
45.50000 258.025
45.51000 255.643
45.52000 253.770
45.53000 252.054
45.54000 250.809
45.55000 253.046
45.56000 255.990
45.57000 258.462
45.58000 253.460
45.59000 248.511
45.60000 244.248
45.61000 242.089
45.62000 240.076
45.63000 238.390
45.64000 237.376
45.65000 236.382
45.66000 235.808
45.67000 245.436
45.68000 252.214
45.69000 249.473
45.70000 238.457
45.71000 227.567
45.72000 223.414
45.73000 223.096
45.74000 222.790
45.75000 229.635
45.76000 238.627
45.77000 246.755
45.78000 246.422
45.79000 243.940
45.80000 241.889
45.81000 242.377
45.82000 243.280
45.83000 244.007
45.84000 240.751
45.85000 237.793
45.86000 234.376
45.87000 229.799
45.88000 225.165
45.89000 223.101
45.90000 225.393
45.91000 227.756
45.92000 228.998
45.93000 227.200
45.94000 225.983
45.95000 225.068
45.96000 224.366
45.97000 223.603
45.98000 220.970
45.99000 217.459
46.00000 214.134
46.01000 215.864
46.02000 218.921
46.03000 220.967
46.04000 215.353
46.05000 208.152
46.06000 202.413
46.07000 203.602
46.08000 205.686
46.09000 207.290
46.10000 208.425
46.11000 209.297
46.12000 210.596
46.13000 212.790
46.14000 215.012
46.15000 215.589
46.16000 213.880
46.17000 212.157
46.18000 211.677
46.19000 212.302
46.20000 212.869
46.21000 210.200
46.22000 205.653
46.23000 201.276
46.24000 200.269
46.25000 200.572
46.26000 200.852
46.27000 204.696
46.28000 208.987
46.29000 211.804
46.30000 205.768
46.31000 198.256
46.32000 193.372
46.33000 198.652
46.34000 204.943
46.35000 209.538
46.36000 209.573
46.37000 209.420
46.38000 209.002
46.39000 208.125
46.40000 207.239
46.41000 204.824
46.42000 200.681
46.43000 196.552
46.44000 197.781
46.45000 202.826
46.46000 207.724
46.47000 207.910
46.48000 205.839
46.49000 203.837
46.50000 202.787
46.51000 202.043
46.52000 201.371
46.53000 196.012
46.54000 190.426
46.55000 187.042
46.56000 194.311
46.57000 202.988
46.58000 208.531
46.59000 204.108
46.60000 198.944
46.61000 195.393
46.62000 193.249
46.63000 191.675
46.64000 193.620
46.65000 200.551
46.66000 207.515
46.67000 208.479
46.68000 204.004
46.69000 199.574
46.70000 197.386
46.71000 196.542
46.72000 195.781
46.73000 196.748
46.74000 198.399
46.75000 199.557
46.76000 195.621
46.77000 190.338
46.78000 185.701
46.79000 189.201
46.80000 193.401
46.81000 196.464
46.82000 195.049
46.83000 193.175
46.84000 191.657
46.85000 191.076
46.86000 190.544
46.87000 190.202
46.88000 189.214
46.89000 188.484
46.90000 189.742
46.91000 193.292
46.92000 196.828
46.93000 197.364
46.94000 195.693
46.95000 194.055
46.96000 192.779
46.97000 191.722
46.98000 190.871
46.99000 192.982
47.00000 196.062
47.01000 198.434
47.02000 195.169
47.03000 190.687
47.04000 186.883
47.05000 189.692
47.06000 192.798
47.07000 194.547
47.08000 191.894
47.09000 188.903
47.10000 188.217
47.11000 192.534
47.12000 197.024
47.13000 199.686
47.14000 195.957
47.15000 193.281
47.16000 190.040
47.17000 186.276
47.18000 182.560
47.19000 182.060
47.20000 183.497
47.21000 184.888
47.22000 188.899
47.23000 193.688
47.24000 198.147
47.25000 199.094
47.26000 199.096
47.27000 199.179
47.28000 199.776
47.29000 200.462
47.30000 201.023
47.31000 198.372
47.32000 195.927
47.33000 194.340
47.34000 195.049
47.35000 195.884
47.36000 196.067
47.37000 195.083
47.38000 194.075
47.39000 193.530
47.40000 192.736
47.41000 192.202
47.42000 193.745
47.43000 196.846
47.44000 199.796
47.45000 197.376
47.46000 192.288
47.47000 187.445
47.48000 189.290
47.49000 193.062
47.50000 196.067
47.51000 192.808
47.52000 188.170
47.53000 183.964
47.54000 181.938
47.55000 180.214
47.56000 178.868
47.57000 181.120
47.58000 183.143
47.59000 186.507
47.60000 192.837
47.61000 199.274
47.62000 200.617
47.63000 194.449
47.64000 188.214
47.65000 184.796
47.66000 184.044
47.67000 183.329
47.68000 185.179
47.69000 188.605
47.70000 191.917
47.71000 192.709
47.72000 192.464
47.73000 192.235
47.74000 191.880
47.75000 191.526
47.76000 191.330
47.77000 192.144
47.78000 193.137
47.79000 193.356
47.80000 190.396
47.81000 187.094
47.82000 184.643
47.83000 192.758
47.84000 199.529
47.85000 201.932
47.86000 196.351
47.87000 190.599
47.88000 187.803
47.89000 188.559
47.90000 189.319
47.91000 189.772
47.92000 189.987
47.93000 190.185
47.94000 189.712
47.95000 188.901
47.96000 188.060
47.97000 186.770
47.98000 185.327
47.99000 184.013
48.00000 182.440
48.01000 180.996
48.02000 180.177
48.03000 182.575
48.04000 185.430
48.05000 187.332
48.06000 186.021
48.07000 184.450
48.08000 183.349
48.09000 184.067
48.10000 184.662
48.11000 184.861
48.12000 184.463
48.13000 184.059
48.14000 181.365
48.15000 176.456
48.16000 171.587
48.17000 174.577
48.18000 182.352
48.19000 189.754
48.20000 188.535
48.21000 183.705
48.22000 179.204
48.23000 178.400
48.24000 178.631
48.25000 178.836
48.26000 178.192
48.27000 177.502
48.28000 177.007
48.29000 177.328
48.30000 177.739
48.31000 177.689
48.32000 176.354
48.33000 174.944
48.34000 174.019
48.35000 174.792
48.36000 175.389
48.37000 179.409
48.38000 187.630
48.39000 195.838
48.40000 197.763
48.41000 194.781
48.42000 191.848
48.43000 187.145
48.44000 181.710
48.45000 176.342
48.46000 172.031
48.47000 168.086
48.48000 165.070
48.49000 170.004
48.50000 176.761
48.51000 182.556
48.52000 179.140
48.53000 175.125
48.54000 172.324
48.55000 173.689
48.56000 175.403
48.57000 176.717
48.58000 177.114
48.59000 177.474
48.60000 177.693
48.61000 180.184
48.62000 181.980
48.63000 182.813
48.64000 182.695
48.65000 182.534
48.66000 178.811
48.67000 172.812
48.68000 166.982
48.69000 171.684
48.70000 180.421
48.71000 188.355
48.72000 186.987
48.73000 182.964
48.74000 179.266
48.75000 177.745
48.76000 176.628
48.77000 175.706
48.78000 179.302
48.79000 182.689
48.80000 185.465
48.81000 186.512
48.82000 187.453
48.83000 186.846
48.84000 183.301
48.85000 179.685
48.86000 177.672
48.87000 175.594
48.88000 174.170
48.89000 176.524
48.90000 181.891
48.91000 187.153
48.92000 188.043
48.93000 186.634
48.94000 185.285
48.95000 179.301
48.96000 172.203
48.97000 166.127
48.98000 169.037
48.99000 174.048
49.00000 178.903
49.01000 182.919
49.02000 186.811
49.03000 189.893
49.04000 192.785
49.05000 195.097
49.06000 195.752
49.07000 192.530
49.08000 189.147
49.09000 184.762
49.10000 178.810
49.11000 172.839
49.12000 169.838
49.13000 169.780
49.14000 169.733
49.15000 169.011
49.16000 167.849
49.17000 166.765
49.18000 167.629
49.19000 169.339
49.20000 170.946
49.21000 176.713
49.22000 183.076
49.23000 188.584
49.24000 188.215
49.25000 186.731
49.26000 184.912
49.27000 181.635
49.28000 178.188
49.29000 175.588
49.30000 176.417
49.31000 177.234
49.32000 177.297
49.33000 175.900
49.34000 174.467
49.35000 175.140
49.36000 178.504
49.37000 181.873
49.38000 183.999
49.39000 185.109
49.40000 186.118
49.41000 182.708
49.42000 176.931
49.43000 171.792
49.44000 177.498
49.45000 187.103
49.46000 195.919
49.47000 189.656
49.48000 180.863
49.49000 173.382
49.50000 173.098
49.51000 173.907
49.52000 174.926
49.53000 176.693
49.54000 178.528
49.55000 179.836
49.56000 179.772
49.57000 179.679
49.58000 180.097
49.59000 181.330
49.60000 182.574
49.61000 182.376
49.62000 180.692
49.63000 179.017
49.64000 175.694
49.65000 171.338
49.66000 167.243
49.67000 170.020
49.68000 175.839
49.69000 181.192
49.70000 180.826
49.71000 178.765
49.72000 176.924
49.73000 175.005
49.74000 173.319
49.75000 172.108
49.76000 173.003
49.77000 174.149
49.78000 174.446
49.79000 172.248
49.80000 169.888
49.81000 168.309
49.82000 171.270
49.83000 173.557
49.84000 175.709
49.85000 177.685
49.86000 179.655
49.87000 178.851
49.88000 175.744
49.89000 172.679
49.90000 170.935
49.91000 169.940
49.92000 169.091
49.93000 170.806
49.94000 173.460
49.95000 175.666
49.96000 173.728
49.97000 170.782
49.98000 168.230
49.99000 175.607
50.00000 183.196
50.01000 188.398
50.02000 184.919
50.03000 180.648
50.04000 175.823
50.05000 169.651
50.06000 163.419
50.07000 159.541
50.08000 168.113
50.09000 174.413
50.10000 177.096
50.11000 175.964
50.12000 174.846
50.13000 175.412
50.14000 177.118
50.15000 178.783
50.16000 177.301
50.17000 174.529
50.18000 171.877
50.19000 170.757
50.20000 170.100
50.21000 169.635
50.22000 170.556
50.23000 171.751
50.24000 172.750
50.25000 176.428
50.26000 179.753
50.27000 182.050
50.28000 181.263
50.29000 180.269
50.30000 179.049
50.31000 177.375
50.32000 175.688
50.33000 174.723
50.34000 177.392
50.35000 179.266
50.36000 179.542
50.37000 178.464
50.38000 177.416
50.39000 177.872
50.40000 179.166
50.41000 180.410
50.42000 182.652
50.43000 185.102
50.44000 187.279
50.45000 186.851
50.46000 185.777
50.47000 184.902
50.48000 185.165
50.49000 185.608
50.50000 185.964
50.51000 182.921
50.52000 180.199
50.53000 180.433
50.54000 187.982
50.55000 195.871
50.56000 199.607
50.57000 196.463
50.58000 193.216
50.59000 191.531
50.60000 188.036
50.61000 185.695
50.62000 185.608
50.63000 187.078
50.64000 188.683
50.65000 194.197
50.66000 201.509
50.67000 208.415
50.68000 208.356
50.69000 206.333
50.70000 204.381
50.71000 202.960
50.72000 201.645
50.73000 200.795
50.74000 202.093
50.75000 203.659
50.76000 204.858
50.77000 207.227
50.78000 209.160
50.79000 210.829
50.80000 211.956
50.81000 213.067
50.82000 212.994
50.83000 211.315
50.84000 209.628
50.85000 209.909
50.86000 211.889
50.87000 213.738
50.88000 208.643
50.89000 199.610
50.90000 191.029
50.91000 191.011
50.92000 194.248
50.93000 197.241
50.94000 198.028
50.95000 198.233
50.96000 197.787
50.97000 193.522
50.98000 188.638
50.99000 184.525
51.00000 183.330
51.01000 182.417
51.02000 181.755
51.03000 175.322
51.04000 170.162
51.05000 167.864
51.06000 170.395
51.07000 173.004
51.08000 175.202
51.09000 176.948
51.10000 178.686
51.11000 179.707
51.12000 180.218
51.13000 180.635
51.14000 178.217
51.15000 174.470
51.16000 171.132
51.17000 173.272
51.18000 177.133
51.19000 180.611
51.20000 178.219
51.21000 175.057
51.22000 172.951
51.23000 175.828
51.24000 179.344
51.25000 181.832
51.26000 181.118
51.27000 180.176
51.28000 179.533
51.29000 184.113
51.30000 187.660
51.31000 186.856
51.32000 180.030
51.33000 173.168
51.34000 169.643
51.35000 169.067
51.36000 168.498
51.37000 168.582
51.38000 169.033
51.39000 169.500
51.40000 170.287
51.41000 171.199
51.42000 172.233
51.43000 174.489
51.44000 177.060
51.45000 179.309
51.46000 175.049
51.47000 170.472
51.48000 166.129
51.49000 162.687
51.50000 159.334
51.51000 159.436
51.52000 168.411
51.53000 177.833
51.54000 183.829
51.55000 183.550
51.56000 183.269
51.57000 180.795
51.58000 175.856
51.59000 170.917
51.60000 166.095
51.61000 161.357
51.62000 156.719
51.63000 154.184
51.64000 152.713
51.65000 151.569
51.66000 154.968
51.67000 159.821
51.68000 163.961
51.69000 162.586
51.70000 160.050
51.71000 157.907
51.72000 161.118
51.73000 164.393
51.74000 166.553
51.75000 165.183
51.76000 163.552
51.77000 163.111
51.78000 165.198
51.79000 167.367
51.80000 168.641
51.81000 165.263
51.82000 162.858
51.83000 161.354
51.84000 160.662
51.85000 159.987
51.86000 160.278
51.87000 161.139
51.88000 161.970
51.89000 163.641
51.90000 165.529
51.91000 167.129
51.92000 165.772
51.93000 163.637
51.94000 161.520
51.95000 159.514
51.96000 157.526
51.97000 155.912
51.98000 163.630
51.99000 170.700
52.00000 174.337
52.01000 168.985
52.02000 163.164
52.03000 159.911
52.04000 161.163
52.05000 162.499
52.06000 163.214
52.07000 159.933
52.08000 157.701
52.09000 157.122
52.10000 157.754
52.11000 158.404
52.12000 159.673
52.13000 161.243
52.14000 162.733
52.15000 161.720
52.16000 160.030
52.17000 158.647
52.18000 159.698
52.19000 161.272
52.20000 162.263
52.21000 160.386
52.22000 158.122
52.23000 156.363
52.24000 155.349
52.25000 154.587
52.26000 156.356
52.27000 163.602
52.28000 171.035
52.29000 173.760
52.30000 169.701
52.31000 165.590
52.32000 162.930
52.33000 161.609
52.34000 160.309
52.35000 160.282
52.36000 161.021
52.37000 161.810
52.38000 163.676
52.39000 165.974
52.40000 168.112
52.41000 165.616
52.42000 162.237
52.43000 159.412
52.44000 160.054
52.45000 161.297
52.46000 161.765
52.47000 159.126
52.48000 156.162
52.49000 153.975
52.50000 152.189
52.51000 150.822
52.52000 150.690
52.53000 152.763
52.54000 154.880
52.55000 156.682
52.56000 158.113
52.57000 159.539
52.58000 161.295
52.59000 163.283
52.60000 165.164
52.61000 163.296
52.62000 159.573
52.63000 156.018
52.64000 154.963
52.65000 154.738
52.66000 154.534
52.67000 158.490
52.68000 162.790
52.69000 165.746
52.70000 161.948
52.71000 157.218
52.72000 153.356
52.73000 152.352
52.74000 151.571
52.75000 151.029
52.76000 151.891
52.77000 152.579
52.78000 153.844
52.79000 155.957
52.80000 158.078
52.81000 158.553
52.82000 157.477
52.83000 156.411
52.84000 157.675
52.85000 160.316
52.86000 162.701
52.87000 159.473
52.88000 153.945
52.89000 148.899
52.90000 149.088
52.91000 150.708
52.92000 152.138
52.93000 156.723
52.94000 161.162
52.95000 164.057
52.96000 160.641
52.97000 156.548
52.98000 154.291
52.99000 157.020
53.00000 160.030
53.01000 161.988
53.02000 165.805
53.03000 168.631
53.04000 168.690
53.05000 165.436
53.06000 162.170
53.07000 157.789
53.08000 152.558
53.09000 147.419
53.10000 151.084
53.11000 158.914
53.12000 166.160
53.13000 164.490
53.14000 159.802
53.15000 155.817
53.16000 157.692
53.17000 160.877
53.18000 163.597
53.19000 160.260
53.20000 156.728
53.21000 154.517
53.22000 156.737
53.23000 159.316
53.24000 160.620
53.25000 159.063
53.26000 157.397
53.27000 156.395
53.28000 158.384
53.29000 159.819
53.30000 161.905
53.31000 164.617
53.32000 167.284
53.33000 166.520
53.34000 163.615
53.35000 160.797
53.36000 162.000
53.37000 164.731
53.38000 167.225
53.39000 167.060
53.40000 166.153
53.41000 165.545
53.42000 166.888
53.43000 168.584
53.44000 169.979
53.45000 170.135
53.46000 170.152
53.47000 168.266
53.48000 161.118
53.49000 153.663
53.50000 150.373
53.51000 154.815
53.52000 159.430
53.53000 161.971
53.54000 159.712
53.55000 158.148
53.56000 156.522
53.57000 154.848
53.58000 153.304
53.59000 156.805
53.60000 162.900
53.61000 168.721
53.62000 166.719
53.63000 162.352
53.64000 158.476
53.65000 158.792
53.66000 160.065
53.67000 161.030
53.68000 160.377
53.69000 159.491
53.70000 158.793
53.71000 156.857
53.72000 155.224
53.73000 153.714
53.74000 152.490
53.75000 151.277
53.76000 151.360
53.77000 153.424
53.78000 155.508
53.79000 157.661
53.80000 159.883
53.81000 162.063
53.82000 160.851
53.83000 157.479
53.84000 154.316
53.85000 156.128
53.86000 160.056
53.87000 163.734
53.88000 164.918
53.89000 165.349
53.90000 165.849
53.91000 166.817
53.92000 167.871
53.93000 168.086
53.94000 164.735
53.95000 160.981
53.96000 158.167
53.97000 154.623
53.98000 151.821
53.99000 150.369
54.00000 151.473
54.01000 152.637
54.02000 153.697
54.03000 154.625
54.04000 155.551
54.05000 156.551
54.06000 157.604
54.07000 158.634
54.08000 158.726
54.09000 158.325
54.10000 158.100
54.11000 160.726
54.12000 164.354
54.13000 167.674
54.14000 166.750
54.15000 165.050
54.16000 163.551
54.17000 163.134
54.18000 162.876
54.19000 162.078
54.20000 159.397
54.21000 156.553
54.22000 154.540
54.23000 156.479
54.24000 158.076
54.25000 159.551
54.26000 160.834
54.27000 162.114
54.28000 161.895
54.29000 160.168
54.30000 158.453
54.31000 155.392
54.32000 151.519
54.33000 147.961
54.34000 152.296
54.35000 160.049
54.36000 167.300
54.37000 168.609
54.38000 168.197
54.39000 167.829
54.40000 165.476
54.41000 163.105
54.42000 160.684
54.43000 158.043
54.44000 155.377
54.45000 155.088
54.46000 161.630
54.47000 168.599
54.48000 173.226
54.49000 169.663
54.50000 166.879
54.51000 163.584
54.52000 159.640
54.53000 155.700
54.54000 153.635
54.55000 153.090
54.56000 152.553
54.57000 155.685
54.58000 160.625
54.59000 165.121
54.60000 162.108
54.61000 156.407
54.62000 151.500
54.63000 153.725
54.64000 157.645
54.65000 161.027
54.66000 159.100
54.67000 156.783
54.68000 154.433
54.69000 151.965
54.70000 149.486
54.71000 148.272
54.72000 150.066
54.73000 151.987
54.74000 153.172
54.75000 157.977
54.76000 161.459
54.77000 163.305
54.78000 163.470
54.79000 163.620
54.80000 162.319
54.81000 160.059
54.82000 157.857
54.83000 155.522
54.84000 153.240
54.85000 151.678
54.86000 158.911
54.87000 168.743
54.88000 176.920
54.89000 173.507
54.90000 167.856
54.91000 163.155
54.92000 161.342
54.93000 160.125
54.94000 159.890
54.95000 162.529
54.96000 165.354
54.97000 165.296
54.98000 159.576
54.99000 153.706
55.00000 150.384
55.01000 153.872
55.02000 156.317
55.03000 158.030
55.04000 159.138
55.05000 160.260
55.06000 162.020
55.07000 164.129
55.08000 166.153
55.09000 167.145
55.10000 167.720
55.11000 168.273
55.12000 168.614
55.13000 168.904
55.14000 168.938
55.15000 167.542
55.16000 165.924
55.17000 164.633
55.18000 166.604
55.19000 168.434
55.20000 168.441
55.21000 164.037
55.22000 159.437
55.23000 157.919
55.24000 161.390
55.25000 164.929
55.26000 166.743
55.27000 173.538
55.28000 178.075
55.29000 179.363
55.30000 178.458
55.31000 177.656
55.32000 179.679
55.33000 182.971
55.34000 186.073
55.35000 184.287
55.36000 181.304
55.37000 178.208
55.38000 174.302
55.39000 170.236
55.40000 168.096
55.41000 174.651
55.42000 182.265
55.43000 188.059
55.44000 183.470
55.45000 179.314
55.46000 177.648
55.47000 180.965
55.48000 184.421
55.49000 190.829
55.50000 201.149
55.51000 211.478
55.52000 218.061
55.53000 221.471
55.54000 224.943
55.55000 231.472
55.56000 239.695
55.57000 247.948
55.58000 256.713
55.59000 265.669
55.60000 273.924
55.61000 272.975
55.62000 270.087
55.63000 270.172
55.64000 287.205
55.65000 306.922
55.66000 324.964
55.67000 336.823
55.68000 348.104
55.69000 356.234
55.70000 371.042
55.71000 382.625
55.72000 399.419
55.73000 424.810
55.74000 450.329
55.75000 472.631
55.76000 491.481
55.77000 510.237
55.78000 532.456
55.79000 556.773
55.80000 581.176
55.81000 608.014
55.82000 635.969
55.83000 664.414
55.84000 699.216
55.85000 735.967
55.86000 768.975
55.87000 783.652
55.88000 793.266
55.89000 803.194
55.90000 814.568
55.91000 826.123
55.92000 840.109
55.93000 861.482
55.94000 883.364
55.95000 898.185
55.96000 905.693
55.97000 911.129
55.98000 920.335
55.99000 934.638
56.00000 948.941
56.01000 942.105
56.02000 917.042
56.03000 892.280
56.04000 874.915
56.05000 862.059
56.06000 849.157
56.07000 835.380
56.08000 821.272
56.09000 806.914
56.10000 790.134
56.11000 772.743
56.12000 757.590
56.13000 743.397
56.14000 731.403
56.15000 715.445
56.16000 684.567
56.17000 652.258
56.18000 623.660
56.19000 604.384
56.20000 585.558
56.21000 573.682
56.22000 538.046
56.23000 511.966
56.24000 490.867
56.25000 475.230
56.26000 459.584
56.27000 442.355
56.28000 424.015
56.29000 406.083
56.30000 388.131
56.31000 370.912
56.32000 353.810
56.33000 338.277
56.34000 323.236
56.35000 308.916
56.36000 300.020
56.37000 292.239
56.38000 285.691
56.39000 278.726
56.40000 272.874
56.41000 265.637
56.42000 254.110
56.43000 242.279
56.44000 233.086
56.45000 229.373
56.46000 225.830
56.47000 223.771
56.48000 215.969
56.49000 210.464
56.50000 204.813
56.51000 199.031
56.52000 193.270
56.53000 188.633
56.54000 184.642
56.55000 180.794
56.56000 179.005
56.57000 178.071
56.58000 177.135
56.59000 176.185
56.60000 175.232
56.61000 174.275
56.62000 173.293
56.63000 172.307
56.64000 171.510
56.65000 172.713
56.66000 173.852
56.67000 174.508
56.68000 173.926
56.69000 173.282
56.70000 171.874
56.71000 169.159
56.72000 166.422
56.73000 164.975
56.74000 162.670
56.75000 161.112
56.76000 160.846
56.77000 161.505
56.78000 162.128
56.79000 161.666
56.80000 160.688
56.81000 159.760
56.82000 157.734
56.83000 155.545
56.84000 153.910
56.85000 156.542
56.86000 160.070
56.87000 162.703
56.88000 161.042
56.89000 158.819
56.90000 157.103
56.91000 155.666
56.92000 154.544
56.93000 154.205
56.94000 155.523
56.95000 156.895
56.96000 159.069
56.97000 162.369
56.98000 165.676
56.99000 163.387
57.00000 156.072
57.01000 148.847
57.02000 146.927
57.03000 148.124
57.04000 149.237
57.05000 148.681
57.06000 147.467
57.07000 146.340
57.08000 146.796
57.09000 147.581
57.10000 148.604
57.11000 151.072
57.12000 153.785
57.13000 155.720
57.14000 154.605
57.15000 153.182
57.16000 152.139
57.17000 148.030
57.18000 144.734
57.19000 142.147
57.20000 140.798
57.21000 139.472
57.22000 139.635
57.23000 141.501
57.24000 143.362
57.25000 147.961
57.26000 154.502
57.27000 160.792
57.28000 158.831
57.29000 152.874
57.30000 147.392
57.31000 148.651
57.32000 152.100
57.33000 155.223
57.34000 155.156
57.35000 154.496
57.36000 154.543
57.37000 158.062
57.38000 162.046
57.39000 162.694
57.40000 152.609
57.41000 141.712
57.42000 134.188
57.43000 138.165
57.44000 141.448
57.45000 143.409
57.46000 143.474
57.47000 143.525
57.48000 144.232
57.49000 145.544
57.50000 146.843
57.51000 147.380
57.52000 147.459
57.53000 147.538
57.54000 147.623
57.55000 147.709
57.56000 147.660
57.57000 146.183
57.58000 144.324
57.59000 142.688
57.60000 145.844
57.61000 149.272
57.62000 152.435
57.63000 154.540
57.64000 156.535
57.65000 156.289
57.66000 150.090
57.67000 143.571
57.68000 139.367
57.69000 144.429
57.70000 148.258
57.71000 149.027
57.72000 146.219
57.73000 143.421
57.74000 143.305
57.75000 145.187
57.76000 147.033
57.77000 148.302
57.78000 149.250
57.79000 149.881
57.80000 145.859
57.81000 140.297
57.82000 135.303
57.83000 134.900
57.84000 135.499
57.85000 136.009
57.86000 140.668
57.87000 145.059
57.88000 147.927
57.89000 145.799
57.90000 143.282
57.91000 141.865
57.92000 142.867
57.93000 143.954
57.94000 144.602
57.95000 142.250
57.96000 140.565
57.97000 140.654
57.98000 142.409
57.99000 144.197
58.00000 148.304
58.01000 153.825
58.02000 159.172
58.03000 153.543
58.04000 143.980
58.05000 135.077
58.06000 133.313
58.07000 133.496
58.08000 133.650
58.09000 133.622
58.10000 133.562
58.11000 133.512
58.12000 139.295
58.13000 144.544
58.14000 146.581
58.15000 139.924
58.16000 132.781
58.17000 130.999
58.18000 138.947
58.19000 147.098
58.20000 151.534
58.21000 150.460
58.22000 149.715
58.23000 148.850
58.24000 147.894
58.25000 146.913
58.26000 145.019
58.27000 142.665
58.28000 140.421
58.29000 142.197
58.30000 145.100
58.31000 147.444
58.32000 145.151
58.33000 141.824
58.34000 139.196
58.35000 140.134
58.36000 141.574
58.37000 142.701
58.38000 144.119
58.39000 145.270
58.40000 145.578
58.41000 144.001
58.42000 142.354
58.43000 140.843
58.44000 139.537
58.45000 138.233
58.46000 137.572
58.47000 137.527
58.48000 137.464
58.49000 135.980
58.50000 133.613
58.51000 131.473
58.52000 134.497
58.53000 139.669
58.54000 144.501
58.55000 146.666
58.56000 147.958
58.57000 148.297
58.58000 142.433
58.59000 135.449
58.60000 130.047
58.61000 131.218
58.62000 133.109
58.63000 134.517
58.64000 139.490
58.65000 143.520
58.66000 145.292
58.67000 142.885
58.68000 140.385
58.69000 139.944
58.70000 142.008
58.71000 144.074
58.72000 142.813
58.73000 138.996
58.74000 135.295
58.75000 136.090
58.76000 139.189
58.77000 141.956
58.78000 139.525
58.79000 135.307
58.80000 131.458
58.81000 132.417
58.82000 134.237
58.83000 135.593
58.84000 134.531
58.85000 133.121
58.86000 131.732
58.87000 130.414
58.88000 129.102
58.89000 128.179
58.90000 131.438
58.91000 134.030
58.92000 134.758
58.93000 132.652
58.94000 130.515
58.95000 129.473
58.96000 129.503
58.97000 129.532
58.98000 129.572
58.99000 129.617
59.00000 129.730
59.01000 131.437
59.02000 133.820
59.03000 136.100
59.04000 137.200
59.05000 137.965
59.06000 138.644
59.07000 133.171
59.08000 127.445
59.09000 124.062
59.10000 130.603
59.11000 138.260
59.12000 143.221
59.13000 140.605
59.14000 137.535
59.15000 135.513
59.16000 132.705
59.17000 130.622
59.18000 129.273
59.19000 128.836
59.20000 128.408
59.21000 130.114
59.22000 133.508
59.23000 136.847
59.24000 136.142
59.25000 133.413
59.26000 130.826
59.27000 130.523
59.28000 131.020
59.29000 131.259
59.30000 129.250
59.31000 126.719
59.32000 124.544
59.33000 128.281
59.34000 132.179
59.35000 135.053
59.36000 134.372
59.37000 133.388
59.38000 131.887
59.39000 129.186
59.40000 126.436
59.41000 124.756
59.42000 128.982
59.43000 132.054
59.44000 132.911
59.45000 131.551
59.46000 130.209
59.47000 130.367
59.48000 131.497
59.49000 132.595
59.50000 132.727
59.51000 132.457
59.52000 132.019
59.53000 129.611
59.54000 126.635
59.55000 124.351
59.56000 126.782
59.57000 130.102
59.58000 132.851
59.59000 131.425
59.60000 129.850
59.61000 127.891
59.62000 124.832
59.63000 121.704
59.64000 121.358
59.65000 126.355
59.66000 131.484
59.67000 134.356
59.68000 134.954
59.69000 135.361
59.70000 135.355
59.71000 135.015
59.72000 134.745
59.73000 137.461
59.74000 141.766
59.75000 145.891
59.76000 141.274
59.77000 134.058
59.78000 127.701
59.79000 129.019
59.80000 132.153
59.81000 134.887
59.82000 135.445
59.83000 135.675
59.84000 135.858
59.85000 139.282
59.86000 142.266
59.87000 142.788
59.88000 137.479
59.89000 131.923
59.90000 128.375
59.91000 128.004
59.92000 127.674
59.93000 127.507
59.94000 133.977
59.95000 138.251
59.96000 137.030
59.97000 132.187
59.98000 127.464
59.99000 125.817
60.00000 125.522
60.01000 125.246
60.02000 131.717
60.03000 139.441
60.04000 145.998
60.05000 144.428
60.06000 141.294
60.07000 138.320
60.08000 136.056
60.09000 133.875
60.10000 132.225
60.11000 132.746
60.12000 133.264
60.13000 133.119
60.14000 131.674
60.15000 130.195
60.16000 128.489
60.17000 126.487
60.18000 124.486
60.19000 126.174
60.20000 130.884
60.21000 135.532
60.22000 137.334
60.23000 137.593
60.24000 137.669
60.25000 134.577
60.26000 130.334
60.27000 126.433
60.28000 127.511
60.29000 129.547
60.30000 131.149
60.31000 130.340
60.32000 129.159
60.33000 128.937
60.34000 132.173
60.35000 135.721
60.36000 138.261
60.37000 138.119
60.38000 137.920
60.39000 138.899
60.40000 141.777
60.41000 144.681
60.42000 141.945
60.43000 133.308
60.44000 124.720
60.45000 123.720
60.46000 127.767
60.47000 131.842
60.48000 136.691
60.49000 141.886
60.50000 146.476
60.51000 143.497
60.52000 138.248
60.53000 133.549
60.54000 129.679
60.55000 126.445
60.56000 125.115
60.57000 132.347
60.58000 140.616
60.59000 145.158
60.60000 138.617
60.61000 131.341
60.62000 126.452
60.63000 133.236
60.64000 138.515
60.65000 141.039
60.66000 139.924
60.67000 138.793
60.68000 138.051
60.69000 137.637
60.70000 137.228
60.71000 135.730
60.72000 133.686
60.73000 131.715
60.74000 131.043
60.75000 130.852
60.76000 130.810
60.77000 132.169
60.78000 133.873
60.79000 135.352
60.80000 132.319
60.81000 129.129
60.82000 127.071
60.83000 129.179
60.84000 131.675
60.85000 133.791
60.86000 134.979
60.87000 136.123
60.88000 136.839
60.89000 137.807
60.90000 138.508
60.91000 136.970
60.92000 133.038
60.93000 129.149
60.94000 130.282
60.95000 134.857
60.96000 139.324
60.97000 140.363
60.98000 139.860
60.99000 139.368
61.00000 139.028
61.01000 138.734
61.02000 138.288
61.03000 136.727
61.04000 134.942
61.05000 133.447
61.06000 134.787
61.07000 136.194
61.08000 137.528
61.09000 138.639
61.10000 139.735
61.11000 138.124
61.12000 131.014
61.13000 123.744
61.14000 119.562
61.15000 125.400
61.16000 129.520
61.17000 132.213
61.18000 133.682
61.19000 135.118
61.20000 134.911
61.21000 133.778
61.22000 132.687
61.23000 135.084
61.24000 138.570
61.25000 141.546
61.26000 139.613
61.27000 136.445
61.28000 134.240
61.29000 137.621
61.30000 141.901
61.31000 145.344
61.32000 137.964
61.33000 131.142
61.34000 127.641
61.35000 132.455
61.36000 137.666
61.37000 141.721
61.38000 143.838
61.39000 145.924
61.40000 147.013
61.41000 145.240
61.42000 144.042
61.43000 143.295
61.44000 142.861
61.45000 142.421
61.46000 141.817
61.47000 141.135
61.48000 140.491
61.49000 144.423
61.50000 149.347
61.51000 154.463
61.52000 161.016
61.53000 167.864
61.54000 174.998
61.55000 183.476
61.56000 192.124
61.57000 198.764
61.58000 207.370
61.59000 214.282
61.60000 221.405
61.61000 228.964
61.62000 236.536
61.63000 243.876
61.64000 250.897
61.65000 257.913
61.66000 261.943
61.67000 263.352
61.68000 264.740
61.69000 265.021
61.70000 264.666
61.71000 264.111
61.72000 259.675
61.73000 253.748
61.74000 248.261
61.75000 247.743
61.76000 248.421
61.77000 247.305
61.78000 235.551
61.79000 222.044
61.80000 209.572
61.81000 201.057
61.82000 192.931
61.83000 187.014
61.84000 177.240
61.85000 169.569
61.86000 162.854
61.87000 157.775
61.88000 152.724
61.89000 149.313
61.90000 147.730
61.91000 146.155
61.92000 146.422
61.93000 147.988
61.94000 149.418
61.95000 146.661
61.96000 141.920
61.97000 137.324
61.98000 134.729
61.99000 132.770
62.00000 131.001
62.01000 135.746
62.02000 141.110
62.03000 145.170
62.04000 142.994
62.05000 140.006
62.06000 137.423
62.07000 136.114
62.08000 134.898
62.09000 134.065
62.10000 133.401
62.11000 132.908
62.12000 133.408
62.13000 135.303
62.14000 137.205
62.15000 137.148
62.16000 135.335
62.17000 133.541
62.18000 132.605
62.19000 132.181
62.20000 131.750
62.21000 131.184
62.22000 130.566
62.23000 130.190
62.24000 132.291
62.25000 135.038
62.26000 137.445
62.27000 141.672
62.28000 145.561
62.29000 148.429
62.30000 147.307
62.31000 145.785
62.32000 144.492
62.33000 143.795
62.34000 143.130
62.35000 142.704
62.36000 139.057
62.37000 136.360
62.38000 138.052
62.39000 144.743
62.40000 151.401
62.41000 151.607
62.42000 147.123
62.43000 142.729
62.44000 140.979
62.45000 140.523
62.46000 140.259
62.47000 142.702
62.48000 146.021
62.49000 148.786
62.50000 147.198
62.51000 144.681
62.52000 142.549
62.53000 141.285
62.54000 140.324
62.55000 140.191
62.56000 142.712
62.57000 145.434
62.58000 146.099
62.59000 142.345
62.60000 138.443
62.61000 136.139
62.62000 138.667
62.63000 140.477
62.64000 139.329
62.65000 135.474
62.66000 131.659
62.67000 130.326
62.68000 130.474
62.69000 130.618
62.70000 132.687
62.71000 135.366
62.72000 137.944
62.73000 139.467
62.74000 140.709
62.75000 141.786
62.76000 141.842
62.77000 141.723
62.78000 141.625
62.79000 139.097
62.80000 136.827
62.81000 136.902
62.82000 143.188
62.83000 149.806
62.84000 153.557
62.85000 152.221
62.86000 150.787
62.87000 150.015
62.88000 142.631
62.89000 137.604
62.90000 137.392
62.91000 140.750
62.92000 143.936
62.93000 141.178
62.94000 135.497
62.95000 130.094
62.96000 132.156
62.97000 136.340
62.98000 140.205
62.99000 141.507
63.00000 142.253
63.01000 143.334
63.02000 146.091
63.03000 149.078
63.04000 151.404
63.05000 152.371
63.06000 153.058
63.07000 153.010
63.08000 151.353
63.09000 149.639
63.10000 147.082
63.11000 143.298
63.12000 139.504
63.13000 140.540
63.14000 146.089
63.15000 151.539
63.16000 150.305
63.17000 145.009
63.18000 139.728
63.19000 134.779
63.20000 129.965
63.21000 125.479
63.22000 130.292
63.23000 136.934
63.24000 142.523
63.25000 141.445
63.26000 139.194
63.27000 137.505
63.28000 138.096
63.29000 138.930
63.30000 139.546
63.31000 140.120
63.32000 140.563
63.33000 140.844
63.34000 140.832
63.35000 140.813
63.36000 141.670
63.37000 143.565
63.38000 145.458
63.39000 146.183
63.40000 146.026
63.41000 145.813
63.42000 143.591
63.43000 140.364
63.44000 137.571
63.45000 141.345
63.46000 147.325
63.47000 152.765
63.48000 155.367
63.49000 157.111
63.50000 158.539
63.51000 158.363
63.52000 157.961
63.53000 156.072
63.54000 149.232
63.55000 141.996
63.56000 136.944
63.57000 136.767
63.58000 136.768
63.59000 136.359
63.60000 135.338
63.61000 134.312
63.62000 138.137
63.63000 146.594
63.64000 154.980
63.65000 158.227
63.66000 158.290
63.67000 158.050
63.68000 150.979
63.69000 141.076
63.70000 132.302
63.71000 136.015
63.72000 143.185
63.73000 149.526
63.74000 149.297
63.75000 148.079
63.76000 147.502
63.77000 149.579
63.78000 151.945
63.79000 153.602
63.80000 153.309
63.81000 152.905
63.82000 152.641
63.83000 149.109
63.84000 146.463
63.85000 144.991
63.86000 144.942
63.87000 144.904
63.88000 146.784
63.89000 150.145
63.90000 153.449
63.91000 156.204
63.92000 158.596
63.93000 160.580
63.94000 156.214
63.95000 149.673
63.96000 143.957
63.97000 145.203
63.98000 148.026
63.99000 150.443
64.00000 150.698
64.01000 150.651
64.02000 150.330
64.03000 149.076
64.04000 147.744
64.05000 148.253
64.06000 152.942
64.07000 157.792
64.08000 160.727
64.09000 157.696
64.10000 155.492
64.11000 153.276
64.12000 151.048
64.13000 148.862
64.14000 149.981
64.15000 153.190
64.16000 156.305
64.17000 152.835
64.18000 146.903
64.19000 141.582
64.20000 143.229
64.21000 146.842
64.22000 149.672
64.23000 147.310
64.24000 143.995
64.25000 141.262
64.26000 143.975
64.27000 146.710
64.28000 150.083
64.29000 155.243
64.30000 160.509
64.31000 163.343
64.32000 161.610
64.33000 159.771
64.34000 158.752
64.35000 157.025
64.36000 155.831
64.37000 154.318
64.38000 152.553
64.39000 150.911
64.40000 154.159
64.41000 159.951
64.42000 165.489
64.43000 166.605
64.44000 166.208
64.45000 165.705
64.46000 164.292
64.47000 162.668
64.48000 161.874
64.49000 165.479
64.50000 169.729
64.51000 173.085
64.52000 170.459
64.53000 167.944
64.54000 165.948
64.55000 165.151
64.56000 164.403
64.57000 163.383
64.58000 161.943
64.59000 160.498
64.60000 162.118
64.61000 166.795
64.62000 171.419
64.63000 171.486
64.64000 168.619
64.65000 165.882
64.66000 166.341
64.67000 168.173
64.68000 169.891
64.69000 172.615
64.70000 175.358
64.71000 177.766
64.72000 177.893
64.73000 177.592
64.74000 176.306
64.75000 170.780
64.76000 164.767
64.77000 160.247
64.78000 163.761
64.79000 166.897
64.80000 168.905
64.81000 168.755
64.82000 168.553
64.83000 167.759
64.84000 166.217
64.85000 164.676
64.86000 169.483
64.87000 179.355
64.88000 188.996
64.89000 188.801
64.90000 183.392
64.91000 178.103
64.92000 174.836
64.93000 172.288
64.94000 169.952
64.95000 176.499
64.96000 184.196
64.97000 190.831
64.98000 191.713
64.99000 191.731
65.00000 191.734
65.01000 191.681
65.02000 191.623
65.03000 191.581
65.04000 195.381
65.05000 198.397
65.06000 200.512
65.07000 201.205
65.08000 201.880
65.09000 201.749
65.10000 200.797
65.11000 199.850
65.12000 197.107
65.13000 193.242
65.14000 189.635
65.15000 192.640
65.16000 198.543
65.17000 204.545
65.18000 211.731
65.19000 219.265
65.20000 225.987
65.21000 225.082
65.22000 223.024
65.23000 220.558
65.24000 216.301
65.25000 211.833
65.26000 210.767
65.27000 219.587
65.28000 229.037
65.29000 235.338
65.30000 246.151
65.31000 254.244
65.32000 256.786
65.33000 252.175
65.34000 247.535
65.35000 242.769
65.36000 237.901
65.37000 233.102
65.38000 237.279
65.39000 246.046
65.40000 254.432
65.41000 256.240
65.42000 255.665
65.43000 256.032
65.44000 264.984
65.45000 276.002
65.46000 285.528
65.47000 283.356
65.48000 279.986
65.49000 279.458
65.50000 289.147
65.51000 299.754
65.52000 307.818
65.53000 309.773
65.54000 311.460
65.55000 312.505
65.56000 318.007
65.57000 322.006
65.58000 328.256
65.59000 336.853
65.60000 345.445
65.61000 353.623
65.62000 361.523
65.63000 369.225
65.64000 375.244
65.65000 380.274
65.66000 386.410
65.67000 406.294
65.68000 430.289
65.69000 454.691
65.70000 481.985
65.71000 509.844
65.72000 533.078
65.73000 589.761
65.74000 640.104
65.75000 690.506
65.76000 741.084
65.77000 791.673
65.78000 839.209
65.79000 880.680
65.80000 921.984
65.81000 945.493
65.82000 969.066
65.83000 985.503
65.84000 1005.555
65.85000 1028.637
65.86000 1051.405
65.87000 1059.143
65.88000 1058.605
65.89000 1058.088
65.90000 1049.112
65.91000 1037.787
65.92000 1024.296
65.93000 990.537
65.94000 951.804
65.95000 911.210
65.96000 860.084
65.97000 807.306
65.98000 765.075
65.99000 684.396
66.00000 616.290
66.01000 555.940
66.02000 514.576
66.03000 474.079
66.04000 436.892
66.05000 405.125
66.06000 373.437
66.07000 357.095
66.08000 349.570
66.09000 344.520
66.10000 341.530
66.11000 339.945
66.12000 337.922
66.13000 323.598
66.14000 303.679
66.15000 284.886
66.16000 284.926
66.17000 290.224
66.18000 295.090
66.19000 296.812
66.20000 297.906
66.21000 300.452
66.22000 309.638
66.23000 319.644
66.24000 327.281
66.25000 335.063
66.26000 341.204
66.27000 347.946
66.28000 355.905
66.29000 363.900
66.30000 369.147
66.31000 370.708
66.32000 372.247
66.33000 380.798
66.34000 395.315
66.35000 409.608
66.36000 412.449
66.37000 408.864
66.38000 405.508
66.39000 406.380
66.40000 408.842
66.41000 411.115
66.42000 420.612
66.43000 430.749
66.44000 439.047
66.45000 436.721
66.46000 432.691
66.47000 429.039
66.48000 426.799
66.49000 424.694
66.50000 423.172
66.51000 399.990
66.52000 381.411
66.53000 365.952
66.54000 355.704
66.55000 345.537
66.56000 337.377
66.57000 331.400
66.58000 325.452
66.59000 319.732
66.60000 314.232
66.61000 308.821
66.62000 306.012
66.63000 304.409
66.64000 302.931
66.65000 303.110
66.66000 303.804
66.67000 304.428
66.68000 309.117
66.69000 313.952
66.70000 317.150
66.71000 312.704
66.72000 307.289
66.73000 303.977
66.74000 307.131
66.75000 310.738
66.76000 313.192
66.77000 311.337
66.78000 309.854
66.79000 308.897
66.80000 308.659
66.81000 308.427
66.82000 310.098
66.83000 313.431
66.84000 316.727
66.85000 314.918
66.86000 310.305
66.87000 305.947
66.88000 306.502
66.89000 308.941
66.90000 311.199
66.91000 311.685
66.92000 311.719
66.93000 311.748
66.94000 309.926
66.95000 308.107
66.96000 307.497
66.97000 311.496
66.98000 315.945
66.99000 319.083
67.00000 318.891
67.01000 318.536
67.02000 318.310
67.03000 318.547
67.04000 318.724
67.05000 321.742
67.06000 327.915
67.07000 334.081
67.08000 338.957
67.09000 342.917
67.10000 346.791
67.11000 346.492
67.12000 344.313
67.13000 342.290
67.14000 342.379
67.15000 343.136
67.16000 343.884
67.17000 344.564
67.18000 345.231
67.19000 345.792
67.20000 346.353
67.21000 346.822
67.22000 348.731
67.23000 355.158
67.24000 361.913
67.25000 365.441
67.26000 362.187
67.27000 358.718
67.28000 356.691
67.29000 368.921
67.30000 377.588
67.31000 380.213
67.32000 377.446
67.33000 374.685
67.34000 372.216
67.35000 369.919
67.36000 367.702
67.37000 369.291
67.38000 372.188
67.39000 375.071
67.40000 377.818
67.41000 380.530
67.42000 384.170
67.43000 393.421
67.44000 403.612
67.45000 411.872
67.46000 407.081
67.47000 402.112
67.48000 398.575
67.49000 398.745
67.50000 399.104
67.51000 399.789
67.52000 401.039
67.53000 402.299
67.54000 402.969
67.55000 402.393
67.56000 402.027
67.57000 405.787
67.58000 412.537
67.59000 419.058
67.60000 418.173
67.61000 413.726
67.62000 409.507
67.63000 415.998
67.64000 425.172
67.65000 432.658
67.66000 426.956
67.67000 418.452
67.68000 411.592
67.69000 412.724
67.70000 414.917
67.71000 416.616
67.72000 420.259
67.73000 423.267
67.74000 429.604
67.75000 443.069
67.76000 456.772
67.77000 466.173
67.78000 469.445
67.79000 472.672
67.80000 472.400
67.81000 468.944
67.82000 465.435
67.83000 458.587
67.84000 449.757
67.85000 441.772
67.86000 451.334
67.87000 467.875
67.88000 483.249
67.89000 486.951
67.90000 487.496
67.91000 488.221
67.92000 490.059
67.93000 492.087
67.94000 493.697
67.95000 493.652
67.96000 493.436
67.97000 493.277
67.98000 495.090
67.99000 496.573
68.00000 497.533
68.01000 497.568
68.02000 497.585
68.03000 495.818
68.04000 491.982
68.05000 488.157
68.06000 491.911
68.07000 501.196
68.08000 510.420
68.09000 517.606
68.10000 523.793
68.11000 529.674
68.12000 531.123
68.13000 531.114
68.14000 531.106
68.15000 531.885
68.16000 532.724
68.17000 534.325
68.18000 539.706
68.19000 545.603
68.20000 553.435
68.21000 567.568
68.22000 582.187
68.23000 592.319
68.24000 588.993
68.25000 586.135
68.26000 585.557
68.27000 588.293
68.28000 591.056
68.29000 589.272
68.30000 583.258
68.31000 577.299
68.32000 584.811
68.33000 600.169
68.34000 614.950
68.35000 617.286
68.36000 614.578
68.37000 613.033
68.38000 623.936
68.39000 638.206
68.40000 650.782
68.41000 645.557
68.42000 638.368
68.43000 636.506
68.44000 656.175
68.45000 678.120
68.46000 695.945
68.47000 702.699
68.48000 708.844
68.49000 712.823
68.50000 712.454
68.51000 712.120
68.52000 715.963
68.53000 724.749
68.54000 733.597
68.55000 753.638
68.56000 782.119
68.57000 810.079
68.58000 835.054
68.59000 857.709
68.60000 881.142
68.61000 916.231
68.62000 955.224
68.63000 993.415
68.64000 1025.035
68.65000 1055.201
68.66000 1080.913
68.67000 1134.002
68.68000 1181.870
68.69000 1231.785
68.70000 1288.489
68.71000 1345.733
68.72000 1398.494
68.73000 1441.291
68.74000 1483.723
68.75000 1509.148
68.76000 1564.894
68.77000 1604.682
68.78000 1658.744
68.79000 1726.384
68.80000 1794.070
68.81000 1865.160
68.82000 1938.350
68.83000 2009.303
68.84000 2113.176
68.85000 2224.429
68.86000 2338.134
68.87000 2478.819
68.88000 2626.948
68.89000 2807.202
68.90000 3194.831
68.91000 3619.578
68.92000 3968.056
68.93000 5363.667
68.94000 6602.218
68.95000 8226.712
68.96000 10908.049
68.97000 13649.750
68.98000 16849.242
68.99000 20889.367
69.00000 24947.648
69.01000 27169.822
69.02000 33259.281
69.03000 37448.285
69.04000 40752.023
69.05000 43374.734
69.06000 45968.289
69.07000 47462.887
69.08000 48398.363
69.09000 49290.836
69.10000 49736.902
69.11000 50009.523
69.12000 50302.918
69.13000 50770.965
69.14000 51278.441
69.15000 51784.621
69.16000 52284.109
69.17000 52782.641
69.18000 53174.168
69.19000 52978.070
69.20000 52782.664
69.21000 51974.047
69.22000 49776.750
69.23000 47526.285
69.24000 44889.520
69.25000 41669.246
69.26000 38443.133
69.27000 35745.871
69.28000 33562.762
69.29000 31387.652
69.30000 29841.234
69.31000 28690.477
69.32000 27554.727
69.33000 26769.770
69.34000 26132.359
69.35000 25536.059
69.36000 24840.549
69.37000 24183.359
69.38000 23441.074
69.39000 22136.938
69.40000 20730.057
69.41000 19193.625
69.42000 17112.502
69.43000 14970.748
69.44000 13370.514
69.45000 10882.671
69.46000 8902.281
69.47000 7194.813
69.48000 5998.056
69.49000 4813.005
69.50000 3899.726
69.51000 3321.460
69.52000 2745.237
69.53000 2356.457
69.54000 2116.054
69.55000 1877.736
69.56000 1722.452
69.57000 1610.216
69.58000 1499.517
69.59000 1413.424
69.60000 1335.888
69.61000 1265.031
69.62000 1214.865
69.63000 1174.540
69.64000 1135.628
69.65000 1104.190
69.66000 1073.843
69.67000 1045.082
69.68000 1021.787
69.69000 998.954
69.70000 982.837
69.71000 941.480
69.72000 909.328
69.73000 883.152
69.74000 866.180
69.75000 849.310
69.76000 831.468
69.77000 812.661
69.78000 793.987
69.79000 788.148
69.80000 790.505
69.81000 792.398
69.82000 782.953
69.83000 768.649
69.84000 754.728
69.85000 745.251
69.86000 737.048
69.87000 729.755
69.88000 718.725
69.89000 708.547
69.90000 698.607
69.91000 689.686
69.92000 680.880
69.93000 672.438
69.94000 665.028
69.95000 657.682
69.96000 652.823
69.97000 652.517
69.98000 652.373
69.99000 646.196
70.00000 632.430
