20.00000 552.304
20.01000 552.488
20.02000 552.699
20.03000 554.733
20.04000 563.815
20.05000 573.596
20.06000 580.739
20.07000 579.278
20.08000 577.817
20.09000 573.219
20.10000 563.210
20.11000 553.107
20.12000 550.728
20.13000 557.062
20.14000 563.379
20.15000 562.799
20.16000 557.302
20.17000 552.204
20.18000 559.806
20.19000 573.485
20.20000 585.975
20.21000 581.939
20.22000 572.603
20.23000 564.164
20.24000 563.707
20.25000 564.788
20.26000 565.252
20.27000 562.737
20.28000 559.828
20.29000 558.025
20.30000 559.735
20.31000 561.704
20.32000 563.059
20.33000 563.386
20.34000 563.606
20.35000 562.804
20.36000 560.552
20.37000 558.292
20.38000 557.865
20.39000 559.100
20.40000 560.323
20.41000 557.945
20.42000 553.538
20.43000 549.602
20.44000 555.333
20.45000 564.888
20.46000 573.247
20.47000 569.250
20.48000 561.991
20.49000 555.621
20.50000 563.496
20.51000 572.347
20.52000 578.501
20.53000 574.028
20.54000 568.469
20.55000 565.373
20.56000 568.736
20.57000 572.439
20.58000 574.815
20.59000 561.562
20.60000 551.687
20.61000 548.394
20.62000 552.680
20.63000 556.969
20.64000 560.161
20.65000 562.549
20.66000 564.890
20.67000 564.122
20.68000 561.923
20.69000 559.640
20.70000 556.144
20.71000 552.251
20.72000 548.987
20.73000 550.718
20.74000 553.527
20.75000 555.910
20.76000 553.490
20.77000 550.916
20.78000 551.318
20.79000 561.357
20.80000 572.131
20.81000 579.502
20.82000 579.484
20.83000 579.212
20.84000 579.050
20.85000 556.994
20.86000 541.270
20.87000 531.585
20.88000 527.486
20.89000 523.570
20.90000 531.618
20.91000 546.873
20.92000 561.633
20.93000 566.191
20.94000 566.613
20.95000 566.514
20.96000 560.893
20.97000 553.786
20.98000 547.675
20.99000 547.805
21.00000 549.022
21.01000 550.015
21.02000 554.174
21.03000 557.848
21.04000 560.898
21.05000 562.277
21.06000 563.566
21.07000 561.131
21.08000 552.026
21.09000 542.787
21.10000 537.791
21.11000 552.496
21.12000 562.555
21.13000 566.503
21.14000 565.871
21.15000 564.994
21.16000 555.473
21.17000 541.659
21.18000 528.510
21.19000 538.474
21.20000 554.826
21.21000 569.198
21.22000 567.449
21.23000 562.154
21.24000 557.409
21.25000 555.432
21.26000 553.839
21.27000 552.595
21.28000 552.087
21.29000 551.727
21.30000 547.888
21.31000 536.352
21.32000 524.538
21.33000 525.356
21.34000 544.781
21.35000 564.371
21.36000 571.803
21.37000 567.747
21.38000 563.729
21.39000 562.515
21.40000 563.022
21.41000 563.394
21.42000 560.767
21.43000 556.910
21.44000 553.311
21.45000 554.110
21.46000 555.927
21.47000 556.359
21.48000 547.903
21.49000 537.866
21.50000 530.586
21.51000 534.604
21.52000 539.838
21.53000 543.723
21.54000 543.897
21.55000 543.870
21.56000 543.003
21.57000 540.602
21.58000 538.169
21.59000 536.648
21.60000 536.224
21.61000 535.802
21.62000 535.812
21.63000 536.150
21.64000 536.572
21.65000 540.088
21.66000 545.170
21.67000 550.246
21.68000 555.232
21.69000 560.188
21.70000 564.701
21.71000 565.795
21.72000 566.083
21.73000 567.030
21.74000 571.365
21.75000 576.179
21.76000 580.214
21.77000 581.624
21.78000 582.822
21.79000 583.661
21.80000 580.276
21.81000 577.596
21.82000 578.019
21.83000 583.105
21.84000 588.237
21.85000 590.748
21.86000 590.728
21.87000 590.708
21.88000 590.235
21.89000 589.492
21.90000 588.954
21.91000 593.143
21.92000 599.310
21.93000 605.547
21.94000 612.576
21.95000 619.827
21.96000 626.248
21.97000 627.489
21.98000 627.748
21.99000 626.844
22.00000 621.076
22.01000 614.770
22.02000 609.274
22.03000 606.021
22.04000 602.900
22.05000 600.853
22.06000 606.598
22.07000 610.951
22.08000 612.846
22.09000 611.728
22.10000 610.609
22.11000 611.035
22.12000 612.669
22.13000 614.275
22.14000 612.879
22.15000 610.031
22.16000 607.343
22.17000 607.192
22.18000 607.918
22.19000 608.212
22.20000 604.812
22.21000 600.566
22.22000 596.926
22.23000 587.057
22.24000 577.958
22.25000 571.936
22.26000 576.459
22.27000 581.864
22.28000 585.882
22.29000 586.715
22.30000 587.422
22.31000 587.852
22.32000 578.040
22.33000 570.957
22.34000 563.197
22.35000 554.767
22.36000 546.413
22.37000 544.312
22.38000 546.201
22.39000 548.036
22.40000 538.303
22.41000 524.370
22.42000 512.596
22.43000 525.758
22.44000 546.031
22.45000 563.482
22.46000 562.005
22.47000 557.014
22.48000 552.891
22.49000 550.340
22.50000 548.384
22.51000 546.155
22.52000 543.156
22.53000 540.109
22.54000 538.549
22.55000 539.808
22.56000 541.134
22.57000 541.872
22.58000 538.509
22.59000 536.170
22.60000 532.165
22.61000 526.833
22.62000 521.683
22.63000 524.091
22.64000 530.469
22.65000 536.573
22.66000 539.313
22.67000 540.762
22.68000 542.018
22.69000 541.580
22.70000 540.747
22.71000 539.407
22.72000 535.344
22.73000 530.877
22.74000 527.342
22.75000 523.800
22.76000 520.953
22.77000 517.504
22.78000 512.647
22.79000 507.732
22.80000 505.041
22.81000 505.821
22.82000 506.642
22.83000 507.055
22.84000 526.726
22.85000 539.695
22.86000 537.723
22.87000 526.030
22.88000 514.694
22.89000 512.291
22.90000 513.768
22.91000 515.154
22.92000 515.592
22.93000 515.740
22.94000 517.080
22.95000 526.610
22.96000 537.692
22.97000 547.189
22.98000 549.791
22.99000 551.591
23.00000 552.947
23.01000 540.459
23.02000 530.001
23.03000 523.775
23.04000 525.728
23.05000 527.887
23.06000 523.907
23.07000 512.089
23.08000 500.261
23.09000 502.418
23.10000 515.894
23.11000 529.169
23.12000 533.692
23.13000 533.529
23.14000 533.450
23.15000 534.804
23.16000 536.673
23.17000 538.387
23.18000 533.061
23.19000 526.815
23.20000 521.061
23.21000 518.003
23.22000 515.355
23.23000 513.637
23.24000 515.233
23.25000 517.123
23.26000 518.471
23.27000 518.089
23.28000 517.741
23.29000 512.538
23.30000 499.604
23.31000 486.571
23.32000 482.951
23.33000 489.038
23.34000 495.089
23.35000 503.757
23.36000 514.019
23.37000 523.910
23.38000 524.081
23.39000 519.952
23.40000 515.701
23.41000 509.957
23.42000 503.771
23.43000 498.243
23.44000 510.342
23.45000 523.856
23.46000 535.007
23.47000 535.665
23.48000 535.072
23.49000 531.499
23.50000 519.175
23.51000 506.285
23.52000 497.660
23.53000 500.469
23.54000 502.778
23.55000 505.882
23.56000 510.020
23.57000 514.156
23.58000 514.845
23.59000 512.673
23.60000 510.532
23.61000 510.002
23.62000 510.341
23.63000 510.583
23.64000 509.094
23.65000 506.971
23.66000 505.292
23.67000 507.706
23.68000 511.115
23.69000 514.067
23.70000 514.693
23.71000 514.918
23.72000 515.327
23.73000 516.399
23.74000 517.532
23.75000 519.041
23.76000 521.461
23.77000 523.922
23.78000 525.453
23.79000 520.254
23.80000 516.442
23.81000 516.745
23.82000 521.383
23.83000 526.054
23.84000 534.147
23.85000 544.555
23.86000 554.708
23.87000 551.575
23.88000 542.859
23.89000 534.806
23.90000 535.100
23.91000 537.914
23.92000 539.909
23.93000 536.004
23.94000 530.934
23.95000 526.697
23.96000 527.908
23.97000 529.465
23.98000 532.013
23.99000 537.523
24.00000 543.231
24.01000 543.419
24.02000 532.531
24.03000 521.331
24.04000 514.926
24.05000 509.478
24.06000 505.691
24.07000 509.741
24.08000 520.428
24.09000 530.795
24.10000 525.331
24.11000 511.065
24.12000 497.348
24.13000 496.105
24.14000 499.298
24.15000 502.924
24.16000 510.651
24.17000 519.396
24.18000 526.365
24.19000 523.177
24.20000 518.377
24.21000 514.528
24.22000 518.206
24.23000 521.754
24.24000 522.267
24.25000 515.274
24.26000 507.932
24.27000 502.290
24.28000 499.460
24.29000 496.672
24.30000 495.226
24.31000 502.977
24.32000 508.146
24.33000 505.659
24.34000 497.891
24.35000 490.508
24.36000 494.207
24.37000 502.994
24.38000 511.293
24.39000 510.395
24.40000 506.973
24.41000 504.178
24.42000 505.995
24.43000 508.742
24.44000 508.908
24.45000 497.142
24.46000 483.882
24.47000 473.735
24.48000 482.173
24.49000 489.846
24.50000 497.504
24.51000 505.132
24.52000 512.758
24.53000 512.442
24.54000 501.355
24.55000 490.216
24.56000 486.017
24.57000 487.816
24.58000 489.664
24.59000 494.075
24.60000 499.939
24.61000 505.494
24.62000 505.223
24.63000 502.740
24.64000 500.445
24.65000 490.130
24.66000 479.050
24.67000 471.177
24.68000 482.053
24.69000 495.972
24.70000 503.313
24.71000 485.819
24.72000 465.934
24.73000 451.510
24.74000 464.175
24.75000 474.915
24.76000 483.081
24.77000 486.906
24.78000 490.661
24.79000 496.085
24.80000 503.344
24.81000 510.573
24.82000 509.153
24.83000 501.728
24.84000 494.356
24.85000 488.627
24.86000 483.666
24.87000 478.778
24.88000 474.870
24.89000 471.269
24.90000 468.025
24.91000 468.003
24.92000 468.566
24.93000 469.699
24.94000 473.526
24.95000 477.698
24.96000 480.889
24.97000 481.031
24.98000 480.955
24.99000 480.904
25.00000 478.928
25.01000 477.407
25.02000 477.684
25.03000 480.447
25.04000 483.220
25.05000 479.365
25.06000 469.656
25.07000 460.055
25.08000 459.301
25.09000 463.555
25.10000 467.514
25.11000 465.668
25.12000 461.576
25.13000 458.163
25.14000 461.539
25.15000 466.665
25.16000 471.148
25.17000 476.739
25.18000 481.687
25.19000 485.006
25.20000 482.055
25.21000 478.484
25.22000 476.098
25.23000 476.753
25.24000 477.561
25.25000 478.075
25.26000 476.144
25.27000 474.709
25.28000 473.789
25.29000 473.445
25.30000 473.109
25.31000 473.689
25.32000 474.927
25.33000 476.140
25.34000 475.223
25.35000 473.368
25.36000 471.810
25.37000 474.358
25.38000 478.218
25.39000 481.267
25.40000 478.052
25.41000 473.519
25.42000 469.689
25.43000 475.818
25.44000 482.037
25.45000 486.596
25.46000 485.901
25.47000 484.817
25.48000 481.214
25.49000 472.263
25.50000 463.137
25.51000 457.781
25.52000 462.648
25.53000 466.130
25.54000 471.257
25.55000 477.868
25.56000 484.316
25.57000 480.903
25.58000 471.684
25.59000 462.780
25.60000 463.016
25.61000 466.636
25.62000 469.531
25.63000 464.987
25.64000 458.488
25.65000 453.465
25.66000 457.460
25.67000 462.985
25.68000 467.472
25.69000 476.533
25.70000 484.303
25.71000 487.778
25.72000 480.026
25.73000 471.687
25.74000 463.683
25.75000 456.265
25.76000 448.858
25.77000 444.898
25.78000 463.449
25.79000 476.065
25.80000 479.857
25.81000 477.191
25.82000 474.476
25.83000 470.128
25.84000 464.987
25.85000 460.105
25.86000 461.839
25.87000 465.431
25.88000 469.518
25.89000 477.518
25.90000 486.360
25.91000 493.216
25.92000 490.316
25.93000 486.104
25.94000 482.834
25.95000 479.832
25.96000 477.462
25.97000 473.129
25.98000 464.552
25.99000 455.829
26.00000 449.242
26.01000 445.727
26.02000 442.238
26.03000 442.529
26.04000 446.302
26.05000 450.100
26.06000 455.587
26.07000 462.087
26.08000 468.295
26.09000 468.335
26.10000 465.898
26.11000 463.630
26.12000 458.912
26.13000 454.056
26.14000 450.729
26.15000 456.953
26.16000 464.831
26.17000 470.680
26.18000 468.402
26.19000 465.275
26.20000 462.969
26.21000 458.050
26.22000 454.131
26.23000 451.798
26.24000 452.296
26.25000 452.851
26.26000 455.340
26.27000 460.095
26.28000 464.840
26.29000 464.911
26.30000 461.517
26.31000 458.250
26.32000 459.435
26.33000 462.821
26.34000 465.620
26.35000 459.747
26.36000 450.995
26.37000 443.048
26.38000 450.331
26.39000 459.711
26.40000 465.941
26.41000 456.360
26.42000 444.601
26.43000 437.241
26.44000 444.346
26.45000 452.584
26.46000 458.312
26.47000 459.917
26.48000 461.015
26.49000 462.027
26.50000 462.913
26.51000 463.796
26.52000 459.128
26.53000 449.236
26.54000 439.430
26.55000 441.061
26.56000 449.523
26.57000 457.578
26.58000 456.676
26.59000 452.109
26.60000 447.992
26.61000 448.756
26.62000 450.854
26.63000 452.706
26.64000 447.336
26.65000 441.599
26.66000 438.381
26.67000 445.449
26.68000 453.619
26.69000 460.061
26.70000 461.814
26.71000 463.304
26.72000 464.272
26.73000 450.891
26.74000 440.865
26.75000 439.029
26.76000 446.987
26.77000 454.955
26.78000 460.957
26.79000 465.461
26.80000 469.884
26.81000 467.591
26.82000 462.108
26.83000 456.926
26.84000 456.355
26.85000 457.342
26.86000 457.826
26.87000 454.126
26.88000 449.491
26.89000 445.532
26.90000 438.099
26.91000 431.425
26.92000 428.043
26.93000 435.695
26.94000 444.237
26.95000 447.999
26.96000 441.031
26.97000 433.661
26.98000 429.226
26.99000 439.597
27.00000 447.075
27.01000 446.317
27.02000 437.638
27.03000 429.061
27.04000 428.216
27.05000 432.191
27.06000 436.048
27.07000 446.107
27.08000 458.095
27.09000 468.286
27.10000 458.395
27.11000 442.909
27.12000 429.125
27.13000 426.460
27.14000 425.808
27.15000 425.272
27.16000 422.208
27.17000 419.462
27.18000 420.084
27.19000 430.020
27.20000 440.498
27.21000 446.781
27.22000 445.284
27.23000 443.613
27.24000 442.694
27.25000 445.124
27.26000 446.795
27.27000 446.248
27.28000 443.978
27.29000 441.863
27.30000 445.715
27.31000 452.633
27.32000 459.239
27.33000 455.244
27.34000 448.136
27.35000 442.327
27.36000 447.589
27.37000 455.377
27.38000 460.260
27.39000 449.947
27.40000 437.441
27.41000 427.595
27.42000 430.075
27.43000 432.883
27.44000 436.315
27.45000 441.173
27.46000 446.087
27.47000 449.014
27.48000 448.910
27.49000 448.773
27.50000 446.880
27.51000 443.262
27.52000 439.685
27.53000 439.532
27.54000 441.554
27.55000 443.532
27.56000 444.432
27.57000 444.874
27.58000 445.288
27.59000 441.619
27.60000 437.226
27.61000 434.034
27.62000 438.858
27.63000 445.163
27.64000 450.870
27.65000 454.033
27.66000 456.909
27.67000 459.063
27.68000 453.542
27.69000 448.871
27.70000 443.131
27.71000 435.372
27.72000 427.565
27.73000 426.339
27.74000 433.312
27.75000 440.297
27.76000 441.170
27.77000 437.214
27.78000 433.406
27.79000 435.712
27.80000 441.218
27.81000 446.455
27.82000 447.323
27.83000 446.656
27.84000 446.046
27.85000 445.924
27.86000 445.917
27.87000 444.815
27.88000 437.858
27.89000 430.036
27.90000 425.056
27.91000 429.974
27.92000 435.739
27.93000 439.820
27.94000 438.726
27.95000 437.734
27.96000 437.977
27.97000 440.140
27.98000 442.325
27.99000 444.031
28.00000 445.256
28.01000 446.472
28.02000 441.128
28.03000 431.678
28.04000 422.587
28.05000 422.434
28.06000 426.149
28.07000 429.558
28.08000 429.348
28.09000 428.089
28.10000 426.969
28.11000 432.543
28.12000 438.485
28.13000 441.561
28.14000 432.220
28.15000 421.441
28.16000 413.300
28.17000 412.730
28.18000 412.632
28.19000 412.567
28.20000 414.047
28.21000 415.169
28.22000 418.741
28.23000 425.428
28.24000 432.116
28.25000 434.978
28.26000 434.741
28.27000 434.509
28.28000 437.659
28.29000 442.467
28.30000 446.848
28.31000 444.033
28.32000 438.643
28.33000 434.094
28.34000 437.082
28.35000 441.859
28.36000 445.980
28.37000 444.659
28.38000 442.840
28.39000 439.975
28.40000 433.391
28.41000 426.479
28.42000 422.386
28.43000 424.981
28.44000 427.860
28.45000 429.635
28.46000 432.728
28.47000 434.959
28.48000 434.413
28.49000 431.015
28.50000 427.659
28.51000 428.461
28.52000 432.011
28.53000 435.468
28.54000 426.049
28.55000 411.657
28.56000 398.900
28.57000 406.056
28.58000 419.090
28.59000 431.318
28.60000 437.912
28.61000 443.420
28.62000 448.002
28.63000 428.821
28.64000 410.610
28.65000 398.610
28.66000 404.775
28.67000 412.111
28.68000 419.265
28.69000 426.060
28.70000 432.847
28.71000 436.686
28.72000 428.891
28.73000 423.447
28.74000 422.852
28.75000 426.263
28.76000 429.631
28.77000 430.961
28.78000 431.184
28.79000 431.397
28.80000 429.499
28.81000 427.006
28.82000 424.773
28.83000 424.927
28.84000 425.660
28.85000 424.703
28.86000 414.322
28.87000 402.485
28.88000 393.040
28.89000 411.575
28.90000 428.584
28.91000 437.950
28.92000 428.837
28.93000 418.904
28.94000 415.444
28.95000 422.452
28.96000 429.603
28.97000 433.265
28.98000 431.682
28.99000 430.615
29.00000 429.170
29.01000 427.472
29.02000 425.785
29.03000 424.388
29.04000 423.121
29.05000 421.927
29.06000 421.508
29.07000 421.338
29.08000 420.760
29.09000 417.260
29.10000 413.184
29.11000 410.259
29.12000 412.522
29.13000 415.417
29.14000 417.619
29.15000 416.935
29.16000 416.245
29.17000 415.004
29.18000 412.661
29.19000 410.288
29.20000 407.102
29.21000 402.838
29.22000 398.574
29.23000 403.005
29.24000 414.742
29.25000 426.136
29.26000 420.729
29.27000 406.013
29.28000 392.262
29.29000 395.943
29.30000 406.100
29.31000 415.461
29.32000 417.630
29.33000 417.981
29.34000 417.038
29.35000 408.719
29.36000 399.234
29.37000 393.386
29.38000 400.954
29.39000 409.772
29.40000 416.125
29.41000 420.783
29.42000 424.291
29.43000 426.097
29.44000 425.098
29.45000 424.057
29.46000 422.608
29.47000 420.721
29.48000 418.844
29.49000 418.645
29.50000 419.589
29.51000 420.406
29.52000 417.601
29.53000 413.140
29.54000 408.625
29.55000 403.400
29.56000 397.959
29.57000 393.072
29.58000 399.418
29.59000 406.946
29.60000 413.400
29.61000 414.908
29.62000 415.799
29.63000 417.334
29.64000 420.823
29.65000 424.446
29.66000 426.900
29.67000 421.857
29.68000 417.936
29.69000 416.701
29.70000 419.094
29.71000 421.500
29.72000 418.503
29.73000 410.851
29.74000 403.292
29.75000 401.070
29.76000 401.841
29.77000 402.721
29.78000 405.643
29.79000 409.337
29.80000 412.964
29.81000 415.933
29.82000 418.736
29.83000 421.178
29.84000 412.329
29.85000 403.210
29.86000 398.044
29.87000 407.745
29.88000 418.869
29.89000 427.024
29.90000 427.725
29.91000 428.067
29.92000 428.283
29.93000 426.483
29.94000 425.156
29.95000 424.598
29.96000 424.882
29.97000 425.186
29.98000 428.211
29.99000 433.143
30.00000 437.964
30.01000 441.793
30.02000 445.021
30.03000 447.553
30.04000 440.808
30.05000 431.163
30.06000 422.326
30.07000 419.556
30.08000 418.032
30.09000 416.749
30.10000 416.966
30.11000 417.307
30.12000 418.781
30.13000 423.759
30.14000 428.986
30.15000 433.038
30.16000 434.650
30.17000 436.186
30.18000 437.079
30.19000 444.342
30.20000 449.459
30.21000 444.966
30.22000 432.019
30.23000 419.303
30.24000 419.436
30.25000 426.962
30.26000 434.220
30.27000 433.793
30.28000 430.605
30.29000 426.901
30.30000 418.049
30.31000 407.875
30.32000 400.121
30.33000 406.773
30.34000 415.805
30.35000 423.104
30.36000 415.901
30.37000 408.882
30.38000 403.290
30.39000 401.345
30.40000 399.582
30.41000 400.675
30.42000 406.660
30.43000 412.728
30.44000 415.933
30.45000 406.718
30.46000 400.523
30.47000 404.751
30.48000 416.428
30.49000 427.796
30.50000 429.501
30.51000 426.616
30.52000 423.882
30.53000 423.847
30.54000 424.605
30.55000 425.153
30.56000 424.082
30.57000 422.671
30.58000 422.163
30.59000 425.982
30.60000 430.368
30.61000 433.754
30.62000 429.134
30.63000 425.006
30.64000 420.289
30.65000 414.325
30.66000 408.321
30.67000 409.554
30.68000 420.959
30.69000 432.431
30.70000 436.155
30.71000 432.921
30.72000 429.850
30.73000 436.451
30.74000 448.726
30.75000 460.457
30.76000 461.204
30.77000 457.636
30.78000 454.325
30.79000 454.859
30.80000 456.249
30.81000 456.899
30.82000 453.049
30.83000 448.438
30.84000 447.031
30.85000 458.151
30.86000 470.538
30.87000 479.612
30.88000 470.881
30.89000 463.426
30.90000 460.495
30.91000 465.460
30.92000 470.570
30.93000 476.483
30.94000 483.313
30.95000 490.121
30.96000 497.721
30.97000 505.831
30.98000 513.788
30.99000 516.725
31.00000 517.232
31.01000 518.099
31.02000 524.073
31.03000 531.704
31.04000 538.613
31.05000 553.293
31.06000 567.689
31.07000 582.067
31.08000 596.359
31.09000 610.640
31.10000 625.944
31.11000 644.533
31.12000 663.371
31.13000 676.373
31.14000 701.861
31.15000 721.332
31.16000 744.168
31.17000 771.830
31.18000 799.533
31.19000 833.787
31.20000 874.052
31.21000 913.927
31.22000 947.597
31.23000 976.933
31.24000 1006.090
31.25000 1031.498
31.26000 1055.406
31.27000 1079.739
31.28000 1108.541
31.29000 1138.538
31.30000 1164.917
31.31000 1195.178
31.32000 1221.792
31.33000 1248.088
31.34000 1273.116
31.35000 1298.012
31.36000 1316.540
31.37000 1318.165
31.38000 1318.881
31.39000 1319.343
31.40000 1323.375
31.41000 1326.371
31.42000 1320.278
31.43000 1303.583
31.44000 1286.908
31.45000 1277.069
31.46000 1272.315
31.47000 1267.652
31.48000 1239.217
31.49000 1200.522
31.50000 1162.106
31.51000 1127.782
31.52000 1094.812
31.53000 1061.490
31.54000 1025.333
31.55000 988.557
31.56000 957.283
31.57000 919.921
31.58000 887.840
31.59000 857.775
31.60000 834.313
31.61000 811.367
31.62000 784.957
31.63000 750.944
31.64000 716.661
31.65000 696.232
31.66000 674.501
31.67000 659.095
31.68000 647.425
31.69000 639.258
31.70000 631.021
31.71000 617.890
31.72000 601.777
31.73000 586.172
31.74000 566.864
31.75000 547.173
31.76000 528.349
31.77000 518.890
31.78000 511.983
31.79000 505.683
31.80000 503.248
31.81000 501.496
31.82000 500.062
31.83000 486.146
31.84000 473.654
31.85000 465.384
31.86000 468.535
31.87000 472.323
31.88000 470.806
31.89000 459.669
31.90000 448.333
31.91000 442.165
31.92000 442.760
31.93000 443.190
31.94000 446.325
31.95000 451.515
31.96000 456.353
31.97000 448.410
31.98000 434.045
31.99000 420.357
32.00000 415.825
32.01000 414.485
32.02000 413.524
32.03000 415.708
32.04000 418.593
32.05000 420.540
32.06000 417.710
32.07000 414.209
32.08000 411.467
32.09000 409.694
32.10000 408.339
32.11000 408.487
32.12000 411.996
32.13000 415.630
32.14000 417.228
32.15000 415.788
32.16000 414.321
32.17000 409.650
32.18000 401.913
32.19000 394.361
32.20000 400.571
32.21000 415.331
32.22000 429.491
32.23000 430.013
32.24000 424.871
32.25000 420.066
32.26000 411.203
32.27000 402.140
32.28000 394.155
32.29000 393.185
32.30000 393.480
32.31000 393.721
32.32000 393.743
32.33000 393.741
32.34000 393.739
32.35000 406.301
32.36000 416.641
32.37000 419.881
32.38000 410.000
32.39000 399.830
32.40000 394.661
32.41000 395.571
32.42000 396.494
32.43000 395.743
32.44000 393.705
32.45000 391.615
32.46000 387.488
32.47000 382.318
32.48000 377.376
32.49000 376.003
32.50000 375.855
32.51000 375.721
32.52000 385.346
32.53000 395.851
32.54000 402.916
32.55000 392.057
32.56000 378.621
32.57000 370.286
32.58000 379.309
32.59000 389.767
32.60000 397.119
32.61000 384.929
32.62000 375.119
32.63000 369.133
32.64000 368.959
32.65000 368.847
32.66000 372.002
32.67000 378.357
32.68000 384.664
32.69000 385.231
32.70000 382.213
32.71000 379.102
32.72000 373.780
32.73000 367.522
32.74000 361.922
32.75000 363.840
32.76000 367.886
32.77000 371.475
32.78000 373.071
32.79000 374.136
32.80000 375.418
32.81000 377.622
32.82000 379.928
32.83000 385.298
32.84000 399.270
32.85000 413.756
32.86000 423.293
32.87000 433.354
32.88000 440.773
32.89000 446.612
32.90000 450.488
32.91000 454.359
32.92000 458.190
32.93000 461.989
32.94000 465.728
32.95000 467.475
32.96000 468.160
32.97000 468.335
32.98000 460.246
32.99000 449.266
33.00000 439.963
33.01000 445.246
33.02000 453.909
33.03000 461.354
33.04000 452.773
33.05000 443.520
33.06000 432.631
33.07000 416.065
33.08000 399.015
33.09000 384.480
33.10000 375.779
33.11000 367.315
33.12000 362.148
33.13000 362.426
33.14000 362.669
33.15000 361.923
33.16000 360.187
33.17000 358.411
33.18000 353.225
33.19000 345.836
33.20000 338.650
33.21000 336.324
33.22000 336.105
33.23000 335.960
33.24000 336.684
33.25000 337.658
33.26000 338.555
33.27000 338.923
33.28000 339.191
33.29000 339.413
33.30000 342.212
33.31000 344.767
33.32000 345.948
33.33000 343.198
33.34000 340.204
33.35000 338.741
33.36000 340.214
33.37000 341.760
33.38000 342.626
33.39000 333.285
33.40000 326.809
33.41000 327.430
33.42000 333.776
33.43000 340.096
33.44000 345.276
33.45000 349.851
33.46000 354.233
33.47000 352.833
33.48000 349.604
33.49000 347.054
33.50000 350.563
33.51000 355.504
33.52000 359.093
33.53000 355.327
33.54000 350.453
33.55000 346.586
33.56000 347.051
33.57000 347.730
33.58000 345.882
33.59000 338.056
33.60000 329.977
33.61000 328.996
33.62000 339.233
33.63000 349.610
33.64000 354.856
33.65000 346.120
33.66000 340.329
33.67000 339.838
33.68000 342.837
33.69000 345.859
33.70000 349.496
33.71000 353.404
33.72000 357.077
33.73000 351.339
33.74000 343.574
33.75000 337.193
33.76000 340.458
33.77000 345.576
33.78000 348.833
33.79000 343.887
33.80000 337.973
33.81000 333.501
33.82000 338.489
33.83000 342.876
33.84000 344.746
33.85000 341.693
33.86000 338.511
33.87000 337.051
33.88000 337.815
33.89000 338.588
33.90000 335.349
33.91000 328.831
33.92000 322.527
33.93000 326.009
33.94000 334.791
33.95000 343.480
33.96000 350.548
33.97000 357.027
33.98000 362.981
33.99000 358.130
34.00000 351.471
34.01000 345.872
34.02000 346.159
34.03000 347.352
34.04000 347.781
34.05000 345.458
34.06000 342.886
34.07000 341.045
34.08000 339.918
34.09000 339.082
34.10000 339.296
34.11000 341.204
34.12000 343.134
34.13000 344.976
34.14000 346.726
34.15000 348.465
34.16000 351.690
34.17000 355.856
34.18000 359.808
34.19000 357.975
34.20000 353.553
34.21000 349.210
34.22000 345.836
34.23000 342.754
34.24000 339.995
34.25000 346.503
34.26000 353.766
34.27000 359.530
34.28000 358.547
34.29000 356.747
34.30000 353.513
34.31000 346.017
34.32000 338.239
34.33000 333.013
34.34000 338.143
34.35000 342.165
34.36000 346.998
34.37000 352.902
34.38000 358.799
34.39000 357.634
34.40000 350.535
34.41000 343.529
34.42000 340.041
34.43000 338.537
34.44000 336.987
34.45000 334.629
34.46000 331.972
34.47000 329.840
34.48000 332.646
34.49000 336.667
34.50000 340.157
34.51000 338.617
34.52000 336.632
34.53000 335.123
34.54000 335.367
34.55000 335.774
34.56000 336.849
34.57000 339.564
34.58000 342.353
34.59000 344.097
34.60000 349.943
34.61000 354.204
34.62000 351.593
34.63000 341.646
34.64000 331.775
34.65000 331.038
34.66000 336.556
34.67000 341.941
34.68000 343.065
34.69000 342.282
34.70000 341.021
34.71000 333.626
34.72000 324.357
34.73000 316.690
34.74000 320.711
34.75000 327.074
34.76000 332.403
34.77000 327.191
34.78000 321.771
34.79000 319.546
34.80000 326.995
34.81000 335.106
34.82000 339.673
34.83000 337.049
34.84000 334.216
34.85000 332.587
34.86000 319.317
34.87000 309.999
34.88000 306.644
34.89000 308.407
34.90000 310.197
34.91000 313.404
34.92000 317.409
34.93000 321.264
34.94000 321.263
34.95000 319.898
34.96000 318.932
34.97000 321.815
34.98000 325.664
34.99000 329.137
35.00000 330.425
35.01000 331.361
35.02000 332.114
35.03000 325.678
35.04000 319.903
35.05000 314.035
35.06000 307.933
35.07000 301.821
35.08000 302.410
35.09000 314.219
35.10000 326.203
35.11000 332.458
35.12000 334.386
35.13000 335.702
35.14000 338.749
35.15000 343.004
35.16000 347.017
35.17000 343.852
35.18000 337.353
35.19000 331.208
35.20000 325.081
35.21000 319.456
35.22000 314.014
35.23000 309.935
35.24000 306.135
35.25000 303.082
35.26000 303.521
35.27000 304.405
35.28000 305.083
35.29000 311.105
35.30000 316.163
35.31000 318.651
35.32000 315.827
35.33000 312.841
35.34000 311.336
35.35000 311.865
35.36000 312.405
35.37000 315.397
35.38000 320.529
35.39000 325.603
35.40000 327.509
35.41000 327.599
35.42000 327.350
35.43000 320.545
35.44000 311.222
35.45000 302.593
35.46000 305.905
35.47000 311.629
35.48000 316.130
35.49000 313.391
35.50000 309.460
35.51000 307.990
35.52000 315.921
35.53000 324.773
35.54000 331.217
35.55000 325.268
35.56000 320.216
35.57000 317.029
35.58000 317.021
35.59000 317.068
35.60000 318.223
35.61000 320.613
35.62000 322.995
35.63000 320.426
35.64000 314.390
35.65000 308.541
35.66000 308.484
35.67000 311.169
35.68000 313.636
35.69000 313.109
35.70000 311.633
35.71000 310.301
35.72000 305.921
35.73000 301.515
35.74000 298.088
35.75000 299.334
35.76000 301.189
35.77000 303.272
35.78000 306.074
35.79000 308.927
35.80000 310.882
35.81000 312.540
35.82000 313.775
35.83000 315.503
35.84000 317.922
35.85000 320.344
35.86000 320.144
35.87000 317.599
35.88000 315.081
35.89000 313.472
35.90000 312.420
35.91000 311.475
35.92000 312.678
35.93000 314.723
35.94000 316.482
35.95000 315.337
35.96000 313.433
35.97000 311.765
35.98000 308.962
35.99000 306.393
36.00000 303.500
36.01000 299.347
36.02000 295.067
36.03000 292.706
36.04000 295.326
36.05000 298.202
36.06000 300.041
36.07000 311.727
36.08000 320.362
36.09000 321.184
36.10000 313.114
36.11000 305.054
36.12000 300.144
36.13000 297.523
36.14000 294.955
36.15000 295.628
36.16000 297.777
36.17000 299.809
36.18000 300.177
36.19000 300.006
36.20000 299.777
36.21000 299.093
36.22000 298.312
36.23000 297.651
36.24000 296.360
36.25000 295.208
36.26000 293.143
36.27000 288.149
36.28000 282.935
36.29000 282.283
36.30000 291.428
36.31000 300.902
36.32000 306.492
36.33000 307.987
36.34000 309.019
36.35000 307.736
36.36000 304.337
36.37000 301.017
36.38000 302.721
36.39000 307.417
36.40000 311.957
36.41000 314.070
36.42000 315.151
36.43000 315.839
36.44000 312.407
36.45000 307.880
36.46000 303.666
36.47000 301.390
36.48000 299.447
36.49000 297.865
36.50000 302.910
36.51000 307.591
36.52000 309.242
36.53000 302.879
36.54000 296.089
36.55000 291.854
36.56000 292.148
36.57000 292.529
36.58000 292.734
36.59000 292.746
36.60000 292.754
36.61000 292.688
36.62000 292.568
36.63000 292.622
36.64000 298.620
36.65000 307.537
36.66000 316.017
36.67000 311.140
36.68000 302.561
36.69000 294.555
36.70000 291.155
36.71000 288.756
36.72000 287.653
36.73000 292.998
36.74000 299.225
36.75000 304.073
36.76000 303.918
36.77000 303.485
36.78000 301.974
36.79000 298.103
36.80000 294.149
36.81000 294.409
36.82000 300.807
36.83000 307.255
36.84000 306.925
36.85000 300.269
36.86000 293.726
36.87000 294.808
36.88000 300.520
36.89000 306.281
36.90000 313.114
36.91000 320.383
36.92000 327.155
36.93000 321.426
36.94000 313.173
36.95000 306.911
36.96000 313.260
36.97000 321.823
36.98000 326.743
36.99000 316.895
37.00000 305.481
37.01000 297.036
37.02000 302.760
37.03000 307.809
37.04000 309.955
37.05000 306.855
37.06000 303.647
37.07000 299.404
37.08000 293.932
37.09000 288.473
37.10000 290.304
37.11000 297.597
37.12000 304.739
37.13000 306.449
37.14000 305.440
37.15000 304.686
37.16000 307.766
37.17000 312.133
37.18000 316.105
37.19000 315.511
37.20000 314.089
37.21000 311.090
37.22000 300.069
37.23000 287.926
37.24000 278.952
37.25000 280.520
37.26000 282.931
37.27000 284.613
37.28000 299.760
37.29000 311.572
37.30000 315.944
37.31000 309.264
37.32000 302.481
37.33000 299.969
37.34000 301.529
37.35000 303.077
37.36000 299.225
37.37000 292.163
37.38000 285.514
37.39000 288.182
37.40000 294.706
37.41000 300.379
37.42000 296.639
37.43000 290.294
37.44000 284.685
37.45000 287.525
37.46000 291.290
37.47000 294.567
37.48000 295.824
37.49000 296.862
37.50000 298.439
37.51000 301.496
37.52000 304.638
37.53000 306.690
37.54000 301.237
37.55000 297.113
37.56000 295.002
37.57000 295.327
37.58000 295.653
37.59000 295.055
37.60000 293.742
37.61000 292.452
37.62000 289.728
37.63000 286.388
37.64000 283.208
37.65000 282.515
37.66000 282.673
37.67000 283.120
37.68000 286.003
37.69000 289.438
37.70000 292.378
37.71000 299.150
37.72000 305.326
37.73000 309.221
37.74000 305.384
37.75000 300.911
37.76000 297.003
37.77000 294.382
37.78000 291.809
37.79000 290.253
37.80000 282.968
37.81000 277.735
37.82000 281.281
37.83000 293.385
37.84000 305.340
37.85000 305.523
37.86000 298.277
37.87000 291.242
37.88000 289.522
37.89000 290.018
37.90000 290.703
37.91000 293.537
37.92000 296.977
37.93000 299.051
37.94000 292.078
37.95000 283.446
37.96000 276.331
37.97000 284.652
37.98000 292.919
37.99000 299.259
38.00000 300.212
38.01000 300.845
38.02000 302.448
38.03000 305.872
38.04000 309.337
38.05000 311.255
38.06000 305.720
38.07000 301.905
38.08000 303.587
38.09000 309.595
38.10000 315.436
38.11000 314.579
38.12000 310.239
38.13000 306.091
38.14000 305.961
38.15000 307.144
38.16000 308.899
38.17000 315.600
38.18000 323.443
38.19000 327.983
38.20000 315.017
38.21000 299.487
38.22000 287.226
38.23000 294.300
38.24000 301.290
38.25000 308.550
38.26000 316.436
38.27000 324.347
38.28000 326.876
38.29000 321.093
38.30000 315.217
38.31000 317.145
38.32000 326.848
38.33000 336.514
38.34000 342.979
38.35000 347.385
38.36000 351.801
38.37000 356.472
38.38000 361.252
38.39000 365.734
38.40000 379.790
38.41000 395.096
38.42000 410.926
38.43000 430.303
38.44000 450.344
38.45000 468.889
38.46000 480.998
38.47000 492.371
38.48000 500.918
38.49000 519.213
38.50000 533.986
38.51000 555.491
38.52000 589.867
38.53000 624.558
38.54000 661.114
38.55000 700.022
38.56000 738.874
38.57000 771.500
38.58000 799.008
38.59000 826.868
38.60000 869.727
38.61000 920.530
38.62000 970.648
38.63000 1009.367
38.64000 1044.037
38.65000 1075.809
38.66000 1111.425
38.67000 1143.948
38.68000 1174.126
38.69000 1191.608
38.70000 1207.186
38.71000 1221.536
38.72000 1231.554
38.73000 1241.195
38.74000 1248.046
38.75000 1246.894
38.76000 1245.762
38.77000 1243.488
38.78000 1239.418
38.79000 1235.326
38.80000 1212.338
38.81000 1170.106
38.82000 1128.142
38.83000 1089.460
38.84000 1053.460
38.85000 1017.110
38.86000 971.804
38.87000 922.578
38.88000 874.500
38.89000 840.242
38.90000 810.034
38.91000 783.088
38.92000 744.201
38.93000 708.377
38.94000 672.489
38.95000 636.318
38.96000 600.114
38.97000 567.004
38.98000 542.883
38.99000 519.333
39.00000 503.637
39.01000 471.414
39.02000 447.241
39.03000 427.615
39.04000 413.845
39.05000 400.093
39.06000 384.670
39.07000 367.878
39.08000 351.325
39.09000 341.493
39.10000 335.467
39.11000 329.756
39.12000 329.462
39.13000 331.129
39.14000 331.903
39.15000 324.545
39.16000 315.233
39.17000 307.183
39.18000 305.772
39.19000 305.438
39.20000 305.342
39.21000 306.105
39.22000 306.944
39.23000 306.891
39.24000 304.693
39.25000 302.401
39.26000 300.982
39.27000 299.004
39.28000 297.577
39.29000 297.395
39.30000 298.510
39.31000 299.610
39.32000 299.116
39.33000 297.556
39.34000 296.035
39.35000 289.763
39.36000 281.753
39.37000 274.382
39.38000 274.933
39.39000 277.850
39.40000 280.622
39.41000 282.363
39.42000 283.901
39.43000 285.184
39.44000 283.403
39.45000 281.620
39.46000 280.667
39.47000 282.169
39.48000 283.834
39.49000 284.745
39.50000 284.164
39.51000 283.541
39.52000 283.187
39.53000 274.479
39.54000 268.391
39.55000 265.629
39.56000 265.650
39.57000 265.734
39.58000 268.829
39.59000 273.579
39.60000 278.143
39.61000 275.661
39.62000 270.906
39.63000 266.699
39.64000 267.616
39.65000 269.789
39.66000 271.206
39.67000 268.353
39.68000 264.829
39.69000 262.011
39.70000 264.685
39.71000 267.256
39.72000 269.994
39.73000 273.139
39.74000 276.303
39.75000 275.552
39.76000 268.393
39.77000 261.144
39.78000 257.407
39.79000 266.712
39.80000 272.925
39.81000 272.673
39.82000 268.013
39.83000 263.493
39.84000 262.905
39.85000 264.104
39.86000 265.235
39.87000 262.720
39.88000 259.398
39.89000 256.804
39.90000 259.510
39.91000 263.272
39.92000 266.128
39.93000 264.840
39.94000 263.040
39.95000 261.667
39.96000 275.109
39.97000 286.493
39.98000 291.807
39.99000 284.842
40.00000 277.525
40.01000 272.441
40.02000 270.354
40.03000 268.284
40.04000 268.377
40.05000 270.315
40.06000 272.168
40.07000 269.694
40.08000 264.796
40.09000 260.189
40.10000 260.980
40.11000 263.799
40.12000 266.402
40.13000 272.064
40.14000 277.826
40.15000 282.244
40.16000 278.906
40.17000 274.325
40.18000 270.941
40.19000 272.028
40.20000 273.539
40.21000 274.631
40.22000 265.017
40.23000 257.251
40.24000 250.331
40.25000 244.822
40.26000 239.335
40.27000 241.889
40.28000 253.178
40.29000 264.419
40.30000 268.607
40.31000 267.896
40.32000 267.155
40.33000 265.523
40.34000 263.478
40.35000 261.297
40.36000 257.328
40.37000 252.805
40.38000 248.736
40.39000 249.222
40.40000 250.462
40.41000 251.046
40.42000 248.576
40.43000 245.720
40.44000 244.894
40.45000 250.307
40.46000 256.158
40.47000 260.135
40.48000 257.335
40.49000 255.091
40.50000 255.609
40.51000 259.900
40.52000 264.208
40.53000 262.606
40.54000 255.846
40.55000 249.164
40.56000 248.067
40.57000 250.108
40.58000 252.081
40.59000 252.726
40.60000 252.863
40.61000 253.126
40.62000 254.630
40.63000 256.450
40.64000 258.039
40.65000 252.501
40.66000 246.762
40.67000 242.783
40.68000 245.505
40.69000 248.880
40.70000 250.992
40.71000 249.899
40.72000 248.649
40.73000 247.856
40.74000 249.670
40.75000 251.018
40.76000 251.403
40.77000 250.722
40.78000 250.029
40.79000 247.799
40.80000 244.477
40.81000 241.228
40.82000 244.284
40.83000 250.072
40.84000 255.455
40.85000 255.341
40.86000 253.489
40.87000 251.511
40.88000 248.581
40.89000 245.453
40.90000 242.815
40.91000 246.834
40.92000 250.910
40.93000 253.260
40.94000 250.205
40.95000 246.758
40.96000 246.559
40.97000 253.181
40.98000 260.020
40.99000 264.015
41.00000 251.484
41.01000 242.596
41.02000 240.375
41.03000 244.095
41.04000 247.720
41.05000 245.856
41.06000 240.794
41.07000 235.909
41.08000 233.991
41.09000 233.275
41.10000 232.960
41.11000 236.711
41.12000 241.519
41.13000 245.524
41.14000 244.684
41.15000 243.033
41.16000 241.695
41.17000 250.164
41.18000 257.861
41.19000 261.969
41.20000 256.795
41.21000 251.145
41.22000 247.954
41.23000 249.020
41.24000 250.163
41.25000 250.770
41.26000 251.873
41.27000 252.619
41.28000 252.656
41.29000 252.178
41.30000 251.653
41.31000 249.567
41.32000 246.733
41.33000 244.044
41.34000 242.215
41.35000 240.784
41.36000 239.608
41.37000 240.412
41.38000 241.638
41.39000 243.079
41.40000 245.568
41.41000 248.196
41.42000 250.230
41.43000 249.945
41.44000 249.580
41.45000 248.911
41.46000 247.592
41.47000 246.252
41.48000 244.533
41.49000 242.277
41.50000 240.017
41.51000 238.662
41.52000 238.130
41.53000 237.595
41.54000 236.845
41.55000 235.969
41.56000 235.205
41.57000 236.753
41.58000 239.221
41.59000 241.514
41.60000 244.679
41.61000 247.744
41.62000 250.211
41.63000 248.996
41.64000 247.149
41.65000 246.068
41.66000 248.018
41.67000 250.279
41.68000 251.941
41.69000 251.212
41.70000 250.549
41.71000 249.458
41.72000 247.609
41.73000 245.745
41.74000 247.440
41.75000 253.254
41.76000 259.054
41.77000 258.600
41.78000 253.569
41.79000 248.665
41.80000 248.043
41.81000 249.519
41.82000 250.531
41.83000 244.852
41.84000 236.974
41.85000 229.831
41.86000 229.063
41.87000 229.603
41.88000 230.713
41.89000 234.643
41.90000 238.958
41.91000 241.835
41.92000 240.038
41.93000 237.881
41.94000 236.386
41.95000 238.558
41.96000 240.290
41.97000 242.145
41.98000 244.182
41.99000 246.219
42.00000 245.818
42.01000 243.150
42.02000 240.507
42.03000 241.330
42.04000 244.192
42.05000 246.830
42.06000 244.657
42.07000 240.535
42.08000 236.934
42.09000 238.886
42.10000 242.341
42.11000 245.384
42.12000 246.546
42.13000 247.264
42.14000 248.139
42.15000 249.652
42.16000 251.232
42.17000 250.500
42.18000 243.558
42.19000 236.274
42.20000 231.558
42.21000 239.436
42.22000 245.386
42.23000 248.922
42.24000 249.603
42.25000 250.271
42.26000 249.034
42.27000 246.364
42.28000 243.743
42.29000 241.207
42.30000 238.803
42.31000 236.431
42.32000 234.540
42.33000 232.810
42.34000 231.826
42.35000 236.957
42.36000 243.440
42.37000 248.965
42.38000 242.142
42.39000 234.957
42.40000 231.317
42.41000 239.424
42.42000 248.465
42.43000 253.179
42.44000 248.287
42.45000 243.043
42.46000 239.903
42.47000 237.321
42.48000 235.492
42.49000 233.973
42.50000 232.751
42.51000 231.543
42.52000 231.402
42.53000 231.920
42.54000 232.423
42.55000 237.373
42.56000 243.800
42.57000 249.448
42.58000 246.545
42.59000 241.285
42.60000 236.958
42.61000 238.640
42.62000 241.397
42.63000 243.659
42.64000 242.100
42.65000 240.481
42.66000 239.419
42.67000 239.880
42.68000 240.428
42.69000 240.360
42.70000 239.161
42.71000 237.938
42.72000 237.268
42.73000 237.469
42.74000 237.607
42.75000 237.157
42.76000 236.256
42.77000 235.364
42.78000 234.830
42.79000 234.477
42.80000 234.140
42.81000 233.995
42.82000 233.921
42.83000 234.239
42.84000 237.842
42.85000 242.187
42.86000 245.001
42.87000 239.903
42.88000 233.678
42.89000 228.790
42.90000 230.509
42.91000 232.316
42.92000 234.489
42.93000 237.490
42.94000 240.523
42.95000 240.440
42.96000 235.656
42.97000 230.824
42.98000 227.564
42.99000 225.831
43.00000 224.131
43.01000 225.096
43.02000 227.736
43.03000 230.324
43.04000 231.689
43.05000 232.540
43.06000 233.336
43.07000 232.635
43.08000 231.616
43.09000 230.767
43.10000 231.042
43.11000 231.523
43.12000 231.617
43.13000 230.091
43.14000 228.384
43.15000 227.109
43.16000 226.037
43.17000 225.211
43.18000 225.923
43.19000 229.508
43.20000 233.160
43.21000 234.677
43.22000 233.564
43.23000 232.447
43.24000 229.676
43.25000 225.629
43.26000 221.749
43.27000 224.505
43.28000 230.698
43.29000 236.197
43.30000 230.610
43.31000 221.171
43.32000 212.545
43.33000 219.787
43.34000 229.462
43.35000 237.004
43.36000 233.294
43.37000 227.943
43.38000 224.304
43.39000 226.561
43.40000 229.313
43.41000 231.256
43.42000 231.703
43.43000 231.997
43.44000 229.804
43.45000 223.783
43.46000 217.720
43.47000 216.970
43.48000 221.490
43.49000 225.979
43.50000 230.319
43.51000 234.496
43.52000 238.287
43.53000 232.694
43.54000 223.083
43.55000 214.572
43.56000 218.873
43.57000 226.842
43.58000 233.927
43.59000 235.336
43.60000 235.640
43.61000 235.222
43.62000 231.713
43.63000 227.852
43.64000 224.691
43.65000 223.520
43.66000 222.472
43.67000 221.778
43.68000 212.020
43.69000 204.658
43.70000 204.438
43.71000 213.195
43.72000 221.961
43.73000 224.395
43.74000 221.761
43.75000 219.167
43.76000 219.719
43.77000 221.863
43.78000 223.930
43.79000 224.738
43.80000 225.100
43.81000 225.132
43.82000 222.248
43.83000 218.680
43.84000 215.607
43.85000 215.933
43.86000 216.639
43.87000 218.175
43.88000 222.627
43.89000 227.332
43.90000 230.452
43.91000 229.850
43.92000 229.092
43.93000 228.628
43.94000 228.524
43.95000 228.453
43.96000 225.727
43.97000 220.309
43.98000 214.951
43.99000 215.210
44.00000 219.141
44.01000 222.967
44.02000 225.578
44.03000 227.561
44.04000 229.132
44.05000 225.777
44.06000 220.983
44.07000 217.079
44.08000 219.322
44.09000 222.736
44.10000 225.570
44.11000 224.259
44.12000 222.774
44.13000 222.068
44.14000 223.615
44.15000 225.306
44.16000 225.931
44.17000 224.490
44.18000 222.995
44.19000 222.154
44.20000 226.766
44.21000 229.971
44.22000 228.541
44.23000 223.325
44.24000 218.167
44.25000 215.588
44.26000 214.397
44.27000 213.254
44.28000 212.471
44.29000 211.860
44.30000 211.572
44.31000 214.219
44.32000 217.569
44.33000 220.669
44.34000 222.391
44.35000 223.902
44.36000 225.105
44.37000 225.766
44.38000 226.260
44.39000 227.168
44.40000 229.070
44.41000 231.016
44.42000 233.464
44.43000 236.717
44.44000 239.980
44.45000 241.642
44.46000 241.047
44.47000 240.604
44.48000 235.770
44.49000 228.009
44.50000 220.496
44.51000 219.581
44.52000 221.598
44.53000 223.497
44.54000 229.253
44.55000 235.566
44.56000 241.016
44.57000 240.366
44.58000 238.529
44.59000 236.613
44.60000 234.344
44.61000 232.033
44.62000 230.280
44.63000 232.729
44.64000 234.868
44.65000 236.641
44.66000 237.690
44.67000 238.720
44.68000 240.745
44.69000 244.072
44.70000 247.401
44.71000 247.455
44.72000 244.785
44.73000 242.199
44.74000 243.571
44.75000 247.112
44.76000 250.525
44.77000 251.666
44.78000 251.972
44.79000 252.254
44.80000 254.801
44.81000 257.574
44.82000 259.184
44.83000 254.254
44.84000 248.303
44.85000 244.459
44.86000 248.303
44.87000 252.854
44.88000 256.121
44.89000 260.293
44.90000 263.516
44.91000 263.671
44.92000 258.823
44.93000 253.904
44.94000 252.373
44.95000 254.428
44.96000 256.473
44.97000 259.967
44.98000 264.390
44.99000 268.819
45.00000 273.396
45.01000 278.040
45.02000 282.266
45.03000 281.171
45.04000 278.461
45.05000 276.032
45.06000 279.521
45.07000 283.597
45.08000 285.954
45.09000 280.491
45.10000 274.066
45.11000 270.123
45.12000 273.635
45.13000 277.650
45.14000 280.359
45.15000 278.172
45.16000 276.442
45.17000 273.873
45.18000 270.184
45.19000 266.493
45.20000 264.655
45.21000 264.395
45.22000 264.138
45.23000 261.955
45.24000 258.781
45.25000 255.958
45.26000 259.606
45.27000 265.675
45.28000 271.371
45.29000 273.503
45.30000 274.748
45.31000 275.830
45.32000 267.158
45.33000 258.432
45.34000 251.700
45.35000 252.390
45.36000 253.781
45.37000 255.254
45.38000 256.934
45.39000 258.623
45.40000 259.684
45.41000 241.384
45.42000 227.943
45.43000 221.293
45.44000 221.992
45.45000 222.710
45.46000 225.516
45.47000 229.769
45.48000 233.923
45.49000 233.092
45.50000 230.093
45.51000 227.579
45.52000 231.425
45.53000 237.238
45.54000 242.095
45.55000 239.881
45.56000 236.232
45.57000 233.170
45.58000 232.931
45.59000 233.028
45.60000 232.755
45.61000 231.348
45.62000 229.861
45.63000 227.421
45.64000 223.022
45.65000 218.564
45.66000 215.987
45.67000 226.402
45.68000 233.745
45.69000 233.566
45.70000 226.849
45.71000 220.191
45.72000 216.659
45.73000 214.908
45.74000 213.220
45.75000 216.120
45.76000 220.487
45.77000 224.182
45.78000 221.284
45.79000 216.711
45.80000 213.745
45.81000 220.216
45.82000 228.229
45.83000 234.689
45.84000 229.519
45.85000 224.406
45.86000 219.868
45.87000 216.787
45.88000 213.777
45.89000 212.233
45.90000 213.173
45.91000 214.154
45.92000 214.669
45.93000 211.026
45.94000 208.545
45.95000 204.688
45.96000 199.858
45.97000 195.268
45.98000 197.987
45.99000 204.141
46.00000 209.966
46.01000 210.017
46.02000 208.390
46.03000 207.611
46.04000 213.257
46.05000 220.235
46.06000 224.483
46.07000 215.792
46.08000 205.433
46.09000 197.457
46.10000 207.982
46.11000 217.367
46.12000 221.659
46.13000 215.294
46.14000 208.595
46.15000 205.198
46.16000 206.393
46.17000 207.617
46.18000 207.394
46.19000 205.886
46.20000 204.381
46.21000 203.000
46.22000 201.690
46.23000 200.446
46.24000 200.489
46.25000 201.033
46.26000 201.537
46.27000 198.750
46.28000 195.474
46.29000 193.128
46.30000 196.372
46.31000 200.548
46.32000 204.002
46.33000 204.665
46.34000 205.050
46.35000 205.331
46.36000 204.862
46.37000 204.471
46.38000 203.700
46.39000 202.271
46.40000 200.831
46.41000 200.846
46.42000 202.505
46.43000 204.159
46.44000 210.500
46.45000 220.133
46.46000 229.410
46.47000 227.320
46.48000 219.787
46.49000 212.574
46.50000 209.825
46.51000 208.510
46.52000 207.320
46.53000 205.608
46.54000 204.005
46.55000 203.237
46.56000 206.510
46.57000 210.317
46.58000 212.366
46.59000 208.825
46.60000 204.868
46.61000 202.147
46.62000 204.657
46.63000 206.670
46.64000 205.999
46.65000 201.525
46.66000 197.026
46.67000 197.959
46.68000 203.816
46.69000 209.614
46.70000 206.505
46.71000 198.310
46.72000 190.489
46.73000 190.355
46.74000 193.264
46.75000 196.203
46.76000 199.456
46.77000 202.791
46.78000 205.719
46.79000 205.131
46.80000 204.111
46.81000 203.061
46.82000 201.892
46.83000 200.711
46.84000 199.283
46.85000 197.209
46.86000 195.100
46.87000 193.747
46.88000 200.694
46.89000 205.873
46.90000 208.000
46.91000 206.610
46.92000 205.218
46.93000 204.255
46.94000 203.608
46.95000 202.974
46.96000 203.719
46.97000 205.085
46.98000 206.047
46.99000 201.205
47.00000 194.464
47.01000 188.546
47.02000 189.177
47.03000 191.221
47.04000 192.955
47.05000 188.427
47.06000 183.919
47.07000 180.777
47.08000 182.065
47.09000 183.692
47.10000 185.600
47.11000 188.120
47.12000 190.661
47.13000 192.168
47.14000 199.771
47.15000 205.183
47.16000 205.527
47.17000 201.176
47.18000 196.832
47.19000 192.927
47.20000 189.285
47.21000 185.761
47.22000 187.773
47.23000 191.785
47.24000 195.472
47.25000 195.706
47.26000 195.010
47.27000 194.457
47.28000 194.802
47.29000 195.302
47.30000 195.711
47.31000 193.763
47.32000 191.967
47.33000 190.670
47.34000 190.710
47.35000 190.823
47.36000 191.278
47.37000 192.347
47.38000 193.428
47.39000 194.013
47.40000 186.825
47.41000 181.927
47.42000 183.431
47.43000 189.740
47.44000 195.838
47.45000 194.502
47.46000 189.472
47.47000 184.683
47.48000 186.999
47.49000 191.337
47.50000 195.183
47.51000 195.018
47.52000 193.970
47.53000 192.821
47.54000 191.169
47.55000 189.447
47.56000 188.103
47.57000 189.440
47.58000 190.676
47.59000 190.554
47.60000 187.430
47.61000 184.198
47.62000 182.390
47.63000 182.682
47.64000 182.994
47.65000 181.736
47.66000 178.994
47.67000 176.294
47.68000 176.580
47.69000 178.702
47.70000 181.068
47.71000 188.889
47.72000 198.951
47.73000 208.339
47.74000 204.864
47.75000 198.514
47.76000 193.133
47.77000 193.966
47.78000 195.906
47.79000 197.259
47.80000 196.203
47.81000 194.887
47.82000 193.911
47.83000 189.536
47.84000 185.987
47.85000 184.870
47.86000 188.198
47.87000 191.620
47.88000 192.498
47.89000 190.319
47.90000 188.140
47.91000 188.422
47.92000 190.577
47.93000 192.665
47.94000 192.306
47.95000 190.706
47.96000 189.002
47.97000 185.704
47.98000 181.863
47.99000 178.364
48.00000 181.341
48.01000 185.266
48.02000 188.717
48.03000 189.726
48.04000 190.388
48.05000 190.291
48.06000 187.632
48.07000 184.766
48.08000 182.758
48.09000 174.758
48.10000 168.535
48.11000 169.691
48.12000 181.939
48.13000 194.298
48.14000 197.518
48.15000 191.903
48.16000 186.333
48.17000 183.883
48.18000 183.397
48.19000 182.951
48.20000 183.469
48.21000 184.389
48.22000 185.139
48.23000 183.977
48.24000 182.280
48.25000 180.776
48.26000 177.830
48.27000 175.053
48.28000 174.568
48.29000 183.674
48.30000 193.840
48.31000 199.426
48.32000 192.292
48.33000 184.411
48.34000 179.243
48.35000 184.810
48.36000 189.082
48.37000 190.226
48.38000 187.531
48.39000 184.835
48.40000 184.142
48.41000 185.014
48.42000 185.872
48.43000 185.985
48.44000 185.723
48.45000 185.375
48.46000 183.673
48.47000 181.502
48.48000 179.617
48.49000 180.185
48.50000 181.315
48.51000 182.284
48.52000 185.068
48.53000 187.643
48.54000 188.655
48.55000 184.308
48.56000 179.513
48.57000 176.651
48.58000 178.232
48.59000 179.989
48.60000 181.057
48.61000 184.487
48.62000 186.955
48.63000 186.472
48.64000 183.072
48.65000 179.707
48.66000 179.181
48.67000 180.467
48.68000 181.717
48.69000 189.081
48.70000 198.559
48.71000 206.860
48.72000 201.549
48.73000 192.353
48.74000 184.144
48.75000 182.565
48.76000 182.218
48.77000 181.931
48.78000 177.445
48.79000 173.354
48.80000 170.766
48.81000 172.433
48.82000 174.359
48.83000 175.352
48.84000 174.576
48.85000 173.757
48.86000 173.302
48.87000 177.416
48.88000 180.257
48.89000 178.779
48.90000 173.858
48.91000 169.101
48.92000 171.219
48.93000 176.951
48.94000 182.436
48.95000 183.589
48.96000 183.239
48.97000 183.122
48.98000 185.040
48.99000 187.435
49.00000 188.789
49.01000 184.547
49.02000 179.475
49.03000 175.459
49.04000 178.312
49.05000 181.081
49.06000 182.864
49.07000 182.341
49.08000 181.723
49.09000 182.546
49.10000 185.620
49.11000 188.720
49.12000 190.278
49.13000 186.369
49.14000 183.796
49.15000 184.738
49.16000 187.967
49.17000 191.045
49.18000 190.310
49.19000 187.917
49.20000 185.671
49.21000 183.169
49.22000 180.820
49.23000 178.757
49.24000 178.657
49.25000 178.931
49.26000 179.021
49.27000 178.314
49.28000 177.514
49.29000 176.910
49.30000 181.748
49.31000 185.804
49.32000 187.749
49.33000 185.610
49.34000 183.369
49.35000 183.566
49.36000 186.880
49.37000 190.201
49.38000 189.662
49.39000 185.995
49.40000 182.393
49.41000 181.660
49.42000 182.464
49.43000 183.315
49.44000 184.949
49.45000 186.864
49.46000 188.623
49.47000 184.285
49.48000 179.121
49.49000 174.783
49.50000 174.986
49.51000 175.879
49.52000 175.957
49.53000 173.129
49.54000 170.044
49.55000 167.843
49.56000 168.933
49.57000 169.872
49.58000 173.285
49.59000 180.641
49.60000 188.048
49.61000 191.808
49.62000 191.803
49.63000 191.798
49.64000 192.201
49.65000 192.867
49.66000 193.429
49.67000 191.273
49.68000 187.913
49.69000 184.581
49.70000 181.585
49.71000 178.688
49.72000 176.099
49.73000 177.776
49.74000 179.958
49.75000 181.196
49.76000 178.241
49.77000 174.785
49.78000 172.723
49.79000 174.759
49.80000 177.061
49.81000 178.601
49.82000 182.491
49.83000 185.422
49.84000 186.609
49.85000 185.519
49.86000 184.417
49.87000 181.780
49.88000 177.868
49.89000 174.010
49.90000 172.460
49.91000 172.180
49.92000 172.039
49.93000 174.361
49.94000 177.585
49.95000 180.970
49.96000 185.838
49.97000 191.067
49.98000 195.596
49.99000 191.476
50.00000 186.826
50.01000 181.978
50.02000 176.411
50.03000 170.779
50.04000 168.073
50.05000 172.476
50.06000 177.197
50.07000 180.135
50.08000 180.437
50.09000 180.628
50.10000 179.720
50.11000 177.652
50.12000 175.612
50.13000 176.615
50.14000 179.679
50.15000 182.668
50.16000 181.674
50.17000 179.006
50.18000 176.297
50.19000 173.058
50.20000 169.659
50.21000 167.035
50.22000 169.983
50.23000 174.035
50.24000 177.421
50.25000 179.731
50.26000 181.540
50.27000 183.607
50.28000 186.451
50.29000 189.346
50.30000 190.642
50.31000 188.725
50.32000 186.718
50.33000 185.570
50.34000 185.588
50.35000 185.599
50.36000 182.228
50.37000 175.988
50.38000 169.930
50.39000 172.941
50.40000 181.000
50.41000 188.749
50.42000 188.695
50.43000 185.916
50.44000 183.634
50.45000 186.069
50.46000 189.674
50.47000 192.879
50.48000 193.793
50.49000 194.343
50.50000 194.784
50.51000 191.102
50.52000 187.808
50.53000 186.834
50.54000 191.606
50.55000 196.645
50.56000 199.411
50.57000 198.412
50.58000 197.356
50.59000 196.808
50.60000 192.629
50.61000 189.815
50.62000 188.006
50.63000 186.890
50.64000 185.918
50.65000 189.065
50.66000 194.107
50.67000 198.869
50.68000 198.654
50.69000 197.049
50.70000 195.699
50.71000 196.221
50.72000 197.120
50.73000 197.721
50.74000 196.939
50.75000 195.982
50.76000 195.251
50.77000 190.582
50.78000 186.683
50.79000 184.881
50.80000 187.371
50.81000 189.988
50.82000 190.367
50.83000 187.709
50.84000 185.036
50.85000 182.001
50.86000 178.661
50.87000 175.383
50.88000 175.436
50.89000 177.378
50.90000 179.261
50.91000 180.018
50.92000 180.348
50.93000 180.653
50.94000 185.832
50.95000 191.589
50.96000 195.956
50.97000 192.192
50.98000 187.106
50.99000 182.922
51.00000 182.146
51.01000 181.698
51.02000 181.373
51.03000 182.210
51.04000 182.897
51.05000 184.326
51.06000 187.006
51.07000 189.707
51.08000 187.525
51.09000 179.967
51.10000 172.440
51.11000 170.939
51.12000 173.656
51.13000 176.197
51.14000 173.461
51.15000 168.254
51.16000 163.670
51.17000 167.452
51.18000 173.862
51.19000 179.637
51.20000 180.614
51.21000 180.601
51.22000 180.416
51.23000 179.413
51.24000 178.305
51.25000 176.320
51.26000 171.609
51.27000 166.703
51.28000 163.354
51.29000 165.741
51.30000 167.660
51.31000 169.798
51.32000 172.238
51.33000 174.679
51.34000 176.536
51.35000 177.876
51.36000 179.201
51.37000 176.317
51.38000 171.125
51.39000 166.018
51.40000 162.612
51.41000 159.863
51.42000 158.181
51.43000 167.188
51.44000 178.953
51.45000 189.243
51.46000 179.863
51.47000 169.026
51.48000 161.112
51.49000 164.463
51.50000 168.931
51.51000 171.367
51.52000 168.586
51.53000 165.542
51.54000 163.605
51.55000 168.421
51.56000 172.005
51.57000 173.730
51.58000 173.364
51.59000 172.980
51.60000 170.186
51.61000 165.661
51.62000 161.230
51.63000 163.246
51.64000 168.136
51.65000 172.421
51.66000 168.312
51.67000 161.518
51.68000 155.867
51.69000 159.058
51.70000 164.112
51.71000 168.382
51.72000 170.413
51.73000 171.865
51.74000 172.879
51.75000 172.502
51.76000 172.023
51.77000 170.763
51.78000 167.847
51.79000 164.877
51.80000 163.133
51.81000 162.069
51.82000 161.322
51.83000 160.818
51.84000 160.532
51.85000 160.242
51.86000 159.641
51.87000 158.858
51.88000 158.101
51.89000 156.686
51.90000 155.108
51.91000 154.164
51.92000 159.753
51.93000 167.061
51.94000 173.110
51.95000 171.463
51.96000 168.509
51.97000 166.109
51.98000 161.962
51.99000 158.434
52.00000 155.795
52.01000 155.484
52.02000 155.294
52.03000 154.073
52.04000 151.042
52.05000 147.977
52.06000 146.338
52.07000 158.168
52.08000 166.208
52.09000 167.479
52.10000 163.792
52.11000 160.150
52.12000 158.022
52.13000 156.629
52.14000 155.306
52.15000 156.174
52.16000 157.636
52.17000 158.985
52.18000 159.446
52.19000 159.716
52.20000 159.977
52.21000 160.195
52.22000 160.407
52.23000 160.572
52.24000 161.086
52.25000 161.516
52.26000 161.401
52.27000 160.106
52.28000 158.771
52.29000 158.751
52.30000 160.625
52.31000 162.515
52.32000 165.936
52.33000 170.768
52.34000 175.511
52.35000 174.430
52.36000 169.853
52.37000 165.440
52.38000 164.519
52.39000 165.000
52.40000 165.448
52.41000 165.649
52.42000 165.771
52.43000 166.336
52.44000 169.672
52.45000 173.489
52.46000 176.485
52.47000 176.189
52.48000 175.549
52.49000 175.077
52.50000 163.858
52.51000 154.715
52.52000 150.076
52.53000 153.487
52.54000 157.057
52.55000 159.901
52.56000 161.895
52.57000 163.881
52.58000 162.991
52.59000 159.972
52.60000 157.111
52.61000 159.742
52.62000 165.094
52.63000 169.933
52.64000 167.202
52.65000 161.958
52.66000 157.194
52.67000 159.661
52.68000 163.241
52.69000 166.147
52.70000 165.669
52.71000 164.724
52.72000 164.483
52.73000 166.556
52.74000 168.810
52.75000 170.378
52.76000 169.851
52.77000 169.398
52.78000 168.131
52.79000 165.670
52.80000 163.199
52.81000 162.005
52.82000 162.012
52.83000 162.020
52.84000 161.080
52.85000 159.589
52.86000 158.221
52.87000 159.560
52.88000 162.008
52.89000 164.032
52.90000 161.434
52.91000 157.572
52.92000 154.163
52.93000 154.406
52.94000 155.175
52.95000 156.275
52.96000 158.733
52.97000 161.337
52.98000 164.110
52.99000 167.344
53.00000 170.604
53.01000 172.724
53.02000 171.151
53.03000 169.941
53.04000 166.048
53.05000 158.944
53.06000 151.867
53.07000 152.582
53.08000 159.240
53.09000 165.779
53.10000 166.551
53.11000 164.485
53.12000 162.493
53.13000 161.614
53.14000 161.111
53.15000 160.613
53.16000 160.148
53.17000 159.691
53.18000 159.300
53.19000 160.695
53.20000 162.082
53.21000 162.940
53.22000 162.025
53.23000 160.966
53.24000 159.269
53.25000 156.135
53.26000 152.947
53.27000 151.029
53.28000 158.397
53.29000 163.704
53.30000 166.467
53.31000 166.781
53.32000 167.036
53.33000 162.777
53.34000 155.700
53.35000 148.834
53.36000 150.069
53.37000 154.446
53.38000 159.096
53.39000 166.814
53.40000 175.386
53.41000 182.240
53.42000 177.860
53.43000 171.444
53.44000 166.168
53.45000 166.798
53.46000 167.851
53.47000 168.362
53.48000 167.377
53.49000 166.304
53.50000 167.180
53.51000 171.673
53.52000 176.247
53.53000 178.765
53.54000 170.225
53.55000 164.336
53.56000 161.752
53.57000 161.738
53.58000 161.787
53.59000 164.256
53.60000 167.968
53.61000 171.514
53.62000 168.393
53.63000 163.357
53.64000 159.003
53.65000 160.478
53.66000 163.284
53.67000 165.378
53.68000 163.743
53.69000 161.568
53.70000 159.856
53.71000 158.537
53.72000 157.506
53.73000 157.974
53.74000 161.874
53.75000 165.909
53.76000 168.177
53.77000 167.746
53.78000 167.287
53.79000 168.792
53.80000 172.230
53.81000 175.567
53.82000 170.569
53.83000 160.269
53.84000 150.376
53.85000 150.229
53.86000 154.226
53.87000 157.970
53.88000 160.943
53.89000 163.448
53.90000 165.898
53.91000 167.985
53.92000 170.004
53.93000 171.263
53.94000 169.292
53.95000 166.955
53.96000 165.204
53.97000 160.873
53.98000 157.371
53.99000 156.667
54.00000 161.257
54.01000 165.973
54.02000 164.915
54.03000 156.657
54.04000 148.393
54.05000 148.586
54.06000 155.464
54.07000 162.200
54.08000 163.069
54.09000 160.865
54.10000 158.942
54.11000 161.591
54.12000 165.848
54.13000 169.744
54.14000 167.430
54.15000 164.086
54.16000 161.129
54.17000 160.240
54.18000 159.656
54.19000 158.703
54.20000 156.461
54.21000 154.107
54.22000 152.441
54.23000 157.403
54.24000 161.382
54.25000 162.412
54.26000 158.853
54.27000 155.239
54.28000 154.608
54.29000 156.977
54.30000 159.330
54.31000 160.023
54.32000 159.645
54.33000 159.248
54.34000 158.345
54.35000 157.223
54.36000 156.281
54.37000 157.463
54.38000 159.261
54.39000 160.863
54.40000 162.679
54.41000 164.293
54.42000 164.406
54.43000 158.007
54.44000 150.854
54.45000 146.956
54.46000 152.412
54.47000 158.452
54.48000 162.463
54.49000 159.643
54.50000 157.433
54.51000 157.533
54.52000 160.574
54.53000 163.617
54.54000 163.215
54.55000 160.022
54.56000 156.876
54.57000 156.902
54.58000 158.570
54.59000 160.216
54.60000 161.483
54.61000 162.613
54.62000 163.665
54.63000 164.012
54.64000 164.192
54.65000 164.347
54.66000 160.434
54.67000 156.593
54.68000 154.240
54.69000 157.178
54.70000 160.583
54.71000 162.738
54.72000 161.923
54.73000 160.981
54.74000 160.400
54.75000 162.052
54.76000 163.258
54.77000 166.188
54.78000 170.889
54.79000 175.517
54.80000 173.022
54.81000 165.815
54.82000 158.796
54.83000 159.660
54.84000 163.802
54.85000 167.370
54.86000 163.941
54.87000 158.445
54.88000 153.709
54.89000 154.296
54.90000 155.911
54.91000 157.254
54.92000 157.035
54.93000 156.701
54.94000 157.091
54.95000 159.604
54.96000 162.253
54.97000 165.294
54.98000 169.102
54.99000 172.931
55.00000 175.098
55.01000 167.660
55.02000 162.463
55.03000 159.590
55.04000 158.640
55.05000 157.803
55.06000 162.165
55.07000 169.356
55.08000 176.258
55.09000 175.902
55.10000 173.092
55.11000 170.418
55.12000 168.994
55.13000 167.873
55.14000 167.145
55.15000 168.612
55.16000 170.420
55.17000 171.862
55.18000 168.843
55.19000 166.080
55.20000 165.299
55.21000 169.319
55.22000 173.553
55.23000 177.539
55.24000 181.122
55.25000 184.700
55.26000 186.534
55.27000 177.906
55.28000 172.154
55.29000 171.590
55.30000 174.526
55.31000 177.520
55.32000 182.092
55.33000 187.374
55.34000 192.351
55.35000 188.980
55.36000 183.592
55.37000 179.267
55.38000 182.557
55.39000 187.349
55.40000 192.134
55.41000 196.889
55.42000 201.641
55.43000 205.257
55.44000 207.464
55.45000 209.127
55.46000 210.991
55.47000 213.259
55.48000 215.538
55.49000 216.989
55.50000 217.344
55.51000 217.693
55.52000 220.660
55.53000 225.823
55.54000 230.937
55.55000 233.611
55.56000 234.933
55.57000 236.638
55.58000 245.277
55.59000 256.493
55.60000 266.833
55.61000 274.945
55.62000 281.715
55.63000 289.010
55.64000 299.304
55.65000 310.072
55.66000 319.991
55.67000 326.775
55.68000 333.268
55.69000 337.946
55.70000 353.066
55.71000 365.020
55.72000 377.859
55.73000 392.154
55.74000 406.472
55.75000 418.746
55.76000 428.827
55.77000 438.858
55.78000 452.152
55.79000 467.510
55.80000 482.739
55.81000 494.284
55.82000 504.142
55.83000 514.527
55.84000 531.735
55.85000 551.037
55.86000 568.373
55.87000 578.704
55.88000 586.510
55.89000 593.685
55.90000 597.956
55.91000 601.863
55.92000 608.047
55.93000 621.151
55.94000 634.732
55.95000 643.931
55.96000 637.180
55.97000 631.799
55.98000 626.320
55.99000 620.711
56.00000 615.105
56.01000 613.202
56.02000 614.493
56.03000 615.768
56.04000 616.515
56.05000 616.952
56.06000 616.640
56.07000 602.247
56.08000 582.521
56.09000 563.116
56.10000 546.825
56.11000 531.318
56.12000 517.807
56.13000 498.606
56.14000 481.411
56.15000 467.119
56.16000 463.753
56.17000 461.435
56.18000 454.375
56.19000 435.404
56.20000 415.860
56.21000 403.531
56.22000 389.827
56.23000 379.888
56.24000 371.183
56.25000 363.831
56.26000 356.446
56.27000 344.554
56.28000 329.499
56.29000 314.781
56.30000 304.803
56.31000 297.358
56.32000 289.691
56.33000 279.038
56.34000 267.452
56.35000 255.940
56.36000 244.986
56.37000 234.147
56.38000 225.027
56.39000 219.000
56.40000 214.304
56.41000 210.989
56.42000 211.949
56.43000 213.213
56.44000 213.282
56.45000 210.867
56.46000 208.375
56.47000 206.927
56.48000 201.852
56.49000 198.276
56.50000 198.576
56.51000 202.288
56.52000 205.903
56.53000 204.095
56.54000 199.163
56.55000 194.407
56.56000 191.737
56.57000 189.984
56.58000 188.102
56.59000 184.948
56.60000 181.467
56.61000 178.155
56.62000 175.846
56.63000 173.704
56.64000 171.973
56.65000 172.235
56.66000 172.609
56.67000 173.084
56.68000 173.821
56.69000 174.572
56.70000 173.871
56.71000 170.681
56.72000 167.449
56.73000 165.741
56.74000 164.664
56.75000 163.962
56.76000 167.510
56.77000 174.099
56.78000 180.451
56.79000 179.400
56.80000 174.829
56.81000 170.497
56.82000 168.207
56.83000 166.697
56.84000 165.440
56.85000 166.127
56.86000 167.222
56.87000 167.997
56.88000 167.235
56.89000 166.272
56.90000 165.529
56.91000 164.155
56.92000 163.029
56.93000 161.430
56.94000 158.830
56.95000 156.198
56.96000 155.349
56.97000 157.009
56.98000 158.687
56.99000 159.110
57.00000 158.405
57.01000 157.742
57.02000 159.567
57.03000 162.853
57.04000 165.865
57.05000 163.325
57.06000 158.603
57.07000 154.219
57.08000 153.141
57.09000 152.950
57.10000 152.721
57.11000 152.260
57.12000 151.760
57.13000 150.996
57.14000 149.197
57.15000 147.292
57.16000 145.897
57.17000 147.672
57.18000 149.170
57.19000 149.841
57.20000 149.064
57.21000 148.262
57.22000 149.109
57.23000 151.842
57.24000 154.568
57.25000 153.314
57.26000 149.191
57.27000 145.166
57.28000 144.400
57.29000 145.210
57.30000 145.919
57.31000 145.171
57.32000 143.950
57.33000 142.844
57.34000 141.113
57.35000 139.471
57.36000 138.653
57.37000 141.879
57.38000 145.647
57.39000 149.725
57.40000 154.798
57.41000 159.946
57.42000 163.501
57.43000 156.869
57.44000 151.626
57.45000 146.464
57.46000 141.421
57.47000 136.382
57.48000 137.240
57.49000 143.517
57.50000 149.733
57.51000 150.954
57.52000 149.222
57.53000 147.544
57.54000 146.987
57.55000 146.879
57.56000 147.193
57.57000 151.943
57.58000 157.879
57.59000 163.100
57.60000 157.652
57.61000 151.377
57.62000 146.994
57.63000 150.167
57.64000 154.125
57.65000 156.034
57.66000 152.501
57.67000 148.674
57.68000 146.207
57.69000 150.491
57.70000 153.716
57.71000 151.654
57.72000 143.417
57.73000 135.207
57.74000 133.718
57.75000 137.236
57.76000 140.686
57.77000 138.843
57.78000 134.548
57.79000 130.542
57.80000 130.759
57.81000 132.374
57.82000 134.162
57.83000 137.354
57.84000 140.852
57.85000 143.827
57.86000 143.824
57.87000 143.478
57.88000 144.127
57.89000 148.044
57.90000 152.216
57.91000 152.712
57.92000 145.130
57.93000 137.260
57.94000 132.569
57.95000 141.224
57.96000 147.440
57.97000 151.010
57.98000 152.097
57.99000 153.131
58.00000 150.517
58.01000 145.676
58.02000 140.988
58.03000 140.822
58.04000 142.410
58.05000 144.186
58.06000 147.990
58.07000 152.347
58.08000 155.739
58.09000 152.986
58.10000 149.148
58.11000 146.007
58.12000 151.338
58.13000 156.447
58.14000 158.456
58.15000 152.072
58.16000 145.219
58.17000 141.197
58.18000 142.313
58.19000 143.536
58.20000 144.202
58.21000 138.956
58.22000 135.357
58.23000 133.295
58.24000 132.401
58.25000 131.557
58.26000 132.515
58.27000 134.378
58.28000 136.154
58.29000 138.574
58.30000 141.019
58.31000 143.459
58.32000 145.868
58.33000 148.269
58.34000 149.116
58.35000 142.027
58.36000 133.822
58.37000 127.397
58.38000 129.316
58.39000 131.385
58.40000 133.643
58.41000 136.323
58.42000 139.020
58.43000 140.454
58.44000 140.005
58.45000 139.539
58.46000 140.496
58.47000 142.818
58.48000 145.093
58.49000 143.837
58.50000 140.385
58.51000 136.940
58.52000 133.636
58.53000 130.390
58.54000 127.357
58.55000 130.266
58.56000 134.403
58.57000 137.952
58.58000 137.676
58.59000 136.710
58.60000 135.541
58.61000 133.530
58.62000 131.427
58.63000 129.860
58.64000 128.204
58.65000 126.912
58.66000 126.459
58.67000 127.557
58.68000 128.691
58.69000 129.497
58.70000 129.907
58.71000 130.314
58.72000 129.865
58.73000 128.757
58.74000 127.705
58.75000 128.786
58.76000 130.959
58.77000 133.065
58.78000 134.127
58.79000 134.829
58.80000 135.470
58.81000 135.751
58.82000 135.927
58.83000 135.951
58.84000 135.180
58.85000 134.295
58.86000 133.806
58.87000 134.667
58.88000 135.640
58.89000 136.323
58.90000 133.831
58.91000 131.849
58.92000 132.354
58.93000 136.642
58.94000 140.970
58.95000 141.340
58.96000 137.833
58.97000 134.351
58.98000 135.443
58.99000 139.368
59.00000 143.061
59.01000 141.262
59.02000 137.138
59.03000 133.333
59.04000 133.192
59.05000 134.088
59.06000 134.883
59.07000 137.653
59.08000 140.369
59.09000 142.938
59.10000 144.883
59.11000 146.759
59.12000 146.410
59.13000 139.813
59.14000 132.842
59.15000 128.250
59.16000 129.464
59.17000 130.459
59.18000 132.930
59.19000 137.235
59.20000 141.534
59.21000 142.299
59.22000 140.268
59.23000 138.269
59.24000 135.087
59.25000 131.406
59.26000 127.915
59.27000 127.497
59.28000 128.155
59.29000 129.138
59.30000 132.951
59.31000 137.420
59.32000 141.261
59.33000 137.118
59.34000 132.618
59.35000 128.835
59.36000 127.539
59.37000 126.456
59.38000 125.245
59.39000 123.741
59.40000 122.224
59.41000 121.297
59.42000 127.920
59.43000 132.719
59.44000 134.276
59.45000 132.585
59.46000 130.904
59.47000 130.116
59.48000 129.904
59.49000 129.698
59.50000 127.788
59.51000 125.270
59.52000 123.432
59.53000 129.592
59.54000 138.061
59.55000 144.583
59.56000 137.838
59.57000 128.595
59.58000 120.940
59.59000 125.584
59.60000 130.587
59.61000 135.494
59.62000 140.126
59.63000 144.740
59.64000 146.031
59.65000 140.941
59.66000 135.692
59.67000 132.754
59.68000 133.945
59.69000 134.779
59.70000 135.352
59.71000 135.713
59.72000 136.120
59.73000 138.465
59.74000 141.842
59.75000 145.077
59.76000 142.277
59.77000 137.658
59.78000 133.287
59.79000 131.129
59.80000 129.496
59.81000 128.429
59.82000 130.446
59.83000 132.927
59.84000 134.896
59.85000 140.901
59.86000 146.019
59.87000 148.224
59.88000 143.532
59.89000 138.548
59.90000 134.759
59.91000 132.859
59.92000 130.984
59.93000 130.035
59.94000 133.094
59.95000 135.130
59.96000 136.054
59.97000 136.247
59.98000 136.444
59.99000 136.787
60.00000 137.194
60.01000 137.576
60.02000 137.859
60.03000 138.090
60.04000 138.419
60.05000 139.427
60.06000 140.566
60.07000 141.136
60.08000 139.193
60.09000 136.952
60.10000 135.258
60.11000 131.521
60.12000 128.486
60.13000 127.537
60.14000 130.667
60.15000 133.903
60.16000 135.794
60.17000 135.942
60.18000 136.084
60.19000 136.908
60.20000 138.290
60.21000 139.580
60.22000 136.702
60.23000 131.564
60.24000 126.760
60.25000 127.774
60.26000 130.903
60.27000 133.779
60.28000 136.084
60.29000 138.020
60.30000 138.932
60.31000 134.153
60.32000 128.497
60.33000 124.503
60.34000 126.507
60.35000 129.052
60.36000 130.874
60.37000 133.730
60.38000 135.945
60.39000 137.399
60.40000 137.625
60.41000 137.833
60.42000 135.469
60.43000 130.413
60.44000 125.384
60.45000 126.323
60.46000 131.207
60.47000 135.997
60.48000 138.228
60.49000 139.314
60.50000 140.447
60.51000 142.165
60.52000 144.058
60.53000 145.754
60.54000 142.328
60.55000 138.461
60.56000 135.281
60.57000 135.194
60.58000 135.481
60.59000 135.852
60.60000 136.468
60.61000 137.100
60.62000 137.525
60.63000 134.045
60.64000 131.379
60.65000 131.427
60.66000 135.056
60.67000 138.695
60.68000 137.692
60.69000 132.784
60.70000 127.941
60.71000 130.766
60.72000 137.640
60.73000 144.165
60.74000 144.436
60.75000 142.390
60.76000 140.396
60.77000 138.898
60.78000 137.523
60.79000 136.329
60.80000 133.870
60.81000 131.604
60.82000 130.549
60.83000 133.943
60.84000 137.751
60.85000 140.959
60.86000 142.693
60.87000 144.360
60.88000 145.402
60.89000 141.629
60.90000 138.855
60.91000 136.366
60.92000 134.182
60.93000 132.023
60.94000 132.749
60.95000 135.453
60.96000 138.093
60.97000 137.997
60.98000 136.712
60.99000 135.434
61.00000 134.259
61.01000 133.116
61.02000 132.096
61.03000 131.976
61.04000 132.036
61.05000 132.087
61.06000 131.299
61.07000 130.557
61.08000 130.571
61.09000 132.872
61.10000 135.330
61.11000 135.694
61.12000 131.803
61.13000 127.788
61.14000 125.479
61.15000 135.712
61.16000 142.906
61.17000 141.919
61.18000 133.904
61.19000 126.035
61.20000 125.718
61.21000 129.653
61.22000 133.440
61.23000 134.806
61.24000 135.230
61.25000 135.901
61.26000 138.957
61.27000 142.612
61.28000 145.515
61.29000 144.055
61.30000 141.891
61.31000 140.151
61.32000 137.841
61.33000 135.924
61.34000 134.947
61.35000 136.323
61.36000 137.812
61.37000 138.429
61.38000 137.585
61.39000 136.718
61.40000 136.265
61.41000 141.065
61.42000 144.276
61.43000 142.533
61.44000 137.327
61.45000 132.253
61.46000 131.069
61.47000 131.693
61.48000 132.284
61.49000 140.856
61.50000 151.020
61.51000 160.251
61.52000 162.496
61.53000 163.311
61.54000 166.766
61.55000 182.584
61.56000 199.977
61.57000 213.330
61.58000 220.076
61.59000 225.039
61.60000 232.229
61.61000 244.030
61.62000 255.971
61.63000 264.876
61.64000 269.606
61.65000 274.309
61.66000 278.401
61.67000 281.952
61.68000 285.349
61.69000 280.209
61.70000 270.171
61.71000 260.698
61.72000 262.193
61.73000 267.905
61.74000 273.192
61.75000 268.620
61.76000 262.240
61.77000 255.137
61.78000 243.751
61.79000 231.660
61.80000 220.662
61.81000 213.848
61.82000 207.445
61.83000 202.784
61.84000 183.402
61.85000 167.919
61.86000 159.403
61.87000 162.788
61.88000 166.374
61.89000 164.092
61.90000 155.264
61.91000 146.466
61.92000 144.559
61.93000 147.536
61.94000 150.356
61.95000 148.343
61.96000 144.039
61.97000 140.079
61.98000 140.814
61.99000 143.040
62.00000 145.050
62.01000 146.577
62.02000 147.830
62.03000 148.544
62.04000 146.681
62.05000 144.482
62.06000 141.728
62.07000 137.232
62.08000 132.609
62.09000 129.441
62.10000 135.277
62.11000 139.865
62.12000 143.180
62.13000 144.712
62.14000 146.231
62.15000 146.345
62.16000 145.202
62.17000 144.070
62.18000 140.282
62.19000 135.060
62.20000 130.051
62.21000 129.328
62.22000 130.283
62.23000 131.483
62.24000 135.168
62.25000 139.502
62.26000 143.301
62.27000 142.380
62.28000 140.909
62.29000 140.042
62.30000 141.534
62.31000 143.263
62.32000 144.721
62.33000 145.473
62.34000 146.189
62.35000 146.647
62.36000 147.059
62.37000 147.359
62.38000 146.295
62.39000 143.679
62.40000 141.086
62.41000 142.507
62.42000 146.847
62.43000 151.098
62.44000 147.674
62.45000 140.819
62.46000 134.437
62.47000 134.753
62.48000 137.237
62.49000 139.333
62.50000 138.378
62.51000 136.773
62.52000 135.413
62.53000 133.391
62.54000 131.624
62.55000 131.159
62.56000 134.873
62.57000 138.901
62.58000 141.942
62.59000 142.863
62.60000 143.712
62.61000 144.213
62.62000 145.780
62.63000 146.892
62.64000 147.653
62.65000 148.093
62.66000 148.546
62.67000 149.767
62.68000 151.448
62.69000 153.073
62.70000 151.608
62.71000 149.060
62.72000 146.904
62.73000 148.841
62.74000 151.868
62.75000 154.674
62.76000 156.109
62.77000 157.309
62.78000 158.285
62.79000 151.077
62.80000 144.496
62.81000 138.950
62.82000 136.147
62.83000 133.490
62.84000 132.627
62.85000 134.949
62.86000 137.332
62.87000 138.614
62.88000 134.773
62.89000 132.155
62.90000 131.740
62.91000 132.959
62.92000 134.208
62.93000 136.472
62.94000 139.236
62.95000 141.863
62.96000 141.058
62.97000 139.265
62.98000 137.933
62.99000 140.308
63.00000 143.489
63.01000 146.436
63.02000 148.211
63.03000 149.826
63.04000 151.084
63.05000 147.044
63.06000 143.500
63.07000 140.490
63.08000 138.650
63.09000 136.852
63.10000 138.251
63.11000 144.310
63.12000 150.408
63.13000 152.866
63.14000 151.924
63.15000 150.983
63.16000 150.105
63.17000 149.266
63.18000 148.525
63.19000 149.926
63.20000 152.199
63.21000 154.317
63.22000 154.826
63.23000 154.892
63.24000 154.592
63.25000 151.969
63.26000 148.938
63.27000 146.743
63.28000 147.939
63.29000 149.494
63.30000 150.646
63.31000 146.942
63.32000 143.859
63.33000 141.757
63.34000 141.431
63.35000 141.141
63.36000 140.217
63.37000 138.541
63.38000 136.867
63.39000 138.292
63.40000 142.036
63.41000 145.653
63.42000 144.684
63.43000 141.416
63.44000 138.408
63.45000 139.311
63.46000 141.529
63.47000 143.546
63.48000 144.403
63.49000 144.934
63.50000 145.834
63.51000 148.621
63.52000 151.671
63.53000 154.890
63.54000 158.672
63.55000 162.498
63.56000 165.169
63.57000 153.379
63.58000 144.071
63.59000 141.321
63.60000 148.320
63.61000 155.410
63.62000 158.677
63.63000 158.292
63.64000 157.911
63.65000 155.432
63.66000 151.721
63.67000 148.317
63.68000 151.848
63.69000 158.253
63.70000 163.798
63.71000 159.833
63.72000 153.233
63.73000 147.397
63.74000 148.262
63.75000 150.049
63.76000 152.613
63.77000 158.390
63.78000 164.516
63.79000 168.117
63.80000 164.776
63.81000 161.036
63.82000 158.594
63.83000 161.621
63.84000 163.931
63.85000 164.214
63.86000 162.039
63.87000 159.853
63.88000 156.398
63.89000 151.963
63.90000 147.604
63.91000 148.371
63.92000 151.641
63.93000 154.916
63.94000 158.251
63.95000 161.607
63.96000 164.596
63.97000 164.482
63.98000 163.665
63.99000 162.965
64.00000 163.983
64.01000 165.049
64.02000 165.752
64.03000 165.227
64.04000 164.600
64.05000 162.894
64.06000 158.736
64.07000 154.483
64.08000 151.909
64.09000 156.363
64.10000 159.589
64.11000 161.032
64.12000 160.737
64.13000 160.454
64.14000 161.234
64.15000 162.684
64.16000 164.092
64.17000 164.131
64.18000 163.620
64.19000 163.021
64.20000 161.426
64.21000 159.550
64.22000 157.668
64.23000 155.748
64.24000 153.821
64.25000 152.232
64.26000 153.194
64.27000 154.220
64.28000 155.314
64.29000 156.596
64.30000 157.889
64.31000 158.714
64.32000 158.660
64.33000 158.585
64.34000 158.544
64.35000 157.168
64.36000 156.222
64.37000 156.908
64.38000 158.879
64.39000 160.806
64.40000 160.928
64.41000 160.110
64.42000 159.328
64.43000 162.896
64.44000 167.628
64.45000 171.346
64.46000 166.279
64.47000 159.182
64.48000 153.677
64.49000 156.622
64.50000 160.805
64.51000 164.109
64.52000 167.412
64.53000 170.063
64.54000 172.266
64.55000 173.430
64.56000 174.552
64.57000 174.629
64.58000 173.091
64.59000 171.535
64.60000 170.315
64.61000 169.430
64.62000 168.522
64.63000 165.696
64.64000 161.633
64.65000 157.845
64.66000 160.814
64.67000 166.688
64.68000 172.197
64.69000 173.407
64.70000 173.383
64.71000 173.769
64.72000 176.945
64.73000 180.644
64.74000 182.592
64.75000 177.006
64.76000 170.556
64.77000 165.707
64.78000 166.196
64.79000 166.835
64.80000 169.199
64.81000 174.864
64.82000 180.610
64.83000 183.549
64.84000 182.941
64.85000 182.323
64.86000 184.089
64.87000 187.757
64.88000 191.237
64.89000 186.712
64.90000 177.943
64.91000 169.842
64.92000 172.884
64.93000 179.888
64.94000 186.308
64.95000 182.921
64.96000 177.845
64.97000 174.135
64.98000 177.828
64.99000 182.632
65.00000 187.267
65.01000 191.308
65.02000 195.298
65.03000 198.134
65.04000 190.433
65.05000 184.233
65.06000 180.991
65.07000 182.412
65.08000 183.891
65.09000 184.244
65.10000 183.450
65.11000 182.661
65.12000 188.910
65.13000 199.622
65.14000 209.892
65.15000 208.804
65.16000 202.741
65.17000 197.319
65.18000 199.636
65.19000 204.222
65.20000 208.314
65.21000 211.923
65.22000 214.983
65.23000 217.380
65.24000 216.867
65.25000 216.011
65.26000 215.044
65.27000 213.758
65.28000 212.451
65.29000 211.579
65.30000 218.629
65.31000 224.001
65.32000 225.756
65.33000 222.849
65.34000 219.929
65.35000 219.291
65.36000 220.524
65.37000 221.741
65.38000 227.971
65.39000 236.653
65.40000 244.917
65.41000 245.941
65.42000 244.343
65.43000 243.094
65.44000 245.026
65.45000 247.722
65.46000 250.053
65.47000 254.454
65.48000 258.463
65.49000 261.295
65.50000 259.895
65.51000 258.115
65.52000 259.114
65.53000 266.790
65.54000 274.759
65.55000 279.695
65.56000 275.612
65.57000 272.589
65.58000 274.360
65.59000 281.127
65.60000 287.926
65.61000 298.110
65.62000 310.560
65.63000 322.696
65.64000 328.234
65.65000 330.708
65.66000 334.724
65.67000 357.904
65.68000 386.812
65.69000 415.965
65.70000 446.860
65.71000 478.096
65.72000 504.145
65.73000 564.750
65.74000 618.454
65.75000 675.284
65.76000 741.372
65.77000 808.071
65.78000 863.956
65.79000 898.358
65.80000 932.171
65.81000 951.417
65.82000 996.503
65.83000 1027.981
65.84000 1044.929
65.85000 1049.701
65.86000 1054.588
65.87000 1065.005
65.88000 1078.466
65.89000 1091.399
65.90000 1084.647
65.91000 1071.524
65.92000 1057.212
65.93000 1031.768
65.94000 1003.593
65.95000 971.433
65.96000 916.726
65.97000 858.482
65.98000 811.876
65.99000 733.184
66.00000 667.159
66.01000 603.349
66.02000 544.959
66.03000 486.817
66.04000 443.623
66.05000 424.916
66.06000 406.562
66.07000 397.096
66.08000 362.506
66.09000 339.306
66.10000 328.237
66.11000 325.449
66.12000 322.596
66.13000 317.908
66.14000 312.384
66.15000 307.173
66.16000 303.665
66.17000 300.924
66.18000 298.354
66.19000 297.028
66.20000 295.949
66.21000 295.822
66.22000 300.044
66.23000 304.804
66.24000 308.437
66.25000 312.865
66.26000 316.397
66.27000 321.975
66.28000 331.696
66.29000 341.536
66.30000 353.787
66.31000 369.271
66.32000 384.759
66.33000 395.763
66.34000 402.913
66.35000 410.008
66.36000 414.319
66.37000 417.067
66.38000 419.913
66.39000 424.586
66.40000 429.945
66.41000 434.893
66.42000 437.998
66.43000 440.370
66.44000 442.658
66.45000 444.472
66.46000 446.208
66.47000 446.223
66.48000 439.803
66.49000 432.772
66.50000 427.687
66.51000 414.969
66.52000 404.932
66.53000 396.839
66.54000 391.991
66.55000 387.194
66.56000 374.319
66.57000 352.659
66.58000 331.094
66.59000 320.798
66.60000 318.374
66.61000 315.912
66.62000 312.312
66.63000 308.186
66.64000 304.821
66.65000 311.508
66.66000 321.315
66.67000 330.139
66.68000 329.854
66.69000 327.977
66.70000 325.222
66.71000 318.367
66.72000 310.992
66.73000 305.249
66.74000 304.524
66.75000 304.152
66.76000 303.899
66.77000 320.112
66.78000 332.591
66.79000 336.474
66.80000 328.593
66.81000 320.647
66.82000 317.727
66.83000 319.197
66.84000 320.650
66.85000 321.927
66.86000 323.075
66.87000 324.116
66.88000 323.099
66.89000 321.293
66.90000 319.823
66.91000 321.674
66.92000 324.372
66.93000 326.728
66.94000 330.845
66.95000 334.616
66.96000 337.953
66.97000 339.640
66.98000 341.165
66.99000 343.020
67.00000 345.709
67.01000 348.440
67.02000 350.170
67.03000 341.021
67.04000 334.253
67.05000 335.418
67.06000 345.398
67.07000 355.338
67.08000 358.772
67.09000 357.584
67.10000 356.422
67.11000 355.585
67.12000 354.930
67.13000 354.251
67.14000 353.260
67.15000 352.171
67.16000 351.891
67.17000 357.790
67.18000 364.975
67.19000 371.034
67.20000 370.577
67.21000 369.490
67.22000 370.035
67.23000 375.697
67.24000 381.730
67.25000 384.598
67.26000 380.812
67.27000 376.814
67.28000 374.478
67.29000 371.038
67.30000 368.615
67.31000 370.110
67.32000 375.100
67.33000 380.114
67.34000 386.508
67.35000 393.706
67.36000 400.653
67.37000 402.594
67.38000 402.582
67.39000 402.400
67.40000 400.495
67.41000 398.140
67.42000 396.447
67.43000 398.740
67.44000 401.702
67.45000 404.103
67.46000 400.400
67.47000 396.886
67.48000 398.122
67.49000 411.658
67.50000 425.824
67.51000 436.003
67.52000 439.266
67.53000 442.404
67.54000 444.073
67.55000 435.033
67.56000 428.878
67.57000 423.596
67.58000 418.947
67.59000 414.500
67.60000 416.555
67.61000 421.738
67.62000 426.656
67.63000 431.941
67.64000 436.925
67.65000 441.304
67.66000 440.960
67.67000 439.612
67.68000 440.211
67.69000 450.274
67.70000 461.596
67.71000 470.364
67.72000 464.736
67.73000 459.412
67.74000 458.866
67.75000 468.549
67.76000 478.574
67.77000 481.721
67.78000 475.075
67.79000 468.356
67.80000 470.535
67.81000 480.812
67.82000 491.017
67.83000 496.634
67.84000 499.525
67.85000 502.492
67.86000 507.013
67.87000 512.153
67.88000 516.930
67.89000 507.443
67.90000 495.463
67.91000 485.134
67.92000 484.991
67.93000 486.595
67.94000 488.546
67.95000 491.876
67.96000 495.347
67.97000 497.900
67.98000 511.659
67.99000 522.763
68.00000 527.719
68.01000 521.807
68.02000 515.687
68.03000 515.577
68.04000 522.430
68.05000 529.270
68.06000 534.183
68.07000 537.644
68.08000 541.144
68.09000 545.953
68.10000 551.403
68.11000 556.576
68.12000 557.723
68.13000 557.547
68.14000 557.387
68.15000 559.208
68.16000 561.194
68.17000 562.068
68.18000 557.424
68.19000 552.029
68.20000 550.018
68.21000 559.023
68.22000 568.878
68.23000 575.708
68.24000 588.159
68.25000 597.680
68.26000 605.241
68.27000 609.954
68.28000 614.642
68.29000 617.060
68.30000 617.363
68.31000 617.663
68.32000 622.664
68.33000 630.356
68.34000 638.185
68.35000 648.970
68.36000 660.954
68.37000 672.303
68.38000 676.870
68.39000 679.602
68.40000 682.009
68.41000 689.917
68.42000 697.562
68.43000 706.271
68.44000 719.278
68.45000 732.738
68.46000 742.542
68.47000 742.517
68.48000 741.950
68.49000 741.583
68.50000 737.756
68.51000 734.904
68.52000 748.509
68.53000 781.582
68.54000 814.625
68.55000 834.404
68.56000 844.182
68.57000 853.782
68.58000 874.325
68.59000 899.414
68.60000 924.325
68.61000 946.581
68.62000 967.947
68.63000 991.921
68.64000 1037.287
68.65000 1087.387
68.66000 1130.092
68.67000 1196.938
68.68000 1256.000
68.69000 1312.006
68.70000 1357.874
68.71000 1402.936
68.72000 1451.913
68.73000 1509.594
68.74000 1567.592
68.75000 1602.345
68.76000 1660.120
68.77000 1701.301
68.78000 1758.025
68.79000 1829.532
68.80000 1900.893
68.81000 1961.591
68.82000 2015.707
68.83000 2068.167
68.84000 2141.219
68.85000 2218.459
68.86000 2301.536
68.87000 2448.861
68.88000 2613.909
68.89000 2809.622
68.90000 3203.271
68.91000 3632.350
68.92000 3984.382
68.93000 5417.308
68.94000 6689.489
68.95000 8388.727
68.96000 11257.387
68.97000 14192.842
68.98000 17657.561
68.99000 22094.150
69.00000 26551.732
69.01000 28992.549
69.02000 35660.805
69.03000 40247.914
69.04000 43854.902
69.05000 46707.891
69.06000 49531.559
69.07000 51249.832
69.08000 52405.715
69.09000 53508.457
69.10000 53940.363
69.11000 54128.742
69.12000 54344.738
69.13000 54792.961
69.14000 55293.609
69.15000 55825.840
69.16000 56521.504
69.17000 57240.480
69.18000 57805.137
69.19000 57537.613
69.20000 57269.031
69.21000 56360.996
69.22000 54004.844
69.23000 51593.242
69.24000 48780.695
69.25000 45362.523
69.26000 41938.293
69.27000 38985.570
69.28000 36491.301
69.29000 34005.871
69.30000 32215.342
69.31000 30862.139
69.32000 29531.789
69.33000 28735.594
69.34000 28164.072
69.35000 27629.406
69.36000 26876.490
69.37000 26136.732
69.38000 25321.615
69.39000 24008.922
69.40000 22605.242
69.41000 21042.420
69.42000 18810.504
69.43000 16504.107
69.44000 14780.858
69.45000 11974.945
69.46000 9737.602
69.47000 7804.591
69.48000 6441.070
69.49000 5090.602
69.50000 4079.399
69.51000 3486.407
69.52000 2895.708
69.53000 2482.598
69.54000 2210.289
69.55000 1940.522
69.56000 1771.937
69.57000 1655.805
69.58000 1541.739
69.59000 1460.718
69.60000 1391.188
69.61000 1327.647
69.62000 1281.351
69.63000 1243.756
69.64000 1205.968
69.65000 1167.156
69.66000 1128.195
69.67000 1093.390
69.68000 1072.908
69.69000 1053.634
69.70000 1040.030
69.71000 1000.489
69.72000 969.694
69.73000 942.232
69.74000 919.903
69.75000 897.631
69.76000 877.505
69.77000 859.510
69.78000 841.643
69.79000 830.599
69.80000 824.038
69.81000 817.251
69.82000 804.959
69.83000 790.308
69.84000 776.153
69.85000 767.765
69.86000 761.030
69.87000 755.042
69.88000 735.373
69.89000 716.086
69.90000 700.356
69.91000 699.880
69.92000 701.145
69.93000 702.349
69.94000 703.379
69.95000 704.399
69.96000 705.073
69.97000 680.121
69.98000 661.247
69.99000 651.313
70.00000 652.626
