20.00000 584.836
20.01000 579.386
20.02000 573.157
20.03000 567.665
20.04000 565.018
20.05000 562.654
20.06000 560.928
20.07000 555.785
20.08000 551.687
20.09000 549.496
20.10000 550.592
20.11000 551.747
20.12000 556.107
20.13000 564.084
20.14000 572.034
20.15000 573.384
20.16000 570.011
20.17000 566.735
20.18000 566.521
20.19000 567.773
20.20000 569.000
20.21000 569.875
20.22000 570.637
20.23000 571.326
20.24000 565.122
20.25000 558.385
20.26000 554.126
20.27000 561.843
20.28000 571.142
20.29000 575.690
20.30000 565.143
20.31000 553.478
20.32000 545.458
20.33000 548.792
20.34000 551.573
20.35000 556.637
20.36000 564.937
20.37000 573.254
20.38000 573.645
20.39000 566.855
20.40000 560.134
20.41000 555.695
20.42000 552.672
20.43000 549.874
20.44000 551.686
20.45000 555.322
20.46000 558.612
20.47000 558.321
20.48000 557.086
20.49000 556.001
20.50000 555.729
20.51000 555.614
20.52000 554.557
20.53000 549.786
20.54000 544.636
20.55000 545.159
20.56000 560.562
20.57000 576.749
20.58000 587.136
20.59000 570.842
20.60000 558.599
20.61000 552.131
20.62000 552.313
20.63000 552.534
20.64000 558.093
20.65000 567.576
20.66000 576.871
20.67000 564.788
20.68000 543.126
20.69000 522.804
20.70000 521.717
20.71000 526.918
20.72000 532.818
20.73000 544.271
20.74000 556.921
20.75000 567.655
20.76000 560.430
20.77000 552.335
20.78000 548.192
20.79000 556.846
20.80000 566.478
20.81000 573.146
20.82000 573.382
20.83000 573.395
20.84000 573.403
20.85000 556.057
20.86000 543.691
20.87000 540.128
20.88000 544.709
20.89000 549.191
20.90000 547.088
20.91000 541.019
20.92000 535.147
20.93000 540.519
20.94000 549.876
20.95000 558.216
20.96000 555.757
20.97000 550.391
20.98000 544.972
20.99000 539.216
21.00000 533.401
21.01000 528.655
21.02000 534.042
21.03000 539.318
21.04000 541.022
21.05000 533.178
21.06000 524.813
21.07000 519.370
21.08000 519.163
21.09000 519.061
21.10000 519.006
21.11000 545.980
21.12000 564.408
21.13000 568.991
21.14000 563.196
21.15000 557.422
21.16000 552.362
21.17000 547.658
21.18000 543.181
21.19000 542.124
21.20000 542.201
21.21000 542.912
21.22000 548.783
21.23000 555.789
21.24000 561.412
21.25000 560.070
21.26000 557.763
21.27000 555.963
21.28000 552.692
21.29000 549.991
21.30000 547.907
21.31000 547.185
21.32000 546.514
21.33000 546.588
21.34000 547.763
21.35000 548.948
21.36000 551.529
21.37000 555.430
21.38000 559.335
21.39000 563.524
21.40000 567.887
21.41000 571.862
21.42000 567.228
21.43000 559.058
21.44000 551.436
21.45000 550.077
21.46000 550.403
21.47000 549.422
21.48000 540.061
21.49000 529.209
21.50000 520.251
21.51000 519.056
21.52000 518.697
21.53000 518.431
21.54000 520.396
21.55000 522.022
21.56000 524.939
21.57000 530.214
21.58000 535.540
21.59000 536.365
21.60000 531.786
21.61000 527.208
21.62000 529.212
21.63000 536.206
21.64000 543.268
21.65000 552.836
21.66000 563.674
21.67000 573.575
21.68000 569.129
21.69000 559.812
21.70000 551.326
21.71000 546.905
21.72000 543.797
21.73000 543.029
21.74000 554.294
21.75000 567.265
21.76000 573.911
21.77000 559.286
21.78000 542.933
21.79000 531.480
21.80000 539.875
21.81000 546.792
21.82000 552.912
21.83000 557.835
21.84000 562.746
21.85000 567.966
21.86000 573.484
21.87000 578.957
21.88000 578.730
21.89000 575.001
21.90000 571.403
21.91000 570.827
21.92000 571.515
21.93000 571.838
21.94000 568.060
21.95000 563.136
21.96000 558.774
21.97000 565.386
21.98000 572.832
21.99000 580.525
22.00000 589.253
22.01000 598.096
22.02000 603.137
22.03000 597.633
22.04000 591.511
22.05000 587.497
22.06000 600.257
22.07000 609.917
22.08000 614.091
22.09000 611.541
22.10000 608.996
22.11000 612.333
22.12000 620.262
22.13000 628.059
22.14000 626.275
22.15000 619.768
22.16000 613.732
22.17000 615.146
22.18000 619.136
22.19000 622.124
22.20000 616.536
22.21000 608.984
22.22000 602.509
22.23000 597.585
22.24000 593.617
22.25000 588.013
22.26000 576.805
22.27000 565.128
22.28000 560.052
22.29000 570.125
22.30000 580.795
22.31000 587.278
22.32000 574.326
22.33000 564.931
22.34000 560.704
22.35000 561.579
22.36000 562.448
22.37000 562.847
22.38000 562.945
22.39000 563.040
22.40000 556.498
22.41000 547.592
22.42000 539.850
22.43000 545.542
22.44000 555.064
22.45000 562.220
22.46000 553.497
22.47000 541.826
22.48000 532.186
22.49000 522.202
22.50000 513.942
22.51000 511.165
22.52000 523.890
22.53000 537.554
22.54000 544.180
22.55000 537.458
22.56000 530.417
22.57000 526.500
22.58000 540.819
22.59000 550.737
22.60000 553.831
22.61000 551.489
22.62000 549.065
22.63000 543.247
22.64000 535.646
22.65000 528.373
22.66000 529.834
22.67000 534.063
22.68000 538.127
22.69000 540.745
22.70000 543.024
22.71000 543.730
22.72000 535.999
22.73000 527.015
22.74000 519.905
22.75000 518.255
22.76000 517.307
22.77000 516.550
22.78000 516.244
22.79000 515.955
22.80000 516.016
22.81000 516.622
22.82000 517.234
22.83000 517.542
22.84000 524.608
22.85000 529.260
22.86000 527.843
22.87000 522.479
22.88000 517.480
22.89000 521.668
22.90000 529.845
22.91000 537.521
22.92000 523.854
22.93000 505.735
22.94000 489.957
22.95000 490.248
22.96000 493.586
22.97000 497.308
22.98000 502.699
22.99000 508.283
23.00000 512.493
23.01000 514.843
23.02000 516.592
23.03000 513.279
23.04000 500.186
23.05000 486.845
23.06000 489.226
23.07000 511.676
23.08000 534.166
23.09000 539.526
23.10000 530.992
23.11000 522.451
23.12000 513.546
23.13000 504.446
23.14000 495.683
23.15000 492.614
23.16000 491.589
23.17000 490.649
23.18000 492.227
23.19000 494.170
23.20000 497.341
23.21000 507.247
23.22000 518.175
23.23000 525.148
23.24000 518.030
23.25000 509.664
23.26000 503.699
23.27000 512.706
23.28000 520.064
23.29000 522.230
23.30000 516.132
23.31000 509.927
23.32000 506.899
23.33000 507.147
23.34000 507.394
23.35000 500.319
23.36000 488.553
23.37000 477.247
23.38000 478.021
23.39000 484.140
23.40000 490.487
23.41000 499.630
23.42000 509.603
23.43000 518.512
23.44000 515.834
23.45000 511.546
23.46000 507.060
23.47000 501.696
23.48000 496.228
23.49000 491.712
23.50000 489.992
23.51000 488.454
23.52000 487.424
23.53000 501.779
23.54000 512.728
23.55000 517.569
23.56000 514.454
23.57000 511.298
23.58000 504.606
23.59000 494.981
23.60000 485.487
23.61000 482.254
23.62000 482.431
23.63000 482.961
23.64000 489.667
23.65000 498.633
23.66000 506.246
23.67000 501.348
23.68000 493.409
23.69000 486.533
23.70000 489.782
23.71000 493.883
23.72000 496.017
23.73000 491.009
23.74000 485.351
23.75000 483.681
23.76000 491.690
23.77000 500.131
23.78000 505.382
23.79000 489.149
23.80000 477.243
23.81000 473.713
23.82000 479.007
23.83000 484.251
23.84000 483.905
23.85000 479.776
23.86000 475.748
23.87000 481.021
23.88000 490.064
23.89000 498.047
23.90000 492.670
23.91000 483.258
23.92000 475.692
23.93000 481.405
23.94000 489.743
23.95000 496.711
23.96000 492.217
23.97000 487.324
23.98000 483.744
23.99000 484.092
24.00000 484.703
24.01000 486.080
24.02000 488.991
24.03000 491.946
24.04000 493.636
24.05000 489.203
24.06000 486.093
24.07000 486.126
24.08000 488.821
24.09000 491.348
24.10000 485.583
24.11000 475.207
24.12000 465.230
24.13000 462.374
24.14000 462.185
24.15000 462.673
24.16000 469.580
24.17000 478.078
24.18000 485.879
24.19000 489.687
24.20000 492.861
24.21000 495.406
24.22000 491.579
24.23000 487.998
24.24000 485.426
24.25000 485.353
24.26000 485.396
24.27000 484.358
24.28000 481.533
24.29000 478.681
24.30000 477.203
24.31000 485.314
24.32000 490.748
24.33000 491.064
24.34000 487.850
24.35000 484.612
24.36000 480.709
24.37000 476.499
24.38000 472.524
24.39000 477.038
24.40000 483.578
24.41000 488.228
24.42000 478.954
24.43000 466.869
24.44000 457.577
24.45000 461.191
24.46000 466.421
24.47000 470.423
24.48000 475.037
24.49000 478.711
24.50000 479.349
24.51000 473.778
24.52000 468.024
24.53000 468.096
24.54000 476.065
24.55000 484.072
24.56000 486.613
24.57000 484.429
24.58000 482.299
24.59000 483.003
24.60000 485.312
24.61000 487.530
24.62000 488.029
24.63000 487.876
24.64000 487.735
24.65000 488.497
24.66000 489.387
24.67000 489.605
24.68000 485.898
24.69000 481.554
24.70000 478.642
24.71000 481.138
24.72000 484.154
24.73000 486.342
24.74000 474.239
24.75000 464.406
24.76000 462.169
24.77000 472.740
24.78000 483.518
24.79000 487.406
24.80000 483.718
24.81000 480.041
24.82000 478.871
24.83000 479.458
24.84000 480.046
24.85000 480.643
24.86000 481.246
24.87000 481.731
24.88000 480.649
24.89000 479.076
24.90000 477.659
24.91000 473.650
24.92000 469.664
24.93000 466.091
24.94000 464.463
24.95000 463.084
24.96000 461.598
24.97000 459.776
24.98000 457.930
24.99000 456.670
25.00000 466.408
25.01000 473.945
25.02000 476.120
25.03000 470.880
25.04000 465.600
25.05000 467.992
25.06000 477.159
25.07000 486.225
25.08000 484.362
25.09000 476.377
25.10000 468.636
25.11000 465.662
25.12000 464.533
25.13000 463.889
25.14000 468.092
25.15000 473.544
25.16000 478.313
25.17000 475.130
25.18000 471.273
25.19000 469.306
25.20000 474.618
25.21000 480.649
25.22000 482.997
25.23000 475.897
25.24000 468.320
25.25000 463.501
25.26000 457.585
25.27000 453.273
25.28000 451.266
25.29000 451.847
25.30000 452.473
25.31000 459.591
25.32000 471.368
25.33000 482.897
25.34000 480.092
25.35000 470.834
25.36000 462.416
25.37000 465.618
25.38000 472.535
25.39000 478.404
25.40000 476.193
25.41000 472.283
25.42000 468.979
25.43000 467.276
25.44000 466.028
25.45000 463.634
25.46000 457.613
25.47000 451.325
25.48000 449.919
25.49000 458.875
25.50000 468.170
25.51000 473.625
25.52000 477.607
25.53000 480.406
25.54000 482.016
25.55000 482.553
25.56000 483.022
25.57000 479.326
25.58000 473.179
25.59000 467.242
25.60000 463.575
25.61000 460.963
25.62000 458.533
25.63000 457.968
25.64000 457.894
25.65000 458.119
25.66000 460.178
25.67000 462.547
25.68000 464.471
25.69000 471.997
25.70000 478.600
25.71000 479.745
25.72000 466.623
25.73000 452.755
25.74000 445.687
25.75000 450.530
25.76000 455.594
25.77000 458.300
25.78000 461.743
25.79000 464.072
25.80000 463.232
25.81000 460.070
25.82000 456.988
25.83000 456.496
25.84000 457.264
25.85000 457.993
25.86000 459.237
25.87000 460.541
25.88000 461.523
25.89000 459.963
25.90000 457.858
25.91000 455.819
25.92000 454.105
25.93000 452.436
25.94000 451.140
25.95000 454.757
25.96000 457.930
25.97000 459.222
25.98000 456.447
25.99000 453.532
26.00000 455.093
26.01000 463.092
26.02000 471.141
26.03000 471.172
26.04000 463.820
26.05000 456.487
26.06000 450.381
26.07000 445.012
26.08000 440.050
26.09000 443.714
26.10000 450.842
26.11000 457.476
26.12000 453.214
26.13000 446.725
26.14000 441.322
26.15000 442.699
26.16000 445.251
26.17000 447.081
26.18000 446.019
26.19000 444.655
26.20000 443.650
26.21000 450.818
26.22000 456.713
26.23000 459.224
26.24000 455.693
26.25000 452.043
26.26000 448.596
26.27000 445.386
26.28000 442.187
26.29000 447.367
26.30000 458.720
26.31000 469.649
26.32000 465.743
26.33000 454.498
26.34000 444.040
26.35000 445.196
26.36000 450.208
26.37000 454.760
26.38000 455.806
26.39000 456.052
26.40000 457.093
26.41000 462.121
26.42000 467.699
26.43000 470.167
26.44000 462.411
26.45000 453.854
26.46000 447.904
26.47000 439.678
26.48000 433.416
26.49000 432.380
26.50000 439.013
26.51000 445.713
26.52000 450.384
26.53000 453.145
26.54000 455.882
26.55000 456.991
26.56000 457.102
26.57000 456.962
26.58000 451.274
26.59000 443.317
26.60000 436.308
26.61000 439.601
26.62000 445.709
26.63000 451.099
26.64000 440.524
26.65000 428.959
26.66000 420.399
26.67000 424.111
26.68000 429.137
26.69000 434.714
26.70000 441.790
26.71000 448.950
26.72000 453.604
26.73000 444.645
26.74000 437.870
26.75000 436.440
26.76000 441.400
26.77000 446.362
26.78000 449.194
26.79000 450.401
26.80000 451.587
26.81000 454.765
26.82000 458.803
26.83000 462.621
26.84000 463.099
26.85000 462.447
26.86000 461.374
26.87000 456.800
26.88000 451.443
26.89000 446.868
26.90000 451.395
26.91000 456.289
26.92000 458.042
26.93000 449.269
26.94000 439.645
26.95000 433.134
26.96000 433.609
26.97000 434.346
26.98000 434.789
26.99000 442.504
27.00000 448.041
27.01000 448.852
27.02000 445.118
27.03000 441.376
27.04000 437.057
27.05000 432.378
27.06000 427.838
27.07000 430.767
27.08000 436.495
27.09000 442.171
27.10000 447.262
27.11000 452.190
27.12000 456.233
27.13000 454.492
27.14000 451.704
27.15000 449.411
27.16000 443.164
27.17000 437.673
27.18000 431.643
27.19000 424.124
27.20000 416.517
27.21000 414.433
27.22000 422.589
27.23000 430.974
27.24000 435.587
27.25000 436.820
27.26000 437.674
27.27000 441.239
27.28000 446.913
27.29000 452.303
27.30000 446.703
27.31000 435.456
27.32000 424.716
27.33000 424.379
27.34000 427.398
27.35000 429.916
27.36000 428.173
27.37000 425.458
27.38000 424.606
27.39000 433.502
27.40000 443.805
27.41000 451.916
27.42000 448.237
27.43000 444.505
27.44000 438.920
27.45000 429.099
27.46000 419.111
27.47000 416.515
27.48000 425.198
27.49000 434.001
27.50000 441.288
27.51000 447.084
27.52000 452.795
27.53000 451.513
27.54000 445.786
27.55000 440.521
27.56000 446.304
27.57000 456.780
27.58000 466.592
27.59000 457.368
27.60000 444.062
27.61000 432.640
27.62000 433.801
27.63000 437.290
27.64000 438.476
27.65000 429.884
27.66000 420.189
27.67000 412.926
27.68000 419.480
27.69000 425.247
27.70000 428.660
27.71000 427.625
27.72000 426.485
27.73000 424.055
27.74000 420.019
27.75000 415.986
27.76000 418.105
27.77000 425.071
27.78000 431.934
27.79000 434.545
27.80000 434.931
27.81000 435.220
27.82000 433.943
27.83000 432.116
27.84000 430.445
27.85000 433.450
27.86000 437.092
27.87000 438.921
27.88000 431.066
27.89000 421.781
27.90000 415.519
27.91000 419.787
27.92000 424.956
27.93000 428.615
27.94000 431.288
27.95000 433.288
27.96000 433.096
27.97000 429.494
27.98000 425.853
27.99000 429.776
28.00000 441.298
28.01000 452.743
28.02000 454.708
28.03000 450.591
28.04000 446.445
28.05000 441.531
28.06000 436.287
28.07000 430.764
28.08000 421.956
28.09000 412.196
28.10000 403.506
28.11000 414.464
28.12000 427.209
28.13000 436.970
28.14000 433.804
28.15000 429.142
28.16000 425.828
28.17000 426.387
28.18000 427.186
28.19000 427.716
28.20000 425.352
28.21000 423.550
28.22000 424.166
28.23000 427.854
28.24000 431.543
28.25000 431.566
28.26000 428.621
28.27000 425.719
28.28000 424.401
28.29000 423.941
28.30000 423.428
28.31000 422.006
28.32000 420.259
28.33000 418.669
28.34000 418.483
28.35000 418.630
28.36000 418.757
28.37000 421.694
28.38000 424.546
28.39000 425.544
28.40000 419.960
28.41000 413.796
28.42000 410.340
28.43000 413.311
28.44000 416.555
28.45000 418.555
28.46000 413.167
28.47000 409.234
28.48000 411.782
28.49000 420.984
28.50000 430.117
28.51000 432.365
28.52000 430.062
28.53000 427.820
28.54000 423.712
28.55000 419.012
28.56000 414.303
28.57000 409.488
28.58000 404.642
28.59000 400.482
28.60000 401.122
28.61000 402.687
28.62000 403.989
28.63000 408.991
28.64000 413.494
28.65000 416.077
28.66000 413.045
28.67000 409.651
28.68000 408.588
28.69000 412.101
28.70000 415.735
28.71000 417.791
28.72000 416.309
28.73000 415.266
28.74000 413.567
28.75000 411.324
28.76000 409.157
28.77000 410.500
28.78000 413.752
28.79000 416.872
28.80000 417.743
28.81000 417.791
28.82000 417.755
28.83000 416.955
28.84000 415.971
28.85000 415.405
28.86000 417.173
28.87000 419.302
28.88000 421.001
28.89000 405.934
28.90000 392.546
28.91000 387.731
28.92000 403.647
28.93000 420.484
28.94000 429.803
28.95000 426.965
28.96000 423.961
28.97000 422.423
28.98000 411.152
28.99000 403.633
29.00000 402.142
29.01000 404.714
29.02000 407.281
29.03000 409.698
29.04000 412.048
29.05000 414.262
29.06000 412.102
29.07000 408.920
29.08000 406.567
29.09000 410.145
29.10000 414.892
29.11000 416.261
29.12000 402.391
29.13000 386.667
29.14000 374.706
29.15000 395.210
29.16000 413.041
29.17000 424.430
29.18000 422.940
29.19000 421.091
29.20000 416.139
29.21000 407.078
29.22000 398.007
29.23000 395.996
29.24000 399.931
29.25000 403.833
29.26000 406.111
29.27000 407.489
29.28000 408.965
29.29000 412.198
29.30000 416.084
29.31000 419.666
29.32000 412.778
29.33000 404.296
29.34000 397.586
29.35000 400.973
29.36000 405.956
29.37000 410.573
29.38000 413.842
29.39000 416.986
29.40000 419.250
29.41000 419.914
29.42000 420.366
29.43000 419.593
29.44000 416.803
29.45000 413.983
29.46000 414.020
29.47000 417.122
29.48000 420.209
29.49000 416.243
29.50000 407.533
29.51000 399.014
29.52000 395.927
29.53000 395.325
29.54000 394.604
29.55000 392.349
29.56000 389.623
29.57000 387.175
29.58000 392.883
29.59000 399.311
29.60000 405.440
29.61000 410.187
29.62000 414.762
29.63000 417.975
29.64000 417.052
29.65000 415.845
29.66000 415.027
29.67000 412.679
29.68000 410.896
29.69000 411.651
29.70000 415.835
29.71000 420.029
29.72000 418.431
29.73000 411.841
29.74000 405.331
29.75000 409.650
29.76000 419.822
29.77000 429.207
29.78000 423.853
29.79000 412.920
29.80000 403.100
29.81000 404.060
29.82000 407.735
29.83000 410.937
29.84000 413.959
29.85000 416.516
29.86000 419.615
29.87000 424.751
29.88000 430.081
29.89000 431.914
29.90000 424.966
29.91000 417.597
29.92000 412.950
29.93000 412.000
29.94000 411.356
29.95000 412.471
29.96000 415.514
29.97000 418.519
29.98000 416.216
29.99000 410.195
30.00000 404.308
30.01000 411.619
30.02000 424.525
30.03000 436.280
30.04000 432.698
30.05000 424.322
30.06000 416.817
30.07000 415.848
30.08000 416.221
30.09000 416.535
30.10000 428.441
30.11000 439.603
30.12000 446.320
30.13000 439.281
30.14000 431.265
30.15000 425.300
30.16000 423.590
30.17000 422.012
30.18000 421.095
30.19000 409.995
30.20000 402.163
30.21000 399.343
30.22000 400.932
30.23000 402.592
30.24000 408.205
30.25000 416.092
30.26000 423.698
30.27000 424.118
30.28000 421.907
30.29000 419.523
30.30000 415.410
30.31000 410.854
30.32000 406.167
30.33000 400.698
30.34000 395.100
30.35000 390.577
30.36000 394.156
30.37000 397.715
30.38000 401.542
30.39000 406.050
30.40000 410.593
30.41000 411.304
30.42000 405.454
30.43000 399.492
30.44000 396.343
30.45000 395.312
30.46000 394.619
30.47000 394.851
30.48000 395.744
30.49000 396.807
30.50000 403.201
30.51000 412.126
30.52000 420.585
30.53000 414.859
30.54000 405.422
30.55000 397.260
30.56000 398.894
30.57000 402.582
30.58000 405.755
30.59000 406.457
30.60000 406.836
30.61000 407.129
30.62000 408.018
30.63000 408.758
30.64000 411.440
30.65000 418.230
30.66000 425.153
30.67000 427.253
30.68000 422.574
30.69000 417.850
30.70000 417.256
30.71000 420.371
30.72000 423.398
30.73000 421.145
30.74000 415.795
30.75000 410.579
30.76000 408.061
30.77000 406.601
30.78000 405.247
30.79000 420.000
30.80000 437.099
30.81000 452.277
30.82000 455.777
30.83000 457.304
30.84000 457.487
30.85000 452.416
30.86000 446.814
30.87000 442.710
30.88000 444.822
30.89000 446.702
30.90000 447.491
30.91000 446.377
30.92000 445.228
30.93000 448.758
30.94000 457.636
30.95000 466.489
30.96000 471.292
30.97000 473.127
30.98000 475.252
30.99000 486.915
31.00000 503.193
31.01000 518.562
31.02000 521.014
31.03000 519.275
31.04000 517.701
31.05000 532.951
31.06000 549.554
31.07000 568.285
31.08000 597.436
31.09000 627.983
31.10000 655.641
31.11000 674.013
31.12000 691.683
31.13000 703.878
31.14000 751.994
31.15000 789.064
31.16000 824.977
31.17000 859.232
31.18000 893.473
31.19000 926.052
31.20000 957.107
31.21000 987.861
31.22000 1032.973
31.23000 1085.551
31.24000 1138.331
31.25000 1195.372
31.26000 1254.117
31.27000 1311.345
31.28000 1352.635
31.29000 1389.667
31.30000 1422.233
31.31000 1470.406
31.32000 1514.172
31.33000 1554.628
31.34000 1581.879
31.35000 1607.758
31.36000 1630.694
31.37000 1645.817
31.38000 1660.520
31.39000 1669.997
31.40000 1688.534
31.41000 1702.201
31.42000 1703.787
31.43000 1691.282
31.44000 1678.638
31.45000 1643.739
31.46000 1592.284
31.47000 1541.807
31.48000 1509.090
31.49000 1486.002
31.50000 1461.351
31.51000 1413.814
31.52000 1358.709
31.53000 1304.000
31.54000 1252.495
31.55000 1201.690
31.56000 1158.486
31.57000 1109.601
31.58000 1067.891
31.59000 1025.146
31.60000 979.012
31.61000 932.615
31.62000 887.455
31.63000 845.010
31.64000 802.662
31.65000 777.427
31.66000 751.342
31.67000 732.850
31.68000 709.741
31.69000 682.304
31.70000 654.923
31.71000 631.361
31.72000 610.127
31.73000 589.562
31.74000 567.320
31.75000 545.635
31.76000 525.948
31.77000 527.852
31.78000 535.636
31.79000 540.896
31.80000 530.107
31.81000 516.487
31.82000 505.342
31.83000 489.128
31.84000 475.400
31.85000 464.236
31.86000 460.005
31.87000 456.160
31.88000 449.949
31.89000 439.449
31.90000 428.860
31.91000 423.099
31.92000 426.727
31.93000 429.206
31.94000 426.766
31.95000 420.593
31.96000 414.628
31.97000 416.249
31.98000 421.682
31.99000 426.859
32.00000 428.198
32.01000 428.239
32.02000 428.201
32.03000 427.506
32.04000 426.665
32.05000 424.673
32.06000 416.808
32.07000 408.119
32.08000 401.315
32.09000 400.717
32.10000 400.638
32.11000 400.742
32.12000 401.255
32.13000 401.783
32.14000 402.428
32.15000 403.247
32.16000 404.068
32.17000 398.546
32.18000 386.951
32.19000 375.501
32.20000 374.852
32.21000 380.913
32.22000 386.960
32.23000 392.669
32.24000 398.237
32.25000 403.439
32.26000 400.961
32.27000 396.779
32.28000 392.800
32.29000 390.143
32.30000 387.723
32.31000 385.847
32.32000 386.226
32.33000 386.851
32.34000 387.317
32.35000 378.302
32.36000 370.861
32.37000 368.151
32.38000 374.185
32.39000 380.411
32.40000 383.374
32.41000 382.371
32.42000 381.360
32.43000 382.925
32.44000 386.466
32.45000 389.952
32.46000 391.351
32.47000 391.682
32.48000 391.730
32.49000 387.342
32.50000 381.430
32.51000 376.036
32.52000 375.003
32.53000 374.965
32.54000 374.331
32.55000 370.584
32.56000 366.391
32.57000 364.531
32.58000 370.611
32.59000 377.347
32.60000 382.083
32.61000 376.227
32.62000 371.478
32.63000 368.247
32.64000 367.322
32.65000 366.421
32.66000 365.840
32.67000 365.573
32.68000 365.308
32.69000 370.017
32.70000 377.745
32.71000 385.147
32.72000 384.836
32.73000 381.261
32.74000 377.819
32.75000 375.906
32.76000 374.424
32.77000 373.110
32.78000 380.482
32.79000 388.256
32.80000 394.188
32.81000 392.322
32.82000 389.582
32.83000 390.739
32.84000 402.840
32.85000 415.595
32.86000 423.993
32.87000 433.938
32.88000 441.290
32.89000 444.416
32.90000 442.299
32.91000 440.165
32.92000 437.256
32.93000 433.734
32.94000 430.269
32.95000 428.675
32.96000 428.076
32.97000 427.746
32.98000 431.776
32.99000 437.332
33.00000 442.002
33.01000 438.981
33.02000 434.177
33.03000 430.049
33.04000 419.434
33.05000 409.647
33.06000 399.335
33.07000 387.200
33.08000 374.909
33.09000 366.893
33.10000 368.799
33.11000 371.108
33.12000 372.518
33.13000 374.600
33.14000 376.095
33.15000 374.787
33.16000 370.674
33.17000 366.558
33.18000 362.211
33.19000 357.715
33.20000 353.342
33.21000 352.619
33.22000 353.427
33.23000 353.825
33.24000 349.396
33.25000 343.574
33.26000 339.087
33.27000 343.682
33.28000 349.985
33.29000 355.205
33.30000 349.241
33.31000 343.255
33.32000 339.481
33.33000 342.032
33.34000 344.975
33.35000 348.526
33.36000 353.247
33.37000 357.997
33.38000 360.655
33.39000 348.883
33.40000 340.709
33.41000 338.267
33.42000 340.449
33.43000 342.639
33.44000 345.234
33.45000 348.044
33.46000 350.735
33.47000 347.262
33.48000 341.973
33.49000 336.849
33.50000 333.202
33.51000 329.904
33.52000 328.058
33.53000 334.109
33.54000 341.349
33.55000 347.095
33.56000 347.728
33.57000 347.878
33.58000 345.836
33.59000 338.611
33.60000 331.167
33.61000 329.166
33.62000 335.767
33.63000 342.475
33.64000 345.866
33.65000 347.043
33.66000 347.841
33.67000 349.662
33.68000 352.156
33.69000 354.322
33.70000 348.000
33.71000 337.951
33.72000 328.504
33.73000 325.440
33.74000 324.358
33.75000 323.863
33.76000 327.462
33.77000 331.848
33.78000 335.924
33.79000 338.634
33.80000 341.184
33.81000 343.112
33.82000 336.705
33.83000 331.261
33.84000 327.489
33.85000 326.987
33.86000 326.570
33.87000 324.526
33.88000 320.379
33.89000 316.229
33.90000 317.033
33.91000 321.899
33.92000 326.642
33.93000 325.728
33.94000 321.750
33.95000 317.943
33.96000 317.106
33.97000 317.346
33.98000 317.567
33.99000 319.115
34.00000 320.783
34.01000 322.922
34.02000 327.679
34.03000 332.838
34.04000 335.496
34.05000 329.140
34.06000 321.971
34.07000 316.842
34.08000 321.738
34.09000 325.815
34.10000 328.397
34.11000 328.570
34.12000 328.711
34.13000 326.883
34.14000 322.998
34.15000 319.134
34.16000 320.645
34.17000 325.699
34.18000 330.622
34.19000 332.024
34.20000 331.851
34.21000 331.624
34.22000 330.713
34.23000 329.598
34.24000 328.600
34.25000 322.195
34.26000 315.682
34.27000 311.785
34.28000 319.643
34.29000 328.925
34.30000 334.756
34.31000 330.336
34.32000 325.238
34.33000 321.813
34.34000 323.101
34.35000 324.153
34.36000 326.347
34.37000 330.044
34.38000 333.740
34.39000 333.209
34.40000 329.124
34.41000 325.094
34.42000 318.680
34.43000 311.159
34.44000 304.173
34.45000 306.787
34.46000 312.955
34.47000 318.569
34.48000 318.969
34.49000 318.087
34.50000 317.322
34.51000 308.901
34.52000 300.699
34.53000 296.133
34.54000 304.926
34.55000 314.958
34.56000 321.160
34.57000 317.964
34.58000 314.337
34.59000 312.070
34.60000 316.981
34.61000 320.600
34.62000 324.113
34.63000 327.513
34.64000 330.873
34.65000 329.751
34.66000 325.560
34.67000 321.469
34.68000 322.870
34.69000 326.605
34.70000 329.828
34.71000 326.458
34.72000 321.073
34.73000 316.178
34.74000 314.854
34.75000 314.244
34.76000 313.734
34.77000 319.772
34.78000 325.468
34.79000 330.331
34.80000 332.673
34.81000 334.842
34.82000 332.860
34.83000 322.450
34.84000 311.795
34.85000 305.670
34.86000 312.840
34.87000 317.902
34.88000 321.324
34.89000 323.338
34.90000 325.277
34.91000 323.348
34.92000 319.243
34.93000 315.292
34.94000 316.905
34.95000 320.386
34.96000 323.404
34.97000 321.957
34.98000 319.390
34.99000 317.395
35.00000 318.720
35.01000 320.580
35.02000 322.076
35.03000 321.405
35.04000 320.695
35.05000 318.793
35.06000 313.913
35.07000 308.890
35.08000 305.969
35.09000 306.565
35.10000 307.217
35.11000 307.557
35.12000 308.132
35.13000 308.551
35.14000 312.698
35.15000 319.449
35.16000 326.011
35.17000 327.009
35.18000 325.423
35.19000 323.924
35.20000 319.231
35.21000 314.006
35.22000 309.833
35.23000 313.521
35.24000 318.816
35.25000 323.849
35.26000 327.654
35.27000 331.302
35.28000 334.102
35.29000 330.102
35.30000 326.561
35.31000 323.154
35.32000 320.021
35.33000 316.897
35.34000 313.508
35.35000 309.757
35.36000 306.006
35.37000 309.906
35.38000 320.492
35.39000 330.846
35.40000 328.464
35.41000 318.778
35.42000 309.663
35.43000 311.598
35.44000 317.777
35.45000 323.497
35.46000 313.544
35.47000 300.992
35.48000 291.220
35.49000 297.922
35.50000 307.336
35.51000 314.174
35.52000 311.172
35.53000 307.206
35.54000 304.319
35.55000 311.213
35.56000 316.893
35.57000 319.845
35.58000 318.139
35.59000 316.356
35.60000 315.746
35.61000 316.446
35.62000 317.143
35.63000 317.991
35.64000 318.936
35.65000 319.780
35.66000 317.489
35.67000 313.716
35.68000 310.488
35.69000 314.720
35.70000 321.319
35.71000 327.274
35.72000 316.889
35.73000 304.770
35.74000 294.272
35.75000 291.517
35.76000 289.770
35.77000 289.267
35.78000 292.676
35.79000 296.369
35.80000 298.900
35.81000 299.382
35.82000 299.694
35.83000 300.478
35.84000 301.922
35.85000 303.367
35.86000 300.824
35.87000 294.713
35.88000 288.666
35.89000 291.973
35.90000 300.550
35.91000 308.505
35.92000 303.993
35.93000 294.602
35.94000 286.529
35.95000 291.866
35.96000 300.702
35.97000 308.444
35.98000 311.043
35.99000 312.531
36.00000 311.969
36.01000 303.423
36.02000 294.073
36.03000 288.114
36.04000 290.959
36.05000 294.257
36.06000 296.365
36.07000 293.127
36.08000 290.700
36.09000 291.599
36.10000 296.283
36.11000 300.942
36.12000 300.911
36.13000 297.473
36.14000 294.105
36.15000 292.508
36.16000 291.792
36.17000 291.710
36.18000 300.558
36.19000 312.294
36.20000 321.931
36.21000 315.104
36.22000 304.770
36.23000 296.020
36.24000 298.639
36.25000 302.103
36.26000 302.930
36.27000 295.314
36.28000 287.063
36.29000 282.334
36.30000 285.164
36.31000 288.248
36.32000 290.067
36.33000 296.862
36.34000 301.685
36.35000 303.503
36.36000 302.574
36.37000 301.675
36.38000 302.639
36.39000 304.714
36.40000 306.720
36.41000 308.351
36.42000 309.750
36.43000 310.478
36.44000 304.205
36.45000 296.069
36.46000 289.754
36.47000 294.710
36.48000 301.603
36.49000 307.217
36.50000 304.165
36.51000 300.941
36.52000 298.802
36.53000 299.536
36.54000 300.423
36.55000 299.392
36.56000 294.960
36.57000 290.464
36.58000 288.045
36.59000 294.976
36.60000 299.714
36.61000 303.043
36.62000 305.330
36.63000 307.489
36.64000 305.305
36.65000 300.985
36.66000 296.878
36.67000 294.782
36.68000 293.457
36.69000 292.281
36.70000 292.294
36.71000 292.565
36.72000 293.383
36.73000 296.920
36.74000 300.829
36.75000 303.872
36.76000 297.307
36.77000 291.486
36.78000 287.485
36.79000 287.466
36.80000 287.587
36.81000 291.079
36.82000 299.478
36.83000 307.918
36.84000 308.967
36.85000 303.118
36.86000 297.373
36.87000 298.682
36.88000 304.274
36.89000 309.792
36.90000 313.709
36.91000 316.975
36.92000 320.019
36.93000 316.671
36.94000 312.071
36.95000 308.580
36.96000 312.108
36.97000 316.869
36.98000 321.242
36.99000 324.040
37.00000 326.671
37.01000 328.617
37.02000 322.969
37.03000 318.260
37.04000 315.335
37.05000 315.633
37.06000 315.998
37.07000 314.479
37.08000 310.726
37.09000 306.979
37.10000 301.744
37.11000 295.427
37.12000 289.430
37.13000 294.979
37.14000 306.309
37.15000 316.569
37.16000 310.737
37.17000 299.501
37.18000 289.281
37.19000 297.227
37.20000 307.821
37.21000 316.226
37.22000 313.499
37.23000 309.215
37.24000 306.788
37.25000 310.538
37.26000 314.782
37.27000 317.743
37.28000 303.429
37.29000 292.140
37.30000 285.375
37.31000 285.329
37.32000 285.347
37.33000 287.988
37.34000 293.132
37.35000 298.233
37.36000 301.054
37.37000 302.439
37.38000 303.545
37.39000 298.340
37.40000 290.524
37.41000 283.756
37.42000 288.568
37.43000 296.584
37.44000 303.672
37.45000 299.886
37.46000 294.929
37.47000 290.866
37.48000 290.504
37.49000 290.545
37.50000 290.836
37.51000 291.816
37.52000 292.836
37.53000 293.502
37.54000 292.693
37.55000 292.076
37.56000 292.342
37.57000 293.678
37.58000 295.007
37.59000 294.006
37.60000 291.206
37.61000 288.454
37.62000 289.978
37.63000 293.559
37.64000 297.027
37.65000 298.750
37.66000 299.876
37.67000 300.720
37.68000 299.190
37.69000 297.123
37.70000 295.353
37.71000 291.635
37.72000 288.262
37.73000 286.409
37.74000 289.708
37.75000 293.430
37.76000 297.170
37.77000 300.952
37.78000 304.736
37.79000 307.024
37.80000 311.818
37.81000 315.252
37.82000 310.051
37.83000 296.432
37.84000 282.973
37.85000 282.234
37.86000 289.522
37.87000 296.598
37.88000 300.720
37.89000 303.450
37.90000 305.593
37.91000 301.068
37.92000 294.662
37.93000 289.846
37.94000 295.560
37.95000 303.205
37.96000 309.506
37.97000 307.432
37.98000 304.956
37.99000 302.194
38.00000 298.634
38.01000 295.027
38.02000 294.238
38.03000 298.737
38.04000 303.358
38.05000 305.916
38.06000 300.426
38.07000 296.626
38.08000 293.923
38.09000 292.084
38.10000 290.341
38.11000 292.458
38.12000 296.580
38.13000 300.521
38.14000 299.977
38.15000 298.017
38.16000 296.994
38.17000 304.086
38.18000 313.053
38.19000 319.848
38.20000 315.134
38.21000 308.734
38.22000 303.682
38.23000 306.909
38.24000 310.062
38.25000 314.647
38.26000 322.544
38.27000 330.576
38.28000 332.937
38.29000 326.544
38.30000 320.052
38.31000 324.365
38.32000 339.444
38.33000 354.405
38.34000 359.245
38.35000 357.574
38.36000 356.265
38.37000 363.867
38.38000 375.296
38.39000 386.013
38.40000 399.337
38.41000 412.152
38.42000 424.295
38.43000 431.875
38.44000 438.600
38.45000 450.047
38.46000 481.803
38.47000 515.886
38.48000 541.503
38.49000 573.177
38.50000 598.233
38.51000 628.463
38.52000 668.585
38.53000 708.949
38.54000 756.231
38.55000 812.241
38.56000 868.190
38.57000 916.277
38.58000 957.873
38.59000 999.813
38.60000 1056.326
38.61000 1120.558
38.62000 1184.288
38.63000 1239.660
38.64000 1292.062
38.65000 1340.086
38.66000 1392.875
38.67000 1440.885
38.68000 1485.982
38.69000 1515.302
38.70000 1542.258
38.71000 1570.574
38.72000 1603.686
38.73000 1637.215
38.74000 1661.041
38.75000 1655.546
38.76000 1650.427
38.77000 1635.320
38.78000 1604.486
38.79000 1573.459
38.80000 1530.823
38.81000 1476.362
38.82000 1422.247
38.83000 1370.966
38.84000 1322.260
38.85000 1273.867
38.86000 1233.509
38.87000 1196.667
38.88000 1157.588
38.89000 1091.569
38.90000 1017.656
38.91000 951.724
38.92000 897.734
38.93000 852.746
38.94000 807.014
38.95000 758.014
38.96000 708.630
38.97000 659.295
38.98000 610.106
38.99000 560.925
39.00000 528.146
39.01000 491.828
39.02000 464.874
39.03000 442.292
39.04000 425.341
39.05000 408.419
39.06000 394.530
39.07000 383.129
39.08000 371.889
39.09000 361.354
39.10000 351.492
39.11000 341.798
39.12000 335.019
39.13000 329.295
39.14000 324.235
39.15000 325.229
39.16000 327.677
39.17000 329.794
39.18000 324.196
39.19000 318.436
39.20000 312.962
39.21000 308.514
39.22000 304.158
39.23000 301.848
39.24000 304.452
39.25000 307.270
39.26000 309.015
39.27000 300.563
39.28000 294.388
39.29000 286.887
39.30000 278.004
39.31000 269.196
39.32000 268.079
39.33000 272.107
39.34000 276.033
39.35000 279.826
39.36000 283.389
39.37000 286.657
39.38000 286.265
39.39000 284.779
39.40000 283.510
39.41000 283.776
39.42000 284.342
39.43000 284.814
39.44000 288.652
39.45000 292.171
39.46000 293.924
39.47000 290.454
39.48000 286.641
39.49000 282.709
39.50000 278.540
39.51000 274.365
39.52000 271.990
39.53000 271.938
39.54000 271.908
39.55000 271.620
39.56000 271.115
39.57000 270.587
39.58000 268.933
39.59000 266.659
39.60000 264.474
39.61000 268.117
39.62000 273.538
39.63000 278.353
39.64000 277.502
39.65000 275.262
39.66000 273.422
39.67000 273.850
39.68000 274.634
39.69000 275.261
39.70000 281.114
39.71000 286.235
39.72000 289.362
39.73000 287.613
39.74000 285.642
39.75000 282.059
39.76000 275.838
39.77000 269.580
39.78000 266.355
39.79000 276.485
39.80000 283.221
39.81000 279.846
39.82000 269.575
39.83000 259.643
39.84000 259.184
39.85000 263.030
39.86000 266.658
39.87000 266.343
39.88000 264.954
39.89000 263.704
39.90000 263.472
39.91000 263.443
39.92000 263.014
39.93000 260.763
39.94000 258.286
39.95000 256.397
39.96000 259.894
39.97000 262.938
39.98000 264.180
39.99000 261.778
40.00000 259.270
40.01000 258.001
40.02000 258.390
40.03000 258.787
40.04000 258.547
40.05000 257.763
40.06000 257.075
40.07000 261.235
40.08000 268.113
40.09000 274.366
40.10000 269.044
40.11000 259.374
40.12000 250.448
40.13000 254.464
40.14000 260.965
40.15000 266.253
40.16000 264.541
40.17000 261.706
40.18000 259.740
40.19000 261.018
40.20000 262.603
40.21000 263.749
40.22000 267.176
40.23000 269.888
40.24000 268.476
40.25000 260.186
40.26000 251.788
40.27000 248.160
40.28000 249.712
40.29000 251.259
40.30000 252.018
40.31000 252.227
40.32000 252.446
40.33000 252.923
40.34000 253.521
40.35000 254.228
40.36000 256.376
40.37000 258.972
40.38000 261.307
40.39000 260.834
40.40000 259.918
40.41000 259.142
40.42000 259.022
40.43000 258.985
40.44000 258.956
40.45000 258.953
40.46000 258.951
40.47000 258.950
40.48000 254.494
40.49000 251.067
40.50000 250.498
40.51000 253.839
40.52000 257.199
40.53000 256.516
40.54000 252.307
40.55000 248.147
40.56000 250.613
40.57000 256.715
40.58000 262.412
40.59000 260.341
40.60000 255.295
40.61000 250.455
40.62000 247.636
40.63000 245.332
40.64000 243.322
40.65000 247.444
40.66000 251.830
40.67000 255.527
40.68000 256.598
40.69000 257.414
40.70000 258.913
40.71000 262.148
40.72000 265.469
40.73000 267.573
40.74000 262.140
40.75000 258.108
40.76000 252.197
40.77000 244.202
40.78000 236.269
40.79000 237.193
40.80000 244.403
40.81000 251.456
40.82000 253.112
40.83000 252.258
40.84000 251.430
40.85000 250.948
40.86000 250.575
40.87000 250.212
40.88000 249.927
40.89000 249.659
40.90000 249.432
40.91000 251.459
40.92000 253.396
40.93000 254.322
40.94000 252.083
40.95000 249.614
40.96000 246.578
40.97000 242.349
40.98000 238.082
40.99000 235.590
41.00000 246.936
41.01000 254.977
41.02000 256.558
41.03000 252.381
41.04000 248.229
41.05000 245.495
41.06000 243.588
41.07000 241.747
41.08000 240.176
41.09000 238.796
41.10000 237.494
41.11000 236.980
41.12000 236.672
41.13000 236.843
41.14000 239.914
41.15000 243.470
41.16000 246.352
41.17000 247.551
41.18000 248.391
41.19000 247.908
41.20000 244.006
41.21000 239.929
41.22000 240.078
41.23000 247.550
41.24000 255.152
41.25000 259.193
41.26000 245.780
41.27000 236.695
41.28000 236.360
41.29000 242.358
41.30000 248.218
41.31000 249.609
41.32000 248.853
41.33000 248.135
41.34000 245.415
41.35000 242.310
41.36000 239.275
41.37000 236.789
41.38000 234.419
41.39000 233.838
41.40000 241.946
41.41000 251.208
41.42000 258.379
41.43000 254.708
41.44000 251.150
41.45000 251.066
41.46000 258.413
41.47000 266.008
41.48000 264.798
41.49000 251.062
41.50000 237.236
41.51000 231.872
41.52000 234.210
41.53000 236.498
41.54000 235.706
41.55000 233.084
41.56000 230.477
41.57000 228.168
41.58000 225.976
41.59000 223.940
41.60000 231.545
41.61000 240.714
41.62000 248.586
41.63000 248.456
41.64000 246.955
41.65000 246.258
41.66000 248.745
41.67000 251.560
41.68000 253.629
41.69000 249.406
41.70000 245.882
41.71000 242.882
41.72000 240.807
41.73000 238.749
41.74000 239.754
41.75000 244.303
41.76000 248.843
41.77000 249.777
41.78000 248.063
41.79000 246.363
41.80000 245.145
41.81000 244.163
41.82000 243.216
41.83000 242.769
41.84000 242.487
41.85000 242.231
41.86000 239.317
41.87000 236.237
41.88000 233.582
41.89000 233.030
41.90000 232.764
41.91000 232.814
41.92000 233.891
41.93000 235.047
41.94000 235.848
41.95000 235.612
41.96000 235.408
41.97000 235.646
41.98000 236.526
41.99000 237.411
42.00000 235.498
42.01000 230.981
42.02000 226.507
42.03000 226.661
42.04000 229.556
42.05000 232.322
42.06000 232.308
42.07000 231.168
42.08000 230.311
42.09000 232.478
42.10000 235.463
42.11000 238.093
42.12000 240.130
42.13000 241.797
42.14000 242.902
42.15000 241.742
42.16000 240.343
42.17000 238.907
42.18000 237.372
42.19000 235.832
42.20000 234.835
42.21000 227.285
42.22000 221.664
42.23000 220.029
42.24000 223.105
42.25000 226.198
42.26000 231.055
42.27000 237.240
42.28000 243.312
42.29000 241.821
42.30000 236.742
42.31000 231.828
42.32000 229.359
42.33000 227.708
42.34000 226.199
42.35000 225.858
42.36000 225.775
42.37000 225.705
42.38000 229.305
42.39000 232.763
42.40000 235.801
42.41000 237.445
42.42000 238.979
42.43000 238.926
42.44000 235.351
42.45000 231.646
42.46000 229.427
42.47000 226.222
42.48000 223.939
42.49000 222.730
42.50000 222.539
42.51000 222.345
42.52000 221.887
42.53000 221.268
42.54000 220.668
42.55000 223.906
42.56000 228.473
42.57000 232.796
42.58000 234.453
42.59000 235.374
42.60000 235.559
42.61000 230.997
42.62000 225.586
42.63000 221.148
42.64000 226.249
42.65000 231.284
42.66000 235.745
42.67000 238.640
42.68000 241.446
42.69000 240.398
42.70000 232.279
42.71000 224.009
42.72000 219.482
42.73000 226.716
42.74000 231.683
42.75000 231.183
42.76000 226.481
42.77000 221.945
42.78000 223.663
42.79000 228.559
42.80000 233.229
42.81000 229.078
42.82000 222.432
42.83000 216.493
42.84000 216.489
42.85000 217.823
42.86000 218.692
42.87000 217.159
42.88000 215.284
42.89000 213.812
42.90000 223.526
42.91000 232.030
42.92000 236.457
42.93000 231.663
42.94000 226.517
42.95000 224.420
42.96000 226.923
42.97000 229.472
42.98000 230.985
42.99000 231.491
43.00000 231.968
43.01000 230.122
43.02000 226.815
43.03000 223.603
43.04000 222.600
43.05000 222.524
43.06000 222.454
43.07000 219.731
43.08000 216.581
43.09000 213.676
43.10000 212.386
43.11000 211.391
43.12000 211.542
43.13000 216.507
43.14000 222.007
43.15000 226.115
43.16000 222.107
43.17000 218.608
43.18000 217.453
43.19000 220.677
43.20000 224.001
43.21000 226.165
43.22000 226.899
43.23000 227.629
43.24000 227.693
43.25000 227.238
43.26000 226.678
43.27000 221.949
43.28000 215.060
43.29000 208.867
43.30000 213.795
43.31000 222.587
43.32000 230.621
43.33000 229.869
43.34000 227.405
43.35000 226.198
43.36000 231.628
43.37000 238.025
43.38000 241.597
43.39000 235.439
43.40000 228.462
43.41000 223.539
43.42000 217.436
43.43000 212.770
43.44000 211.256
43.45000 214.591
43.46000 217.979
43.47000 218.802
43.48000 217.078
43.49000 215.367
43.50000 214.754
43.51000 214.845
43.52000 214.929
43.53000 214.836
43.54000 214.668
43.55000 214.776
43.56000 218.108
43.57000 222.362
43.58000 226.144
43.59000 222.159
43.60000 217.445
43.61000 214.315
43.62000 217.976
43.63000 222.412
43.64000 225.672
43.65000 225.592
43.66000 225.307
43.67000 225.119
43.68000 215.951
43.69000 209.026
43.70000 207.523
43.71000 212.835
43.72000 218.160
43.73000 220.648
43.74000 220.866
43.75000 221.080
43.76000 222.917
43.77000 225.529
43.78000 227.954
43.79000 227.284
43.80000 225.519
43.81000 223.450
43.82000 218.692
43.83000 213.303
43.84000 208.663
43.85000 214.293
43.86000 220.361
43.87000 224.604
43.88000 222.441
43.89000 219.723
43.90000 218.339
43.91000 220.087
43.92000 221.965
43.93000 223.118
43.94000 222.795
43.95000 222.551
43.96000 219.207
43.97000 212.719
43.98000 206.303
43.99000 206.557
44.00000 211.170
44.01000 215.659
44.02000 216.760
44.03000 216.401
44.04000 216.025
44.05000 215.448
44.06000 214.812
44.07000 214.416
44.08000 215.669
44.09000 217.236
44.10000 218.538
44.11000 222.045
44.12000 225.157
44.13000 227.230
44.14000 226.297
44.15000 225.174
44.16000 223.227
44.17000 219.680
44.18000 216.092
44.19000 214.073
44.20000 214.549
44.21000 214.884
44.22000 214.621
44.23000 213.868
44.24000 213.094
44.25000 211.391
44.26000 209.189
44.27000 207.077
44.28000 207.743
44.29000 209.299
44.30000 211.293
44.31000 217.248
44.32000 224.152
44.33000 229.437
44.34000 225.810
44.35000 220.822
44.36000 216.853
44.37000 217.206
44.38000 217.801
44.39000 216.754
44.40000 211.775
44.41000 206.626
44.42000 205.543
44.43000 210.962
44.44000 216.466
44.45000 219.267
44.46000 216.200
44.47000 214.196
44.48000 217.575
44.49000 224.541
44.50000 231.229
44.51000 230.534
44.52000 226.559
44.53000 222.817
44.54000 216.577
44.55000 210.192
44.56000 204.935
44.57000 207.643
44.58000 211.901
44.59000 215.239
44.60000 214.475
44.61000 213.220
44.62000 212.267
44.63000 208.842
44.64000 206.024
44.65000 205.624
44.66000 210.006
44.67000 214.516
44.68000 216.187
44.69000 214.142
44.70000 212.082
44.71000 211.606
44.72000 212.449
44.73000 213.348
44.74000 216.918
44.75000 221.952
44.76000 226.586
44.77000 224.137
44.78000 219.085
44.79000 214.435
44.80000 215.581
44.81000 217.870
44.82000 220.902
44.83000 228.107
44.84000 235.963
44.85000 242.019
44.86000 241.508
44.87000 240.393
44.88000 239.593
44.89000 239.102
44.90000 238.737
44.91000 240.436
44.92000 245.500
44.93000 250.611
44.94000 250.846
44.95000 245.917
44.96000 241.012
44.97000 244.770
44.98000 254.296
44.99000 263.413
45.00000 261.176
45.01000 253.799
45.02000 247.220
45.03000 250.788
45.04000 257.434
45.05000 263.393
45.06000 264.562
45.07000 264.751
45.08000 264.567
45.09000 262.687
45.10000 260.599
45.11000 258.910
45.12000 258.420
45.13000 258.011
45.14000 257.735
45.15000 262.185
45.16000 265.596
45.17000 265.531
45.18000 260.826
45.19000 256.101
45.20000 253.687
45.21000 253.239
45.22000 252.797
45.23000 254.319
45.24000 256.870
45.25000 259.183
45.26000 257.136
45.27000 253.455
45.28000 250.218
45.29000 251.217
45.30000 253.270
45.31000 255.056
45.32000 252.266
45.33000 249.263
45.34000 247.210
45.35000 248.691
45.36000 250.506
45.37000 250.147
45.38000 244.390
45.39000 238.379
45.40000 234.604
45.41000 247.250
45.42000 256.572
45.43000 261.091
45.44000 260.412
45.45000 259.713
45.46000 256.805
45.47000 252.366
45.48000 248.030
45.49000 240.773
45.50000 232.533
45.51000 224.875
45.52000 224.835
45.53000 227.151
45.54000 229.054
45.55000 227.896
45.56000 226.118
45.57000 224.626
45.58000 232.149
45.59000 239.359
45.60000 243.599
45.61000 238.749
45.62000 233.265
45.63000 231.819
45.64000 238.666
45.65000 245.761
45.66000 249.863
45.67000 240.089
45.68000 233.186
45.69000 230.306
45.70000 230.922
45.71000 231.531
45.72000 231.828
45.73000 231.947
45.74000 232.062
45.75000 227.938
45.76000 222.544
45.77000 217.735
45.78000 218.655
45.79000 221.032
45.80000 222.902
45.81000 221.797
45.82000 220.207
45.83000 218.925
45.84000 221.943
45.85000 224.733
45.86000 226.465
45.87000 225.519
45.88000 224.443
45.89000 221.006
45.90000 213.569
45.91000 206.066
45.92000 202.126
45.93000 201.658
45.94000 201.374
45.95000 205.510
45.96000 212.768
45.97000 219.815
45.98000 220.431
45.99000 218.024
46.00000 215.745
46.01000 212.477
46.02000 209.184
46.03000 205.906
46.04000 202.745
46.05000 199.607
46.06000 197.457
46.07000 199.981
46.08000 203.108
46.09000 205.516
46.10000 205.791
46.11000 205.887
46.12000 206.269
46.13000 207.249
46.14000 208.247
46.15000 209.193
46.16000 210.064
46.17000 210.935
46.18000 210.522
46.19000 208.971
46.20000 207.441
46.21000 207.072
46.22000 207.377
46.23000 207.723
46.24000 208.880
46.25000 210.353
46.26000 211.717
46.27000 208.211
46.28000 203.920
46.29000 200.327
46.30000 200.926
46.31000 202.225
46.32000 203.831
46.33000 206.625
46.34000 209.537
46.35000 211.664
46.36000 205.279
46.37000 200.023
46.38000 196.588
46.39000 196.299
46.40000 196.065
46.41000 199.145
46.42000 205.968
46.43000 212.768
46.44000 211.322
46.45000 203.997
46.46000 196.860
46.47000 195.714
46.48000 197.437
46.49000 199.328
46.50000 203.565
46.51000 208.555
46.52000 213.066
46.53000 210.657
46.54000 207.250
46.55000 203.405
46.56000 197.439
46.57000 191.193
46.58000 187.922
46.59000 194.110
46.60000 201.000
46.61000 205.739
46.62000 206.397
46.63000 206.790
46.64000 204.880
46.65000 199.705
46.66000 194.510
46.67000 193.820
46.68000 197.215
46.69000 200.575
46.70000 195.328
46.71000 185.213
46.72000 175.825
46.73000 181.387
46.74000 192.869
46.75000 203.385
46.76000 203.913
46.77000 201.803
46.78000 199.950
46.79000 196.318
46.80000 192.936
46.81000 190.138
46.82000 189.643
46.83000 189.383
46.84000 189.549
46.85000 190.834
46.86000 192.177
46.87000 193.040
46.88000 192.851
46.89000 192.699
46.90000 193.813
46.91000 196.387
46.92000 198.940
46.93000 197.357
46.94000 192.732
46.95000 188.198
46.96000 187.901
46.97000 189.606
46.98000 191.536
46.99000 196.708
47.00000 202.940
47.01000 208.126
47.02000 204.978
47.03000 200.033
47.04000 195.836
47.05000 198.329
47.06000 201.180
47.07000 201.861
47.08000 195.509
47.09000 188.619
47.10000 187.899
47.11000 200.582
47.12000 213.730
47.13000 221.527
47.14000 205.748
47.15000 194.452
47.16000 189.295
47.17000 189.824
47.18000 190.337
47.19000 189.731
47.20000 188.450
47.21000 187.211
47.22000 187.469
47.23000 188.283
47.24000 188.838
47.25000 186.639
47.26000 183.697
47.27000 181.186
47.28000 181.377
47.29000 182.038
47.30000 182.577
47.31000 179.998
47.32000 177.620
47.33000 177.498
47.34000 183.415
47.35000 189.662
47.36000 194.266
47.37000 195.922
47.38000 197.518
47.39000 198.382
47.40000 188.199
47.41000 181.232
47.42000 177.871
47.43000 177.217
47.44000 176.738
47.45000 182.444
47.46000 191.224
47.47000 199.583
47.48000 195.532
47.49000 187.952
47.50000 181.437
47.51000 183.620
47.52000 187.716
47.53000 190.060
47.54000 183.565
47.55000 175.845
47.56000 169.817
47.57000 174.937
47.58000 179.724
47.59000 184.010
47.60000 187.188
47.61000 190.326
47.62000 190.249
47.63000 185.432
47.64000 180.572
47.65000 179.268
47.66000 181.328
47.67000 183.390
47.68000 185.548
47.69000 187.767
47.70000 189.790
47.71000 187.475
47.72000 183.377
47.73000 179.554
47.74000 178.751
47.75000 178.776
47.76000 179.051
47.77000 180.936
47.78000 183.109
47.79000 184.203
47.80000 180.875
47.81000 177.069
47.82000 174.245
47.83000 180.536
47.84000 185.826
47.85000 188.774
47.86000 187.441
47.87000 186.017
47.88000 184.829
47.89000 183.925
47.90000 183.024
47.91000 182.040
47.92000 180.999
47.93000 179.969
47.94000 179.321
47.95000 178.866
47.96000 178.545
47.97000 180.266
47.98000 182.681
47.99000 184.881
48.00000 183.626
48.01000 181.826
48.02000 180.256
48.03000 179.871
48.04000 179.653
48.05000 179.664
48.06000 180.443
48.07000 181.285
48.08000 181.875
48.09000 185.366
48.10000 188.089
48.11000 187.666
48.12000 182.511
48.13000 177.310
48.14000 175.936
48.15000 178.262
48.16000 180.570
48.17000 180.519
48.18000 179.018
48.19000 177.599
48.20000 178.079
48.21000 179.355
48.22000 180.710
48.23000 182.959
48.24000 185.457
48.25000 187.670
48.26000 185.776
48.27000 183.490
48.28000 181.583
48.29000 181.260
48.30000 181.112
48.31000 180.672
48.32000 179.422
48.33000 178.125
48.34000 177.274
48.35000 175.880
48.36000 174.845
48.37000 177.650
48.38000 185.165
48.39000 192.664
48.40000 192.629
48.41000 186.707
48.42000 180.883
48.43000 179.653
48.44000 180.757
48.45000 181.849
48.46000 182.736
48.47000 183.553
48.48000 184.283
48.49000 184.272
48.50000 184.091
48.51000 183.937
48.52000 183.057
48.53000 182.224
48.54000 180.962
48.55000 178.226
48.56000 175.367
48.57000 174.747
48.58000 179.270
48.59000 183.997
48.60000 186.869
48.61000 188.424
48.62000 189.524
48.63000 188.389
48.64000 185.044
48.65000 181.751
48.66000 182.785
48.67000 186.582
48.68000 190.273
48.69000 186.555
48.70000 180.020
48.71000 173.995
48.72000 173.877
48.73000 175.446
48.74000 176.391
48.75000 173.147
48.76000 169.125
48.77000 165.802
48.78000 174.298
48.79000 182.407
48.80000 187.804
48.81000 185.525
48.82000 182.780
48.83000 181.243
48.84000 181.999
48.85000 182.810
48.86000 183.261
48.87000 178.976
48.88000 176.009
48.89000 174.887
48.90000 175.237
48.91000 175.583
48.92000 175.726
48.93000 175.764
48.94000 175.800
48.95000 174.150
48.96000 172.060
48.97000 170.663
48.98000 175.362
48.99000 181.486
49.00000 185.832
49.01000 180.628
49.02000 174.005
49.03000 168.762
49.04000 173.604
49.05000 178.195
49.06000 179.988
49.07000 175.237
49.08000 170.216
49.09000 167.993
49.10000 170.144
49.11000 172.347
49.12000 173.454
49.13000 183.303
49.14000 189.783
49.15000 187.324
49.16000 179.046
49.17000 171.144
49.18000 172.685
49.19000 178.332
49.20000 183.633
49.21000 181.458
49.22000 177.492
49.23000 174.227
49.24000 175.793
49.25000 178.274
49.26000 180.250
49.27000 180.022
49.28000 179.538
49.29000 179.173
49.30000 179.307
49.31000 179.437
49.32000 180.450
49.33000 183.171
49.34000 185.936
49.35000 185.998
49.36000 182.605
49.37000 179.205
49.38000 180.332
49.39000 185.126
49.40000 189.789
49.41000 188.712
49.42000 184.560
49.43000 180.521
49.44000 178.405
49.45000 176.980
49.46000 175.673
49.47000 174.722
49.48000 173.950
49.49000 173.515
49.50000 174.925
49.51000 176.617
49.52000 177.584
49.53000 175.969
49.54000 174.125
49.55000 172.811
49.56000 176.521
49.57000 179.514
49.58000 180.964
49.59000 179.954
49.60000 178.912
49.61000 178.479
49.62000 178.676
49.63000 178.871
49.64000 178.867
49.65000 178.734
49.66000 178.602
49.67000 178.507
49.68000 178.428
49.69000 177.889
49.70000 171.723
49.71000 163.887
49.72000 156.885
49.73000 163.799
49.74000 172.174
49.75000 180.028
49.76000 185.571
49.77000 190.837
49.78000 193.460
49.79000 188.319
49.80000 182.673
49.81000 178.895
49.82000 174.482
49.83000 171.197
49.84000 169.989
49.85000 171.491
49.86000 173.001
49.87000 172.623
49.88000 170.679
49.89000 168.760
49.90000 170.698
49.91000 174.629
49.92000 178.286
49.93000 177.131
49.94000 174.212
49.95000 171.432
49.96000 169.919
49.97000 168.715
49.98000 167.672
49.99000 170.172
50.00000 172.767
50.01000 174.590
50.02000 173.604
50.03000 172.362
50.04000 171.632
50.05000 172.145
50.06000 172.715
50.07000 173.069
50.08000 175.628
50.09000 177.494
50.10000 176.389
50.11000 172.150
50.12000 167.959
50.13000 169.008
50.14000 173.605
50.15000 178.089
50.16000 176.313
50.17000 171.917
50.18000 167.806
50.19000 167.305
50.20000 167.896
50.21000 168.400
50.22000 168.288
50.23000 168.054
50.24000 167.858
50.25000 170.918
50.26000 173.788
50.27000 176.427
50.28000 178.372
50.29000 180.270
50.30000 181.126
50.31000 179.893
50.32000 178.600
50.33000 177.861
50.34000 185.744
50.35000 191.268
50.36000 190.151
50.37000 183.403
50.38000 176.705
50.39000 172.473
50.40000 169.613
50.41000 166.864
50.42000 169.291
50.43000 173.375
50.44000 177.511
50.45000 182.126
50.46000 186.861
50.47000 191.125
50.48000 192.692
50.49000 193.830
50.50000 194.743
50.51000 191.030
50.52000 187.673
50.53000 184.608
50.54000 182.265
50.55000 179.956
50.56000 179.446
50.57000 181.918
50.58000 184.434
50.59000 185.740
50.60000 189.120
50.61000 191.383
50.62000 191.270
50.63000 189.515
50.64000 187.974
50.65000 192.603
50.66000 200.067
50.67000 207.117
50.68000 207.305
50.69000 205.539
50.70000 204.016
50.71000 204.290
50.72000 204.927
50.73000 204.996
50.74000 202.443
50.75000 199.560
50.76000 197.354
50.77000 193.802
50.78000 190.926
50.79000 188.023
50.80000 185.064
50.81000 182.104
50.82000 182.223
50.83000 186.522
50.84000 190.842
50.85000 191.771
50.86000 189.768
50.87000 187.780
50.88000 186.531
50.89000 185.702
50.90000 185.076
50.91000 188.296
50.92000 192.978
50.93000 197.306
50.94000 195.949
50.95000 193.439
50.96000 192.179
50.97000 198.238
50.98000 205.487
50.99000 208.954
51.00000 198.133
51.01000 185.933
51.02000 177.082
51.03000 181.764
51.04000 185.868
51.05000 184.534
51.06000 174.021
51.07000 163.360
51.08000 162.060
51.09000 171.066
51.10000 180.038
51.11000 182.186
51.12000 179.556
51.13000 176.990
51.14000 176.348
51.15000 176.609
51.16000 176.864
51.17000 177.054
51.18000 177.223
51.19000 177.376
51.20000 179.213
51.21000 181.130
51.22000 181.986
51.23000 177.833
51.24000 173.038
51.25000 170.812
51.26000 176.578
51.27000 182.917
51.28000 187.243
51.29000 179.235
51.30000 172.959
51.31000 168.153
51.32000 165.381
51.33000 162.624
51.34000 161.677
51.35000 162.331
51.36000 162.978
51.37000 161.580
51.38000 159.059
51.39000 156.815
51.40000 160.030
51.41000 165.359
51.42000 169.986
51.43000 167.590
51.44000 163.381
51.45000 159.700
51.46000 159.862
51.47000 160.547
51.48000 161.800
51.49000 165.239
51.50000 168.894
51.51000 170.714
51.52000 167.822
51.53000 164.693
51.54000 162.702
51.55000 163.361
51.56000 163.874
51.57000 164.034
51.58000 163.797
51.59000 163.562
51.60000 163.551
51.61000 163.700
51.62000 163.846
51.63000 160.320
51.64000 155.249
51.65000 150.593
51.66000 151.688
51.67000 154.623
51.68000 157.215
51.69000 157.150
51.70000 156.525
51.71000 155.997
51.72000 163.216
51.73000 170.106
51.74000 174.892
51.75000 173.012
51.76000 170.639
51.77000 168.387
51.78000 166.392
51.79000 164.405
51.80000 163.238
51.81000 163.012
51.82000 162.860
51.83000 166.872
51.84000 174.643
51.85000 182.222
51.86000 178.146
51.87000 167.203
51.88000 156.632
51.89000 157.006
51.90000 161.431
51.91000 165.533
51.92000 166.306
51.93000 166.203
51.94000 165.544
51.95000 161.492
51.96000 156.864
51.97000 153.104
51.98000 159.252
51.99000 165.089
52.00000 169.853
52.01000 171.804
52.02000 173.609
52.03000 173.222
52.04000 168.993
52.05000 164.693
52.06000 162.393
52.07000 164.017
52.08000 165.120
52.09000 164.908
52.10000 163.730
52.11000 162.484
52.12000 158.918
52.13000 154.226
52.14000 149.769
52.15000 156.616
52.16000 166.343
52.17000 174.900
52.18000 174.185
52.19000 171.478
52.20000 168.525
52.21000 164.363
52.22000 160.038
52.23000 156.680
52.24000 154.500
52.25000 152.839
52.26000 153.639
52.27000 159.768
52.28000 166.080
52.29000 168.095
52.30000 163.921
52.31000 159.698
52.32000 159.978
52.33000 164.411
52.34000 168.773
52.35000 168.562
52.36000 165.605
52.37000 162.837
52.38000 164.052
52.39000 166.869
52.40000 169.491
52.41000 170.293
52.42000 170.577
52.43000 170.265
52.44000 166.225
52.45000 161.538
52.46000 157.553
52.47000 156.382
52.48000 155.506
52.49000 154.859
52.50000 159.333
52.51000 163.014
52.52000 165.083
52.53000 164.271
52.54000 163.402
52.55000 161.156
52.56000 157.298
52.57000 153.448
52.58000 156.040
52.59000 163.394
52.60000 170.589
52.61000 172.213
52.62000 171.078
52.63000 169.810
52.64000 166.574
52.65000 162.684
52.66000 159.151
52.67000 157.820
52.68000 157.071
52.69000 156.418
52.70000 156.255
52.71000 156.158
52.72000 155.547
52.73000 153.243
52.74000 150.805
52.75000 149.110
52.76000 150.221
52.77000 151.134
52.78000 153.193
52.79000 156.932
52.80000 160.686
52.81000 160.581
52.82000 156.839
52.83000 153.129
52.84000 155.720
52.85000 162.045
52.86000 168.174
52.87000 169.977
52.88000 170.009
52.89000 169.799
52.90000 166.946
52.91000 163.370
52.92000 160.214
52.93000 159.171
52.94000 158.595
52.95000 157.084
52.96000 151.750
52.97000 146.006
52.98000 143.549
52.99000 150.024
53.00000 157.002
53.01000 161.539
53.02000 160.508
53.03000 159.666
53.04000 156.709
53.05000 151.218
53.06000 145.754
53.07000 147.398
53.08000 154.462
53.09000 161.401
53.10000 162.096
53.11000 159.725
53.12000 157.508
53.13000 157.644
53.14000 158.577
53.15000 159.267
53.16000 157.940
53.17000 156.162
53.18000 154.643
53.19000 158.470
53.20000 162.329
53.21000 164.716
53.22000 162.163
53.23000 159.211
53.24000 158.177
53.25000 161.452
53.26000 164.888
53.27000 166.957
53.28000 165.181
53.29000 163.891
53.30000 160.451
53.31000 154.940
53.32000 149.526
53.33000 151.423
53.34000 157.883
53.35000 164.151
53.36000 162.120
53.37000 156.909
53.38000 152.775
53.39000 160.670
53.40000 171.921
53.41000 181.587
53.42000 180.891
53.43000 178.319
53.44000 176.204
53.45000 175.216
53.46000 174.506
53.47000 173.411
53.48000 171.248
53.49000 169.023
53.50000 165.773
53.51000 160.622
53.52000 155.429
53.53000 152.569
53.54000 158.203
53.55000 162.077
53.56000 160.534
53.57000 154.775
53.58000 149.224
53.59000 151.736
53.60000 158.396
53.61000 164.755
53.62000 165.084
53.63000 163.458
53.64000 162.006
53.65000 162.053
53.66000 162.441
53.67000 162.884
53.68000 163.609
53.69000 164.374
53.70000 164.977
53.71000 163.457
53.72000 162.097
53.73000 159.713
53.74000 154.984
53.75000 150.163
53.76000 147.699
53.77000 148.833
53.78000 150.007
53.79000 153.903
53.80000 160.478
53.81000 166.973
53.82000 166.833
53.83000 162.473
53.84000 158.262
53.85000 157.629
53.86000 158.518
53.87000 159.350
53.88000 159.124
53.89000 158.644
53.90000 158.228
53.91000 158.236
53.92000 158.323
53.93000 158.573
53.94000 159.514
53.95000 160.533
53.96000 161.297
53.97000 165.724
53.98000 169.353
53.99000 169.651
54.00000 163.648
54.01000 157.495
54.02000 155.687
54.03000 159.295
54.04000 162.914
54.05000 161.203
54.06000 155.288
54.07000 149.517
54.08000 149.660
54.09000 152.902
54.10000 155.967
54.11000 156.153
54.12000 155.326
54.13000 154.570
54.14000 157.589
54.15000 161.056
54.16000 163.288
54.17000 158.915
54.18000 153.565
54.19000 150.494
54.20000 155.368
54.21000 160.923
54.22000 164.857
54.23000 167.209
54.24000 168.947
54.25000 167.116
54.26000 159.726
54.27000 152.271
54.28000 146.956
54.29000 143.793
54.30000 140.652
54.31000 145.445
54.32000 155.235
54.33000 164.646
54.34000 164.602
54.35000 160.463
54.36000 156.368
54.37000 152.783
54.38000 149.347
54.39000 146.287
54.40000 150.131
54.41000 154.605
54.42000 158.328
54.43000 158.793
54.44000 158.881
54.45000 158.645
54.46000 157.481
54.47000 156.258
54.48000 155.446
54.49000 157.927
54.50000 159.822
54.51000 159.899
54.52000 157.665
54.53000 155.423
54.54000 153.610
54.55000 152.143
54.56000 150.697
54.57000 149.859
54.58000 149.359
54.59000 149.003
54.60000 151.068
54.61000 154.000
54.62000 156.676
54.63000 157.061
54.64000 156.900
54.65000 156.762
54.66000 157.951
54.67000 159.131
54.68000 159.940
54.69000 159.433
54.70000 158.811
54.71000 158.065
54.72000 157.027
54.73000 155.976
54.74000 155.328
54.75000 156.033
54.76000 156.551
54.77000 157.117
54.78000 157.734
54.79000 158.337
54.80000 157.604
54.81000 155.986
54.82000 154.411
54.83000 156.100
54.84000 159.083
54.85000 161.756
54.86000 160.649
54.87000 158.423
54.88000 156.693
54.89000 158.429
54.90000 160.835
54.91000 162.836
54.92000 160.966
54.93000 159.037
54.94000 157.228
54.95000 155.768
54.96000 154.331
54.97000 154.224
54.98000 156.731
54.99000 159.308
55.00000 160.766
55.01000 162.864
55.02000 164.327
55.03000 166.704
55.04000 169.837
55.05000 172.926
55.06000 173.980
55.07000 173.928
55.08000 173.878
55.09000 171.936
55.10000 169.476
55.11000 167.219
55.12000 166.837
55.13000 166.910
55.14000 166.814
55.15000 165.775
55.16000 164.589
55.17000 163.644
55.18000 163.223
55.19000 162.921
55.20000 163.624
55.21000 166.757
55.22000 169.999
55.23000 172.587
55.24000 174.120
55.25000 175.638
55.26000 176.416
55.27000 173.374
55.28000 171.342
55.29000 170.599
55.30000 170.727
55.31000 170.982
55.32000 174.715
55.33000 180.011
55.34000 185.001
55.35000 183.854
55.36000 181.111
55.37000 179.550
55.38000 186.467
55.39000 195.054
55.40000 201.548
55.41000 198.582
55.42000 194.465
55.43000 191.332
55.44000 188.818
55.45000 186.872
55.46000 187.901
55.47000 194.880
55.48000 202.025
55.49000 205.855
55.50000 205.292
55.51000 204.708
55.52000 208.389
55.53000 215.655
55.54000 222.900
55.55000 229.111
55.56000 234.748
55.57000 240.470
55.58000 247.718
55.59000 255.533
55.60000 262.737
55.61000 273.855
55.62000 284.676
55.63000 295.340
55.64000 305.101
55.65000 314.720
55.66000 324.761
55.67000 336.365
55.68000 348.114
55.69000 356.581
55.70000 381.007
55.71000 400.288
55.72000 418.520
55.73000 435.025
55.74000 451.503
55.75000 473.305
55.76000 500.821
55.77000 528.202
55.78000 555.095
55.79000 581.343
55.80000 607.587
55.81000 633.683
55.82000 659.711
55.83000 685.488
55.84000 708.002
55.85000 729.514
55.86000 748.835
55.87000 766.137
55.88000 780.920
55.89000 796.744
55.90000 817.360
55.91000 838.575
55.92000 856.928
55.93000 866.586
55.94000 875.644
55.95000 881.779
55.96000 899.955
55.97000 913.766
55.98000 923.321
55.99000 927.122
56.00000 930.881
56.01000 927.524
56.02000 918.028
56.03000 908.647
56.04000 894.292
56.05000 877.557
56.06000 861.139
56.07000 850.699
56.08000 842.522
56.09000 833.281
56.10000 813.722
56.11000 791.561
56.12000 772.252
56.13000 742.400
56.14000 715.436
56.15000 689.932
56.16000 669.925
56.17000 650.446
56.18000 629.899
56.19000 606.668
56.20000 583.307
56.21000 568.571
56.22000 541.835
56.23000 522.336
56.24000 503.929
56.25000 486.720
56.26000 469.475
56.27000 447.500
56.28000 422.206
56.29000 397.476
56.30000 376.611
56.31000 358.339
56.32000 340.417
56.33000 327.177
56.34000 315.401
56.35000 304.391
56.36000 299.125
56.37000 295.041
56.38000 291.605
56.39000 277.684
56.40000 264.958
56.41000 254.127
56.42000 249.168
56.43000 244.626
56.44000 238.418
56.45000 228.747
56.46000 218.970
56.47000 213.287
56.48000 203.487
56.49000 196.590
56.50000 192.768
56.51000 191.654
56.52000 190.533
56.53000 189.039
56.54000 187.329
56.55000 185.680
56.56000 182.023
56.57000 177.854
56.58000 174.265
56.59000 176.460
56.60000 180.141
56.61000 182.890
56.62000 180.081
56.63000 176.353
56.64000 173.339
56.65000 170.174
56.66000 167.588
56.67000 165.424
56.68000 164.343
56.69000 163.315
56.70000 164.341
56.71000 168.890
56.72000 173.499
56.73000 175.934
56.74000 166.205
56.75000 159.619
56.76000 157.235
56.77000 157.859
56.78000 158.447
56.79000 157.922
56.80000 156.868
56.81000 155.869
56.82000 155.194
56.83000 154.667
56.84000 154.046
56.85000 152.694
56.86000 151.189
56.87000 150.513
56.88000 153.823
56.89000 157.655
56.90000 160.614
56.91000 165.903
56.92000 170.233
56.93000 171.113
56.94000 164.691
56.95000 158.032
56.96000 155.580
56.97000 159.046
56.98000 162.552
56.99000 163.470
57.00000 162.063
57.01000 160.649
57.02000 158.866
57.03000 156.865
57.04000 154.784
57.05000 151.063
57.06000 146.698
57.07000 142.646
57.08000 144.077
57.09000 146.663
57.10000 148.041
57.11000 142.069
57.12000 134.854
57.13000 130.910
57.14000 139.772
57.15000 149.931
57.16000 157.376
57.17000 152.809
57.18000 148.801
57.19000 147.020
57.20000 149.131
57.21000 151.313
57.22000 151.952
57.23000 150.825
57.24000 149.699
57.25000 149.754
57.26000 150.662
57.27000 151.441
57.28000 147.975
57.29000 142.451
57.30000 137.469
57.31000 140.174
57.32000 145.376
57.33000 150.086
57.34000 148.552
57.35000 146.023
57.36000 143.692
57.37000 142.328
57.38000 141.093
57.39000 140.132
57.40000 140.049
57.41000 140.032
57.42000 140.021
57.43000 135.198
57.44000 131.450
57.45000 130.264
57.46000 132.754
57.47000 135.272
57.48000 137.283
57.49000 138.829
57.50000 140.359
57.51000 141.963
57.52000 143.578
57.53000 145.062
57.54000 143.785
57.55000 141.403
57.56000 139.196
57.57000 138.833
57.58000 138.962
57.59000 139.075
57.60000 142.857
57.61000 146.657
57.62000 149.565
57.63000 148.916
57.64000 147.897
57.65000 146.299
57.66000 143.167
57.67000 139.952
57.68000 137.878
57.69000 145.240
57.70000 150.752
57.71000 150.429
57.72000 143.293
57.73000 136.180
57.74000 135.519
57.75000 139.662
57.76000 143.726
57.77000 144.933
57.78000 144.738
57.79000 144.496
57.80000 143.578
57.81000 142.436
57.82000 141.511
57.83000 142.339
57.84000 143.550
57.85000 144.580
57.86000 144.519
57.87000 144.342
57.88000 144.613
57.89000 146.357
57.90000 148.215
57.91000 147.942
57.92000 142.984
57.93000 137.859
57.94000 134.804
57.95000 137.561
57.96000 139.551
57.97000 142.706
57.98000 146.956
57.99000 151.123
58.00000 149.634
58.01000 144.694
58.02000 139.910
58.03000 140.402
58.04000 142.906
58.05000 145.081
58.06000 143.704
58.07000 141.358
58.08000 139.319
58.09000 139.234
58.10000 139.494
58.11000 139.707
58.12000 138.504
58.13000 137.394
58.14000 136.687
58.15000 137.075
58.16000 137.523
58.17000 137.451
58.18000 136.434
58.19000 135.397
58.20000 134.833
58.21000 137.743
58.22000 139.743
58.23000 141.627
58.24000 143.422
58.25000 145.098
58.26000 142.422
58.27000 137.558
58.28000 132.922
58.29000 134.088
58.30000 136.985
58.31000 139.813
58.32000 142.083
58.33000 144.229
58.34000 145.247
58.35000 140.509
58.36000 134.961
58.37000 130.617
58.38000 130.117
58.39000 129.965
58.40000 131.421
58.41000 136.474
58.42000 141.662
58.43000 142.509
58.44000 136.880
58.45000 131.188
58.46000 130.702
58.47000 135.206
58.48000 139.632
58.49000 138.288
58.50000 133.354
58.51000 128.550
58.52000 126.698
58.53000 126.073
58.54000 125.490
58.55000 130.529
58.56000 136.520
58.57000 141.641
58.58000 141.107
58.59000 139.552
58.60000 138.082
58.61000 136.963
58.62000 135.883
58.63000 135.078
58.64000 136.984
58.65000 138.589
58.66000 139.017
58.67000 137.266
58.68000 135.466
58.69000 133.174
58.70000 130.282
58.71000 127.395
58.72000 126.512
58.73000 127.180
58.74000 127.848
58.75000 128.524
58.76000 129.203
58.77000 129.976
58.78000 132.218
58.79000 134.966
58.80000 137.474
58.81000 139.964
58.82000 142.168
58.83000 143.936
58.84000 143.426
58.85000 142.589
58.86000 141.839
58.87000 141.390
58.88000 140.965
58.89000 140.667
58.90000 137.242
58.91000 134.555
58.92000 134.806
58.93000 139.527
58.94000 144.295
58.95000 144.902
58.96000 141.430
58.97000 137.984
58.98000 135.872
58.99000 134.628
59.00000 133.492
59.01000 134.932
59.02000 137.464
59.03000 139.827
59.04000 140.264
59.05000 140.156
59.06000 140.059
59.07000 134.565
59.08000 128.943
59.09000 124.713
59.10000 126.381
59.11000 128.713
59.12000 130.023
59.13000 128.462
59.14000 126.730
59.15000 125.590
59.16000 128.992
59.17000 131.577
59.18000 132.687
59.19000 131.964
59.20000 131.240
59.21000 131.818
59.22000 133.424
59.23000 135.005
59.24000 136.586
59.25000 138.118
59.26000 139.626
59.27000 140.749
59.28000 141.738
59.29000 142.464
59.30000 140.896
59.31000 138.796
59.32000 136.992
59.33000 139.824
59.34000 142.798
59.35000 143.810
59.36000 138.008
59.37000 131.626
59.38000 128.671
59.39000 133.678
59.40000 139.009
59.41000 142.265
59.42000 137.813
59.43000 134.565
59.44000 133.564
59.45000 134.814
59.46000 136.031
59.47000 134.338
59.48000 130.765
59.49000 127.289
59.50000 128.865
59.51000 132.438
59.52000 135.741
59.53000 135.857
59.54000 135.052
59.55000 134.426
59.56000 135.025
59.57000 135.853
59.58000 136.539
59.59000 134.399
59.60000 132.364
59.61000 130.846
59.62000 130.808
59.63000 130.861
59.64000 131.344
59.65000 132.649
59.66000 133.974
59.67000 134.717
59.68000 136.852
59.69000 138.327
59.70000 136.678
59.71000 132.507
59.72000 128.430
59.73000 128.458
59.74000 130.668
59.75000 132.785
59.76000 136.886
59.77000 141.370
59.78000 145.662
59.79000 148.222
59.80000 150.372
59.81000 151.498
59.82000 147.042
59.83000 141.746
59.84000 137.541
59.85000 135.434
59.86000 133.886
59.87000 134.773
59.88000 141.422
59.89000 148.315
59.90000 150.332
59.91000 144.637
59.92000 138.846
59.93000 135.916
59.94000 132.980
59.95000 131.047
59.96000 132.135
59.97000 135.216
59.98000 138.208
59.99000 138.907
60.00000 138.598
60.01000 138.308
60.02000 140.666
60.03000 143.530
60.04000 145.462
60.05000 140.896
60.06000 135.080
60.07000 130.424
60.08000 130.884
60.09000 131.949
60.10000 132.754
60.11000 137.277
60.12000 141.012
60.13000 141.986
60.14000 137.558
60.15000 132.988
60.16000 129.443
60.17000 127.225
60.18000 125.016
60.19000 125.910
60.20000 129.351
60.21000 132.727
60.22000 133.149
60.23000 131.969
60.24000 130.816
60.25000 130.140
60.26000 129.637
60.27000 129.174
60.28000 130.679
60.29000 132.447
60.30000 133.600
60.31000 131.339
60.32000 128.552
60.33000 127.285
60.34000 131.504
60.35000 136.218
60.36000 139.592
60.37000 141.502
60.38000 142.911
60.39000 142.768
60.40000 140.121
60.41000 137.440
60.42000 135.112
60.43000 133.154
60.44000 131.206
60.45000 132.427
60.46000 135.734
60.47000 138.862
60.48000 137.157
60.49000 133.288
60.50000 129.540
60.51000 127.317
60.52000 125.552
60.53000 123.972
60.54000 123.290
60.55000 122.849
60.56000 122.876
60.57000 125.011
60.58000 127.401
60.59000 128.911
60.60000 127.801
60.61000 126.518
60.62000 125.656
60.63000 128.020
60.64000 129.842
60.65000 130.416
60.66000 129.344
60.67000 128.269
60.68000 129.551
60.69000 132.818
60.70000 136.042
60.71000 138.344
60.72000 140.090
60.73000 141.700
60.74000 140.890
60.75000 139.183
60.76000 137.611
60.77000 137.307
60.78000 137.315
60.79000 137.322
60.80000 130.834
60.81000 124.434
60.82000 120.695
60.83000 126.749
60.84000 133.712
60.85000 138.920
60.86000 139.816
60.87000 140.514
60.88000 140.951
60.89000 132.296
60.90000 125.955
60.91000 123.536
60.92000 125.310
60.93000 127.096
60.94000 130.068
60.95000 133.855
60.96000 137.551
60.97000 137.204
60.98000 135.107
60.99000 133.174
61.00000 133.346
61.01000 134.163
61.02000 135.008
61.03000 136.057
61.04000 137.146
61.05000 138.059
61.06000 134.910
61.07000 131.873
61.08000 129.940
61.09000 131.354
61.10000 132.997
61.11000 136.125
61.12000 142.272
61.13000 148.506
61.14000 152.092
61.15000 149.119
61.16000 147.011
61.17000 142.917
61.18000 137.115
61.19000 131.416
61.20000 130.991
61.21000 133.536
61.22000 135.986
61.23000 132.522
61.24000 127.177
61.25000 122.444
61.26000 123.617
61.27000 126.274
61.28000 128.480
61.29000 128.074
61.30000 127.248
61.31000 126.583
61.32000 127.587
61.33000 128.529
61.34000 130.587
61.35000 135.436
61.36000 140.418
61.37000 142.647
61.38000 140.262
61.39000 137.804
61.40000 136.521
61.41000 131.782
61.42000 128.602
61.43000 128.863
61.44000 131.529
61.45000 134.066
61.46000 132.764
61.47000 129.677
61.48000 126.758
61.49000 135.471
61.50000 146.810
61.51000 157.569
61.52000 163.983
61.53000 169.508
61.54000 175.255
61.55000 182.041
61.56000 188.960
61.57000 194.271
61.58000 205.411
61.59000 214.542
61.60000 222.969
61.61000 229.939
61.62000 236.865
61.63000 243.303
61.64000 249.069
61.65000 254.829
61.66000 258.300
61.67000 259.762
61.68000 261.177
61.69000 259.984
61.70000 257.294
61.71000 254.764
61.72000 255.333
61.73000 257.092
61.74000 258.721
61.75000 250.287
61.76000 240.386
61.77000 231.437
61.78000 228.126
61.79000 225.744
61.80000 220.844
61.81000 206.308
61.82000 190.827
61.83000 179.556
61.84000 172.592
61.85000 167.395
61.86000 162.321
61.87000 157.455
61.88000 152.592
61.89000 148.204
61.90000 144.345
61.91000 140.502
61.92000 137.530
61.93000 135.202
61.94000 132.976
61.95000 133.918
61.96000 136.360
61.97000 138.708
61.98000 139.775
61.99000 140.435
62.00000 141.031
62.01000 139.422
62.02000 137.604
62.03000 136.306
62.04000 137.492
62.05000 139.002
62.06000 139.736
62.07000 138.025
62.08000 136.136
62.09000 134.842
62.10000 137.026
62.11000 138.746
62.12000 139.128
62.13000 137.635
62.14000 136.130
62.15000 135.813
62.16000 136.559
62.17000 137.297
62.18000 137.841
62.19000 138.262
62.20000 138.724
62.21000 140.001
62.22000 141.598
62.23000 142.730
62.24000 139.133
62.25000 134.300
62.26000 130.065
62.27000 131.284
62.28000 133.118
62.29000 135.283
62.30000 138.741
62.31000 142.329
62.32000 144.315
62.33000 142.136
62.34000 139.742
62.35000 138.212
62.36000 140.572
62.37000 142.340
62.38000 141.387
62.39000 137.332
62.40000 133.302
62.41000 133.774
62.42000 137.520
62.43000 141.190
62.44000 142.985
62.45000 143.841
62.46000 144.557
62.47000 143.302
62.48000 141.409
62.49000 139.263
62.50000 135.127
62.51000 130.567
62.52000 126.704
62.53000 133.689
62.54000 140.751
62.55000 146.318
62.56000 147.087
62.57000 147.495
62.58000 146.422
62.59000 142.165
62.60000 137.800
62.61000 135.224
62.62000 138.751
62.63000 141.275
62.64000 142.329
62.65000 142.038
62.66000 141.755
62.67000 141.890
62.68000 142.276
62.69000 142.649
62.70000 141.448
62.71000 139.722
62.72000 138.145
62.73000 138.129
62.74000 138.530
62.75000 139.152
62.76000 141.146
62.77000 143.377
62.78000 145.194
62.79000 140.300
62.80000 135.735
62.81000 132.077
62.82000 130.819
62.83000 129.690
62.84000 128.896
62.85000 128.695
62.86000 128.506
62.87000 128.404
62.88000 134.745
62.89000 139.068
62.90000 140.234
62.91000 139.058
62.92000 137.850
62.93000 135.532
62.94000 132.669
62.95000 129.946
62.96000 135.391
62.97000 142.918
62.98000 149.161
62.99000 145.084
63.00000 138.760
63.01000 134.297
63.02000 139.103
63.03000 145.176
63.04000 149.905
63.05000 148.122
63.06000 146.299
63.07000 145.867
63.08000 148.481
63.09000 151.203
63.10000 151.740
63.11000 149.092
63.12000 146.417
63.13000 143.711
63.14000 140.977
63.15000 138.324
63.16000 141.250
63.17000 147.568
63.18000 153.515
63.19000 151.403
63.20000 146.015
63.21000 140.993
63.22000 144.873
63.23000 150.572
63.24000 154.732
63.25000 149.139
63.26000 141.829
63.27000 135.855
63.28000 135.297
63.29000 135.314
63.30000 135.327
63.31000 139.842
63.32000 143.539
63.33000 144.787
63.34000 141.606
63.35000 138.334
63.36000 138.714
63.37000 143.433
63.38000 148.147
63.39000 147.196
63.40000 141.994
63.41000 137.008
63.42000 139.863
63.43000 146.647
63.44000 152.683
63.45000 147.446
63.46000 138.419
63.47000 130.207
63.48000 135.643
63.49000 143.132
63.50000 149.103
63.51000 147.352
63.52000 144.520
63.53000 142.055
63.54000 140.817
63.55000 139.676
63.56000 138.879
63.57000 141.539
63.58000 143.644
63.59000 144.664
63.60000 144.070
63.61000 143.461
63.62000 142.382
63.63000 140.853
63.64000 139.338
63.65000 141.081
63.66000 144.776
63.67000 148.388
63.68000 150.139
63.69000 151.118
63.70000 152.020
63.71000 152.055
63.72000 151.851
63.73000 151.671
63.74000 153.415
63.75000 155.222
63.76000 155.918
63.77000 152.018
63.78000 147.616
63.79000 144.143
63.80000 143.222
63.81000 142.446
63.82000 141.940
63.83000 145.326
63.84000 147.874
63.85000 148.998
63.86000 148.394
63.87000 147.793
63.88000 148.807
63.89000 151.067
63.90000 153.288
63.91000 150.972
63.92000 146.493
63.93000 142.468
63.94000 145.498
63.95000 150.944
63.96000 155.689
63.97000 154.506
63.98000 151.981
63.99000 149.819
64.00000 154.348
64.01000 158.978
64.02000 161.391
64.03000 156.279
64.04000 150.549
64.05000 146.224
64.06000 145.094
64.07000 144.088
64.08000 143.480
64.09000 147.129
64.10000 149.762
64.11000 151.561
64.12000 152.547
64.13000 153.525
64.14000 153.938
64.15000 153.994
64.16000 154.047
64.17000 153.709
64.18000 153.230
64.19000 152.779
64.20000 152.640
64.21000 152.590
64.22000 152.553
64.23000 152.608
64.24000 152.680
64.25000 152.740
64.26000 153.819
64.27000 154.802
64.28000 155.965
64.29000 157.631
64.30000 159.328
64.31000 159.067
64.32000 155.129
64.33000 151.106
64.34000 148.878
64.35000 148.475
64.36000 148.204
64.37000 149.021
64.38000 150.696
64.39000 152.408
64.40000 155.643
64.41000 159.670
64.42000 163.520
64.43000 162.686
64.44000 160.388
64.45000 158.384
64.46000 158.929
64.47000 160.063
64.48000 160.409
64.49000 156.570
64.50000 152.117
64.51000 148.601
64.52000 155.962
64.53000 162.608
64.54000 166.217
64.55000 162.792
64.56000 159.084
64.57000 157.152
64.58000 157.966
64.59000 158.810
64.60000 161.290
64.61000 165.400
64.62000 169.477
64.63000 170.710
64.64000 170.111
64.65000 169.475
64.66000 167.926
64.67000 165.985
64.68000 164.165
64.69000 163.815
64.70000 163.880
64.71000 163.801
64.72000 162.740
64.73000 161.495
64.74000 161.214
64.75000 165.085
64.76000 169.432
64.77000 172.700
64.78000 169.378
64.79000 166.462
64.80000 165.315
64.81000 167.555
64.82000 169.878
64.83000 172.282
64.84000 174.788
64.85000 177.290
64.86000 180.073
64.87000 183.070
64.88000 185.973
64.89000 184.893
64.90000 181.701
64.91000 178.507
64.92000 175.274
64.93000 172.027
64.94000 169.052
64.95000 176.705
64.96000 185.755
64.97000 193.511
64.98000 194.255
64.99000 193.948
65.00000 192.961
65.01000 189.578
65.02000 185.985
65.03000 183.431
65.04000 185.392
65.05000 187.029
65.06000 189.170
65.07000 192.105
65.08000 195.049
65.09000 197.400
65.10000 199.147
65.11000 200.882
65.12000 198.844
65.13000 194.394
65.14000 190.145
65.15000 191.072
65.16000 194.266
65.17000 197.133
65.18000 196.044
65.19000 193.796
65.20000 191.790
65.21000 194.285
65.22000 197.206
65.23000 200.780
65.24000 207.218
65.25000 213.994
65.26000 219.419
65.27000 220.917
65.28000 222.165
65.29000 222.996
65.30000 227.212
65.31000 230.399
65.32000 232.677
65.33000 233.784
65.34000 234.888
65.35000 236.405
65.36000 238.262
65.37000 240.093
65.38000 242.813
65.39000 245.922
65.40000 248.824
65.41000 248.170
65.42000 246.228
65.43000 245.250
65.44000 253.070
65.45000 263.008
65.46000 271.600
65.47000 269.356
65.48000 266.036
65.49000 264.679
65.50000 270.378
65.51000 276.711
65.52000 281.795
65.53000 283.879
65.54000 285.831
65.55000 287.040
65.56000 293.059
65.57000 297.434
65.58000 300.068
65.59000 300.888
65.60000 301.774
65.61000 309.508
65.62000 321.829
65.63000 333.839
65.64000 348.389
65.65000 363.361
65.66000 378.287
65.67000 392.656
65.68000 406.859
65.69000 424.070
65.70000 462.666
65.71000 505.444
65.72000 541.118
65.73000 593.435
65.74000 638.476
65.75000 686.116
65.76000 741.454
65.77000 797.300
65.78000 843.227
65.79000 869.447
65.80000 895.129
65.81000 909.746
65.82000 947.108
65.83000 973.208
65.84000 992.688
65.85000 1006.619
65.86000 1020.351
65.87000 1024.499
65.88000 1023.370
65.89000 1022.285
65.90000 1017.372
65.91000 1011.450
65.92000 1002.595
65.93000 966.300
65.94000 923.271
65.95000 879.214
65.96000 829.344
65.97000 778.562
65.98000 737.928
65.99000 660.609
66.00000 595.351
66.01000 537.870
66.02000 499.429
66.03000 461.856
66.04000 429.203
66.05000 404.610
66.06000 380.133
66.07000 367.510
66.08000 338.779
66.09000 319.488
66.10000 307.656
66.11000 300.915
66.12000 294.369
66.13000 293.250
66.14000 294.599
66.15000 295.872
66.16000 293.939
66.17000 291.271
66.18000 289.305
66.19000 292.435
66.20000 296.584
66.21000 299.996
66.22000 300.044
66.23000 299.676
66.24000 299.395
66.25000 302.222
66.26000 304.616
66.27000 309.307
66.28000 318.648
66.29000 328.124
66.30000 339.758
66.31000 354.289
66.32000 368.824
66.33000 378.628
66.34000 384.372
66.35000 390.123
66.36000 396.237
66.37000 402.555
66.38000 408.836
66.39000 414.431
66.40000 419.768
66.41000 424.696
66.42000 425.609
66.43000 425.527
66.44000 424.471
66.45000 417.788
66.46000 410.202
66.47000 404.967
66.48000 408.514
66.49000 412.896
66.50000 416.065
66.51000 397.489
66.52000 382.441
66.53000 369.452
66.54000 359.898
66.55000 350.397
66.56000 342.024
66.57000 334.877
66.58000 327.763
66.59000 322.449
66.60000 318.434
66.61000 314.345
66.62000 308.104
66.63000 300.865
66.64000 294.246
66.65000 295.787
66.66000 299.862
66.67000 303.528
66.68000 300.478
66.69000 296.606
66.70000 294.024
66.71000 297.460
66.72000 301.658
66.73000 305.454
66.74000 308.010
66.75000 310.480
66.76000 312.159
66.77000 306.294
66.78000 301.745
66.79000 298.778
66.80000 297.978
66.81000 297.193
66.82000 298.337
66.83000 301.165
66.84000 303.962
66.85000 306.746
66.86000 309.456
66.87000 312.111
66.88000 313.704
66.89000 314.891
66.90000 315.949
66.91000 315.737
66.92000 315.202
66.93000 314.734
66.94000 318.186
66.95000 321.691
66.96000 324.504
66.97000 324.679
66.98000 324.597
66.99000 326.443
67.00000 333.189
67.01000 340.176
67.02000 344.605
67.03000 330.911
67.04000 320.758
67.05000 315.814
67.06000 316.656
67.07000 317.529
67.08000 322.235
67.09000 329.665
67.10000 336.935
67.11000 340.199
67.12000 341.517
67.13000 343.072
67.14000 347.854
67.15000 353.658
67.16000 359.174
67.17000 362.489
67.18000 365.345
67.19000 367.754
67.20000 354.623
67.21000 341.972
67.22000 333.511
67.23000 338.184
67.24000 343.809
67.25000 348.105
67.26000 349.607
67.27000 351.020
67.28000 351.846
67.29000 356.886
67.30000 360.452
67.31000 363.417
67.32000 365.848
67.33000 368.219
67.34000 367.147
67.35000 364.068
67.36000 361.096
67.37000 364.039
67.38000 368.985
67.39000 373.655
67.40000 375.526
67.41000 376.670
67.42000 378.989
67.43000 388.412
67.44000 399.026
67.45000 407.628
67.46000 401.554
67.47000 395.408
67.48000 390.511
67.49000 388.850
67.50000 387.354
67.51000 388.929
67.52000 395.834
67.53000 402.833
67.54000 406.555
67.55000 404.447
67.56000 403.030
67.57000 405.297
67.58000 410.230
67.59000 415.030
67.60000 415.494
67.61000 413.874
67.62000 412.336
67.63000 413.865
67.64000 416.189
67.65000 418.639
67.66000 422.088
67.67000 425.749
67.68000 429.505
67.69000 433.723
67.70000 438.002
67.71000 441.315
67.72000 439.380
67.73000 437.531
67.74000 435.618
67.75000 433.567
67.76000 431.512
67.77000 427.504
67.78000 420.718
67.79000 413.912
67.80000 419.628
67.81000 436.742
67.82000 453.694
67.83000 460.496
67.84000 461.268
67.85000 462.096
67.86000 464.089
67.87000 466.544
67.88000 468.827
67.89000 471.716
67.90000 474.469
67.91000 477.805
67.92000 484.736
67.93000 492.283
67.94000 497.800
67.95000 495.276
67.96000 491.925
67.97000 489.460
67.98000 484.823
67.99000 481.146
68.00000 479.461
68.01000 481.295
68.02000 483.196
68.03000 488.678
68.04000 498.308
68.05000 507.912
68.06000 515.156
68.07000 520.612
68.08000 526.053
68.09000 531.019
68.10000 535.751
68.11000 540.131
68.12000 539.404
68.13000 537.000
68.14000 534.819
68.15000 535.385
68.16000 536.410
68.17000 537.693
68.18000 540.260
68.19000 543.001
68.20000 545.148
68.21000 545.363
68.22000 545.428
68.23000 545.474
68.24000 556.372
68.25000 564.862
68.26000 570.424
68.27000 571.734
68.28000 573.009
68.29000 574.397
68.30000 575.891
68.31000 577.372
68.32000 584.201
68.33000 594.067
68.34000 603.598
68.35000 605.880
68.36000 605.224
68.37000 604.984
68.38000 609.187
68.39000 614.594
68.40000 619.358
68.41000 624.975
68.42000 629.945
68.43000 636.847
68.44000 651.557
68.45000 667.092
68.46000 679.275
68.47000 682.450
68.48000 685.129
68.49000 686.864
68.50000 702.405
68.51000 713.982
68.52000 723.382
68.53000 730.206
68.54000 737.058
68.55000 750.672
68.56000 769.383
68.57000 787.752
68.58000 817.279
68.59000 851.139
68.60000 884.326
68.61000 907.432
68.62000 927.161
68.63000 949.047
68.64000 988.626
68.65000 1032.119
68.66000 1069.191
68.67000 1140.722
68.68000 1204.933
68.69000 1261.907
68.70000 1294.864
68.71000 1325.911
68.72000 1364.434
68.73000 1419.574
68.74000 1475.324
68.75000 1508.728
68.76000 1569.029
68.77000 1612.028
68.78000 1659.245
68.79000 1710.473
68.80000 1761.824
68.81000 1822.043
68.82000 1887.737
68.83000 1951.421
68.84000 2046.397
68.85000 2148.587
68.86000 2255.558
68.87000 2415.170
68.88000 2589.303
68.89000 2796.965
68.90000 3221.057
68.91000 3683.890
68.92000 4063.615
68.93000 5521.489
68.94000 6813.899
68.95000 8505.438
68.96000 11289.922
68.97000 14136.832
68.98000 17400.318
68.99000 21428.752
69.00000 25473.709
69.01000 27688.586
69.02000 33625.891
69.03000 37709.785
69.04000 40841.852
69.05000 43241.680
69.06000 45614.566
69.07000 46971.801
69.08000 47812.297
69.09000 48614.156
69.10000 48956.281
69.11000 49128.207
69.12000 49344.488
69.13000 49933.840
69.14000 50607.406
69.15000 51256.418
69.16000 51778.348
69.17000 52282.148
69.18000 52677.816
69.19000 52016.570
69.20000 51418.230
69.21000 50318.680
69.22000 48084.090
69.23000 45806.035
69.24000 43218.637
69.25000 40163.980
69.26000 37104.660
69.27000 34535.844
69.28000 32443.906
69.29000 30360.184
69.30000 28921.973
69.31000 27890.008
69.32000 26870.199
69.33000 26134.555
69.34000 25518.434
69.35000 24942.045
69.36000 24179.652
69.37000 23439.525
69.38000 22622.908
69.39000 21301.266
69.40000 19887.271
69.41000 18345.332
69.42000 16265.448
69.43000 14125.686
69.44000 12526.938
69.45000 10095.401
69.46000 8161.435
69.47000 6530.860
69.48000 5468.016
69.49000 4418.184
69.50000 3601.926
69.51000 3073.592
69.52000 2547.076
69.53000 2206.173
69.54000 2011.972
69.55000 1819.000
69.56000 1674.993
69.57000 1556.371
69.58000 1439.795
69.59000 1355.939
69.60000 1283.462
69.61000 1217.228
69.62000 1169.283
69.63000 1130.437
69.64000 1092.139
69.65000 1056.739
69.66000 1021.763
69.67000 989.068
69.68000 964.237
69.69000 940.069
69.70000 923.011
69.71000 911.964
69.72000 903.762
69.73000 890.743
69.74000 870.303
69.75000 849.780
69.76000 832.692
69.77000 819.016
69.78000 805.437
69.79000 789.028
69.80000 771.093
69.81000 753.230
69.82000 737.122
69.83000 721.768
69.84000 707.572
69.85000 706.875
69.86000 710.048
69.87000 712.869
69.88000 695.509
69.89000 677.173
69.90000 661.389
69.91000 656.557
69.92000 652.976
69.93000 649.174
69.94000 644.745
69.95000 640.277
69.96000 637.323
69.97000 644.401
69.98000 649.804
69.99000 650.227
70.00000 644.385
