20.00000 576.839
20.01000 566.409
20.02000 554.488
20.03000 545.903
20.04000 550.206
20.05000 555.790
20.06000 559.868
20.07000 565.834
20.08000 570.508
20.09000 571.364
20.10000 565.637
20.11000 559.794
20.12000 558.520
20.13000 562.397
20.14000 566.264
20.15000 572.409
20.16000 580.123
20.17000 587.333
20.18000 578.499
20.19000 561.990
20.20000 546.458
20.21000 544.504
20.22000 546.906
20.23000 549.077
20.24000 554.849
20.25000 560.595
20.26000 564.540
20.27000 559.781
20.28000 553.872
20.29000 550.891
20.30000 557.209
20.31000 564.216
20.32000 569.034
20.33000 567.574
20.34000 566.325
20.35000 568.534
20.36000 575.644
20.37000 582.783
20.38000 580.692
20.39000 570.241
20.40000 559.896
20.41000 551.215
20.42000 543.684
20.43000 536.747
20.44000 541.992
20.45000 552.058
20.46000 561.244
20.47000 561.348
20.48000 559.056
20.49000 557.043
20.50000 561.070
20.51000 565.414
20.52000 570.822
20.53000 580.423
20.54000 590.452
20.55000 595.237
20.56000 586.263
20.57000 576.566
20.58000 570.343
20.59000 566.071
20.60000 562.983
20.61000 560.718
20.62000 559.400
20.63000 558.081
20.64000 556.221
20.65000 553.964
20.66000 551.751
20.67000 552.602
20.68000 554.858
20.69000 557.032
20.70000 558.028
20.71000 558.639
20.72000 558.714
20.73000 554.529
20.74000 549.426
20.75000 545.096
20.76000 549.499
20.77000 554.182
20.78000 557.971
20.79000 558.865
20.80000 559.538
20.81000 559.305
20.82000 557.106
20.83000 554.840
20.84000 553.496
20.85000 549.959
20.86000 547.445
20.87000 547.094
20.88000 548.744
20.89000 550.391
20.90000 551.855
20.91000 553.208
20.92000 554.518
20.93000 553.342
20.94000 551.284
20.95000 549.535
20.96000 551.060
20.97000 553.465
20.98000 555.806
20.99000 557.744
21.00000 559.612
21.01000 561.137
21.02000 565.360
21.03000 569.046
21.04000 570.099
21.05000 564.111
21.06000 557.740
21.07000 553.581
21.08000 553.388
21.09000 553.274
21.10000 553.212
21.11000 548.709
21.12000 545.622
21.13000 542.633
21.14000 539.717
21.15000 536.775
21.16000 532.898
21.17000 528.556
21.18000 524.423
21.19000 539.206
21.20000 558.725
21.21000 575.924
21.22000 574.230
21.23000 568.381
21.24000 563.291
21.25000 562.025
21.26000 561.288
21.27000 560.713
21.28000 550.507
21.29000 541.761
21.30000 537.841
21.31000 544.588
21.32000 551.720
21.33000 554.318
21.34000 550.234
21.35000 546.092
21.36000 548.679
21.37000 557.624
21.38000 566.358
21.39000 560.087
21.40000 544.606
21.41000 529.848
21.42000 531.131
21.43000 539.000
21.44000 546.342
21.45000 548.600
21.46000 549.382
21.47000 548.932
21.48000 540.578
21.49000 530.817
21.50000 524.349
21.51000 531.372
21.52000 539.848
21.53000 546.138
21.54000 541.061
21.55000 536.617
21.56000 533.702
21.57000 533.579
21.58000 533.515
21.59000 534.698
21.60000 537.379
21.61000 540.055
21.62000 545.847
21.63000 553.972
21.64000 561.837
21.65000 560.075
21.66000 553.440
21.67000 547.497
21.68000 552.151
21.69000 560.402
21.70000 567.917
21.71000 575.518
21.72000 582.267
21.73000 588.793
21.74000 594.174
21.75000 599.392
21.76000 603.025
21.77000 601.323
21.78000 599.188
21.79000 597.693
21.80000 606.479
21.81000 613.418
21.82000 620.916
21.83000 629.255
21.84000 637.601
21.85000 646.572
21.86000 656.146
21.87000 665.643
21.88000 673.830
21.89000 681.068
21.90000 688.595
21.91000 702.823
21.92000 719.854
21.93000 736.678
21.94000 751.179
21.95000 765.031
21.96000 777.300
21.97000 773.010
21.98000 766.695
21.99000 761.814
22.00000 762.934
22.01000 764.717
22.02000 769.213
22.03000 781.238
22.04000 793.704
22.05000 801.875
22.06000 799.183
22.07000 797.023
22.08000 792.395
22.09000 784.741
22.10000 777.086
22.11000 771.261
22.12000 766.864
22.13000 762.540
22.14000 757.924
22.15000 753.312
22.16000 748.294
22.17000 736.852
22.18000 723.188
22.19000 708.926
22.20000 689.551
22.21000 669.006
22.22000 651.389
22.23000 662.197
22.24000 674.808
22.25000 680.026
22.26000 659.899
22.27000 637.654
22.28000 622.205
22.29000 622.357
22.30000 623.124
22.31000 623.590
22.32000 606.171
22.33000 593.599
22.34000 587.064
22.35000 586.487
22.36000 585.987
22.37000 591.867
22.38000 601.817
22.39000 611.485
22.40000 603.703
22.41000 589.242
22.42000 575.340
22.43000 567.897
22.44000 562.295
22.45000 557.402
22.46000 557.270
22.47000 558.022
22.48000 558.642
22.49000 558.912
22.50000 559.101
22.51000 559.599
22.52000 560.968
22.53000 562.391
22.54000 559.468
22.55000 548.301
22.56000 536.938
22.57000 530.615
22.58000 538.536
22.59000 544.018
22.60000 541.823
22.61000 533.514
22.62000 525.402
22.63000 525.447
22.64000 529.779
22.65000 533.924
22.66000 526.835
22.67000 516.545
22.68000 507.983
22.69000 514.598
22.70000 524.759
22.71000 533.672
22.72000 535.891
22.73000 537.116
22.74000 538.086
22.75000 526.578
22.76000 516.468
22.77000 510.278
22.78000 513.256
22.79000 516.611
22.80000 520.968
22.81000 526.889
22.82000 532.829
22.83000 535.812
22.84000 526.030
22.85000 519.546
22.86000 517.405
22.87000 518.090
22.88000 518.820
22.89000 520.706
22.90000 523.095
22.91000 525.337
22.92000 520.284
22.93000 513.742
22.94000 508.436
22.95000 511.610
22.96000 516.392
22.97000 518.772
22.98000 510.703
22.99000 501.419
23.00000 494.422
23.01000 504.134
23.02000 512.559
23.03000 515.602
23.04000 508.242
23.05000 500.620
23.06000 497.112
23.07000 498.855
23.08000 500.615
23.09000 505.837
23.10000 513.842
23.11000 521.664
23.12000 521.449
23.13000 516.929
23.14000 512.619
23.15000 511.842
23.16000 512.333
23.17000 512.785
23.18000 510.686
23.19000 508.274
23.20000 507.516
23.21000 515.832
23.22000 525.525
23.23000 530.155
23.24000 516.753
23.25000 501.754
23.26000 491.059
23.27000 500.236
23.28000 507.883
23.29000 511.133
23.30000 507.380
23.31000 503.537
23.32000 503.013
23.33000 505.910
23.34000 508.790
23.35000 508.107
23.36000 505.104
23.37000 502.111
23.38000 499.388
23.39000 496.784
23.40000 494.438
23.41000 495.254
23.42000 497.006
23.43000 498.571
23.44000 504.883
23.45000 511.183
23.46000 516.165
23.47000 515.290
23.48000 513.718
23.49000 509.672
23.50000 498.362
23.51000 486.582
23.52000 478.700
23.53000 489.639
23.54000 498.123
23.55000 501.745
23.56000 499.034
23.57000 496.300
23.58000 495.303
23.59000 495.747
23.60000 496.184
23.61000 493.454
23.62000 489.121
23.63000 484.944
23.64000 483.529
23.65000 483.123
23.66000 482.964
23.67000 485.078
23.68000 487.744
23.69000 490.053
23.70000 490.128
23.71000 489.897
23.72000 491.421
23.73000 499.319
23.74000 507.798
23.75000 510.633
23.76000 499.772
23.77000 488.299
23.78000 481.162
23.79000 489.749
23.80000 496.090
23.81000 499.385
23.82000 499.472
23.83000 499.565
23.84000 500.455
23.85000 501.883
23.86000 503.276
23.87000 500.151
23.88000 495.220
23.89000 490.982
23.90000 495.496
23.91000 502.653
23.92000 507.722
23.93000 497.779
23.94000 484.867
23.95000 474.078
23.96000 485.003
23.97000 496.276
23.98000 502.770
23.99000 494.970
24.00000 486.213
24.01000 478.929
24.02000 474.603
24.03000 470.359
24.04000 467.932
24.05000 475.755
24.06000 481.249
24.07000 485.395
24.08000 488.398
24.09000 491.334
24.10000 490.940
24.11000 488.695
24.12000 486.537
24.13000 483.050
24.14000 479.320
24.15000 476.350
24.16000 480.594
24.17000 486.627
24.18000 491.734
24.19000 491.549
24.20000 490.522
24.21000 489.699
24.22000 490.635
24.23000 491.527
24.24000 491.276
24.25000 488.201
24.26000 484.995
24.27000 482.644
24.28000 481.707
24.29000 480.791
24.30000 480.317
24.31000 484.431
24.32000 487.207
24.33000 489.868
24.34000 492.449
24.35000 494.858
24.36000 492.319
24.37000 487.507
24.38000 482.962
24.39000 484.859
24.40000 488.417
24.41000 491.692
24.42000 492.873
24.43000 493.631
24.44000 493.853
24.45000 491.597
24.46000 489.030
24.47000 487.066
24.48000 485.684
24.49000 484.625
24.50000 484.436
24.51000 486.025
24.52000 487.666
24.53000 487.570
24.54000 485.119
24.55000 482.656
24.56000 477.669
24.57000 470.514
24.58000 463.586
24.59000 468.683
24.60000 480.594
24.61000 491.732
24.62000 488.256
24.63000 479.231
24.64000 470.889
24.65000 468.584
24.66000 467.885
24.67000 468.075
24.68000 473.465
24.69000 479.700
24.70000 487.109
24.71000 498.951
24.72000 511.221
24.73000 520.120
24.74000 501.652
24.75000 486.441
24.76000 475.853
24.77000 473.060
24.78000 470.393
24.79000 467.715
24.80000 465.027
24.81000 462.350
24.82000 463.309
24.83000 466.790
24.84000 470.234
24.85000 472.604
24.86000 474.470
24.87000 476.150
24.88000 475.341
24.89000 473.752
24.90000 472.319
24.91000 472.827
24.92000 473.623
24.93000 474.764
24.94000 477.532
24.95000 480.509
24.96000 481.956
24.97000 478.654
24.98000 475.013
24.99000 472.528
25.00000 481.306
25.01000 488.131
25.02000 487.831
25.03000 477.676
25.04000 467.466
25.05000 464.813
25.06000 468.836
25.07000 472.813
25.08000 472.252
25.09000 469.144
25.10000 466.196
25.11000 466.389
25.12000 467.798
25.13000 468.962
25.14000 467.668
25.15000 465.740
25.16000 464.054
25.17000 467.421
25.18000 471.025
25.19000 474.142
25.20000 475.384
25.21000 476.441
25.22000 477.125
25.23000 476.856
25.24000 476.539
25.25000 476.337
25.26000 468.599
25.27000 462.883
25.28000 462.364
25.29000 467.682
25.30000 472.966
25.31000 472.470
25.32000 467.827
25.33000 463.280
25.34000 463.504
25.35000 465.902
25.36000 468.356
25.37000 471.579
25.38000 475.048
25.39000 478.527
25.40000 482.077
25.41000 485.643
25.42000 488.655
25.43000 483.205
25.44000 477.717
25.45000 473.924
25.46000 475.499
25.47000 477.469
25.48000 476.364
25.49000 468.734
25.50000 460.891
25.51000 456.287
25.52000 451.888
25.53000 448.793
25.54000 451.283
25.55000 458.812
25.56000 466.264
25.57000 469.054
25.58000 469.101
25.59000 469.146
25.60000 468.564
25.61000 467.783
25.62000 467.421
25.63000 471.367
25.64000 476.445
25.65000 480.695
25.66000 479.889
25.67000 478.226
25.68000 476.875
25.69000 467.382
25.70000 458.964
25.71000 454.102
25.72000 458.537
25.73000 463.457
25.74000 465.919
25.75000 464.074
25.76000 462.150
25.77000 461.122
25.78000 468.217
25.79000 473.034
25.80000 473.055
25.81000 469.568
25.82000 466.009
25.83000 460.084
25.84000 453.010
25.85000 446.292
25.86000 451.258
25.87000 459.359
25.88000 465.863
25.89000 459.734
25.90000 450.892
25.91000 443.848
25.92000 445.638
25.93000 448.617
25.94000 450.930
25.95000 452.948
25.96000 454.535
25.97000 455.525
25.98000 455.225
25.99000 454.881
26.00000 455.185
26.01000 456.423
26.02000 457.667
26.03000 458.386
26.04000 458.619
26.05000 458.821
26.06000 456.938
26.07000 453.805
26.08000 450.790
26.09000 450.296
26.10000 450.814
26.11000 451.297
26.12000 450.712
26.13000 449.924
26.14000 449.140
26.15000 448.375
26.16000 447.613
26.17000 446.252
26.18000 442.496
26.19000 438.490
26.20000 435.536
26.21000 447.286
26.22000 457.005
26.23000 460.946
26.24000 454.574
26.25000 447.998
26.26000 446.165
26.27000 449.887
26.28000 453.607
26.29000 453.056
26.30000 449.342
26.31000 445.787
26.32000 447.792
26.33000 452.548
26.34000 456.771
26.35000 453.138
26.36000 446.896
26.37000 441.228
26.38000 442.505
26.39000 444.977
26.40000 448.070
26.41000 454.286
26.42000 460.932
26.43000 463.720
26.44000 453.823
26.45000 442.933
26.46000 435.361
26.47000 440.717
26.48000 445.104
26.49000 448.724
26.50000 451.217
26.51000 453.700
26.52000 458.372
26.53000 465.105
26.54000 471.778
26.55000 470.455
26.56000 464.361
26.57000 458.399
26.58000 455.331
26.59000 453.449
26.60000 451.780
26.61000 452.429
26.62000 453.711
26.63000 454.843
26.64000 458.123
26.65000 461.281
26.66000 460.789
26.67000 445.395
26.68000 428.404
26.69000 420.081
26.70000 435.282
26.71000 451.805
26.72000 462.546
26.73000 451.384
26.74000 442.867
26.75000 441.443
26.76000 448.500
26.77000 455.537
26.78000 454.489
26.79000 447.281
26.80000 440.201
26.81000 445.000
26.82000 455.416
26.83000 465.334
26.84000 467.664
26.85000 467.428
26.86000 467.019
26.87000 465.173
26.88000 463.007
26.89000 461.158
26.90000 457.765
26.91000 454.724
26.92000 452.683
26.93000 453.992
26.94000 455.571
26.95000 453.498
26.96000 443.230
26.97000 432.654
26.98000 426.290
26.99000 428.220
27.00000 429.651
27.01000 433.190
27.02000 438.759
27.03000 444.242
27.04000 443.282
27.05000 438.304
27.06000 433.476
27.07000 427.551
27.08000 421.502
27.09000 416.614
27.10000 424.703
27.11000 436.409
27.12000 447.009
27.13000 450.388
27.14000 452.460
27.15000 454.163
27.16000 449.247
27.17000 444.609
27.18000 442.498
27.19000 447.373
27.20000 452.654
27.21000 453.277
27.22000 445.259
27.23000 437.049
27.24000 432.532
27.25000 432.237
27.26000 432.051
27.27000 434.516
27.28000 439.040
27.29000 443.511
27.30000 445.877
27.31000 447.163
27.32000 448.390
27.33000 452.752
27.34000 457.809
27.35000 461.386
27.36000 452.357
27.37000 440.451
27.38000 430.237
27.39000 428.868
27.40000 428.776
27.41000 428.704
27.42000 428.835
27.43000 428.954
27.44000 431.414
27.45000 439.228
27.46000 447.252
27.47000 447.990
27.48000 437.610
27.49000 427.112
27.50000 426.792
27.51000 436.476
27.52000 446.087
27.53000 449.637
27.54000 449.334
27.55000 449.029
27.56000 448.659
27.57000 448.263
27.58000 447.891
27.59000 441.684
27.60000 434.532
27.61000 428.240
27.62000 427.698
27.63000 428.218
27.64000 428.393
27.65000 427.103
27.66000 425.648
27.67000 424.558
27.68000 423.689
27.69000 423.021
27.70000 421.163
27.71000 417.054
27.72000 412.893
27.73000 415.145
27.74000 425.388
27.75000 435.636
27.76000 439.872
27.77000 439.340
27.78000 438.736
27.79000 435.194
27.80000 430.112
27.81000 425.160
27.82000 422.310
27.83000 420.198
27.84000 418.266
27.85000 413.707
27.86000 409.108
27.87000 406.925
27.88000 417.654
27.89000 430.291
27.90000 440.773
27.91000 443.757
27.92000 446.099
27.93000 447.757
27.94000 452.906
27.95000 456.928
27.96000 457.787
27.97000 453.725
27.98000 449.605
27.99000 443.689
28.00000 435.969
28.01000 428.300
28.02000 423.936
28.03000 421.747
28.04000 419.869
28.05000 425.734
28.06000 434.949
28.07000 443.582
28.08000 445.336
28.09000 445.098
28.10000 444.886
28.11000 440.632
28.12000 436.273
28.13000 432.393
28.14000 430.597
28.15000 429.041
28.16000 427.113
28.17000 424.118
28.18000 421.057
28.19000 419.025
28.20000 418.568
28.21000 418.260
28.22000 421.750
28.23000 430.071
28.24000 438.400
28.25000 443.331
28.26000 445.509
28.27000 447.656
28.28000 449.447
28.29000 451.002
28.30000 452.286
28.31000 449.001
28.32000 444.083
28.33000 439.138
28.34000 433.966
28.35000 428.739
28.36000 424.230
28.37000 432.685
28.38000 441.519
28.39000 447.172
28.40000 441.533
28.41000 434.900
28.42000 430.140
28.43000 429.828
28.44000 429.705
28.45000 429.629
28.46000 418.875
28.47000 411.061
28.48000 410.735
28.49000 418.101
28.50000 425.379
28.51000 424.061
28.52000 417.062
28.53000 410.244
28.54000 413.219
28.55000 420.170
28.56000 426.875
28.57000 430.592
28.58000 433.427
28.59000 435.393
28.60000 431.279
28.61000 425.992
28.62000 421.594
28.63000 420.803
28.64000 420.503
28.65000 420.203
28.66000 419.905
28.67000 419.607
28.68000 420.601
28.69000 424.132
28.70000 427.731
28.71000 429.766
28.72000 419.059
28.73000 411.587
28.74000 408.963
28.75000 410.349
28.76000 411.665
28.77000 409.830
28.78000 406.282
28.79000 402.877
28.80000 409.722
28.81000 419.615
28.82000 428.109
28.83000 423.726
28.84000 416.226
28.85000 410.210
28.86000 412.465
28.87000 416.000
28.88000 418.819
28.89000 416.245
28.90000 413.773
28.91000 414.348
28.92000 422.291
28.93000 430.560
28.94000 430.620
28.95000 417.405
28.96000 404.007
28.97000 397.147
28.98000 400.692
28.99000 403.086
29.00000 406.473
29.01000 410.532
29.02000 414.450
29.03000 414.580
29.04000 413.007
29.05000 411.525
29.06000 412.660
29.07000 414.419
29.08000 415.467
29.09000 411.420
29.10000 406.370
29.11000 402.863
29.12000 406.321
29.13000 410.627
29.14000 413.902
29.15000 418.541
29.16000 422.262
29.17000 421.446
29.18000 411.559
29.19000 401.418
29.20000 399.349
29.21000 407.964
29.22000 416.622
29.23000 412.855
29.24000 398.641
29.25000 384.768
29.26000 387.595
29.27000 399.675
29.28000 411.532
29.29000 419.365
29.30000 425.703
29.31000 431.545
29.32000 420.943
29.33000 407.815
29.34000 397.765
29.35000 405.246
29.36000 415.500
29.37000 424.342
29.38000 427.981
29.39000 431.135
29.40000 433.408
29.41000 431.786
29.42000 430.406
29.43000 427.965
29.44000 423.776
29.45000 419.562
29.46000 416.039
29.47000 413.258
29.48000 410.491
29.49000 411.227
29.50000 414.332
29.51000 417.408
29.52000 419.641
29.53000 421.487
29.54000 423.102
29.55000 421.730
29.56000 419.442
29.57000 417.388
29.58000 420.075
29.59000 423.259
29.60000 425.288
29.61000 422.000
29.62000 418.049
29.63000 415.060
29.64000 414.995
29.65000 415.131
29.66000 415.223
29.67000 428.710
29.68000 439.054
29.69000 439.120
29.70000 425.302
29.71000 411.426
29.72000 410.189
29.73000 419.841
29.74000 429.377
29.75000 429.129
29.76000 423.504
29.77000 418.468
29.78000 424.494
29.79000 434.707
29.80000 444.065
29.81000 445.142
29.82000 444.132
29.83000 443.252
29.84000 435.513
29.85000 427.952
29.86000 423.315
29.87000 429.670
29.88000 437.078
29.89000 441.964
29.90000 440.520
29.91000 438.773
29.92000 437.671
29.93000 450.715
29.94000 460.322
29.95000 460.238
29.96000 449.539
29.97000 438.946
29.98000 443.184
29.99000 457.817
30.00000 472.122
30.01000 468.061
30.02000 455.960
30.03000 445.262
30.04000 453.268
30.05000 467.120
30.06000 478.813
30.07000 474.296
30.08000 466.452
30.09000 459.854
30.10000 459.940
30.11000 460.723
30.12000 461.183
30.13000 460.642
30.14000 460.030
30.15000 459.789
30.16000 460.319
30.17000 460.871
30.18000 461.193
30.19000 457.935
30.20000 455.631
30.21000 452.569
30.22000 448.839
30.23000 445.133
30.24000 442.743
30.25000 441.111
30.26000 439.537
30.27000 432.221
30.28000 423.258
30.29000 415.219
30.30000 416.360
30.31000 419.861
30.32000 423.379
30.33000 427.006
30.34000 430.650
30.35000 433.596
30.36000 426.967
30.37000 420.810
30.38000 415.916
30.39000 414.253
30.40000 412.751
30.41000 414.364
30.42000 421.312
30.43000 428.351
30.44000 432.068
30.45000 424.221
30.46000 418.922
30.47000 419.065
30.48000 423.099
30.49000 427.067
30.50000 428.973
30.51000 429.900
30.52000 430.778
30.53000 433.585
30.54000 436.736
30.55000 438.844
30.56000 432.932
30.57000 425.338
30.58000 421.466
30.59000 435.439
30.60000 451.747
30.61000 464.337
30.62000 447.009
30.63000 431.535
30.64000 423.851
30.65000 432.642
30.66000 441.965
30.67000 446.222
30.68000 443.360
30.69000 440.448
30.70000 440.409
30.71000 442.949
30.72000 445.511
30.73000 449.472
30.74000 454.252
30.75000 458.919
30.76000 461.299
30.77000 462.780
30.78000 464.154
30.79000 469.364
30.80000 474.964
30.81000 479.423
30.82000 476.937
30.83000 473.279
30.84000 471.946
30.85000 479.708
30.86000 488.390
30.87000 494.751
30.88000 503.660
30.89000 510.641
30.90000 517.843
30.91000 525.432
30.92000 533.028
30.93000 544.245
30.94000 559.599
30.95000 574.904
30.96000 585.918
30.97000 593.736
30.98000 601.700
30.99000 614.432
31.00000 629.472
31.01000 645.720
31.02000 679.098
31.03000 718.036
31.04000 753.287
31.05000 786.280
31.06000 814.919
31.07000 846.622
31.08000 893.332
31.09000 942.053
31.10000 994.342
31.11000 1058.100
31.12000 1122.726
31.13000 1167.329
31.14000 1263.896
31.15000 1337.781
31.16000 1429.451
31.17000 1546.615
31.18000 1663.982
31.19000 1790.425
31.20000 1925.199
31.21000 2058.669
31.22000 2176.758
31.23000 2283.386
31.24000 2390.604
31.25000 2510.215
31.26000 2634.787
31.27000 2759.397
31.28000 2884.415
31.29000 3009.542
31.30000 3119.579
31.31000 3233.008
31.32000 3331.106
31.33000 3421.958
31.34000 3483.914
31.35000 3542.869
31.36000 3596.278
31.37000 3634.966
31.38000 3672.862
31.39000 3697.289
31.40000 3634.125
31.41000 3586.748
31.42000 3535.035
31.43000 3478.262
31.44000 3421.305
31.45000 3330.639
31.46000 3214.896
31.47000 3101.354
31.48000 2987.683
31.49000 2878.088
31.50000 2767.329
31.51000 2639.503
31.52000 2506.033
31.53000 2370.636
31.54000 2219.694
31.55000 2065.358
31.56000 1934.114
31.57000 1811.369
31.58000 1709.260
31.59000 1607.482
31.60000 1506.786
31.61000 1406.175
31.62000 1312.536
31.63000 1234.202
31.64000 1156.412
31.65000 1110.057
31.66000 1019.637
31.67000 955.292
31.68000 904.596
31.69000 866.697
31.70000 828.872
31.71000 796.259
31.72000 766.822
31.73000 738.311
31.74000 705.648
31.75000 673.150
31.76000 641.790
31.77000 622.732
31.78000 607.023
31.79000 590.619
31.80000 569.792
31.81000 548.185
31.82000 530.506
31.83000 529.527
31.84000 530.183
31.85000 525.372
31.86000 505.773
31.87000 485.349
31.88000 471.908
31.89000 471.128
31.90000 470.610
31.91000 470.328
31.92000 475.526
31.93000 479.060
31.94000 474.140
31.95000 462.803
31.96000 451.612
31.97000 445.733
31.98000 442.522
31.99000 439.463
32.00000 432.259
32.01000 424.288
32.02000 417.428
32.03000 419.760
32.04000 424.139
32.05000 427.948
32.06000 428.844
32.07000 429.331
32.08000 429.713
32.09000 434.320
32.10000 438.271
32.11000 438.194
32.12000 429.110
32.13000 419.691
32.14000 414.098
32.15000 414.210
32.16000 414.376
32.17000 414.206
32.18000 413.714
32.19000 413.202
32.20000 411.278
32.21000 408.477
32.22000 406.020
32.23000 411.406
32.24000 420.050
32.25000 428.126
32.26000 418.670
32.27000 405.676
32.28000 393.633
32.29000 387.769
32.30000 383.020
32.31000 381.281
32.32000 392.035
32.33000 404.157
32.34000 413.181
32.35000 408.734
32.36000 404.668
32.37000 400.731
32.38000 397.035
32.39000 393.344
32.40000 389.593
32.41000 385.770
32.42000 381.956
32.43000 383.520
32.44000 389.217
32.45000 394.723
32.46000 392.871
32.47000 387.253
32.48000 381.808
32.49000 379.082
32.50000 377.289
32.51000 375.654
32.52000 375.316
32.53000 375.279
32.54000 376.239
32.55000 382.396
32.56000 389.300
32.57000 393.824
32.58000 390.247
32.59000 385.999
32.60000 383.014
32.61000 391.524
32.62000 398.310
32.63000 398.110
32.64000 387.291
32.65000 376.361
32.66000 371.152
32.67000 371.542
32.68000 371.929
32.69000 372.689
32.70000 373.668
32.71000 374.706
32.72000 377.134
32.73000 380.150
32.74000 383.086
32.75000 385.118
32.76000 386.893
32.77000 388.469
32.78000 391.424
32.79000 394.205
32.80000 400.450
32.81000 421.355
32.82000 443.906
32.83000 462.000
32.84000 467.580
32.85000 472.412
32.86000 475.593
32.87000 492.225
32.88000 504.707
32.89000 513.023
32.90000 516.170
32.91000 519.303
32.92000 522.963
32.93000 527.039
32.94000 531.050
32.95000 529.257
32.96000 524.587
32.97000 520.235
32.98000 521.023
32.99000 523.608
33.00000 524.781
33.01000 513.665
33.02000 499.701
33.03000 487.702
33.04000 479.502
33.05000 473.039
33.06000 463.630
33.07000 444.003
33.08000 423.506
33.09000 406.463
33.10000 397.439
33.11000 388.740
33.12000 383.429
33.13000 380.013
33.14000 377.586
33.15000 376.527
33.16000 376.839
33.17000 377.107
33.18000 373.511
33.19000 367.419
33.20000 361.496
33.21000 355.155
33.22000 348.953
33.23000 343.556
33.24000 347.638
33.25000 354.455
33.26000 359.382
33.27000 351.443
33.28000 341.085
33.29000 332.507
33.30000 341.546
33.31000 350.681
33.32000 357.149
33.33000 355.989
33.34000 354.357
33.35000 352.500
33.36000 350.213
33.37000 347.914
33.38000 346.628
33.39000 356.325
33.40000 363.049
33.41000 362.182
33.42000 355.194
33.43000 348.346
33.44000 347.509
33.45000 349.868
33.46000 352.127
33.47000 348.091
33.48000 342.234
33.49000 336.414
33.50000 330.915
33.51000 325.492
33.52000 321.988
33.53000 328.918
33.54000 337.418
33.55000 344.164
33.56000 350.052
33.57000 354.729
33.58000 356.172
33.59000 349.964
33.60000 343.432
33.61000 340.885
33.62000 344.634
33.63000 348.461
33.64000 350.397
33.65000 348.290
33.66000 346.837
33.67000 341.217
33.68000 332.853
33.69000 324.861
33.70000 326.469
33.71000 332.294
33.72000 337.770
33.73000 340.692
33.74000 342.675
33.75000 344.436
33.76000 344.648
33.77000 344.562
33.78000 343.462
33.79000 337.896
33.80000 331.802
33.81000 327.194
33.82000 332.460
33.83000 337.085
33.84000 339.483
33.85000 337.526
33.86000 335.456
33.87000 333.730
33.88000 332.452
33.89000 331.176
33.90000 331.851
33.91000 334.124
33.92000 336.385
33.93000 338.106
33.94000 339.534
33.95000 340.848
33.96000 340.167
33.97000 338.761
33.98000 337.468
33.99000 341.071
34.00000 345.343
34.01000 347.626
34.02000 338.868
34.03000 328.409
34.04000 321.489
34.05000 327.322
34.06000 334.305
34.07000 339.302
34.08000 333.697
34.09000 329.060
34.10000 328.161
34.11000 333.286
34.12000 338.492
34.13000 340.010
34.14000 337.672
34.15000 335.347
34.16000 336.926
34.17000 341.070
34.18000 344.922
34.19000 340.914
34.20000 333.389
34.21000 326.236
34.22000 323.721
34.23000 322.597
34.24000 321.591
34.25000 332.753
34.26000 344.574
34.27000 351.550
34.28000 336.750
34.29000 319.314
34.30000 307.882
34.31000 314.280
34.32000 321.857
34.33000 326.948
34.34000 315.377
34.35000 306.440
34.36000 306.748
34.37000 319.250
34.38000 331.799
34.39000 339.591
34.40000 343.385
34.41000 347.129
34.42000 348.963
34.43000 349.722
34.44000 350.305
34.45000 347.751
34.46000 344.035
34.47000 340.098
34.48000 334.092
34.49000 327.576
34.50000 321.922
34.51000 321.960
34.52000 322.756
34.53000 325.003
34.54000 332.582
34.55000 340.656
34.56000 343.491
34.57000 333.465
34.58000 322.849
34.59000 316.215
34.60000 321.161
34.61000 324.852
34.62000 326.416
34.63000 325.710
34.64000 325.022
34.65000 326.606
34.66000 329.745
34.67000 332.810
34.68000 331.978
34.69000 329.484
34.70000 326.957
34.71000 324.019
34.72000 320.956
34.73000 318.031
34.74000 316.112
34.75000 314.396
34.76000 312.958
34.77000 320.877
34.78000 328.426
34.79000 334.163
34.80000 334.417
34.81000 334.295
34.82000 331.965
34.83000 325.149
34.84000 318.203
34.85000 314.209
34.86000 320.182
34.87000 324.390
34.88000 323.932
34.89000 319.470
34.90000 315.056
34.91000 313.150
34.92000 312.653
34.93000 312.175
34.94000 310.086
34.95000 307.555
34.96000 305.611
34.97000 309.317
34.98000 314.441
34.99000 319.045
35.00000 320.630
35.01000 321.730
35.02000 322.613
35.03000 317.811
35.04000 313.477
35.05000 310.823
35.06000 312.370
35.07000 314.117
35.08000 316.104
35.09000 318.496
35.10000 320.893
35.11000 322.145
35.12000 315.537
35.13000 311.097
35.14000 310.668
35.15000 313.042
35.16000 315.341
35.17000 315.473
35.18000 314.598
35.19000 313.771
35.20000 321.059
35.21000 330.078
35.22000 337.238
35.23000 330.507
35.24000 320.935
35.25000 313.554
35.26000 316.423
35.27000 320.596
35.28000 323.798
35.29000 319.739
35.30000 316.126
35.31000 312.719
35.32000 309.739
35.33000 306.772
35.34000 304.633
35.35000 303.629
35.36000 302.632
35.37000 303.752
35.38000 306.722
35.39000 309.709
35.40000 313.632
35.41000 318.090
35.42000 322.251
35.43000 320.659
35.44000 316.857
35.45000 313.338
35.46000 310.907
35.47000 308.971
35.48000 308.317
35.49000 315.252
35.50000 323.435
35.51000 328.602
35.52000 322.237
35.53000 314.742
35.54000 309.288
35.55000 310.760
35.56000 312.158
35.57000 310.288
35.58000 302.840
35.59000 295.299
35.60000 294.828
35.61000 302.237
35.62000 309.622
35.63000 313.353
35.64000 314.470
35.65000 315.499
35.66000 313.803
35.67000 310.816
35.68000 307.852
35.69000 305.185
35.70000 302.612
35.71000 300.290
35.72000 303.819
35.73000 307.992
35.74000 311.630
35.75000 312.710
35.76000 313.457
35.77000 313.060
35.78000 309.065
35.79000 304.808
35.80000 301.892
35.81000 310.317
35.82000 316.898
35.83000 317.622
35.84000 310.142
35.85000 302.611
35.86000 301.138
35.87000 305.083
35.88000 308.987
35.89000 308.091
35.90000 304.473
35.91000 301.318
35.92000 307.461
35.93000 317.244
35.94000 325.345
35.95000 316.343
35.96000 302.878
35.97000 291.080
35.98000 292.950
35.99000 296.528
36.00000 300.456
36.01000 305.743
36.02000 311.168
36.03000 315.106
36.04000 315.187
36.05000 315.069
36.06000 314.994
36.07000 309.159
36.08000 304.836
36.09000 303.046
36.10000 304.136
36.11000 305.219
36.12000 304.582
36.13000 302.694
36.14000 300.845
36.15000 301.005
36.16000 302.091
36.17000 303.315
36.18000 306.501
36.19000 310.322
36.20000 313.164
36.21000 308.336
36.22000 301.874
36.23000 296.402
36.24000 296.808
36.25000 297.805
36.26000 298.822
36.27000 299.906
36.28000 300.996
36.29000 302.271
36.30000 303.945
36.31000 305.633
36.32000 306.629
36.33000 303.788
36.34000 301.763
36.35000 302.738
36.36000 306.455
36.37000 310.125
36.38000 310.795
36.39000 309.677
36.40000 308.596
36.41000 303.086
36.42000 296.218
36.43000 290.649
36.44000 298.652
36.45000 310.267
36.46000 319.319
36.47000 312.503
36.48000 302.959
36.49000 295.187
36.50000 294.293
36.51000 294.143
36.52000 294.046
36.53000 294.089
36.54000 294.139
36.55000 295.825
36.56000 300.412
36.57000 305.055
36.58000 307.552
36.59000 313.215
36.60000 317.039
36.61000 311.772
36.62000 299.768
36.63000 288.054
36.64000 286.243
36.65000 289.298
36.66000 292.202
36.67000 291.767
36.68000 290.346
36.69000 289.468
36.70000 292.944
36.71000 297.368
36.72000 300.911
36.73000 300.068
36.74000 298.626
36.75000 297.504
36.76000 292.194
36.77000 287.707
36.78000 287.219
36.79000 295.479
36.80000 304.047
36.81000 309.182
36.82000 309.315
36.83000 309.405
36.84000 309.622
36.85000 309.956
36.86000 310.292
36.87000 310.722
36.88000 311.210
36.89000 311.729
36.90000 312.934
36.91000 314.417
36.92000 315.799
36.93000 316.112
36.94000 316.133
36.95000 315.884
36.96000 313.924
36.97000 311.664
36.98000 310.237
36.99000 312.186
37.00000 314.492
37.01000 316.198
37.02000 310.690
37.03000 306.106
37.04000 302.605
37.05000 301.060
37.06000 299.556
37.07000 299.889
37.08000 302.403
37.09000 304.914
37.10000 302.671
37.11000 296.874
37.12000 291.266
37.13000 292.502
37.14000 297.163
37.15000 301.711
37.16000 304.542
37.17000 306.798
37.18000 308.849
37.19000 306.454
37.20000 303.463
37.21000 301.246
37.22000 302.958
37.23000 305.221
37.24000 306.508
37.25000 304.552
37.26000 302.337
37.27000 300.791
37.28000 297.669
37.29000 295.267
37.30000 297.721
37.31000 307.389
37.32000 317.123
37.33000 317.529
37.34000 309.036
37.35000 300.614
37.36000 295.802
37.37000 293.272
37.38000 291.032
37.39000 295.348
37.40000 302.378
37.41000 308.723
37.42000 307.504
37.43000 304.193
37.44000 301.265
37.45000 300.570
37.46000 300.316
37.47000 300.523
37.48000 302.635
37.49000 304.954
37.50000 306.037
37.51000 303.728
37.52000 301.225
37.53000 299.590
37.54000 291.548
37.55000 285.542
37.56000 285.861
37.57000 293.841
37.58000 301.824
37.59000 306.253
37.60000 307.942
37.61000 309.602
37.62000 303.095
37.63000 292.780
37.64000 283.108
37.65000 283.444
37.66000 287.205
37.67000 290.503
37.68000 289.896
37.69000 288.404
37.70000 287.128
37.71000 290.164
37.72000 293.245
37.73000 295.867
37.74000 296.932
37.75000 297.869
37.76000 297.964
37.77000 296.149
37.78000 294.260
37.79000 293.118
37.80000 301.584
37.81000 307.687
37.82000 305.983
37.83000 296.668
37.84000 287.466
37.85000 287.193
37.86000 292.555
37.87000 297.760
37.88000 299.238
37.89000 299.149
37.90000 299.289
37.91000 302.037
37.92000 305.520
37.93000 307.804
37.94000 302.155
37.95000 295.050
37.96000 289.194
37.97000 291.835
37.98000 294.790
37.99000 297.249
38.00000 298.321
38.01000 299.311
38.02000 297.123
38.03000 288.975
38.04000 280.689
38.05000 276.103
38.06000 289.493
38.07000 298.770
38.08000 308.680
38.09000 319.087
38.10000 329.231
38.11000 328.805
38.12000 322.885
38.13000 317.226
38.14000 312.320
38.15000 308.000
38.16000 304.448
38.17000 307.547
38.18000 312.183
38.19000 316.334
38.20000 317.914
38.21000 319.119
38.22000 320.070
38.23000 320.706
38.24000 321.196
38.25000 323.934
38.26000 331.872
38.27000 340.019
38.28000 346.017
38.29000 348.695
38.30000 351.336
38.31000 354.458
38.32000 358.060
38.33000 361.716
38.34000 370.086
38.35000 381.490
38.36000 392.956
38.37000 405.938
38.38000 419.571
38.39000 432.355
38.40000 449.630
38.41000 466.539
38.42000 483.472
38.43000 500.571
38.44000 517.702
38.45000 536.587
38.46000 563.018
38.47000 590.313
38.48000 610.828
38.49000 666.791
38.50000 712.252
38.51000 754.480
38.52000 790.524
38.53000 826.417
38.54000 865.782
38.55000 909.528
38.56000 953.218
38.57000 998.916
38.58000 1046.027
38.59000 1093.035
38.60000 1135.665
38.61000 1175.975
38.62000 1215.629
38.63000 1244.360
38.64000 1269.210
38.65000 1291.984
38.66000 1318.061
38.67000 1341.975
38.68000 1363.514
38.69000 1372.188
38.70000 1378.934
38.71000 1379.891
38.72000 1360.450
38.73000 1339.232
38.74000 1324.154
38.75000 1313.624
38.76000 1305.754
38.77000 1282.535
38.78000 1235.150
38.79000 1187.469
38.80000 1140.224
38.81000 1093.424
38.82000 1046.922
38.83000 1006.620
38.84000 970.912
38.85000 934.775
38.86000 887.655
38.87000 835.728
38.88000 784.182
38.89000 737.229
38.90000 691.621
38.91000 650.938
38.92000 611.319
38.93000 577.024
38.94000 544.720
38.95000 521.156
38.96000 498.618
38.97000 475.004
38.98000 448.265
38.99000 421.327
39.00000 403.373
39.01000 393.050
39.02000 385.553
39.03000 377.316
39.04000 368.123
39.05000 358.932
39.06000 351.843
39.07000 346.479
39.08000 341.190
39.09000 331.589
39.10000 320.002
39.11000 309.208
39.12000 312.067
39.13000 319.867
39.14000 326.284
39.15000 320.105
39.16000 310.897
39.17000 302.938
39.18000 300.179
39.19000 298.512
39.20000 298.090
39.21000 302.140
39.22000 306.591
39.23000 309.533
39.24000 308.852
39.25000 308.012
39.26000 307.492
39.27000 302.420
39.28000 298.730
39.29000 300.216
39.30000 307.090
39.31000 313.836
39.32000 307.336
39.33000 291.974
39.34000 277.000
39.35000 272.824
39.36000 273.433
39.37000 273.979
39.38000 273.742
39.39000 273.271
39.40000 273.279
39.41000 276.689
39.42000 280.763
39.43000 284.159
39.44000 290.427
39.45000 295.909
39.46000 296.701
39.47000 283.612
39.48000 269.610
39.49000 262.870
39.50000 270.546
39.51000 278.616
39.52000 283.207
39.53000 283.584
39.54000 283.828
39.55000 281.365
39.56000 276.636
39.57000 271.999
39.58000 271.731
39.59000 273.867
39.60000 275.919
39.61000 279.314
39.62000 282.956
39.63000 285.523
39.64000 278.049
39.65000 268.114
39.66000 260.174
39.67000 263.516
39.68000 268.625
39.69000 272.713
39.70000 277.579
39.71000 281.571
39.72000 283.891
39.73000 282.120
39.74000 280.162
39.75000 278.462
39.76000 277.186
39.77000 275.915
39.78000 275.260
39.79000 279.982
39.80000 283.100
39.81000 278.981
39.82000 269.926
39.83000 261.317
39.84000 265.181
39.85000 274.711
39.86000 283.702
39.87000 283.582
39.88000 280.930
39.89000 278.622
39.90000 278.818
39.91000 279.513
39.92000 279.414
39.93000 275.689
39.94000 271.516
39.95000 268.332
39.96000 270.441
39.97000 272.386
39.98000 273.376
39.99000 272.432
40.00000 271.433
40.01000 271.032
40.02000 271.431
40.03000 271.833
40.04000 269.809
40.05000 265.721
40.06000 261.757
40.07000 264.203
40.08000 270.240
40.09000 275.907
40.10000 274.707
40.11000 270.928
40.12000 267.440
40.13000 266.097
40.14000 265.375
40.15000 264.577
40.16000 263.343
40.17000 262.039
40.18000 262.390
40.19000 268.921
40.20000 276.038
40.21000 281.183
40.22000 269.819
40.23000 260.499
40.24000 256.692
40.25000 262.080
40.26000 267.611
40.27000 269.150
40.28000 266.351
40.29000 263.563
40.30000 259.417
40.31000 254.382
40.32000 249.591
40.33000 251.967
40.34000 257.660
40.35000 262.741
40.36000 259.769
40.37000 254.297
40.38000 249.376
40.39000 251.042
40.40000 253.678
40.41000 256.018
40.42000 256.984
40.43000 257.775
40.44000 257.705
40.45000 254.984
40.46000 252.077
40.47000 250.101
40.48000 259.475
40.49000 266.729
40.50000 269.189
40.51000 265.092
40.52000 260.958
40.53000 258.254
40.54000 256.798
40.55000 255.359
40.56000 251.052
40.57000 245.251
40.58000 239.913
40.59000 243.458
40.60000 250.404
40.61000 256.783
40.62000 257.575
40.63000 256.942
40.64000 256.390
40.65000 253.361
40.66000 250.423
40.67000 248.161
40.68000 248.479
40.69000 249.048
40.70000 249.557
40.71000 249.913
40.72000 250.261
40.73000 250.482
40.74000 254.207
40.75000 256.952
40.76000 255.091
40.77000 248.120
40.78000 241.183
40.79000 239.577
40.80000 241.754
40.81000 243.883
40.82000 246.426
40.83000 249.054
40.84000 251.556
40.85000 252.364
40.86000 252.636
40.87000 253.324
40.88000 257.187
40.89000 261.709
40.90000 265.522
40.91000 255.798
40.92000 246.213
40.93000 238.451
40.94000 236.401
40.95000 234.765
40.96000 233.573
40.97000 233.317
40.98000 233.090
40.99000 232.957
41.00000 230.555
41.01000 228.859
41.02000 233.352
41.03000 243.361
41.04000 253.246
41.05000 255.984
41.06000 254.560
41.07000 253.186
41.08000 252.469
41.09000 252.034
41.10000 251.883
41.11000 254.592
41.12000 258.045
41.13000 260.742
41.14000 258.881
41.15000 256.256
41.16000 254.128
41.17000 254.494
41.18000 254.995
41.19000 255.411
41.20000 255.607
41.21000 255.792
41.22000 252.933
41.23000 244.800
41.24000 236.572
41.25000 232.199
41.26000 239.663
41.27000 244.733
41.28000 247.078
41.29000 247.451
41.30000 247.805
41.31000 247.565
41.32000 247.038
41.33000 246.539
41.34000 246.810
41.35000 247.289
41.36000 247.581
41.37000 246.414
41.38000 244.937
41.39000 243.406
41.40000 241.606
41.41000 239.772
41.42000 238.351
41.43000 239.114
41.44000 239.848
41.45000 240.406
41.46000 240.585
41.47000 240.752
41.48000 242.155
41.49000 245.318
41.50000 248.493
41.51000 247.628
41.52000 243.090
41.53000 238.611
41.54000 237.819
41.55000 239.216
41.56000 240.526
41.57000 240.044
41.58000 238.849
41.59000 237.738
41.60000 239.921
41.61000 242.678
41.62000 245.246
41.63000 246.645
41.64000 247.844
41.65000 248.670
41.66000 248.015
41.67000 247.209
41.68000 246.616
41.69000 243.473
41.70000 240.938
41.71000 238.923
41.72000 237.830
41.73000 236.755
41.74000 238.048
41.75000 242.083
41.76000 246.109
41.77000 246.303
41.78000 243.689
41.79000 241.135
41.80000 240.625
41.81000 241.114
41.82000 241.214
41.83000 235.683
41.84000 228.303
41.85000 221.610
41.86000 229.757
41.87000 239.780
41.88000 247.244
41.89000 242.022
41.90000 235.075
41.91000 230.505
41.92000 233.666
41.93000 237.422
41.94000 240.024
41.95000 241.797
41.96000 243.109
41.97000 244.249
41.98000 245.140
41.99000 246.029
42.00000 245.905
42.01000 244.840
42.02000 243.784
42.03000 241.669
42.04000 238.967
42.05000 236.513
42.06000 239.369
42.07000 244.376
42.08000 248.688
42.09000 245.576
42.10000 240.457
42.11000 235.947
42.12000 234.482
42.13000 233.679
42.14000 232.776
42.15000 231.471
42.16000 230.123
42.17000 229.720
42.18000 231.855
42.19000 234.130
42.20000 235.602
42.21000 232.219
42.22000 229.671
42.23000 232.101
42.24000 240.412
42.25000 248.693
42.26000 248.594
42.27000 242.183
42.28000 235.890
42.29000 234.291
42.30000 235.008
42.31000 235.696
42.32000 235.951
42.33000 236.061
42.34000 235.941
42.35000 233.938
42.36000 231.519
42.37000 229.457
42.38000 231.786
42.39000 234.260
42.40000 235.319
42.41000 231.689
42.42000 227.686
42.43000 225.120
42.44000 225.743
42.45000 226.484
42.46000 226.927
42.47000 233.400
42.48000 238.034
42.49000 239.990
42.50000 239.401
42.51000 238.807
42.52000 237.881
42.53000 236.751
42.54000 235.655
42.55000 236.385
42.56000 237.789
42.57000 238.892
42.58000 236.687
42.59000 233.569
42.60000 230.712
42.61000 229.529
42.62000 228.647
42.63000 227.923
42.64000 233.484
42.65000 238.607
42.66000 241.585
42.67000 238.697
42.68000 235.474
42.69000 235.079
42.70000 239.873
42.71000 244.777
42.72000 247.462
42.73000 240.887
42.74000 236.366
42.75000 234.588
42.76000 234.919
42.77000 235.202
42.78000 233.653
42.79000 231.173
42.80000 228.807
42.81000 230.234
42.82000 232.759
42.83000 234.892
42.84000 233.740
42.85000 231.846
42.86000 230.738
42.87000 233.691
42.88000 237.222
42.89000 239.995
42.90000 237.402
42.91000 234.976
42.92000 233.815
42.93000 235.513
42.94000 237.321
42.95000 237.143
42.96000 233.967
42.97000 230.761
42.98000 227.996
42.99000 225.659
43.00000 223.364
43.01000 224.436
43.02000 227.625
43.03000 230.663
43.04000 230.183
43.05000 228.226
43.06000 226.395
43.07000 229.651
43.08000 233.907
43.09000 237.575
43.10000 237.367
43.11000 236.451
43.12000 235.190
43.13000 232.477
43.14000 229.603
43.15000 227.456
43.16000 232.232
43.17000 236.273
43.18000 237.706
43.19000 234.262
43.20000 230.706
43.21000 227.794
43.22000 225.673
43.23000 223.558
43.24000 225.932
43.25000 231.795
43.26000 237.469
43.27000 235.599
43.28000 229.822
43.29000 224.370
43.30000 224.102
43.31000 225.635
43.32000 227.036
43.33000 225.786
43.34000 224.133
43.35000 223.150
43.36000 225.700
43.37000 228.765
43.38000 229.896
43.39000 224.363
43.40000 218.268
43.41000 213.968
43.42000 220.205
43.43000 225.257
43.44000 230.156
43.45000 234.820
43.46000 239.481
43.47000 238.671
43.48000 232.432
43.49000 226.237
43.50000 218.915
43.51000 210.999
43.52000 203.559
43.53000 207.693
43.54000 216.782
43.55000 225.012
43.56000 223.264
43.57000 218.657
43.58000 214.561
43.59000 212.080
43.60000 210.190
43.61000 208.981
43.62000 210.696
43.63000 212.744
43.64000 214.104
43.65000 213.512
43.66000 212.800
43.67000 212.329
43.68000 216.768
43.69000 220.131
43.70000 220.431
43.71000 216.882
43.72000 213.332
43.73000 213.391
43.74000 216.340
43.75000 219.244
43.76000 223.379
43.77000 228.017
43.78000 232.071
43.79000 226.469
43.80000 217.448
43.81000 209.439
43.82000 210.369
43.83000 213.397
43.84000 216.005
43.85000 213.775
43.86000 211.274
43.87000 210.382
43.88000 215.135
43.89000 220.377
43.90000 222.835
43.91000 218.754
43.92000 214.400
43.93000 211.728
43.94000 216.593
43.95000 220.143
43.96000 224.226
43.97000 228.851
43.98000 233.448
43.99000 235.505
44.00000 235.901
44.01000 236.286
44.02000 229.789
44.03000 220.741
44.04000 212.560
44.05000 214.754
44.06000 219.978
44.07000 224.256
44.08000 222.002
44.09000 218.502
44.10000 215.598
44.11000 218.865
44.12000 222.162
44.13000 223.881
44.14000 221.031
44.15000 217.893
44.16000 218.218
44.17000 225.268
44.18000 232.491
44.19000 236.555
44.20000 232.500
44.21000 229.668
44.22000 228.935
44.23000 229.914
44.24000 230.860
44.25000 230.308
44.26000 228.950
44.27000 227.648
44.28000 221.464
44.29000 214.044
44.30000 207.923
44.31000 213.579
44.32000 222.054
44.33000 229.509
44.34000 231.344
44.35000 232.321
44.36000 233.099
44.37000 228.387
44.38000 224.195
44.39000 222.070
44.40000 224.892
44.41000 227.928
44.42000 229.626
44.43000 229.183
44.44000 228.712
44.45000 228.472
44.46000 229.627
44.47000 230.428
44.48000 233.856
44.49000 239.034
44.50000 244.015
44.51000 243.777
44.52000 241.219
44.53000 238.812
44.54000 235.713
44.55000 232.693
44.56000 229.922
44.57000 228.918
44.58000 228.257
44.59000 228.188
44.60000 230.757
44.61000 233.643
44.62000 235.832
44.63000 241.556
44.64000 246.234
44.65000 249.039
44.66000 248.136
44.67000 247.133
44.68000 246.904
44.69000 247.687
44.70000 248.474
44.71000 253.499
44.72000 262.033
44.73000 270.487
44.74000 275.136
44.75000 277.700
44.76000 280.191
44.77000 281.395
44.78000 282.125
44.79000 282.797
44.80000 285.531
44.81000 288.427
44.82000 292.530
44.83000 303.432
44.84000 315.396
44.85000 326.933
44.86000 336.917
44.87000 346.758
44.88000 353.825
44.89000 354.412
44.90000 354.638
44.91000 361.872
44.92000 380.535
44.93000 399.359
44.94000 407.903
44.95000 405.556
44.96000 403.220
44.97000 408.827
44.98000 419.695
44.99000 430.243
45.00000 431.896
45.01000 429.523
45.02000 427.142
45.03000 424.673
45.04000 422.177
45.05000 419.939
45.06000 422.498
45.07000 425.565
45.08000 427.569
45.09000 424.727
45.10000 421.290
45.11000 416.938
45.12000 409.839
45.13000 402.555
45.14000 397.641
45.15000 401.216
45.16000 404.056
45.17000 400.827
45.18000 389.493
45.19000 378.129
45.20000 373.416
45.21000 374.365
45.22000 375.302
45.23000 374.135
45.24000 371.854
45.25000 369.478
45.26000 365.359
45.27000 360.587
45.28000 355.717
45.29000 349.911
45.30000 343.873
45.31000 338.623
45.32000 329.691
45.33000 321.569
45.34000 314.926
45.35000 313.786
45.36000 313.164
45.37000 311.515
45.38000 307.311
45.39000 302.988
45.40000 300.273
45.41000 292.104
45.42000 286.139
45.43000 281.082
45.44000 277.007
45.45000 272.974
45.46000 274.055
45.47000 278.679
45.48000 283.197
45.49000 281.024
45.50000 275.988
45.51000 271.228
45.52000 270.096
45.53000 270.085
45.54000 270.178
45.55000 271.049
45.56000 272.077
45.57000 272.940
45.58000 266.205
45.59000 259.801
45.60000 256.274
45.61000 261.554
45.62000 267.448
45.63000 269.261
45.64000 262.692
45.65000 255.873
45.66000 251.930
45.67000 247.046
45.68000 243.622
45.69000 242.973
45.70000 244.736
45.71000 246.436
45.72000 244.719
45.73000 241.059
45.74000 237.532
45.75000 237.315
45.76000 238.298
45.77000 238.832
45.78000 234.974
45.79000 229.999
45.80000 225.881
45.81000 226.798
45.82000 228.537
45.83000 229.938
45.84000 226.993
45.85000 224.259
45.86000 222.648
45.87000 223.879
45.88000 225.248
45.89000 225.055
45.90000 222.214
45.91000 219.330
45.92000 217.816
45.93000 220.399
45.94000 222.153
45.95000 224.111
45.96000 226.213
45.97000 228.228
45.98000 227.569
45.99000 225.654
46.00000 223.841
46.01000 221.541
46.02000 219.283
46.03000 217.034
46.04000 214.855
46.05000 212.690
46.06000 211.655
46.07000 215.975
46.08000 220.985
46.09000 224.842
46.10000 220.657
46.11000 216.885
46.12000 213.533
46.13000 211.058
46.14000 208.612
46.15000 206.560
46.16000 205.057
46.17000 203.559
46.18000 205.736
46.19000 211.168
46.20000 216.502
46.21000 216.198
46.22000 212.622
46.23000 209.239
46.24000 209.685
46.25000 211.619
46.26000 213.411
46.27000 207.480
46.28000 200.340
46.29000 195.451
46.30000 204.075
46.31000 214.955
46.32000 223.070
46.33000 220.495
46.34000 216.856
46.35000 214.198
46.36000 206.817
46.37000 200.942
46.38000 198.978
46.39000 203.769
46.40000 208.679
46.41000 209.471
46.42000 205.614
46.43000 201.768
46.44000 198.193
46.45000 194.845
46.46000 191.644
46.47000 193.158
46.48000 196.928
46.49000 200.476
46.50000 200.916
46.51000 200.359
46.52000 199.855
46.53000 199.594
46.54000 199.409
46.55000 199.733
46.56000 202.522
46.57000 205.637
46.58000 207.623
46.59000 206.023
46.60000 204.155
46.61000 202.871
46.62000 202.850
46.63000 202.866
46.64000 203.591
46.65000 205.323
46.66000 207.060
46.67000 205.441
46.68000 200.778
46.69000 196.162
46.70000 196.116
46.71000 198.715
46.72000 201.188
46.73000 201.062
46.74000 199.908
46.75000 199.399
46.76000 205.565
46.77000 213.494
46.78000 220.455
46.79000 210.729
46.80000 199.927
46.81000 191.658
46.82000 193.378
46.83000 196.120
46.84000 197.836
46.85000 196.854
46.86000 195.730
46.87000 195.009
46.88000 196.789
46.89000 198.120
46.90000 198.792
46.91000 198.703
46.92000 198.609
46.93000 197.741
46.94000 196.304
46.95000 194.896
46.96000 193.668
46.97000 192.572
46.98000 191.723
46.99000 194.425
47.00000 198.288
47.01000 201.627
47.02000 200.784
47.03000 199.040
47.04000 197.560
47.05000 195.882
47.06000 194.453
47.07000 193.329
47.08000 193.196
47.09000 193.140
47.10000 193.637
47.11000 195.339
47.12000 197.082
47.13000 198.116
47.14000 194.210
47.15000 191.420
47.16000 193.006
47.17000 198.644
47.18000 204.192
47.19000 203.844
47.20000 199.941
47.21000 196.164
47.22000 197.202
47.23000 200.018
47.24000 202.516
47.25000 201.623
47.26000 199.817
47.27000 198.189
47.28000 197.686
47.29000 197.379
47.30000 197.128
47.31000 201.328
47.32000 205.147
47.33000 207.107
47.34000 204.092
47.35000 200.806
47.36000 197.530
47.37000 194.273
47.38000 191.017
47.39000 189.255
47.40000 188.966
47.41000 188.762
47.42000 187.055
47.43000 184.220
47.44000 181.485
47.45000 182.288
47.46000 184.849
47.47000 187.288
47.48000 187.296
47.49000 186.554
47.50000 186.709
47.51000 194.184
47.52000 203.271
47.53000 209.655
47.54000 202.412
47.55000 193.280
47.56000 186.150
47.57000 183.270
47.58000 181.242
47.59000 181.609
47.60000 187.280
47.61000 193.143
47.62000 195.729
47.63000 193.484
47.64000 191.195
47.65000 190.116
47.66000 190.181
47.67000 190.256
47.68000 190.966
47.69000 192.068
47.70000 192.924
47.71000 188.320
47.72000 181.472
47.73000 175.082
47.74000 178.635
47.75000 184.328
47.76000 189.380
47.77000 190.315
47.78000 190.517
47.79000 190.291
47.80000 188.310
47.81000 186.139
47.82000 184.528
47.83000 182.180
47.84000 180.323
47.85000 179.556
47.86000 180.783
47.87000 182.052
47.88000 182.895
47.89000 183.227
47.90000 183.557
47.91000 186.746
47.92000 192.091
47.93000 197.206
47.94000 193.751
47.95000 185.956
47.96000 178.515
47.97000 176.518
47.98000 176.369
47.99000 176.234
48.00000 180.880
48.01000 185.947
48.02000 190.530
48.03000 192.619
48.04000 194.355
48.05000 194.958
48.06000 191.749
48.07000 188.230
48.08000 185.765
48.09000 183.518
48.10000 181.824
48.11000 182.146
48.12000 185.497
48.13000 188.877
48.14000 189.230
48.15000 186.655
48.16000 184.100
48.17000 181.924
48.18000 180.019
48.19000 178.263
48.20000 179.947
48.21000 183.072
48.22000 185.882
48.23000 185.150
48.24000 183.425
48.25000 181.898
48.26000 177.282
48.27000 172.803
48.28000 169.396
48.29000 170.482
48.30000 172.065
48.31000 173.918
48.32000 176.523
48.33000 179.172
48.34000 180.909
48.35000 182.171
48.36000 183.090
48.37000 183.242
48.38000 182.451
48.39000 181.663
48.40000 182.647
48.41000 185.014
48.42000 187.342
48.43000 186.964
48.44000 185.248
48.45000 183.558
48.46000 182.274
48.47000 181.130
48.48000 180.411
48.49000 183.332
48.50000 187.087
48.51000 190.307
48.52000 184.759
48.53000 178.996
48.54000 175.265
48.55000 178.508
48.56000 182.335
48.57000 182.620
48.58000 174.772
48.59000 166.601
48.60000 161.635
48.61000 170.856
48.62000 177.549
48.63000 181.686
48.64000 183.297
48.65000 184.862
48.66000 182.536
48.67000 177.726
48.68000 173.052
48.69000 169.985
48.70000 167.722
48.71000 165.828
48.72000 168.190
48.73000 171.767
48.74000 175.183
48.75000 177.511
48.76000 179.637
48.77000 181.394
48.78000 181.561
48.79000 181.550
48.80000 181.302
48.81000 180.383
48.82000 179.423
48.83000 179.227
48.84000 180.482
48.85000 181.771
48.86000 182.489
48.87000 186.765
48.88000 189.722
48.89000 190.066
48.90000 188.327
48.91000 186.520
48.92000 181.869
48.93000 175.724
48.94000 169.843
48.95000 172.664
48.96000 178.150
48.97000 183.185
48.98000 184.254
48.99000 184.396
49.00000 184.169
49.01000 181.966
49.02000 179.470
49.03000 177.493
49.04000 178.014
49.05000 178.606
49.06000 179.282
49.07000 180.155
49.08000 181.035
49.09000 181.638
49.10000 181.808
49.11000 181.972
49.12000 182.054
49.13000 182.310
49.14000 182.482
49.15000 182.775
49.16000 183.146
49.17000 183.495
49.18000 183.283
49.19000 182.827
49.20000 182.398
49.21000 181.271
49.22000 180.058
49.23000 179.421
49.24000 182.746
49.25000 186.823
49.26000 189.004
49.27000 182.929
49.28000 175.894
49.29000 170.589
49.30000 178.822
49.31000 185.936
49.32000 188.321
49.33000 181.559
49.34000 174.565
49.35000 171.108
49.36000 172.170
49.37000 173.247
49.38000 176.136
49.39000 180.483
49.40000 184.708
49.41000 183.539
49.42000 179.480
49.43000 175.615
49.44000 175.075
49.45000 175.730
49.46000 176.331
49.47000 174.082
49.48000 171.469
49.49000 169.407
49.50000 170.362
49.51000 171.775
49.52000 172.221
49.53000 169.218
49.54000 165.908
49.55000 163.548
49.56000 170.655
49.57000 176.384
49.58000 179.013
49.59000 176.700
49.60000 174.323
49.61000 172.234
49.62000 170.441
49.63000 168.660
49.64000 171.911
49.65000 178.415
49.66000 184.530
49.67000 180.458
49.68000 171.874
49.69000 164.066
49.70000 165.768
49.71000 170.291
49.72000 174.332
49.73000 173.416
49.74000 171.781
49.75000 171.006
49.76000 174.052
49.77000 177.555
49.78000 179.847
49.79000 178.585
49.80000 177.091
49.81000 176.092
49.82000 178.034
49.83000 179.533
49.84000 178.734
49.85000 174.936
49.86000 171.134
49.87000 170.600
49.88000 172.781
49.89000 174.933
49.90000 176.878
49.91000 178.660
49.92000 180.204
49.93000 177.571
49.94000 173.408
49.95000 169.723
49.96000 170.453
49.97000 172.257
49.98000 173.820
49.99000 173.955
50.00000 173.880
50.01000 173.858
50.02000 174.029
50.03000 174.217
50.04000 175.271
50.05000 178.429
50.06000 181.680
50.07000 183.704
50.08000 184.809
50.09000 185.595
50.10000 185.252
50.11000 183.718
50.12000 182.211
50.13000 183.720
50.14000 187.270
50.15000 190.733
50.16000 193.284
50.17000 195.329
50.18000 196.834
50.19000 191.516
50.20000 184.137
50.21000 177.586
50.22000 177.004
50.23000 177.604
50.24000 178.105
50.25000 181.519
50.26000 184.649
50.27000 186.014
50.28000 182.094
50.29000 177.818
50.30000 176.293
50.31000 180.290
50.32000 184.442
50.33000 186.818
50.34000 192.973
50.35000 197.280
50.36000 199.428
50.37000 199.746
50.38000 200.039
50.39000 199.051
50.40000 197.352
50.41000 195.717
50.42000 198.124
50.43000 201.792
50.44000 205.570
50.45000 210.389
50.46000 215.466
50.47000 220.172
50.48000 222.754
50.49000 224.999
50.50000 226.799
50.51000 228.149
50.52000 229.208
50.53000 231.951
50.54000 238.863
50.55000 245.970
50.56000 250.831
50.57000 251.973
50.58000 253.060
50.59000 253.624
50.60000 264.094
50.61000 271.127
50.62000 273.800
50.63000 273.464
50.64000 273.236
50.65000 276.138
50.66000 280.478
50.67000 284.577
50.68000 284.562
50.69000 283.386
50.70000 282.210
50.71000 281.045
50.72000 279.883
50.73000 278.275
50.74000 274.609
50.75000 270.685
50.76000 267.682
50.77000 270.285
50.78000 272.645
50.79000 270.550
50.80000 259.339
50.81000 247.857
50.82000 239.587
50.83000 235.677
50.84000 231.794
50.85000 231.150
50.86000 233.306
50.87000 235.359
50.88000 231.950
50.89000 225.443
50.90000 219.101
50.91000 215.890
50.92000 213.870
50.93000 212.003
50.94000 212.671
50.95000 213.847
50.96000 214.074
50.97000 208.750
50.98000 202.524
50.99000 198.488
51.00000 202.729
51.01000 207.769
51.02000 211.425
51.03000 200.769
51.04000 192.045
51.05000 187.235
51.06000 189.033
51.07000 190.937
51.08000 190.382
51.09000 187.121
51.10000 183.871
51.11000 184.714
51.12000 188.400
51.13000 191.911
51.14000 190.109
51.15000 185.820
51.16000 181.772
51.17000 180.953
51.18000 181.148
51.19000 181.324
51.20000 182.116
51.21000 182.923
51.22000 182.728
51.23000 177.804
51.24000 172.273
51.25000 169.355
51.26000 174.562
51.27000 180.350
51.28000 184.301
51.29000 180.808
51.30000 178.023
51.31000 175.664
51.32000 173.898
51.33000 172.136
51.34000 170.462
51.35000 168.867
51.36000 167.290
51.37000 167.189
51.38000 167.924
51.39000 168.665
51.40000 169.505
51.41000 170.384
51.42000 171.163
51.43000 170.949
51.44000 170.479
51.45000 170.067
51.46000 170.874
51.47000 171.739
51.48000 171.993
51.49000 169.892
51.50000 167.558
51.51000 164.764
51.52000 160.791
51.53000 156.759
51.54000 154.193
51.55000 164.243
51.56000 171.705
51.57000 174.072
51.58000 170.710
51.59000 167.360
51.60000 166.599
51.61000 167.698
51.62000 168.774
51.63000 167.720
51.64000 165.731
51.65000 163.720
51.66000 161.387
51.67000 158.953
51.68000 156.797
51.69000 156.799
51.70000 157.256
51.71000 157.641
51.72000 157.410
51.73000 157.149
51.74000 157.229
51.75000 158.390
51.76000 159.631
51.77000 161.761
51.78000 165.780
51.79000 169.862
51.80000 172.258
51.81000 167.729
51.82000 164.504
51.83000 164.123
51.84000 166.310
51.85000 168.411
51.86000 165.291
51.87000 159.097
51.88000 153.112
51.89000 155.494
51.90000 160.851
51.91000 166.122
51.92000 170.506
51.93000 174.657
51.94000 177.298
51.95000 170.704
51.96000 162.543
51.97000 155.913
51.98000 161.066
51.99000 166.248
52.00000 170.902
52.01000 174.172
52.02000 177.369
52.03000 177.341
52.04000 171.655
52.05000 165.864
52.06000 162.767
52.07000 165.920
52.08000 168.049
52.09000 165.662
52.10000 159.967
52.11000 154.529
52.12000 157.639
52.13000 164.904
52.14000 171.805
52.15000 173.520
52.16000 173.542
52.17000 173.625
52.18000 174.194
52.19000 174.868
52.20000 174.954
52.21000 172.147
52.22000 168.950
52.23000 166.467
52.24000 165.111
52.25000 164.101
52.26000 161.050
52.27000 153.581
52.28000 145.960
52.29000 145.093
52.30000 153.952
52.31000 162.886
52.32000 164.506
52.33000 159.381
52.34000 154.299
52.35000 151.995
52.36000 151.358
52.37000 150.922
52.38000 154.764
52.39000 160.325
52.40000 165.500
52.41000 164.255
52.42000 161.572
52.43000 159.877
52.44000 164.353
52.45000 169.899
52.46000 172.768
52.47000 164.905
52.48000 155.920
52.49000 149.293
52.50000 154.506
52.51000 159.042
52.52000 161.011
52.53000 158.391
52.54000 155.681
52.55000 155.421
52.56000 158.034
52.57000 160.643
52.58000 159.190
52.59000 154.733
52.60000 150.424
52.61000 151.301
52.62000 154.747
52.63000 157.983
52.64000 158.119
52.65000 157.226
52.66000 156.415
52.67000 152.988
52.68000 149.455
52.69000 147.281
52.70000 151.934
52.71000 157.529
52.72000 161.951
52.73000 162.509
52.74000 162.765
52.75000 162.942
52.76000 162.114
52.77000 161.463
52.78000 160.258
52.79000 158.239
52.80000 156.214
52.81000 155.940
52.82000 157.317
52.83000 158.681
52.84000 158.196
52.85000 156.609
52.86000 155.085
52.87000 154.947
52.88000 155.375
52.89000 155.893
52.90000 157.376
52.91000 159.123
52.92000 160.665
52.93000 164.037
52.94000 167.226
52.95000 168.988
52.96000 164.922
52.97000 160.231
52.98000 157.007
52.99000 157.769
53.00000 158.754
53.01000 159.395
53.02000 161.266
53.03000 162.656
53.04000 163.921
53.05000 165.037
53.06000 166.150
53.07000 166.687
53.08000 166.785
53.09000 166.881
53.10000 164.207
53.11000 160.274
53.12000 156.780
53.13000 159.977
53.14000 165.438
53.15000 170.293
53.16000 170.103
53.17000 168.783
53.18000 167.655
53.19000 168.814
53.20000 170.063
53.21000 170.221
53.22000 166.722
53.23000 162.927
53.24000 160.998
53.25000 163.259
53.26000 165.678
53.27000 167.134
53.28000 172.046
53.29000 175.564
53.30000 177.235
53.31000 177.130
53.32000 177.016
53.33000 176.293
53.34000 175.192
53.35000 174.123
53.36000 175.010
53.37000 176.625
53.38000 177.870
53.39000 174.976
53.40000 170.928
53.41000 166.911
53.42000 163.102
53.43000 159.330
53.44000 156.229
53.45000 161.212
53.46000 166.039
53.47000 169.129
53.48000 167.413
53.49000 165.417
53.50000 164.708
53.51000 166.386
53.52000 168.117
53.53000 169.070
53.54000 165.778
53.55000 163.507
53.56000 162.327
53.57000 161.995
53.58000 161.630
53.59000 159.966
53.60000 157.634
53.61000 155.407
53.62000 158.686
53.63000 163.498
53.64000 167.440
53.65000 163.955
53.66000 158.774
53.67000 154.444
53.68000 154.571
53.69000 155.342
53.70000 155.949
53.71000 154.126
53.72000 152.502
53.73000 152.309
53.74000 155.387
53.75000 158.594
53.76000 159.329
53.77000 156.287
53.78000 153.204
53.79000 152.523
53.80000 154.204
53.81000 155.876
53.82000 156.780
53.83000 157.196
53.84000 157.610
53.85000 157.994
53.86000 158.364
53.87000 158.711
53.88000 162.689
53.89000 167.247
53.90000 170.450
53.91000 164.590
53.92000 157.053
53.93000 151.224
53.94000 152.662
53.95000 154.920
53.96000 156.613
53.97000 153.849
53.98000 151.481
53.99000 150.182
54.00000 150.908
54.01000 151.681
54.02000 152.807
54.03000 154.373
54.04000 155.938
54.05000 155.967
54.06000 154.781
54.07000 153.720
54.08000 157.811
54.09000 164.601
54.10000 170.952
54.11000 170.145
54.12000 166.821
54.13000 163.779
54.14000 160.684
54.15000 157.921
54.16000 155.495
54.17000 154.871
54.18000 154.512
54.19000 155.019
54.20000 158.541
54.21000 162.320
54.22000 164.997
54.23000 161.538
54.24000 158.717
54.25000 155.503
54.26000 151.675
54.27000 147.841
54.28000 148.931
54.29000 154.973
54.30000 160.976
54.31000 162.423
54.32000 160.938
54.33000 159.389
54.34000 156.227
54.35000 152.366
54.36000 149.014
54.37000 151.672
54.38000 156.073
54.39000 159.992
54.40000 163.932
54.41000 167.360
54.42000 168.363
54.43000 158.850
54.44000 148.118
54.45000 141.741
54.46000 147.876
54.47000 154.791
54.48000 159.383
54.49000 160.506
54.50000 161.272
54.51000 162.417
54.52000 164.045
54.53000 165.667
54.54000 164.570
54.55000 161.270
54.56000 158.018
54.57000 157.574
54.58000 158.597
54.59000 159.663
54.60000 161.453
54.61000 163.502
54.62000 165.216
54.63000 163.921
54.64000 161.910
54.65000 160.175
54.66000 155.054
54.67000 150.275
54.68000 147.050
54.69000 149.344
54.70000 152.125
54.71000 155.663
54.72000 160.995
54.73000 166.405
54.74000 169.740
54.75000 167.082
54.76000 165.119
54.77000 162.840
54.78000 160.235
54.79000 157.670
54.80000 158.895
54.81000 162.627
54.82000 166.263
54.83000 165.804
54.84000 163.644
54.85000 161.605
54.86000 161.057
54.87000 160.949
54.88000 160.686
54.89000 159.335
54.90000 157.774
54.91000 156.476
54.92000 162.009
54.93000 167.261
54.94000 169.699
54.95000 163.899
54.96000 157.567
54.97000 154.015
54.98000 155.926
54.99000 157.982
55.00000 159.145
55.01000 162.179
55.02000 164.288
55.03000 163.492
55.04000 160.291
55.05000 157.154
55.06000 156.906
55.07000 158.231
55.08000 159.503
55.09000 159.734
55.10000 159.595
55.11000 159.660
55.12000 161.600
55.13000 163.995
55.14000 166.083
55.15000 166.451
55.16000 166.553
55.17000 166.634
55.18000 164.731
55.19000 163.048
55.20000 161.213
55.21000 159.007
55.22000 156.785
55.23000 157.279
55.24000 162.170
55.25000 167.122
55.26000 169.660
55.27000 178.732
55.28000 184.775
55.29000 184.758
55.30000 180.655
55.31000 176.776
55.32000 179.012
55.33000 183.996
55.34000 188.693
55.35000 191.945
55.36000 194.524
55.37000 196.527
55.38000 194.391
55.39000 191.439
55.40000 188.639
55.41000 186.522
55.42000 184.489
55.43000 182.942
55.44000 191.729
55.45000 199.185
55.46000 203.651
55.47000 202.133
55.48000 200.448
55.49000 202.085
55.50000 208.124
55.51000 214.179
55.52000 221.011
55.53000 228.480
55.54000 235.952
55.55000 243.626
55.56000 251.411
55.57000 259.244
55.58000 267.951
55.59000 276.983
55.60000 285.308
55.61000 300.547
55.62000 315.722
55.63000 330.586
55.64000 343.677
55.65000 356.487
55.66000 370.314
55.67000 387.896
55.68000 405.827
55.69000 418.750
55.70000 441.142
55.71000 458.633
55.72000 478.195
55.73000 501.170
55.74000 524.196
55.75000 544.313
55.76000 561.306
55.77000 578.214
55.78000 605.589
55.79000 639.762
55.80000 673.551
55.81000 696.355
55.82000 714.128
55.83000 731.725
55.84000 747.031
55.85000 761.633
55.86000 774.748
55.87000 784.758
55.88000 792.970
55.89000 800.396
55.90000 804.202
55.91000 807.556
55.92000 809.642
55.93000 807.872
55.94000 805.836
55.95000 804.457
55.96000 816.523
55.97000 825.810
55.98000 826.368
55.99000 815.124
56.00000 803.807
56.01000 786.752
56.02000 764.750
56.03000 743.014
56.04000 715.941
56.05000 686.606
56.06000 657.776
56.07000 638.429
56.08000 622.673
56.09000 606.543
56.10000 586.781
56.11000 566.103
56.12000 548.086
56.13000 531.552
56.14000 517.630
56.15000 502.384
56.16000 482.155
56.17000 461.448
56.18000 440.076
56.19000 417.034
56.20000 393.911
56.21000 379.325
56.22000 370.353
56.23000 363.922
56.24000 354.912
56.25000 343.076
56.26000 331.225
56.27000 317.480
56.28000 302.407
56.29000 287.671
56.30000 276.024
56.31000 266.241
56.32000 256.873
56.33000 253.044
56.34000 250.949
56.35000 248.396
56.36000 242.411
56.37000 235.721
56.38000 230.092
56.39000 219.200
56.40000 209.555
56.41000 201.639
56.42000 199.076
56.43000 196.893
56.44000 195.806
56.45000 196.996
56.46000 198.256
56.47000 198.989
56.48000 194.917
56.49000 192.037
56.50000 189.135
56.51000 186.215
56.52000 183.353
56.53000 183.830
56.54000 186.228
56.55000 188.541
56.56000 189.619
56.57000 190.184
56.58000 190.429
56.59000 187.482
56.60000 183.714
56.61000 180.004
56.62000 176.637
56.63000 173.327
56.64000 170.651
56.65000 170.709
56.66000 170.976
56.67000 170.731
56.68000 169.175
56.69000 167.553
56.70000 166.599
56.71000 166.787
56.72000 166.994
56.73000 167.104
56.74000 161.691
56.75000 158.026
56.76000 156.606
56.77000 156.792
56.78000 156.995
56.79000 157.716
56.80000 158.682
56.81000 159.598
56.82000 158.021
56.83000 155.835
56.84000 153.879
56.85000 153.683
56.86000 153.856
56.87000 153.880
56.88000 153.187
56.89000 152.400
56.90000 151.791
56.91000 153.870
56.92000 155.675
56.93000 158.120
56.94000 161.923
56.95000 165.769
56.96000 166.036
56.97000 161.266
56.98000 156.464
56.99000 152.943
57.00000 150.577
57.01000 148.303
57.02000 151.461
57.03000 157.809
57.04000 163.676
57.05000 159.797
57.06000 152.086
57.07000 144.928
57.08000 143.904
57.09000 144.430
57.10000 145.268
57.11000 148.006
57.12000 151.065
57.13000 153.145
57.14000 151.390
57.15000 149.247
57.16000 147.676
57.17000 151.454
57.18000 154.586
57.19000 156.734
57.20000 157.163
57.21000 157.561
57.22000 155.481
57.23000 150.567
57.24000 145.667
57.25000 144.996
57.26000 147.390
57.27000 149.704
57.28000 149.333
57.29000 147.663
57.30000 146.311
57.31000 149.476
57.32000 154.108
57.33000 158.302
57.34000 157.118
57.35000 155.061
57.36000 152.355
57.37000 146.470
57.38000 140.158
57.39000 136.431
57.40000 141.020
57.41000 146.239
57.42000 149.842
57.43000 151.782
57.44000 153.198
57.45000 152.717
57.46000 149.515
57.47000 146.293
57.48000 146.831
57.49000 150.825
57.50000 154.781
57.51000 152.015
57.52000 145.369
57.53000 139.116
57.54000 141.150
57.55000 146.504
57.56000 151.178
57.57000 148.692
57.58000 144.292
57.59000 140.423
57.60000 141.404
57.61000 142.971
57.62000 144.004
57.63000 142.906
57.64000 141.588
57.65000 141.085
57.66000 142.748
57.67000 144.528
57.68000 145.676
57.69000 140.990
57.70000 137.484
57.71000 136.087
57.72000 137.154
57.73000 138.229
57.74000 140.142
57.75000 142.679
57.76000 145.169
57.77000 145.796
57.78000 145.516
57.79000 145.012
57.80000 141.233
57.81000 136.368
57.82000 132.242
57.83000 134.077
57.84000 137.215
57.85000 139.884
57.86000 144.676
57.87000 148.947
57.88000 151.243
57.89000 147.064
57.90000 142.379
57.91000 138.997
57.92000 138.480
57.93000 138.064
57.94000 137.817
57.95000 143.148
57.96000 146.961
57.97000 147.430
57.98000 144.761
57.99000 142.125
58.00000 141.745
58.01000 142.742
58.02000 143.708
58.03000 144.896
58.04000 146.106
58.05000 147.252
58.06000 147.707
58.07000 147.974
58.08000 147.947
58.09000 146.044
58.10000 143.810
58.11000 141.982
58.12000 144.981
58.13000 147.860
58.14000 148.882
58.15000 144.876
58.16000 140.589
58.17000 138.910
58.18000 141.963
58.19000 145.115
58.20000 146.830
58.21000 143.021
58.22000 140.417
58.23000 141.321
58.24000 144.892
58.25000 148.290
58.26000 145.377
58.27000 139.291
58.28000 133.491
58.29000 135.138
58.30000 138.993
58.31000 142.030
58.32000 138.288
58.33000 133.034
58.34000 129.138
58.35000 132.182
58.36000 136.201
58.37000 139.349
58.38000 141.193
58.39000 142.582
58.40000 142.972
58.41000 141.125
58.42000 139.195
58.43000 137.671
58.44000 136.754
58.45000 135.842
58.46000 137.011
58.47000 140.176
58.48000 143.286
58.49000 142.310
58.50000 138.793
58.51000 135.464
58.52000 136.424
58.53000 139.168
58.54000 141.731
58.55000 146.718
58.56000 151.853
58.57000 155.867
58.58000 152.581
58.59000 147.978
58.60000 143.556
58.61000 139.885
58.62000 136.296
58.63000 133.624
58.64000 133.860
58.65000 134.175
58.66000 134.150
58.67000 133.497
58.68000 132.831
58.69000 133.505
58.70000 135.810
58.71000 138.115
58.72000 139.911
58.73000 141.304
58.74000 142.614
58.75000 140.686
58.76000 137.098
58.77000 133.571
58.78000 130.988
58.79000 128.729
58.80000 126.668
58.81000 134.415
58.82000 143.265
58.83000 150.171
58.84000 146.932
58.85000 142.233
58.86000 138.775
58.87000 139.540
58.88000 140.655
58.89000 141.439
58.90000 135.099
58.91000 130.086
58.92000 126.926
58.93000 126.586
58.94000 126.276
58.95000 127.932
58.96000 131.514
58.97000 135.070
58.98000 134.439
58.99000 131.209
59.00000 128.209
59.01000 130.675
59.02000 135.458
59.03000 139.774
59.04000 138.749
59.05000 136.211
59.06000 133.959
59.07000 137.494
59.08000 141.482
59.09000 143.536
59.10000 137.400
59.11000 130.344
59.12000 125.699
59.13000 127.828
59.14000 130.364
59.15000 132.035
59.16000 133.497
59.17000 134.571
59.18000 135.281
59.19000 135.537
59.20000 135.793
59.21000 136.517
59.22000 137.612
59.23000 138.689
59.24000 141.037
59.25000 143.955
59.26000 146.514
59.27000 143.260
59.28000 137.969
59.29000 133.145
59.30000 132.382
59.31000 132.561
59.32000 132.714
59.33000 133.860
59.34000 134.953
59.35000 135.892
59.36000 136.294
59.37000 136.650
59.38000 137.029
59.39000 137.457
59.40000 137.887
59.41000 138.150
59.42000 140.261
59.43000 141.786
59.44000 140.972
59.45000 137.814
59.46000 134.684
59.47000 133.963
59.48000 134.800
59.49000 135.615
59.50000 133.981
59.51000 131.422
59.52000 129.106
59.53000 129.662
59.54000 131.047
59.55000 132.260
59.56000 132.299
59.57000 132.117
59.58000 131.966
59.59000 132.804
59.60000 133.590
59.61000 134.145
59.62000 134.039
59.63000 133.891
59.64000 133.259
59.65000 131.696
59.66000 130.111
59.67000 129.223
59.68000 132.452
59.69000 134.691
59.70000 133.747
59.71000 130.235
59.72000 126.813
59.73000 127.297
59.74000 129.858
59.75000 132.312
59.76000 131.347
59.77000 129.309
59.78000 127.521
59.79000 127.967
59.80000 128.942
59.81000 130.455
59.82000 134.896
59.83000 139.778
59.84000 143.654
59.85000 135.752
59.86000 128.560
59.87000 126.578
59.88000 136.931
59.89000 147.807
59.90000 150.056
59.91000 138.658
59.92000 127.090
59.93000 121.238
59.94000 131.550
59.95000 138.395
59.96000 139.666
59.97000 137.264
59.98000 134.992
59.99000 136.086
60.00000 138.659
60.01000 141.077
60.02000 134.543
60.03000 126.169
60.04000 119.346
60.05000 123.330
60.06000 129.393
60.07000 134.393
60.08000 134.708
60.09000 134.469
60.10000 134.287
60.11000 136.475
60.12000 138.310
60.13000 139.815
60.14000 140.674
60.15000 141.517
60.16000 143.347
60.17000 146.456
60.18000 149.566
60.19000 147.640
60.20000 141.583
60.21000 135.617
60.22000 133.828
60.23000 134.304
60.24000 134.736
60.25000 134.390
60.26000 133.763
60.27000 133.186
60.28000 132.621
60.29000 132.119
60.30000 131.675
60.31000 131.551
60.32000 131.476
60.33000 131.541
60.34000 132.113
60.35000 132.730
60.36000 133.172
60.37000 134.519
60.38000 135.577
60.39000 137.432
60.40000 140.568
60.41000 143.721
60.42000 142.875
60.43000 137.844
60.44000 132.840
60.45000 131.609
60.46000 132.896
60.47000 134.111
60.48000 133.390
60.49000 131.801
60.50000 130.335
60.51000 130.406
60.52000 130.938
60.53000 131.415
60.54000 132.961
60.55000 134.493
60.56000 135.713
60.57000 135.524
60.58000 135.165
60.59000 134.711
60.60000 133.976
60.61000 133.223
60.62000 132.716
60.63000 129.050
60.64000 126.261
60.65000 125.079
60.66000 126.018
60.67000 126.968
60.68000 128.184
60.69000 129.623
60.70000 131.043
60.71000 131.682
60.72000 131.884
60.73000 132.057
60.74000 131.723
60.75000 131.201
60.76000 130.730
60.77000 130.743
60.78000 130.874
60.79000 130.989
60.80000 132.122
60.81000 133.225
60.82000 133.378
60.83000 130.037
60.84000 126.372
60.85000 124.496
60.86000 127.015
60.87000 129.736
60.88000 131.437
60.89000 129.609
60.90000 128.253
60.91000 128.375
60.92000 130.078
60.93000 131.774
60.94000 132.693
60.95000 133.078
60.96000 133.454
60.97000 133.380
60.98000 133.112
60.99000 132.784
61.00000 131.673
61.01000 130.321
61.02000 129.634
61.03000 133.798
61.04000 138.936
61.05000 143.239
61.06000 144.072
61.07000 144.405
61.08000 143.975
61.09000 141.232
61.10000 138.331
61.11000 135.973
61.12000 134.718
61.13000 133.496
61.14000 132.792
61.15000 134.098
61.16000 135.017
61.17000 133.797
61.18000 130.739
61.19000 127.761
61.20000 128.876
61.21000 132.297
61.22000 135.589
61.23000 133.309
61.24000 129.196
61.25000 125.813
61.26000 129.480
61.27000 134.917
61.28000 139.176
61.29000 136.597
61.30000 132.917
61.31000 129.957
61.32000 129.877
61.33000 130.035
61.34000 131.321
61.35000 135.433
61.36000 139.679
61.37000 143.343
61.38000 146.031
61.39000 148.703
61.40000 150.098
61.41000 150.013
61.42000 149.941
61.43000 148.188
61.44000 145.259
61.45000 142.416
61.46000 142.148
61.47000 143.076
61.48000 143.954
61.49000 149.320
61.50000 155.537
61.51000 161.621
61.52000 166.718
61.53000 171.613
61.54000 177.772
61.55000 189.849
61.56000 202.681
61.57000 212.532
61.58000 225.690
61.59000 236.275
61.60000 246.899
61.61000 257.602
61.62000 268.308
61.63000 276.537
61.64000 281.363
61.65000 286.165
61.66000 291.555
61.67000 297.449
61.68000 303.180
61.69000 299.843
61.70000 291.303
61.71000 283.106
61.72000 281.566
61.73000 282.584
61.74000 283.527
61.75000 285.472
61.76000 287.450
61.77000 286.299
61.78000 266.583
61.79000 243.807
61.80000 223.581
61.81000 213.102
61.82000 203.579
61.83000 196.646
61.84000 185.572
61.85000 176.889
61.86000 168.291
61.87000 159.837
61.88000 151.386
61.89000 146.149
61.90000 144.496
61.91000 142.852
61.92000 141.581
61.93000 140.587
61.94000 139.640
61.95000 140.151
61.96000 141.352
61.97000 142.490
61.98000 142.759
61.99000 142.751
62.00000 142.745
62.01000 144.902
62.02000 147.195
62.03000 148.398
62.04000 144.384
62.05000 139.691
62.06000 135.734
62.07000 134.093
62.08000 132.622
62.09000 131.614
62.10000 140.437
62.11000 147.283
62.12000 149.947
62.13000 146.750
62.14000 143.514
62.15000 141.568
62.16000 140.779
62.17000 139.998
62.18000 141.598
62.19000 144.523
62.20000 147.252
62.21000 146.027
62.22000 143.252
62.23000 140.886
62.24000 142.672
62.25000 145.543
62.26000 148.060
62.27000 146.888
62.28000 145.349
62.29000 143.610
62.30000 141.088
62.31000 138.487
62.32000 136.918
62.33000 138.032
62.34000 139.283
62.35000 140.083
62.36000 144.708
62.37000 148.124
62.38000 148.326
62.39000 144.865
62.40000 141.407
62.41000 139.082
62.42000 137.580
62.43000 136.109
62.44000 138.367
62.45000 142.269
62.46000 145.741
62.47000 143.137
62.48000 138.566
62.49000 134.751
62.50000 136.867
62.51000 140.249
62.52000 143.113
62.53000 147.088
62.54000 150.543
62.55000 153.100
62.56000 152.782
62.57000 152.248
62.58000 150.908
62.59000 147.838
62.60000 144.708
62.61000 142.861
62.62000 141.384
62.63000 140.344
62.64000 141.685
62.65000 145.203
62.66000 148.630
62.67000 146.304
62.68000 140.547
62.69000 134.981
62.70000 135.700
62.71000 138.748
62.72000 141.449
62.73000 140.514
62.74000 138.611
62.75000 136.917
62.76000 136.517
62.77000 136.339
62.78000 136.195
62.79000 137.811
62.80000 139.280
62.81000 141.041
62.82000 143.574
62.83000 146.149
62.84000 147.162
62.85000 145.401
62.86000 143.587
62.87000 142.611
62.88000 139.030
62.89000 136.586
62.90000 135.076
62.91000 134.261
62.92000 133.505
62.93000 134.809
62.94000 137.126
62.95000 139.329
62.96000 142.898
62.97000 146.616
62.98000 150.138
62.99000 152.085
63.00000 153.688
63.01000 154.842
63.02000 153.757
63.03000 152.366
63.04000 151.282
63.05000 145.529
63.06000 140.658
63.07000 138.667
63.08000 142.980
63.09000 147.516
63.10000 148.607
63.11000 144.677
63.12000 140.704
63.13000 138.468
63.14000 137.854
63.15000 137.271
63.16000 138.770
63.17000 141.533
63.18000 144.132
63.19000 143.179
63.20000 140.781
63.21000 138.545
63.22000 137.350
63.23000 136.525
63.24000 136.588
63.25000 142.287
63.26000 148.978
63.27000 153.635
63.28000 150.045
63.29000 145.579
63.30000 142.274
63.31000 149.078
63.32000 154.793
63.33000 155.557
63.34000 147.368
63.35000 138.995
63.36000 135.116
63.37000 136.572
63.38000 138.034
63.39000 141.963
63.40000 147.719
63.41000 153.368
63.42000 155.118
63.43000 154.916
63.44000 154.622
63.45000 152.966
63.46000 150.851
63.47000 148.928
63.48000 147.191
63.49000 145.692
63.50000 144.591
63.51000 145.517
63.52000 146.728
63.53000 146.903
63.54000 143.631
63.55000 140.082
63.56000 137.605
63.57000 145.326
63.58000 151.442
63.59000 155.679
63.60000 157.123
63.61000 158.541
63.62000 157.675
63.63000 154.627
63.64000 151.606
63.65000 150.154
63.66000 149.684
63.67000 149.353
63.68000 152.173
63.69000 156.299
63.70000 159.733
63.71000 155.511
63.72000 149.168
63.73000 143.559
63.74000 144.402
63.75000 146.131
63.76000 147.850
63.77000 149.521
63.78000 151.186
63.79000 152.552
63.80000 153.096
63.81000 153.592
63.82000 153.916
63.83000 153.878
63.84000 153.845
63.85000 154.358
63.86000 155.533
63.87000 156.703
63.88000 156.193
63.89000 154.386
63.90000 152.611
63.91000 153.702
63.92000 156.172
63.93000 158.519
63.94000 158.946
63.95000 158.716
63.96000 158.557
63.97000 158.998
63.98000 159.574
63.99000 160.068
64.00000 159.784
64.01000 159.450
64.02000 159.005
64.03000 158.184
64.04000 157.332
64.05000 155.590
64.06000 151.826
64.07000 147.985
64.08000 145.660
64.09000 157.219
64.10000 165.559
64.11000 168.439
64.12000 165.992
64.13000 163.558
64.14000 162.166
64.15000 161.432
64.16000 160.719
64.17000 155.031
64.18000 147.639
64.19000 140.901
64.20000 141.621
64.21000 144.447
64.22000 148.043
64.23000 156.748
64.24000 166.392
64.25000 174.342
64.26000 174.856
64.27000 174.595
64.28000 173.605
64.29000 170.573
64.30000 167.420
64.31000 165.044
64.32000 164.127
64.33000 163.243
64.34000 162.754
64.35000 153.074
64.36000 146.404
64.37000 148.427
64.38000 157.300
64.39000 165.971
64.40000 166.536
64.41000 162.885
64.42000 159.394
64.43000 160.641
64.44000 163.341
64.45000 165.848
64.46000 166.690
64.47000 167.148
64.48000 167.563
64.49000 167.754
64.50000 167.913
64.51000 168.039
64.52000 173.668
64.53000 178.561
64.54000 180.998
64.55000 177.752
64.56000 174.276
64.57000 171.213
64.58000 168.788
64.59000 166.370
64.60000 168.241
64.61000 174.392
64.62000 180.460
64.63000 179.343
64.64000 173.599
64.65000 168.008
64.66000 166.173
64.67000 165.953
64.68000 165.747
64.69000 169.402
64.70000 173.744
64.71000 177.368
64.72000 176.125
64.73000 173.970
64.74000 172.471
64.75000 173.797
64.76000 175.447
64.77000 176.688
64.78000 177.851
64.79000 178.757
64.80000 179.299
64.81000 179.145
64.82000 178.974
64.83000 179.260
64.84000 180.123
64.85000 180.986
64.86000 182.205
64.87000 183.704
64.88000 185.162
64.89000 184.875
64.90000 183.662
64.91000 182.660
64.92000 185.188
64.93000 188.971
64.94000 192.438
64.95000 193.305
64.96000 193.531
64.97000 193.899
64.98000 195.041
64.99000 196.298
65.00000 197.636
65.01000 199.258
65.02000 200.906
65.03000 202.076
65.04000 207.920
65.05000 212.519
65.06000 216.447
65.07000 219.319
65.08000 222.177
65.09000 221.760
65.10000 218.004
65.11000 214.271
65.12000 216.983
65.13000 223.828
65.14000 230.456
65.15000 231.533
65.16000 230.179
65.17000 229.215
65.18000 232.964
65.19000 238.094
65.20000 242.671
65.21000 251.669
65.22000 260.237
65.23000 268.876
65.24000 277.832
65.25000 286.826
65.26000 293.286
65.27000 292.381
65.28000 291.006
65.29000 290.090
65.30000 308.219
65.31000 322.008
65.32000 327.683
65.33000 322.901
65.34000 318.097
65.35000 321.283
65.36000 331.027
65.37000 340.634
65.38000 342.548
65.39000 340.371
65.40000 338.713
65.41000 346.011
65.42000 356.554
65.43000 366.874
65.44000 375.162
65.45000 382.962
65.46000 389.706
65.47000 402.758
65.48000 414.670
65.49000 423.514
65.50000 421.324
65.51000 418.143
65.52000 417.621
65.53000 423.490
65.54000 429.640
65.55000 433.449
65.56000 434.359
65.57000 434.986
65.58000 439.904
65.59000 449.294
65.60000 458.671
65.61000 466.721
65.62000 473.883
65.63000 480.865
65.64000 489.418
65.65000 498.253
65.66000 508.324
65.67000 533.765
65.68000 563.800
65.69000 594.973
65.70000 634.228
65.71000 675.063
65.72000 709.117
65.73000 791.620
65.74000 864.870
65.75000 932.650
65.76000 984.227
65.77000 1034.737
65.78000 1081.565
65.79000 1121.079
65.80000 1160.393
65.81000 1182.769
65.82000 1217.969
65.83000 1242.522
65.84000 1255.578
65.85000 1258.999
65.86000 1262.405
65.87000 1265.070
65.88000 1267.328
65.89000 1269.497
65.90000 1245.112
65.91000 1213.108
65.92000 1181.608
65.93000 1154.825
65.94000 1129.200
65.95000 1097.971
65.96000 1035.043
65.97000 967.140
65.98000 912.807
65.99000 818.700
66.00000 739.638
66.01000 667.982
66.02000 614.462
66.03000 561.770
66.04000 513.436
66.05000 472.242
66.06000 431.152
66.07000 409.961
66.08000 397.383
66.09000 388.862
66.10000 374.716
66.11000 356.729
66.12000 339.129
66.13000 332.365
66.14000 330.529
66.15000 328.796
66.16000 327.469
66.17000 326.366
66.18000 325.141
66.19000 323.032
66.20000 320.746
66.21000 319.440
66.22000 322.619
66.23000 326.352
66.24000 329.202
66.25000 333.934
66.26000 337.764
66.27000 344.747
66.28000 358.115
66.29000 371.668
66.30000 391.182
66.31000 418.697
66.32000 446.231
66.33000 458.171
66.34000 456.773
66.35000 455.468
66.36000 458.886
66.37000 464.956
66.38000 470.869
66.39000 473.905
66.40000 475.858
66.41000 477.660
66.42000 475.644
66.43000 472.978
66.44000 471.255
66.45000 474.976
66.46000 479.572
66.47000 481.066
66.48000 470.971
66.49000 459.775
66.50000 451.679
66.51000 446.533
66.52000 442.692
66.53000 431.755
66.54000 408.971
66.55000 386.003
66.56000 369.069
66.57000 358.697
66.58000 348.376
66.59000 338.316
66.60000 328.546
66.61000 319.166
66.62000 321.241
66.63000 328.623
66.64000 335.284
66.65000 332.439
66.66000 326.642
66.67000 321.426
66.68000 322.895
66.69000 325.377
66.70000 327.145
66.71000 325.581
66.72000 323.594
66.73000 321.864
66.74000 320.919
66.75000 320.029
66.76000 319.424
66.77000 325.472
66.78000 330.138
66.79000 330.105
66.80000 323.639
66.81000 317.141
66.82000 315.426
66.83000 317.891
66.84000 320.327
66.85000 327.292
66.86000 336.615
66.87000 345.272
66.88000 341.116
66.89000 332.051
66.90000 324.168
66.91000 327.946
66.92000 334.702
66.93000 340.599
66.94000 343.433
66.95000 345.429
66.96000 347.549
66.97000 350.148
66.98000 352.794
66.99000 355.171
67.00000 356.867
67.01000 358.530
67.02000 359.583
67.03000 355.591
67.04000 352.634
67.05000 353.449
67.06000 358.455
67.07000 363.434
67.08000 364.260
67.09000 362.136
67.10000 360.059
67.11000 363.727
67.12000 369.851
67.13000 375.564
67.14000 375.701
67.15000 374.073
67.16000 372.381
67.17000 370.206
67.18000 367.930
67.19000 366.011
67.20000 369.158
67.21000 372.334
67.22000 374.065
67.23000 371.268
67.24000 368.142
67.25000 368.875
67.26000 377.719
67.27000 386.822
67.28000 392.141
67.29000 394.701
67.30000 396.487
67.31000 395.468
67.32000 391.946
67.33000 388.541
67.34000 392.005
67.35000 399.471
67.36000 406.678
67.37000 409.351
67.38000 410.201
67.39000 410.825
67.40000 409.150
67.41000 406.877
67.42000 404.801
67.43000 403.918
67.44000 403.233
67.45000 402.679
67.46000 411.405
67.47000 419.271
67.48000 423.122
67.49000 416.580
67.50000 409.505
67.51000 406.983
67.52000 412.359
67.53000 417.876
67.54000 420.810
67.55000 415.867
67.56000 412.556
67.57000 418.670
67.58000 431.612
67.59000 444.316
67.60000 449.357
67.61000 450.713
67.62000 451.999
67.63000 458.956
67.64000 467.061
67.65000 474.064
67.66000 472.457
67.67000 469.020
67.68000 465.187
67.69000 459.430
67.70000 453.417
67.71000 448.760
67.72000 455.145
67.73000 460.871
67.74000 469.009
67.75000 482.313
67.76000 495.789
67.77000 502.057
67.78000 498.057
67.79000 493.982
67.80000 492.738
67.81000 494.071
67.82000 495.444
67.83000 499.308
67.84000 504.651
67.85000 509.643
67.86000 507.345
67.87000 502.148
67.88000 497.318
67.89000 505.361
67.90000 515.703
67.91000 524.747
67.92000 525.781
67.93000 525.440
67.94000 525.753
67.95000 528.651
67.96000 531.815
67.97000 534.141
67.98000 531.446
67.99000 529.155
68.00000 528.498
68.01000 530.731
68.02000 533.020
68.03000 535.558
68.04000 538.385
68.05000 541.204
68.06000 550.359
68.07000 564.088
68.08000 577.276
68.09000 572.063
68.10000 557.833
68.11000 544.373
68.12000 542.073
68.13000 543.441
68.14000 544.682
68.15000 557.580
68.16000 571.188
68.17000 583.861
68.18000 591.892
68.19000 599.291
68.20000 605.036
68.21000 605.395
68.22000 605.338
68.23000 605.299
68.24000 615.752
68.25000 623.896
68.26000 628.711
68.27000 628.689
68.28000 628.627
68.29000 629.397
68.30000 630.942
68.31000 632.472
68.32000 640.247
68.33000 651.572
68.34000 662.365
68.35000 661.656
68.36000 656.287
68.37000 652.571
68.38000 666.540
68.39000 685.295
68.40000 701.822
68.41000 706.493
68.42000 708.728
68.43000 711.191
68.44000 714.576
68.45000 718.059
68.46000 725.906
68.47000 745.484
68.48000 765.709
68.49000 778.808
68.50000 784.246
68.51000 788.112
68.52000 803.056
68.53000 831.107
68.54000 859.130
68.55000 876.917
68.56000 886.986
68.57000 896.870
68.58000 929.127
68.59000 971.021
68.60000 1012.440
68.61000 1046.728
68.62000 1078.629
68.63000 1112.803
68.64000 1165.632
68.65000 1222.588
68.66000 1271.136
68.67000 1343.459
68.68000 1407.085
68.69000 1471.365
68.70000 1537.811
68.71000 1604.430
68.72000 1668.827
68.73000 1728.285
68.74000 1787.563
68.75000 1823.082
68.76000 1886.505
68.77000 1931.729
68.78000 1995.117
68.79000 2075.781
68.80000 2156.661
68.81000 2253.323
68.82000 2359.728
68.83000 2462.878
68.84000 2604.697
68.85000 2754.137
68.86000 2914.677
68.87000 3197.391
68.88000 3513.811
68.89000 3868.813
68.90000 4472.873
68.91000 5121.511
68.92000 5653.678
68.93000 7686.211
68.94000 9487.813
68.95000 11748.621
68.96000 15266.893
68.97000 18856.986
68.98000 22993.504
68.99000 28133.406
69.00000 33294.980
69.01000 36121.277
69.02000 43341.047
69.03000 48307.059
69.04000 52161.637
69.05000 55161.195
69.06000 58130.512
69.07000 59959.836
69.08000 61209.168
69.09000 62401.063
69.10000 62959.777
69.11000 63277.793
69.12000 63623.719
69.13000 64204.375
69.14000 64838.016
69.15000 65468.500
69.16000 66082.648
69.17000 66694.469
69.18000 67174.969
69.19000 66343.391
69.20000 65592.055
69.21000 64147.816
69.22000 61134.461
69.23000 58061.020
69.24000 54729.246
69.25000 51007.254
69.26000 47281.402
69.27000 44183.027
69.28000 41694.684
69.29000 39213.445
69.30000 37290.531
69.31000 35718.984
69.32000 34169.949
69.33000 33146.945
69.34000 32345.199
69.35000 31595.158
69.36000 30626.443
69.37000 29690.533
69.38000 28641.451
69.39000 26845.139
69.40000 24912.186
69.41000 22853.186
69.42000 20264.227
69.43000 17616.275
69.44000 15637.831
69.45000 12747.574
69.46000 10452.356
69.47000 8468.779
69.48000 7068.363
69.49000 5681.313
69.50000 4614.924
69.51000 3943.812
69.52000 3275.088
69.53000 2796.664
69.54000 2469.302
69.55000 2145.004
69.56000 1942.672
69.57000 1803.570
69.58000 1667.555
69.59000 1580.938
69.60000 1511.501
69.61000 1448.044
69.62000 1384.909
69.63000 1328.895
69.64000 1274.961
69.65000 1232.018
69.66000 1190.680
69.67000 1151.860
69.68000 1121.720
69.69000 1092.313
69.70000 1071.556
69.71000 1022.720
69.72000 984.807
69.73000 956.117
69.74000 941.632
69.75000 927.306
69.76000 915.534
69.77000 906.300
69.78000 897.132
69.79000 885.849
69.80000 873.412
69.81000 860.627
69.82000 839.362
69.83000 814.465
69.84000 791.786
69.85000 794.954
69.86000 805.532
69.87000 814.937
69.88000 797.611
69.89000 778.242
69.90000 761.175
69.91000 753.982
69.92000 747.917
69.93000 740.706
69.94000 730.239
69.95000 719.573
69.96000 712.519
69.97000 702.829
69.98000 695.630
69.99000 688.852
70.00000 682.603
