20.00000 544.849
20.01000 549.994
20.02000 555.874
20.03000 562.256
20.04000 570.577
20.05000 579.092
20.06000 585.309
20.07000 581.646
20.08000 578.437
20.09000 572.577
20.10000 562.143
20.11000 551.630
20.12000 548.703
20.13000 554.333
20.14000 559.949
20.15000 570.865
20.16000 585.465
20.17000 599.378
20.18000 591.424
20.19000 573.009
20.20000 555.808
20.21000 555.502
20.22000 560.617
20.23000 565.240
20.24000 574.022
20.25000 582.520
20.26000 587.249
20.27000 573.757
20.28000 557.860
20.29000 547.353
20.30000 553.966
20.31000 561.848
20.32000 567.267
20.33000 554.800
20.34000 545.006
20.35000 542.677
20.36000 550.921
20.37000 559.240
20.38000 566.709
20.39000 573.407
20.40000 580.037
20.41000 576.918
20.42000 568.232
20.43000 559.725
20.44000 554.910
20.45000 551.554
20.46000 549.268
20.47000 558.036
20.48000 569.721
20.49000 579.978
20.50000 579.432
20.51000 577.383
20.52000 574.702
20.53000 569.536
20.54000 564.115
20.55000 558.364
20.56000 551.744
20.57000 545.078
20.58000 540.801
20.59000 541.922
20.60000 542.814
20.61000 541.023
20.62000 536.143
20.63000 531.298
20.64000 533.134
20.65000 539.879
20.66000 546.490
20.67000 547.867
20.68000 546.737
20.69000 545.652
20.70000 545.216
20.71000 544.993
20.72000 545.206
20.73000 548.880
20.74000 553.301
20.75000 557.052
20.76000 548.192
20.77000 539.333
20.78000 534.189
20.79000 541.076
20.80000 548.882
20.81000 556.089
20.82000 561.995
20.83000 567.856
20.84000 571.330
20.85000 566.443
20.86000 562.938
20.87000 558.871
20.88000 554.284
20.89000 549.748
20.90000 548.578
20.91000 549.435
20.92000 550.264
20.93000 550.807
20.94000 551.212
20.95000 551.682
20.96000 552.849
20.97000 554.205
20.98000 556.291
20.99000 562.950
21.00000 570.406
21.01000 576.492
21.02000 576.607
21.03000 576.190
21.04000 574.787
21.05000 570.752
21.06000 566.574
21.07000 563.284
21.08000 561.586
21.09000 559.920
21.10000 559.019
21.11000 557.109
21.12000 555.807
21.13000 555.721
21.14000 556.546
21.15000 557.274
21.16000 554.602
21.17000 550.241
21.18000 546.090
21.19000 544.009
21.20000 542.720
21.21000 541.152
21.22000 537.307
21.23000 532.961
21.24000 529.791
21.25000 532.546
21.26000 536.121
21.27000 538.912
21.28000 555.627
21.29000 569.833
21.30000 575.731
21.31000 563.264
21.32000 550.133
21.33000 545.417
21.34000 553.096
21.35000 560.886
21.36000 563.222
21.37000 560.406
21.38000 557.527
21.39000 550.230
21.40000 540.221
21.41000 530.968
21.42000 538.474
21.43000 552.862
21.44000 566.285
21.45000 567.285
21.46000 565.103
21.47000 562.573
21.48000 557.810
21.49000 552.649
21.50000 546.141
21.51000 534.107
21.52000 521.478
21.53000 512.106
21.54000 526.172
21.55000 538.130
21.56000 547.643
21.57000 552.694
21.58000 557.650
21.59000 557.647
21.60000 551.691
21.61000 545.737
21.62000 545.778
21.63000 550.375
21.64000 554.809
21.65000 553.175
21.66000 548.471
21.67000 544.373
21.68000 549.555
21.69000 557.886
21.70000 565.476
21.71000 567.067
21.72000 567.283
21.73000 566.864
21.74000 563.170
21.75000 559.014
21.76000 559.314
21.77000 574.604
21.78000 591.112
21.79000 602.674
21.80000 600.869
21.81000 599.122
21.82000 601.118
21.83000 608.735
21.84000 616.407
21.85000 624.606
21.86000 633.313
21.87000 641.950
21.88000 652.482
21.89000 663.992
21.90000 675.196
21.91000 679.316
21.92000 680.473
21.93000 682.147
21.94000 689.642
21.95000 698.765
21.96000 706.845
21.97000 719.668
21.98000 731.509
21.99000 742.705
22.00000 751.206
22.01000 759.409
22.02000 765.044
22.03000 763.553
22.04000 761.644
22.05000 760.394
22.06000 762.454
22.07000 764.025
22.08000 762.638
22.09000 757.627
22.10000 752.611
22.11000 748.736
22.12000 745.750
22.13000 742.814
22.14000 735.760
22.15000 726.880
22.16000 718.117
22.17000 711.199
22.18000 704.919
22.19000 698.459
22.20000 690.456
22.21000 682.099
22.22000 674.934
22.23000 670.811
22.24000 667.700
22.25000 662.530
22.26000 650.297
22.27000 637.473
22.28000 630.155
22.29000 635.471
22.30000 641.285
22.31000 644.818
22.32000 634.243
22.33000 626.585
22.34000 613.436
22.35000 594.866
22.36000 576.460
22.37000 571.713
22.38000 575.681
22.39000 579.537
22.40000 571.860
22.41000 559.895
22.42000 549.066
22.43000 551.361
22.44000 557.397
22.45000 562.497
22.46000 561.316
22.47000 558.969
22.48000 557.030
22.49000 556.360
22.50000 555.926
22.51000 555.894
22.52000 556.999
22.53000 558.172
22.54000 554.792
22.55000 542.777
22.56000 530.555
22.57000 523.755
22.58000 535.006
22.59000 542.801
22.60000 543.421
22.61000 538.325
22.62000 533.243
22.63000 528.742
22.64000 524.545
22.65000 520.530
22.66000 523.605
22.67000 528.798
22.68000 532.718
22.69000 525.475
22.70000 515.623
22.71000 508.598
22.72000 516.739
22.73000 527.131
22.74000 535.357
22.75000 535.401
22.76000 534.870
22.77000 531.938
22.78000 523.389
22.79000 514.609
22.80000 510.973
22.81000 515.370
22.82000 519.861
22.83000 522.117
22.84000 508.960
22.85000 500.298
22.86000 502.698
22.87000 512.295
22.88000 521.623
22.89000 524.174
22.90000 523.784
22.91000 523.418
22.92000 520.893
22.93000 518.018
22.94000 515.266
22.95000 513.352
22.96000 511.597
22.97000 510.754
22.98000 513.879
22.99000 517.465
23.00000 520.168
23.01000 510.879
23.02000 503.016
23.03000 501.045
23.04000 510.461
23.05000 520.164
23.06000 526.977
23.07000 530.100
23.08000 533.206
23.09000 526.257
23.10000 511.190
23.11000 496.601
23.12000 502.924
23.13000 520.443
23.14000 536.724
23.15000 532.008
23.16000 519.752
23.17000 508.504
23.18000 511.835
23.19000 517.904
23.20000 522.344
23.21000 517.863
23.22000 512.028
23.23000 507.227
23.24000 506.108
23.25000 505.316
23.26000 504.751
23.27000 510.554
23.28000 515.187
23.29000 516.558
23.30000 512.738
23.31000 508.851
23.32000 507.466
23.33000 508.662
23.34000 509.850
23.35000 506.350
23.36000 499.831
23.37000 493.564
23.38000 493.890
23.39000 497.133
23.40000 500.257
23.41000 501.913
23.42000 503.135
23.43000 504.228
23.44000 508.860
23.45000 513.493
23.46000 517.353
23.47000 517.775
23.48000 517.787
23.49000 516.077
23.50000 509.311
23.51000 502.217
23.52000 497.471
23.53000 505.873
23.54000 512.364
23.55000 512.945
23.56000 505.828
23.57000 498.688
23.58000 496.411
23.59000 498.168
23.60000 499.900
23.61000 498.682
23.62000 495.931
23.63000 493.644
23.64000 499.490
23.65000 508.312
23.66000 516.382
23.67000 517.506
23.68000 516.943
23.69000 516.455
23.70000 518.901
23.71000 521.369
23.72000 522.114
23.73000 516.597
23.74000 510.510
23.75000 504.727
23.76000 499.679
23.77000 494.664
23.78000 491.545
23.79000 489.864
23.80000 488.667
23.81000 491.416
23.82000 498.321
23.83000 505.160
23.84000 504.826
23.85000 499.640
23.86000 494.580
23.87000 494.622
23.88000 496.859
23.89000 499.053
23.90000 500.717
23.91000 502.222
23.92000 503.531
23.93000 503.436
23.94000 503.063
23.95000 502.752
23.96000 500.096
23.97000 497.654
23.98000 495.827
23.99000 495.844
24.00000 495.984
24.01000 497.535
24.02000 501.917
24.03000 506.380
24.04000 508.931
24.05000 492.588
24.06000 481.131
24.07000 480.071
24.08000 487.818
24.09000 495.502
24.10000 500.086
24.11000 502.947
24.12000 505.697
24.13000 505.934
24.14000 505.278
24.15000 504.702
24.16000 504.886
24.17000 505.258
24.18000 505.520
24.19000 505.152
24.20000 504.684
24.21000 504.309
24.22000 488.964
24.23000 475.406
24.24000 469.179
24.25000 481.078
24.26000 493.821
24.27000 499.749
24.28000 494.403
24.29000 488.889
24.30000 486.029
24.31000 488.945
24.32000 490.921
24.33000 493.658
24.34000 496.921
24.35000 499.905
24.36000 494.861
24.37000 486.132
24.38000 477.888
24.39000 478.014
24.40000 480.494
24.41000 482.710
24.42000 482.985
24.43000 482.868
24.44000 482.546
24.45000 481.273
24.46000 479.881
24.47000 478.816
24.48000 475.058
24.49000 471.946
24.50000 470.176
24.51000 471.148
24.52000 472.202
24.53000 474.673
24.54000 479.065
24.55000 483.465
24.56000 486.779
24.57000 489.149
24.58000 491.499
24.59000 492.800
24.60000 493.507
24.61000 493.934
24.62000 489.092
24.63000 482.249
24.64000 475.925
24.65000 471.612
24.66000 468.197
24.67000 466.712
24.68000 476.506
24.69000 488.131
24.70000 496.394
24.71000 491.963
24.72000 486.309
24.73000 482.208
24.74000 487.523
24.75000 491.957
24.76000 494.703
24.77000 494.601
24.78000 494.452
24.79000 489.002
24.80000 477.720
24.81000 466.483
24.82000 470.533
24.83000 485.185
24.84000 499.236
24.85000 495.240
24.86000 482.800
24.87000 471.616
24.88000 477.275
24.89000 488.216
24.90000 498.073
24.91000 492.157
24.92000 484.115
24.93000 477.950
24.94000 480.638
24.95000 484.461
24.96000 487.021
24.97000 485.651
24.98000 484.002
24.99000 482.876
25.00000 475.206
25.01000 469.319
25.02000 468.773
25.03000 475.614
25.04000 482.500
25.05000 488.114
25.06000 492.603
25.07000 497.042
25.08000 495.064
25.09000 489.512
25.10000 484.052
25.11000 480.397
25.12000 477.440
25.13000 474.794
25.14000 475.262
25.15000 476.533
25.16000 477.644
25.17000 478.522
25.18000 479.240
25.19000 478.481
25.20000 472.035
25.21000 465.026
25.22000 462.592
25.23000 471.897
25.24000 481.791
25.25000 488.086
25.26000 480.682
25.27000 475.130
25.28000 471.691
25.29000 470.625
25.30000 469.554
25.31000 467.542
25.32000 464.855
25.33000 462.224
25.34000 463.996
25.35000 467.715
25.36000 471.108
25.37000 469.997
25.38000 467.447
25.39000 465.499
25.40000 468.210
25.41000 471.900
25.42000 475.019
25.43000 471.685
25.44000 468.188
25.45000 465.119
25.46000 463.408
25.47000 461.796
25.48000 461.490
25.49000 463.951
25.50000 466.504
25.51000 468.001
25.52000 474.511
25.53000 479.122
25.54000 481.442
25.55000 481.696
25.56000 481.892
25.57000 478.548
25.58000 473.121
25.59000 467.878
25.60000 468.046
25.61000 470.216
25.62000 472.311
25.63000 473.647
25.64000 474.782
25.65000 475.871
25.66000 476.670
25.67000 477.421
25.68000 478.031
25.69000 468.679
25.70000 460.226
25.71000 455.779
25.72000 461.807
25.73000 468.381
25.74000 467.477
25.75000 453.469
25.76000 439.219
25.77000 431.602
25.78000 440.906
25.79000 447.226
25.80000 447.131
25.81000 442.341
25.82000 437.841
25.83000 442.939
25.84000 452.698
25.85000 461.967
25.86000 459.214
25.87000 453.054
25.88000 447.724
25.89000 448.958
25.90000 451.601
25.91000 455.031
25.92000 462.324
25.93000 470.138
25.94000 476.205
25.95000 475.542
25.96000 474.609
25.97000 474.179
25.98000 474.837
25.99000 475.533
26.00000 475.559
26.01000 474.622
26.02000 473.677
26.03000 475.746
26.04000 480.588
26.05000 485.294
26.06000 481.102
26.07000 471.571
26.08000 462.349
26.09000 459.652
26.10000 459.576
26.11000 459.505
26.12000 461.067
26.13000 462.874
26.14000 464.165
26.15000 462.232
26.16000 459.740
26.17000 456.965
26.18000 453.059
26.19000 449.033
26.20000 446.065
26.21000 457.145
26.22000 466.316
26.23000 471.383
26.24000 469.122
26.25000 466.717
26.26000 460.046
26.27000 448.381
26.28000 436.742
26.29000 434.895
26.30000 440.320
26.31000 445.721
26.32000 450.317
26.33000 454.514
26.34000 458.496
26.35000 459.308
26.36000 459.069
26.37000 458.852
26.38000 456.571
26.39000 454.157
26.40000 451.350
26.41000 446.572
26.42000 441.521
26.43000 438.350
26.44000 441.355
26.45000 444.844
26.46000 447.270
26.47000 442.869
26.48000 439.366
26.49000 439.541
26.50000 445.113
26.51000 450.732
26.52000 452.364
26.53000 450.243
26.54000 448.142
26.55000 448.434
26.56000 450.156
26.57000 452.096
26.58000 458.827
26.59000 467.519
26.60000 475.168
26.61000 471.501
26.62000 464.740
26.63000 458.773
26.64000 446.564
26.65000 435.077
26.66000 428.871
26.67000 444.234
26.68000 461.907
26.69000 475.497
26.70000 478.006
26.71000 479.893
26.72000 481.120
26.73000 469.922
26.74000 461.526
26.75000 455.099
26.76000 451.027
26.77000 446.983
26.78000 447.890
26.79000 452.570
26.80000 457.166
26.81000 457.679
26.82000 456.186
26.83000 455.094
26.84000 460.109
26.85000 467.190
26.86000 472.330
26.87000 461.345
26.88000 446.755
26.89000 434.296
26.90000 438.219
26.91000 443.470
26.92000 448.923
26.93000 455.054
26.94000 461.240
26.95000 465.274
26.96000 464.478
26.97000 463.501
26.98000 462.913
26.99000 454.761
27.00000 448.912
27.01000 448.480
27.02000 453.261
27.03000 457.909
27.04000 452.541
27.05000 440.929
27.06000 429.664
27.07000 434.551
27.08000 445.568
27.09000 455.435
27.10000 452.467
27.11000 445.921
27.12000 440.450
27.13000 441.991
27.14000 444.801
27.15000 447.111
27.16000 449.117
27.17000 450.738
27.18000 451.377
27.19000 449.301
27.20000 447.067
27.21000 446.382
27.22000 448.569
27.23000 450.820
27.24000 452.059
27.25000 449.343
27.26000 447.467
27.27000 445.731
27.28000 444.106
27.29000 442.319
27.30000 434.286
27.31000 423.043
27.32000 412.307
27.33000 424.960
27.34000 444.207
27.35000 460.564
27.36000 452.306
27.37000 438.432
27.38000 427.875
27.39000 434.666
27.40000 443.962
27.41000 451.281
27.42000 443.875
27.43000 436.961
27.44000 431.526
27.45000 429.473
27.46000 427.552
27.47000 427.954
27.48000 431.899
27.49000 435.882
27.50000 439.109
27.51000 441.595
27.52000 443.969
27.53000 437.304
27.54000 424.892
27.55000 413.204
27.56000 418.808
27.57000 431.756
27.58000 443.882
27.59000 445.878
27.60000 445.077
27.61000 444.028
27.62000 441.325
27.63000 438.317
27.64000 434.468
27.65000 427.043
27.66000 419.216
27.67000 413.351
27.68000 424.474
27.69000 433.955
27.70000 439.905
27.71000 439.183
27.72000 438.304
27.73000 436.892
27.74000 434.817
27.75000 432.744
27.76000 432.771
27.77000 434.457
27.78000 436.122
27.79000 436.898
27.80000 437.210
27.81000 437.110
27.82000 430.305
27.83000 421.144
27.84000 412.762
27.85000 416.572
27.86000 422.484
27.87000 427.653
27.88000 428.851
27.89000 429.462
27.90000 429.793
27.91000 429.149
27.92000 428.421
27.93000 427.906
27.94000 428.518
27.95000 429.018
27.96000 428.608
27.97000 426.782
27.98000 424.940
27.99000 424.792
28.00000 426.347
28.01000 427.891
28.02000 432.356
28.03000 438.617
28.04000 444.525
28.05000 441.635
28.06000 434.939
28.07000 429.171
28.08000 434.397
28.09000 442.806
28.10000 450.294
28.11000 449.722
28.12000 447.903
28.13000 444.508
28.14000 434.283
28.15000 423.268
28.16000 416.243
28.17000 420.672
28.18000 425.815
28.19000 429.229
28.20000 435.266
28.21000 439.776
28.22000 444.899
28.23000 450.802
28.24000 456.683
28.25000 453.593
28.26000 443.239
28.27000 433.038
28.28000 428.613
28.29000 427.309
28.30000 426.428
28.31000 432.667
28.32000 441.455
28.33000 449.051
28.34000 445.964
28.35000 440.342
28.36000 435.491
28.37000 436.068
28.38000 437.254
28.39000 437.171
28.40000 432.591
28.41000 427.613
28.42000 424.741
28.43000 426.862
28.44000 429.197
28.45000 430.636
28.46000 427.302
28.47000 424.866
28.48000 421.466
28.49000 417.075
28.50000 412.728
28.51000 412.715
28.52000 415.566
28.53000 418.343
28.54000 418.031
28.55000 416.435
28.56000 415.165
28.57000 417.866
28.58000 421.740
28.59000 424.650
28.60000 420.825
28.61000 415.701
28.62000 411.439
28.63000 420.490
28.64000 429.289
28.65000 434.876
28.66000 431.067
28.67000 426.653
28.68000 424.115
28.69000 425.256
28.70000 426.495
28.71000 427.196
28.72000 416.234
28.73000 408.595
28.74000 409.274
28.75000 416.828
28.76000 424.238
28.77000 424.979
28.78000 422.096
28.79000 419.328
28.80000 420.450
28.81000 422.824
28.82000 424.983
28.83000 425.160
28.84000 424.857
28.85000 423.776
28.86000 418.353
28.87000 412.260
28.88000 407.399
28.89000 412.055
28.90000 416.509
28.91000 419.141
28.92000 417.369
28.93000 415.402
28.94000 414.386
28.95000 414.908
28.96000 415.451
28.97000 415.730
28.98000 419.394
28.99000 421.836
29.00000 421.999
29.01000 420.627
29.02000 419.220
29.03000 416.887
29.04000 414.138
29.05000 411.548
29.06000 417.672
29.07000 425.678
29.08000 432.132
29.09000 427.475
29.10000 420.629
29.11000 414.825
29.12000 413.720
29.13000 413.186
29.14000 412.780
29.15000 410.198
29.16000 408.052
29.17000 409.125
29.18000 416.634
29.19000 424.322
29.20000 426.737
29.21000 422.171
29.22000 417.577
29.23000 415.033
29.24000 414.221
29.25000 413.417
29.26000 413.027
29.27000 412.867
29.28000 412.780
29.29000 414.014
29.30000 415.739
29.31000 417.330
29.32000 417.409
29.33000 417.145
29.34000 416.980
29.35000 417.373
29.36000 417.854
29.37000 418.310
29.38000 418.675
29.39000 419.032
29.40000 419.289
29.41000 412.183
29.42000 406.479
29.43000 405.391
29.44000 411.914
29.45000 418.549
29.46000 421.047
29.47000 419.109
29.48000 417.179
29.49000 417.539
29.50000 419.449
29.51000 421.227
29.52000 419.238
29.53000 415.525
29.54000 412.092
29.55000 412.268
29.56000 413.552
29.57000 414.704
29.58000 413.073
29.59000 411.155
29.60000 409.538
29.61000 409.300
29.62000 409.235
29.63000 410.022
29.64000 413.399
29.65000 416.954
29.66000 419.361
29.67000 411.835
29.68000 406.009
29.69000 406.648
29.70000 416.019
29.71000 425.430
29.72000 429.012
29.73000 427.572
29.74000 426.150
29.75000 427.336
29.76000 429.927
29.77000 432.665
29.78000 438.153
29.79000 444.683
29.80000 450.582
29.81000 450.373
29.82000 448.625
29.83000 447.102
29.84000 438.742
29.85000 430.655
29.86000 424.870
29.87000 427.742
29.88000 431.443
29.89000 435.710
29.90000 441.401
29.91000 447.161
29.92000 450.793
29.93000 452.051
29.94000 452.935
29.95000 456.660
29.96000 463.498
29.97000 470.294
29.98000 471.345
29.99000 468.369
30.00000 465.459
30.01000 461.992
30.02000 458.418
30.03000 455.598
30.04000 462.821
30.05000 473.182
30.06000 481.451
30.07000 474.008
30.08000 463.341
30.09000 454.368
30.10000 456.282
30.11000 459.038
30.12000 461.070
30.13000 460.861
30.14000 460.494
30.15000 459.525
30.16000 457.305
30.17000 455.046
30.18000 453.734
30.19000 451.551
30.20000 450.012
30.21000 447.306
30.22000 443.573
30.23000 439.856
30.24000 437.036
30.25000 434.734
30.26000 432.513
30.27000 434.906
30.28000 438.828
30.29000 442.239
30.30000 440.548
30.31000 437.547
30.32000 435.245
30.33000 437.103
30.34000 439.648
30.35000 441.705
30.36000 434.283
30.37000 427.487
30.38000 425.238
30.39000 434.615
30.40000 444.573
30.41000 448.885
30.42000 443.527
30.43000 438.005
30.44000 435.088
30.45000 434.140
30.46000 433.517
30.47000 435.686
30.48000 439.852
30.49000 443.850
30.50000 442.629
30.51000 438.929
30.52000 435.422
30.53000 435.088
30.54000 435.711
30.55000 436.900
30.56000 442.432
30.57000 448.875
30.58000 453.537
30.59000 449.665
30.60000 444.676
30.61000 440.825
30.62000 440.827
30.63000 441.052
30.64000 443.570
30.65000 450.937
30.66000 458.460
30.67000 461.443
30.68000 458.044
30.69000 454.601
30.70000 452.836
30.71000 452.579
30.72000 452.376
30.73000 455.342
30.74000 460.167
30.75000 464.857
30.76000 466.798
30.77000 467.659
30.78000 468.458
30.79000 474.421
30.80000 481.013
30.81000 486.554
30.82000 485.697
30.83000 483.760
30.84000 482.709
30.85000 485.121
30.86000 487.884
30.87000 489.908
30.88000 495.740
30.89000 500.396
30.90000 507.889
30.91000 520.336
30.92000 532.872
30.93000 545.597
30.94000 558.537
30.95000 571.432
30.96000 581.949
30.97000 590.659
30.98000 599.457
30.99000 611.154
31.00000 624.254
31.01000 638.486
31.02000 668.781
31.03000 704.291
31.04000 736.437
31.05000 779.471
31.06000 819.431
31.07000 859.181
31.08000 897.902
31.09000 936.485
31.10000 981.629
31.11000 1047.864
31.12000 1115.693
31.13000 1162.507
31.14000 1271.094
31.15000 1354.261
31.16000 1450.232
31.17000 1564.559
31.18000 1679.026
31.19000 1788.220
31.20000 1892.575
31.21000 1995.920
31.22000 2127.360
31.23000 2272.511
31.24000 2416.991
31.25000 2547.353
31.26000 2672.065
31.27000 2796.829
31.28000 2922.145
31.29000 3047.608
31.30000 3157.942
31.31000 3283.379
31.32000 3393.551
31.33000 3491.719
31.34000 3542.018
31.35000 3587.346
31.36000 3619.926
31.37000 3618.670
31.38000 3615.595
31.39000 3613.612
31.40000 3617.268
31.41000 3620.018
31.42000 3589.610
31.43000 3520.521
31.44000 3451.266
31.45000 3361.506
31.46000 3256.493
31.47000 3153.478
31.48000 3040.033
31.49000 2925.763
31.50000 2810.731
31.51000 2684.534
31.52000 2554.644
31.53000 2422.271
31.54000 2269.864
31.55000 2113.085
31.56000 1979.763
31.57000 1838.326
31.58000 1718.603
31.59000 1609.439
31.60000 1534.866
31.61000 1462.988
31.62000 1384.329
31.63000 1290.781
31.64000 1196.705
31.65000 1140.646
31.66000 1062.684
31.67000 1007.299
31.68000 944.566
31.69000 874.944
31.70000 805.827
31.71000 771.550
31.72000 758.506
31.73000 745.872
31.74000 725.497
31.75000 703.237
31.76000 680.792
31.77000 656.346
31.78000 631.354
31.79000 607.221
31.80000 588.552
31.81000 570.846
31.82000 556.358
31.83000 550.013
31.84000 545.525
31.85000 538.228
31.86000 523.339
31.87000 508.025
31.88000 496.677
31.89000 492.520
31.90000 488.512
31.91000 486.331
31.92000 491.425
31.93000 494.872
31.94000 485.849
31.95000 467.362
31.96000 449.251
31.97000 444.819
31.98000 447.259
31.99000 449.584
32.00000 447.772
32.01000 444.799
32.02000 442.476
32.03000 445.527
32.04000 449.774
32.05000 451.758
32.06000 442.195
32.07000 431.010
32.08000 422.253
32.09000 421.982
32.10000 422.309
32.11000 420.594
32.12000 414.312
32.13000 407.860
32.14000 402.150
32.15000 397.548
32.16000 392.957
32.17000 395.877
32.18000 405.992
32.19000 415.948
32.20000 414.076
32.21000 404.855
32.22000 395.905
32.23000 393.104
32.24000 392.856
32.25000 392.625
32.26000 393.790
32.27000 395.198
32.28000 397.290
32.29000 403.835
32.30000 411.182
32.31000 415.446
32.32000 406.916
32.33000 396.986
32.34000 389.592
32.35000 391.973
32.36000 394.266
32.37000 396.412
32.38000 398.287
32.39000 400.156
32.40000 398.243
32.41000 391.733
32.42000 385.225
32.43000 380.694
32.44000 377.710
32.45000 374.908
32.46000 379.137
32.47000 386.964
32.48000 394.258
32.49000 393.202
32.50000 389.279
32.51000 385.701
32.52000 389.501
32.53000 394.359
32.54000 397.615
32.55000 392.523
32.56000 386.230
32.57000 381.262
32.58000 380.799
32.59000 380.709
32.60000 380.645
32.61000 378.149
32.62000 376.186
32.63000 376.559
32.64000 380.482
32.65000 384.442
32.66000 383.632
32.67000 378.151
32.68000 372.711
32.69000 371.857
32.70000 373.874
32.71000 375.688
32.72000 372.672
32.73000 367.613
32.74000 363.095
32.75000 364.759
32.76000 368.172
32.77000 371.201
32.78000 376.007
32.79000 380.455
32.80000 386.266
32.81000 397.841
32.82000 410.064
32.83000 424.335
32.84000 444.354
32.85000 464.717
32.86000 478.123
32.87000 499.653
32.88000 515.652
32.89000 521.795
32.90000 515.707
32.91000 509.608
32.92000 510.774
32.93000 517.682
32.94000 524.480
32.95000 519.694
32.96000 509.207
32.97000 499.396
32.98000 500.509
32.99000 505.446
33.00000 509.483
33.01000 505.702
33.02000 500.108
33.03000 495.301
33.04000 480.120
33.05000 465.988
33.06000 452.549
33.07000 441.519
33.08000 430.694
33.09000 420.268
33.10000 410.770
33.11000 401.310
33.12000 395.534
33.13000 397.056
33.14000 398.204
33.15000 395.011
33.16000 387.475
33.17000 379.959
33.18000 374.141
33.19000 369.421
33.20000 364.831
33.21000 363.813
33.22000 364.311
33.23000 364.328
33.24000 358.700
33.25000 351.442
33.26000 345.303
33.27000 346.776
33.28000 349.680
33.29000 352.085
33.30000 345.600
33.31000 339.402
33.32000 335.412
33.33000 337.734
33.34000 340.447
33.35000 344.747
33.36000 352.090
33.37000 359.509
33.38000 363.661
33.39000 347.753
33.40000 336.706
33.41000 333.580
33.42000 336.844
33.43000 340.048
33.44000 340.681
33.45000 339.949
33.46000 339.247
33.47000 336.162
33.48000 332.492
33.49000 329.676
33.50000 334.479
33.51000 341.085
33.52000 345.396
33.53000 337.236
33.54000 327.198
33.55000 319.232
33.56000 335.306
33.57000 349.938
33.58000 358.096
33.59000 350.946
33.60000 343.149
33.61000 341.377
33.62000 349.129
33.63000 357.000
33.64000 360.979
33.65000 348.389
33.66000 340.024
33.67000 337.424
33.68000 338.621
33.69000 339.823
33.70000 341.168
33.71000 342.576
33.72000 343.900
33.73000 343.922
33.74000 343.592
33.75000 342.909
33.76000 339.767
33.77000 336.153
33.78000 333.893
33.79000 337.597
33.80000 342.005
33.81000 345.338
33.82000 348.120
33.83000 350.274
33.84000 349.942
33.85000 344.749
33.86000 339.429
33.87000 337.013
33.88000 338.351
33.89000 339.702
33.90000 339.179
33.91000 337.120
33.92000 335.045
33.93000 332.219
33.94000 328.987
33.95000 326.168
33.96000 330.518
33.97000 337.473
33.98000 343.865
33.99000 340.348
34.00000 335.073
34.01000 330.747
34.02000 331.696
34.03000 333.458
34.04000 334.832
34.05000 334.811
34.06000 334.665
34.07000 334.560
34.08000 332.195
34.09000 330.314
34.10000 332.658
34.11000 341.813
34.12000 351.058
34.13000 348.932
34.14000 334.922
34.15000 320.988
34.16000 318.111
34.17000 322.597
34.18000 326.891
34.19000 326.020
34.20000 322.838
34.21000 320.067
34.22000 322.424
34.23000 326.319
34.24000 329.804
34.25000 332.617
34.26000 334.956
34.27000 336.225
34.28000 332.685
34.29000 328.563
34.30000 327.176
34.31000 333.912
34.32000 341.185
34.33000 346.071
34.34000 332.261
34.35000 321.620
34.36000 318.792
34.37000 326.269
34.38000 333.782
34.39000 335.371
34.40000 331.980
34.41000 328.634
34.42000 327.452
34.43000 327.465
34.44000 327.600
34.45000 329.942
34.46000 333.102
34.47000 335.642
34.48000 332.369
34.49000 327.665
34.50000 323.583
34.51000 324.516
34.52000 325.984
34.53000 326.969
34.54000 326.184
34.55000 325.235
34.56000 324.839
34.57000 325.803
34.58000 326.828
34.59000 327.469
34.60000 327.661
34.61000 327.794
34.62000 327.102
34.63000 325.526
34.64000 323.950
34.65000 322.320
34.66000 320.655
34.67000 319.028
34.68000 319.144
34.69000 320.015
34.70000 321.009
34.71000 323.591
34.72000 326.658
34.73000 329.398
34.74000 329.753
34.75000 329.630
34.76000 329.527
34.77000 325.868
34.78000 322.460
34.79000 321.972
34.80000 330.323
34.81000 339.278
34.82000 345.143
34.83000 344.735
34.84000 344.146
34.85000 343.806
34.86000 339.456
34.87000 336.394
34.88000 330.850
34.89000 323.177
34.90000 315.568
34.91000 311.258
34.92000 308.804
34.93000 306.443
34.94000 306.531
34.95000 307.480
34.96000 308.257
34.97000 307.383
34.98000 306.094
34.99000 305.624
35.00000 309.901
35.01000 314.943
35.02000 318.997
35.03000 319.737
35.04000 320.082
35.05000 320.485
35.06000 321.037
35.07000 321.595
35.08000 323.307
35.09000 326.951
35.10000 330.625
35.11000 332.542
35.12000 314.224
35.13000 301.889
35.14000 297.227
35.15000 297.923
35.16000 298.865
35.17000 307.074
35.18000 318.659
35.19000 329.613
35.20000 328.476
35.21000 323.972
35.22000 319.431
35.23000 314.617
35.24000 309.747
35.25000 305.779
35.26000 306.032
35.27000 306.822
35.28000 307.428
35.29000 305.530
35.30000 303.891
35.31000 303.068
35.32000 303.936
35.33000 304.855
35.34000 309.480
35.35000 319.191
35.36000 328.927
35.37000 328.510
35.38000 319.212
35.39000 310.070
35.40000 309.503
35.41000 313.854
35.42000 318.117
35.43000 320.689
35.44000 322.611
35.45000 324.390
35.46000 324.711
35.47000 324.664
35.48000 323.066
35.49000 312.274
35.50000 299.970
35.51000 291.267
35.52000 296.322
35.53000 302.726
35.54000 307.386
35.55000 314.688
35.56000 320.409
35.57000 320.155
35.58000 309.706
35.59000 299.085
35.60000 293.720
35.61000 294.213
35.62000 294.708
35.63000 297.799
35.64000 302.689
35.65000 307.537
35.66000 311.072
35.67000 313.986
35.68000 316.507
35.69000 313.653
35.70000 309.092
35.71000 304.977
35.72000 312.210
35.73000 320.646
35.74000 326.893
35.75000 322.687
35.76000 317.119
35.77000 311.734
35.78000 306.921
35.79000 302.150
35.80000 298.882
35.81000 305.278
35.82000 310.301
35.83000 314.107
35.84000 316.209
35.85000 318.298
35.86000 317.901
35.87000 315.280
35.88000 312.686
35.89000 308.498
35.90000 303.492
35.91000 298.913
35.92000 302.889
35.93000 310.214
35.94000 316.802
35.95000 315.892
35.96000 313.025
35.97000 310.514
35.98000 312.887
35.99000 315.628
36.00000 317.300
36.01000 314.801
36.02000 311.882
36.03000 309.991
36.04000 310.768
36.05000 311.682
36.06000 312.267
36.07000 311.877
36.08000 311.580
36.09000 312.534
36.10000 314.910
36.11000 317.242
36.12000 312.027
36.13000 301.330
36.14000 290.850
36.15000 288.523
36.16000 290.066
36.17000 291.467
36.18000 290.867
36.19000 289.621
36.20000 289.197
36.21000 295.216
36.22000 302.608
36.23000 308.867
36.24000 306.852
36.25000 304.240
36.26000 302.148
36.27000 301.723
36.28000 301.423
36.29000 301.000
36.30000 300.312
36.31000 299.615
36.32000 299.204
36.33000 296.907
36.34000 295.275
36.35000 295.416
36.36000 297.175
36.37000 298.865
36.38000 296.172
36.39000 290.867
36.40000 285.738
36.41000 287.558
36.42000 291.892
36.43000 296.204
36.44000 300.298
36.45000 304.334
36.46000 307.961
36.47000 309.051
36.48000 309.704
36.49000 310.237
36.50000 307.754
36.51000 305.472
36.52000 304.551
36.53000 307.232
36.54000 310.105
36.55000 311.227
36.56000 309.241
36.57000 307.196
36.58000 306.096
36.59000 307.348
36.60000 308.187
36.61000 305.538
36.62000 300.304
36.63000 295.342
36.64000 299.681
36.65000 308.589
36.66000 317.060
36.67000 315.602
36.68000 311.227
36.69000 307.437
36.70000 308.342
36.71000 310.268
36.72000 310.855
36.73000 304.781
36.74000 297.797
36.75000 292.359
36.76000 287.850
36.77000 284.317
36.78000 285.142
36.79000 295.503
36.80000 306.199
36.81000 314.614
36.82000 319.706
36.83000 324.768
36.84000 325.683
36.85000 322.725
36.86000 319.811
36.87000 319.880
36.88000 321.759
36.89000 323.405
36.90000 320.013
36.91000 314.574
36.92000 309.506
36.93000 313.669
36.94000 319.701
36.95000 324.216
36.96000 319.125
36.97000 312.345
36.98000 306.452
36.99000 304.153
37.00000 302.236
37.01000 300.817
37.02000 301.481
37.03000 302.086
37.04000 305.867
37.05000 315.383
37.06000 325.018
37.07000 327.561
37.08000 321.691
37.09000 315.822
37.10000 309.509
37.11000 302.907
37.12000 296.331
37.13000 290.692
37.14000 285.521
37.15000 281.012
37.16000 286.457
37.17000 295.243
37.18000 303.235
37.19000 306.082
37.20000 307.591
37.21000 309.160
37.22000 311.043
37.23000 312.969
37.24000 312.711
37.25000 305.185
37.26000 297.079
37.27000 291.421
37.28000 290.856
37.29000 290.571
37.30000 292.320
37.31000 297.093
37.32000 301.894
37.33000 304.058
37.34000 303.707
37.35000 303.359
37.36000 301.820
37.37000 299.584
37.38000 297.313
37.39000 294.225
37.40000 290.799
37.41000 287.852
37.42000 290.190
37.43000 293.991
37.44000 297.352
37.45000 296.837
37.46000 295.791
37.47000 294.033
37.48000 289.330
37.49000 284.306
37.50000 280.106
37.51000 278.167
37.52000 276.359
37.53000 275.178
37.54000 291.288
37.55000 303.390
37.56000 310.714
37.57000 312.250
37.58000 313.761
37.59000 312.393
37.60000 308.803
37.61000 305.275
37.62000 302.138
37.63000 299.298
37.64000 296.744
37.65000 298.624
37.66000 302.021
37.67000 304.957
37.68000 304.000
37.69000 302.162
37.70000 300.589
37.71000 300.085
37.72000 299.788
37.73000 300.300
37.74000 303.553
37.75000 307.032
37.76000 308.021
37.77000 303.357
37.78000 298.476
37.79000 295.524
37.80000 301.438
37.81000 305.718
37.82000 305.180
37.83000 299.947
37.84000 294.755
37.85000 292.828
37.86000 292.961
37.87000 293.091
37.88000 291.934
37.89000 290.320
37.90000 289.309
37.91000 295.136
37.92000 302.892
37.93000 309.302
37.94000 306.793
37.95000 302.648
37.96000 299.231
37.97000 303.709
37.98000 308.119
37.99000 310.150
38.00000 305.523
38.01000 300.501
38.02000 297.699
38.03000 299.061
38.04000 300.520
38.05000 301.328
38.06000 310.764
38.07000 317.263
38.08000 314.984
38.09000 305.796
38.10000 296.906
38.11000 300.038
38.12000 309.418
38.13000 318.384
38.14000 319.089
38.15000 317.066
38.16000 315.040
38.17000 312.993
38.18000 310.942
38.19000 309.439
38.20000 310.845
38.21000 312.677
38.22000 314.124
38.23000 316.130
38.24000 317.778
38.25000 320.265
38.26000 324.696
38.27000 329.204
38.28000 333.809
38.29000 338.564
38.30000 343.320
38.31000 350.170
38.32000 359.105
38.33000 368.066
38.34000 379.312
38.35000 392.028
38.36000 404.577
38.37000 413.052
38.38000 419.776
38.39000 426.081
38.40000 444.110
38.41000 463.598
38.42000 483.302
38.43000 504.471
38.44000 525.915
38.45000 550.460
38.46000 588.344
38.47000 627.756
38.48000 657.378
38.49000 692.697
38.50000 720.586
38.51000 752.461
38.52000 791.956
38.53000 831.639
38.54000 878.432
38.55000 934.197
38.56000 989.901
38.57000 1031.206
38.58000 1060.818
38.59000 1090.740
38.60000 1133.860
38.61000 1183.970
38.62000 1233.297
38.63000 1269.603
38.64000 1301.283
38.65000 1330.316
38.66000 1362.613
38.67000 1392.059
38.68000 1417.710
38.69000 1422.810
38.70000 1424.832
38.71000 1422.223
38.72000 1403.301
38.73000 1382.958
38.74000 1368.501
38.75000 1348.960
38.76000 1333.922
38.77000 1311.824
38.78000 1278.609
38.79000 1245.257
38.80000 1200.719
38.81000 1144.789
38.82000 1089.214
38.83000 1038.965
38.84000 992.887
38.85000 947.204
38.86000 911.636
38.87000 880.497
38.88000 848.267
38.89000 802.907
38.90000 753.699
38.91000 709.804
38.92000 660.283
38.93000 616.259
38.94000 575.325
38.95000 547.950
38.96000 522.168
38.97000 496.605
38.98000 471.677
38.99000 446.789
39.00000 430.200
39.01000 412.266
39.02000 398.963
39.03000 386.208
39.04000 374.161
39.05000 362.130
39.06000 355.574
39.07000 353.509
39.08000 351.474
39.09000 342.050
39.10000 329.023
39.11000 316.406
39.12000 310.833
39.13000 307.810
39.14000 305.003
39.15000 304.157
39.16000 303.782
39.17000 303.457
39.18000 304.683
39.19000 305.925
39.20000 304.837
39.21000 295.377
39.22000 285.167
39.23000 281.669
39.24000 294.290
39.25000 307.616
39.26000 315.868
39.27000 308.292
39.28000 302.694
39.29000 297.698
39.30000 293.329
39.31000 288.988
39.32000 287.607
39.33000 288.206
39.34000 288.790
39.35000 288.787
39.36000 288.534
39.37000 288.019
39.38000 284.252
39.39000 279.513
39.40000 275.194
39.41000 273.855
39.42000 273.098
39.43000 272.466
39.44000 273.730
39.45000 274.967
39.46000 276.300
39.47000 277.919
39.48000 279.557
39.49000 280.837
39.50000 281.406
39.51000 281.956
39.52000 282.269
39.53000 284.283
39.54000 285.683
39.55000 282.005
39.56000 274.078
39.57000 266.329
39.58000 267.109
39.59000 272.579
39.60000 277.834
39.61000 271.273
39.62000 261.053
39.63000 251.965
39.64000 253.454
39.65000 257.537
39.66000 261.724
39.67000 266.500
39.68000 271.367
39.69000 275.261
39.70000 275.920
39.71000 276.211
39.72000 277.197
39.73000 279.884
39.74000 282.649
39.75000 280.379
39.76000 269.867
39.77000 259.237
39.78000 253.757
39.79000 267.246
39.80000 276.287
39.81000 279.971
39.82000 280.002
39.83000 280.035
39.84000 280.123
39.85000 280.234
39.86000 280.340
39.87000 277.245
39.88000 273.515
39.89000 270.343
39.90000 271.230
39.91000 272.927
39.92000 273.464
39.93000 268.702
39.94000 263.286
39.95000 259.154
39.96000 261.886
39.97000 264.406
39.98000 266.599
39.99000 268.128
40.00000 269.638
40.01000 268.497
40.02000 263.802
40.03000 259.092
40.04000 254.486
40.05000 249.978
40.06000 245.663
40.07000 251.165
40.08000 262.169
40.09000 272.349
40.10000 267.265
40.11000 256.445
40.12000 246.457
40.13000 248.458
40.14000 252.938
40.15000 257.048
40.16000 259.019
40.17000 260.646
40.18000 262.042
40.19000 262.571
40.20000 263.018
40.21000 263.341
40.22000 259.144
40.23000 255.760
40.24000 255.535
40.25000 260.580
40.26000 265.706
40.27000 266.632
40.28000 262.995
40.29000 259.373
40.30000 256.163
40.31000 253.273
40.32000 250.376
40.33000 247.258
40.34000 244.039
40.35000 241.479
40.36000 247.621
40.37000 256.463
40.38000 264.416
40.39000 259.576
40.40000 253.052
40.41000 247.983
40.42000 249.696
40.43000 252.267
40.44000 253.324
40.45000 249.727
40.46000 245.802
40.47000 243.135
40.48000 250.739
40.49000 256.648
40.50000 258.930
40.51000 256.252
40.52000 253.547
40.53000 252.509
40.54000 252.927
40.55000 253.339
40.56000 257.529
40.57000 263.724
40.58000 269.607
40.59000 269.522
40.60000 267.151
40.61000 264.779
40.62000 262.407
40.63000 260.034
40.64000 257.962
40.65000 252.367
40.66000 247.085
40.67000 243.817
40.68000 248.214
40.69000 253.358
40.70000 255.488
40.71000 249.966
40.72000 244.068
40.73000 240.331
40.74000 246.213
40.75000 250.596
40.76000 252.863
40.77000 252.783
40.78000 252.689
40.79000 250.851
40.80000 247.777
40.81000 244.769
40.82000 244.290
40.83000 244.974
40.84000 245.844
40.85000 249.242
40.86000 253.439
40.87000 256.726
40.88000 253.070
40.89000 247.971
40.90000 243.672
40.91000 243.376
40.92000 243.563
40.93000 243.798
40.94000 244.185
40.95000 244.583
40.96000 246.906
40.97000 253.271
40.98000 259.765
40.99000 263.558
41.00000 262.842
41.01000 262.315
41.02000 259.844
41.03000 255.640
41.04000 251.428
41.05000 246.764
41.06000 241.836
41.07000 237.080
41.08000 238.429
41.09000 241.940
41.10000 245.253
41.11000 246.552
41.12000 247.329
41.13000 248.362
41.14000 250.950
41.15000 253.797
41.16000 256.105
41.17000 255.645
41.18000 255.045
41.19000 252.728
41.20000 245.966
41.21000 238.978
41.22000 235.959
41.23000 239.820
41.24000 243.803
41.25000 245.920
41.26000 248.053
41.27000 249.501
41.28000 250.322
41.29000 250.690
41.30000 250.936
41.31000 247.261
41.32000 241.701
41.33000 236.426
41.34000 239.034
41.35000 243.782
41.36000 248.271
41.37000 250.739
41.38000 252.777
41.39000 254.037
41.40000 251.522
41.41000 248.505
41.42000 246.169
41.43000 247.062
41.44000 247.963
41.45000 246.647
41.46000 240.589
41.47000 234.374
41.48000 231.804
41.49000 234.421
41.50000 237.075
41.51000 236.880
41.52000 234.092
41.53000 231.356
41.54000 231.846
41.55000 234.251
41.56000 236.476
41.57000 234.964
41.58000 231.966
41.59000 229.181
41.60000 227.419
41.61000 226.075
41.62000 225.406
41.63000 228.898
41.64000 233.103
41.65000 237.021
41.66000 239.806
41.67000 242.475
41.68000 244.436
41.69000 245.984
41.70000 247.164
41.71000 247.184
41.72000 245.153
41.73000 243.083
41.74000 241.807
41.75000 241.451
41.76000 241.098
41.77000 237.197
41.78000 230.728
41.79000 224.482
41.80000 225.786
41.81000 230.786
41.82000 235.690
41.83000 239.214
41.84000 242.284
41.85000 245.068
41.86000 243.672
41.87000 241.642
41.88000 240.239
41.89000 241.944
41.90000 244.072
41.91000 245.408
41.92000 244.167
41.93000 242.727
41.94000 241.729
41.95000 244.206
41.96000 246.162
41.97000 243.990
41.98000 235.830
41.99000 227.622
42.00000 226.987
42.01000 233.395
42.02000 239.744
42.03000 240.162
42.04000 237.055
42.05000 234.162
42.06000 235.876
42.07000 239.454
42.08000 242.514
42.09000 240.034
42.10000 236.056
42.11000 232.552
42.12000 233.607
42.13000 235.204
42.14000 235.496
42.15000 230.521
42.16000 224.989
42.17000 223.266
42.18000 231.770
42.19000 240.836
42.20000 246.706
42.21000 246.220
42.22000 245.770
42.23000 244.391
42.24000 241.914
42.25000 239.442
42.26000 238.581
42.27000 238.932
42.28000 239.278
42.29000 243.118
42.30000 248.504
42.31000 253.272
42.32000 248.802
42.33000 241.241
42.34000 234.375
42.35000 233.206
42.36000 233.296
42.37000 233.373
42.38000 228.808
42.39000 224.425
42.40000 221.345
42.41000 222.587
42.42000 224.171
42.43000 225.401
42.44000 225.841
42.45000 226.253
42.46000 226.500
42.47000 236.258
42.48000 243.247
42.49000 245.181
42.50000 242.312
42.51000 239.477
42.52000 239.173
42.53000 240.429
42.54000 241.647
42.55000 238.077
42.56000 232.825
42.57000 228.124
42.58000 229.467
42.59000 232.476
42.60000 235.009
42.61000 234.466
42.62000 233.373
42.63000 232.476
42.64000 230.069
42.65000 227.958
42.66000 225.631
42.67000 222.711
42.68000 219.756
42.69000 217.966
42.70000 218.312
42.71000 218.704
42.72000 218.919
42.73000 218.580
42.74000 218.355
42.75000 220.429
42.76000 224.270
42.77000 227.944
42.78000 225.357
42.79000 219.588
42.80000 214.085
42.81000 220.222
42.82000 229.600
42.83000 237.716
42.84000 235.222
42.85000 230.336
42.86000 226.503
42.87000 228.111
42.88000 230.494
42.89000 232.365
42.90000 231.156
42.91000 229.987
42.92000 229.867
42.93000 232.124
42.94000 234.472
42.95000 235.233
42.96000 233.600
42.97000 231.943
42.98000 231.140
42.99000 231.166
43.00000 231.222
43.01000 233.618
43.02000 237.485
43.03000 241.115
43.04000 239.224
43.05000 235.012
43.06000 231.072
43.07000 224.454
43.08000 217.759
43.09000 212.829
43.10000 219.543
43.11000 228.384
43.12000 235.037
43.13000 232.499
43.14000 228.938
43.15000 226.278
43.16000 233.962
43.17000 240.427
43.18000 244.057
43.19000 242.387
43.20000 240.595
43.21000 238.014
43.22000 234.460
43.23000 230.910
43.24000 233.036
43.25000 239.578
43.26000 245.966
43.27000 246.202
43.28000 243.252
43.29000 240.473
43.30000 240.441
43.31000 241.363
43.32000 242.206
43.33000 231.825
43.34000 220.312
43.35000 211.253
43.36000 215.153
43.37000 220.943
43.38000 226.020
43.39000 228.645
43.40000 231.063
43.41000 232.769
43.42000 222.532
43.43000 214.403
43.44000 212.349
43.45000 219.645
43.46000 227.043
43.47000 226.431
43.48000 217.871
43.49000 209.371
43.50000 209.381
43.51000 214.758
43.52000 220.151
43.53000 225.924
43.54000 231.860
43.55000 236.893
43.56000 231.425
43.57000 222.948
43.58000 215.412
43.59000 215.230
43.60000 216.263
43.61000 217.131
43.62000 217.298
43.63000 217.385
43.64000 217.362
43.65000 217.030
43.66000 216.679
43.67000 216.447
43.68000 224.715
43.69000 230.967
43.70000 235.848
43.71000 239.005
43.72000 242.141
43.73000 240.044
43.74000 233.759
43.75000 227.571
43.76000 228.601
43.77000 233.292
43.78000 237.591
43.79000 235.401
43.80000 230.913
43.81000 226.751
43.82000 225.460
43.83000 224.844
43.84000 224.313
43.85000 223.470
43.86000 222.716
43.87000 221.122
43.88000 216.573
43.89000 211.769
43.90000 209.508
43.91000 213.219
43.92000 217.179
43.93000 219.609
43.94000 221.502
43.95000 222.854
43.96000 225.245
43.97000 228.689
43.98000 232.110
43.99000 233.320
44.00000 233.085
44.01000 232.856
44.02000 228.516
44.03000 222.673
44.04000 216.917
44.05000 212.187
44.06000 207.757
44.07000 204.760
44.08000 211.655
44.09000 220.436
44.10000 227.725
44.11000 227.194
44.12000 225.999
44.13000 225.687
44.14000 227.930
44.15000 230.335
44.16000 229.135
44.17000 220.935
44.18000 212.556
44.19000 207.840
44.20000 216.198
44.21000 222.023
44.22000 223.026
44.23000 220.089
44.24000 217.263
44.25000 219.338
44.26000 224.050
44.27000 228.567
44.28000 225.625
44.29000 220.365
44.30000 215.910
44.31000 218.746
44.32000 223.328
44.33000 227.587
44.34000 230.069
44.35000 232.279
44.36000 234.038
44.37000 230.029
44.38000 226.383
44.39000 224.559
44.40000 227.093
44.41000 229.817
44.42000 229.689
44.43000 224.997
44.44000 220.246
44.45000 217.828
44.46000 221.448
44.47000 223.846
44.48000 223.177
44.49000 220.464
44.50000 217.818
44.51000 216.958
44.52000 216.892
44.53000 216.829
44.54000 225.402
44.55000 235.588
44.56000 244.282
44.57000 242.427
44.58000 238.520
44.59000 235.233
44.60000 234.713
44.61000 234.525
44.62000 234.382
44.63000 240.071
44.64000 244.840
44.65000 246.998
44.66000 243.993
44.67000 240.849
44.68000 239.067
44.69000 239.068
44.70000 239.076
44.71000 242.140
44.72000 247.736
44.73000 253.278
44.74000 256.297
44.75000 257.933
44.76000 259.872
44.77000 267.181
44.78000 276.465
44.79000 285.010
44.80000 289.713
44.81000 293.079
44.82000 296.768
44.83000 302.277
44.84000 308.070
44.85000 314.219
44.86000 321.666
44.87000 329.233
44.88000 334.666
44.89000 335.775
44.90000 336.473
44.91000 341.653
44.92000 354.139
44.93000 366.728
44.94000 375.756
44.95000 381.012
44.96000 386.239
44.97000 391.016
44.98000 395.432
44.99000 399.668
45.00000 398.898
45.01000 395.861
45.02000 393.489
45.03000 399.560
45.04000 408.192
45.05000 415.932
45.06000 419.763
45.07000 422.432
45.08000 423.552
45.09000 417.620
45.10000 410.823
45.11000 403.609
45.12000 395.145
45.13000 386.596
45.14000 380.830
45.15000 368.886
45.16000 359.869
45.17000 357.142
45.18000 362.816
45.19000 368.521
45.20000 367.252
45.21000 360.045
45.22000 352.929
45.23000 350.723
45.24000 351.245
45.25000 351.212
45.26000 340.970
45.27000 326.906
45.28000 314.234
45.29000 314.846
45.30000 318.767
45.31000 322.176
45.32000 316.620
45.33000 310.659
45.34000 305.914
45.35000 305.689
45.36000 305.891
45.37000 305.001
45.38000 301.398
45.39000 297.668
45.40000 295.326
45.41000 288.549
45.42000 283.602
45.43000 280.494
45.44000 279.377
45.45000 278.243
45.46000 274.892
45.47000 270.003
45.48000 265.226
45.49000 267.417
45.50000 272.592
45.51000 277.137
45.52000 273.410
45.53000 267.126
45.54000 261.936
45.55000 264.845
45.56000 269.397
45.57000 273.218
45.58000 266.313
45.59000 259.439
45.60000 253.551
45.61000 250.682
45.62000 248.024
45.63000 248.009
45.64000 253.420
45.65000 258.994
45.66000 262.216
45.67000 257.616
45.68000 254.363
45.69000 252.525
45.70000 251.918
45.71000 251.280
45.72000 248.960
45.73000 245.682
45.74000 242.524
45.75000 239.255
45.76000 236.143
45.77000 233.352
45.78000 233.702
45.79000 234.850
45.80000 236.155
45.81000 238.376
45.82000 240.747
45.83000 242.658
45.84000 244.876
45.85000 246.702
45.86000 245.292
45.87000 235.695
45.88000 225.698
45.89000 220.564
45.90000 223.669
45.91000 226.909
45.92000 228.611
45.93000 223.728
45.94000 220.419
45.95000 217.581
45.96000 215.075
45.97000 212.663
45.98000 213.119
45.99000 214.924
46.00000 216.632
46.01000 218.338
46.02000 219.906
46.03000 220.769
46.04000 216.277
46.05000 210.676
46.06000 207.017
46.07000 212.567
46.08000 219.304
46.09000 224.491
46.10000 220.828
46.11000 217.425
46.12000 214.013
46.13000 210.586
46.14000 207.157
46.15000 206.581
46.16000 209.969
46.17000 213.381
46.18000 214.446
46.19000 213.429
46.20000 212.433
46.21000 212.668
46.22000 213.618
46.23000 214.615
46.24000 216.564
46.25000 218.883
46.26000 221.032
46.27000 216.384
46.28000 210.615
46.29000 205.520
46.30000 204.476
46.31000 204.108
46.32000 204.342
46.33000 206.909
46.34000 209.708
46.35000 211.752
46.36000 210.814
46.37000 209.974
46.38000 208.529
46.39000 206.038
46.40000 203.530
46.41000 202.737
46.42000 203.883
46.43000 205.026
46.44000 207.664
46.45000 211.346
46.46000 214.890
46.47000 214.030
46.48000 211.061
46.49000 208.069
46.50000 204.762
46.51000 201.354
46.52000 198.273
46.53000 203.896
46.54000 210.461
46.55000 215.220
46.56000 211.242
46.57000 206.108
46.58000 201.338
46.59000 197.721
46.60000 194.190
46.61000 191.762
46.62000 199.220
46.63000 205.059
46.64000 207.171
46.65000 203.998
46.66000 200.787
46.67000 198.895
46.68000 198.198
46.69000 197.508
46.70000 196.580
46.71000 195.534
46.72000 194.537
46.73000 194.526
46.74000 194.907
46.75000 195.670
46.76000 200.396
46.77000 206.170
46.78000 211.238
46.79000 207.124
46.80000 202.244
46.81000 197.642
46.82000 194.136
46.83000 190.743
46.84000 189.671
46.85000 194.697
46.86000 200.045
46.87000 203.477
46.88000 199.023
46.89000 195.668
46.90000 196.789
46.91000 203.073
46.92000 209.316
46.93000 207.389
46.94000 199.452
46.95000 191.671
46.96000 189.484
46.97000 190.007
46.98000 190.555
46.99000 191.479
47.00000 192.526
47.01000 194.088
47.02000 199.748
47.03000 206.293
47.04000 211.848
47.05000 205.742
47.06000 199.297
47.07000 194.110
47.08000 193.002
47.09000 192.207
47.10000 192.779
47.11000 196.322
47.12000 199.967
47.13000 202.129
47.14000 196.482
47.15000 192.443
47.16000 191.661
47.17000 193.895
47.18000 196.067
47.19000 194.176
47.20000 189.835
47.21000 185.634
47.22000 186.873
47.23000 190.117
47.24000 193.093
47.25000 193.222
47.26000 192.584
47.27000 192.294
47.28000 194.186
47.29000 196.458
47.30000 198.313
47.31000 195.066
47.32000 191.972
47.33000 189.979
47.34000 190.937
47.35000 192.057
47.36000 192.192
47.37000 190.563
47.38000 188.899
47.39000 187.998
47.40000 188.921
47.41000 189.552
47.42000 189.498
47.43000 188.929
47.44000 188.426
47.45000 190.235
47.46000 193.192
47.47000 196.007
47.48000 196.321
47.49000 195.839
47.50000 195.292
47.51000 194.209
47.52000 193.009
47.53000 192.036
47.54000 192.213
47.55000 192.550
47.56000 192.813
47.57000 193.603
47.58000 194.266
47.59000 194.097
47.60000 192.087
47.61000 190.010
47.62000 191.308
47.63000 197.583
47.64000 203.903
47.65000 207.171
47.66000 207.551
47.67000 207.884
47.68000 204.856
47.69000 199.762
47.70000 194.958
47.71000 196.607
47.72000 200.909
47.73000 204.923
47.74000 198.457
47.75000 189.991
47.76000 182.571
47.77000 181.865
47.78000 182.354
47.79000 183.538
47.80000 187.573
47.81000 191.914
47.82000 195.137
47.83000 190.605
47.84000 186.742
47.85000 183.568
47.86000 181.654
47.87000 179.766
47.88000 181.409
47.89000 187.294
47.90000 193.174
47.91000 193.066
47.92000 188.403
47.93000 183.811
47.94000 181.831
47.95000 181.175
47.96000 180.723
47.97000 183.405
47.98000 187.153
47.99000 190.568
48.00000 184.749
48.01000 177.757
48.02000 173.269
48.03000 181.676
48.04000 191.911
48.05000 198.414
48.06000 192.351
48.07000 185.266
48.08000 180.303
48.09000 183.592
48.10000 186.316
48.11000 187.681
48.12000 187.002
48.13000 186.303
48.14000 186.229
48.15000 186.760
48.16000 187.286
48.17000 190.263
48.18000 194.697
48.19000 198.720
48.20000 193.259
48.21000 183.826
48.22000 175.169
48.23000 175.247
48.24000 177.770
48.25000 180.004
48.26000 183.067
48.27000 185.848
48.28000 188.223
48.29000 188.901
48.30000 189.392
48.31000 189.231
48.32000 187.263
48.33000 185.190
48.34000 183.830
48.35000 184.042
48.36000 184.225
48.37000 181.117
48.38000 173.973
48.39000 166.848
48.40000 167.633
48.41000 174.598
48.42000 181.447
48.43000 181.478
48.44000 178.103
48.45000 174.835
48.46000 173.282
48.47000 172.321
48.48000 171.740
48.49000 174.408
48.50000 177.821
48.51000 180.748
48.52000 186.097
48.53000 190.913
48.54000 193.672
48.55000 189.371
48.56000 184.480
48.57000 181.711
48.58000 183.820
48.59000 186.123
48.60000 187.522
48.61000 184.807
48.62000 182.836
48.63000 180.511
48.64000 177.835
48.65000 175.214
48.66000 177.228
48.67000 182.201
48.68000 187.034
48.69000 183.511
48.70000 176.775
48.71000 170.539
48.72000 170.073
48.73000 171.255
48.74000 172.904
48.75000 177.692
48.76000 183.064
48.77000 187.502
48.78000 188.051
48.79000 188.140
48.80000 187.524
48.81000 184.911
48.82000 182.177
48.83000 178.407
48.84000 172.670
48.85000 166.887
48.86000 163.667
48.87000 165.940
48.88000 167.532
48.89000 171.461
48.90000 177.253
48.91000 182.935
48.92000 183.984
48.93000 182.596
48.94000 181.269
48.95000 181.515
48.96000 182.263
48.97000 182.644
48.98000 179.808
48.99000 176.220
49.00000 173.087
49.01000 172.395
49.02000 172.066
49.03000 171.805
49.04000 172.531
49.05000 173.182
49.06000 173.936
49.07000 174.932
49.08000 175.937
49.09000 176.034
49.10000 174.712
49.11000 173.373
49.12000 172.700
49.13000 183.852
49.14000 191.206
49.15000 190.133
49.16000 183.572
49.17000 177.217
49.18000 176.069
49.19000 177.184
49.20000 178.230
49.21000 179.685
49.22000 181.120
49.23000 182.520
49.24000 183.680
49.25000 184.794
49.26000 184.364
49.27000 177.215
49.28000 169.283
49.29000 163.303
49.30000 166.702
49.31000 169.826
49.32000 172.458
49.33000 174.138
49.34000 175.793
49.35000 176.902
49.36000 177.312
49.37000 177.719
49.38000 176.294
49.39000 173.390
49.40000 170.577
49.41000 171.828
49.42000 175.258
49.43000 178.386
49.44000 176.397
49.45000 172.569
49.46000 169.056
49.47000 172.301
49.48000 176.633
49.49000 179.974
49.50000 177.885
49.51000 174.970
49.52000 172.423
49.53000 171.186
49.54000 170.064
49.55000 169.264
49.56000 172.795
49.57000 175.630
49.58000 177.589
49.59000 178.153
49.60000 178.699
49.61000 178.045
49.62000 176.153
49.63000 174.273
49.64000 172.137
49.65000 169.862
49.66000 167.802
49.67000 171.366
49.68000 177.420
49.69000 183.006
49.70000 182.847
49.71000 180.985
49.72000 179.321
49.73000 181.201
49.74000 183.438
49.75000 185.159
49.76000 184.593
49.77000 183.754
49.78000 183.949
49.79000 187.181
49.80000 190.610
49.81000 192.905
49.82000 187.981
49.83000 184.186
49.84000 180.362
49.85000 176.501
49.86000 172.649
49.87000 173.495
49.88000 178.244
49.89000 182.929
49.90000 183.576
49.91000 182.062
49.92000 180.465
49.93000 177.406
49.94000 173.811
49.95000 170.462
49.96000 169.386
49.97000 168.863
49.98000 168.410
49.99000 171.517
50.00000 174.630
50.01000 176.833
50.02000 175.723
50.03000 174.311
50.04000 173.450
50.05000 173.925
50.06000 174.461
50.07000 174.794
50.08000 174.597
50.09000 174.450
50.10000 175.154
50.11000 176.756
50.12000 178.361
50.13000 180.210
50.14000 182.226
50.15000 184.192
50.16000 183.865
50.17000 182.565
50.18000 181.125
50.19000 177.924
50.20000 174.190
50.21000 171.341
50.22000 174.865
50.23000 179.650
50.24000 183.650
50.25000 184.982
50.26000 185.817
50.27000 186.520
50.28000 186.829
50.29000 187.111
50.30000 189.232
50.31000 195.044
50.32000 200.961
50.33000 204.346
50.34000 202.214
50.35000 200.711
50.36000 201.850
50.37000 205.228
50.38000 208.541
50.39000 208.619
50.40000 206.897
50.41000 205.241
50.42000 209.354
50.43000 215.226
50.44000 220.265
50.45000 217.390
50.46000 212.551
50.47000 209.057
50.48000 213.266
50.49000 218.700
50.50000 223.058
50.51000 234.934
50.52000 245.121
50.53000 252.483
50.54000 252.856
50.55000 252.903
50.56000 255.091
50.57000 260.826
50.58000 266.614
50.59000 269.617
50.60000 258.226
50.61000 250.590
50.62000 249.635
50.63000 253.294
50.64000 257.086
50.65000 264.735
50.66000 274.156
50.67000 283.054
50.68000 273.954
50.69000 260.514
50.70000 248.756
50.71000 249.398
50.72000 252.546
50.73000 255.257
50.74000 255.950
50.75000 256.389
50.76000 256.726
50.77000 251.300
50.78000 246.704
50.79000 244.675
50.80000 247.900
50.81000 251.281
50.82000 250.624
50.83000 244.487
50.84000 238.322
50.85000 235.917
50.86000 236.765
50.87000 237.593
50.88000 237.313
50.89000 236.406
50.90000 235.192
50.91000 228.169
50.92000 218.938
50.93000 210.405
50.94000 213.778
50.95000 219.512
50.96000 223.674
50.97000 218.638
50.98000 212.106
50.99000 206.475
51.00000 204.249
51.01000 202.351
51.02000 200.974
51.03000 201.965
51.04000 202.816
51.05000 204.315
51.06000 206.911
51.07000 209.525
51.08000 208.478
51.09000 203.401
51.10000 198.344
51.11000 192.605
51.12000 186.448
51.13000 180.336
51.14000 175.576
51.15000 171.449
51.16000 167.839
51.17000 171.162
51.18000 176.663
51.19000 181.619
51.20000 178.042
51.21000 173.360
51.22000 169.595
51.23000 170.168
51.24000 171.297
51.25000 172.572
51.26000 174.297
51.27000 176.055
51.28000 177.255
51.29000 178.450
51.30000 179.344
51.31000 176.673
51.32000 169.067
51.33000 161.436
51.34000 160.696
51.35000 166.049
51.36000 171.343
51.37000 171.588
51.38000 168.978
51.39000 166.578
51.40000 168.308
51.41000 171.638
51.42000 174.637
51.43000 174.328
51.44000 173.166
51.45000 172.149
51.46000 167.474
51.47000 162.948
51.48000 160.368
51.49000 165.293
51.50000 170.960
51.51000 174.235
51.52000 171.363
51.53000 168.181
51.54000 166.156
51.55000 167.908
51.56000 169.229
51.57000 168.967
51.58000 166.924
51.59000 164.882
51.60000 163.217
51.61000 161.823
51.62000 160.457
51.63000 159.897
51.64000 159.728
51.65000 159.816
51.66000 163.481
51.67000 168.289
51.68000 172.296
51.69000 170.107
51.70000 166.613
51.71000 163.660
51.72000 164.684
51.73000 165.977
51.74000 167.354
51.75000 168.993
51.76000 170.652
51.77000 169.405
51.78000 161.984
51.79000 154.362
51.80000 149.887
51.81000 162.408
51.82000 171.312
51.83000 169.787
51.84000 158.844
51.85000 148.084
51.86000 148.417
51.87000 155.287
51.88000 161.923
51.89000 167.988
51.90000 173.494
51.91000 178.274
51.92000 175.592
51.93000 170.945
51.94000 166.543
51.95000 163.647
51.96000 161.006
51.97000 158.860
51.98000 165.031
51.99000 170.756
52.00000 174.100
52.01000 171.214
52.02000 168.002
52.03000 165.814
52.04000 165.422
52.05000 165.063
52.06000 164.871
52.07000 169.826
52.08000 173.187
52.09000 172.741
52.10000 169.507
52.11000 166.334
52.12000 165.187
52.13000 165.026
52.14000 164.873
52.15000 166.610
52.16000 168.784
52.17000 170.684
52.18000 170.409
52.19000 169.666
52.20000 168.676
52.21000 166.466
52.22000 164.092
52.23000 162.248
52.24000 164.693
52.25000 166.897
52.26000 168.338
52.27000 168.129
52.28000 167.863
52.29000 168.843
52.30000 171.618
52.31000 174.407
52.32000 173.616
52.33000 169.526
52.34000 165.501
52.35000 165.738
52.36000 168.534
52.37000 171.210
52.38000 171.346
52.39000 170.462
52.40000 169.638
52.41000 166.854
52.42000 163.863
52.43000 161.074
52.44000 159.551
52.45000 158.248
52.46000 157.579
52.47000 159.454
52.48000 161.595
52.49000 163.174
52.50000 159.547
52.51000 156.517
52.52000 154.604
52.53000 154.686
52.54000 154.806
52.55000 157.782
52.56000 164.105
52.57000 170.415
52.58000 169.775
52.59000 163.982
52.60000 158.396
52.61000 160.019
52.62000 165.213
52.63000 170.028
52.64000 169.258
52.65000 166.632
52.66000 164.248
52.67000 163.247
52.68000 162.631
52.69000 162.230
52.70000 162.904
52.71000 163.727
52.72000 164.979
52.73000 167.644
52.74000 170.419
52.75000 172.350
52.76000 161.658
52.77000 153.255
52.78000 151.597
52.79000 159.847
52.80000 168.184
52.81000 170.423
52.82000 166.916
52.83000 163.440
52.84000 162.413
52.85000 162.876
52.86000 163.251
52.87000 161.679
52.88000 159.309
52.89000 157.062
52.90000 156.151
52.91000 155.605
52.92000 155.124
52.93000 159.720
52.94000 164.464
52.95000 167.647
52.96000 164.453
52.97000 160.575
52.98000 157.913
52.99000 158.556
53.00000 159.384
53.01000 159.923
53.02000 165.768
53.03000 170.134
53.04000 171.729
53.05000 170.007
53.06000 168.271
53.07000 164.906
53.08000 160.296
53.09000 155.769
53.10000 151.666
53.11000 147.911
53.12000 144.469
53.13000 145.796
53.14000 148.739
53.15000 151.645
53.16000 154.253
53.17000 156.793
53.18000 158.962
53.19000 162.862
53.20000 166.353
53.21000 169.387
53.22000 170.886
53.23000 172.262
53.24000 172.186
53.25000 168.851
53.26000 165.393
53.27000 163.311
53.28000 168.277
53.29000 171.858
53.30000 172.143
53.31000 169.255
53.32000 166.386
53.33000 165.013
53.34000 164.573
53.35000 164.146
53.36000 164.155
53.37000 164.336
53.38000 164.406
53.39000 163.238
53.40000 161.725
53.41000 160.159
53.42000 158.246
53.43000 156.270
53.44000 154.645
53.45000 158.511
53.46000 162.184
53.47000 165.243
53.48000 166.602
53.49000 167.862
53.50000 168.142
53.51000 166.602
53.52000 165.023
53.53000 164.153
53.54000 167.192
53.55000 169.282
53.56000 168.418
53.57000 165.257
53.58000 162.113
53.59000 159.601
53.60000 157.415
53.61000 155.327
53.62000 157.961
53.63000 161.922
53.64000 165.341
53.65000 164.143
53.66000 161.890
53.67000 160.039
53.68000 160.299
53.69000 160.863
53.70000 161.307
53.71000 160.825
53.72000 160.376
53.73000 160.390
53.74000 161.461
53.75000 162.573
53.76000 162.437
53.77000 160.393
53.78000 158.329
53.79000 156.690
53.80000 155.468
53.81000 154.284
53.82000 156.251
53.83000 160.223
53.84000 163.973
53.85000 162.439
53.86000 158.660
53.87000 155.119
53.88000 157.871
53.89000 162.002
53.90000 164.989
53.91000 160.322
53.92000 154.238
53.93000 149.250
53.94000 148.923
53.95000 149.122
53.96000 149.271
53.97000 148.142
53.98000 147.200
53.99000 148.912
54.00000 155.643
54.01000 162.494
54.02000 164.189
54.03000 159.455
54.04000 154.711
54.05000 152.578
54.06000 152.520
54.07000 152.480
54.08000 153.194
54.09000 154.304
54.10000 155.324
54.11000 154.872
54.12000 153.903
54.13000 153.016
54.14000 154.989
54.15000 157.336
54.16000 158.770
54.17000 155.321
54.18000 151.150
54.19000 149.497
54.20000 156.623
54.21000 164.501
54.22000 170.080
54.23000 165.966
54.24000 162.537
54.25000 161.975
54.26000 165.878
54.27000 169.832
54.28000 167.748
54.29000 159.589
54.30000 151.485
54.31000 151.614
54.32000 157.001
54.33000 162.066
54.34000 159.084
54.35000 152.616
54.36000 146.802
54.37000 148.735
54.38000 152.913
54.39000 156.634
54.40000 153.459
54.41000 149.568
54.42000 147.307
54.43000 152.120
54.44000 157.752
54.45000 161.596
54.46000 160.301
54.47000 158.685
54.48000 157.613
54.49000 157.135
54.50000 156.793
54.51000 157.425
54.52000 159.297
54.53000 161.170
54.54000 161.884
54.55000 161.658
54.56000 161.436
54.57000 159.210
54.58000 156.012
54.59000 152.939
54.60000 151.985
54.61000 151.789
54.62000 151.707
54.63000 152.655
54.64000 153.848
54.65000 154.877
54.66000 151.293
54.67000 147.659
54.68000 145.715
54.69000 149.770
54.70000 154.355
54.71000 157.693
54.72000 158.069
54.73000 158.318
54.74000 158.472
54.75000 155.576
54.76000 153.469
54.77000 152.918
54.78000 153.965
54.79000 154.996
54.80000 154.526
54.81000 153.062
54.82000 151.635
54.83000 151.047
54.84000 150.839
54.85000 150.663
54.86000 150.878
54.87000 151.209
54.88000 151.734
54.89000 153.624
54.90000 155.778
54.91000 157.570
54.92000 158.396
54.93000 158.984
54.94000 158.978
54.95000 157.228
54.96000 155.365
54.97000 154.021
54.98000 153.693
54.99000 153.392
55.00000 153.221
55.01000 159.259
55.02000 163.470
55.03000 164.443
55.04000 162.736
55.05000 161.151
55.06000 165.174
55.07000 172.248
55.08000 179.037
55.09000 175.640
55.10000 168.988
55.11000 162.647
55.12000 159.174
55.13000 156.395
55.14000 154.852
55.15000 160.207
55.16000 166.629
55.17000 171.754
55.18000 171.364
55.19000 170.646
55.20000 170.521
55.21000 171.835
55.22000 173.213
55.23000 173.111
55.24000 170.614
55.25000 168.085
55.26000 166.788
55.27000 170.040
55.28000 172.211
55.29000 172.860
55.30000 172.481
55.31000 172.044
55.32000 170.057
55.33000 167.373
55.34000 164.844
55.35000 168.719
55.36000 174.032
55.37000 178.836
55.38000 179.997
55.39000 180.438
55.40000 181.133
55.41000 182.970
55.42000 184.947
55.43000 186.451
55.44000 199.722
55.45000 210.781
55.46000 216.477
55.47000 211.440
55.48000 206.103
55.49000 205.995
55.50000 212.818
55.51000 219.667
55.52000 228.973
55.53000 240.326
55.54000 251.619
55.55000 259.982
55.56000 266.721
55.57000 273.482
55.58000 280.640
55.59000 287.946
55.60000 294.680
55.61000 304.770
55.62000 314.547
55.63000 324.430
55.64000 334.924
55.65000 345.513
55.66000 356.823
55.67000 370.790
55.68000 385.006
55.69000 395.251
55.70000 426.522
55.71000 451.227
55.72000 476.474
55.73000 502.617
55.74000 528.772
55.75000 553.870
55.76000 577.831
55.77000 601.674
55.78000 619.656
55.79000 633.445
55.80000 647.627
55.81000 673.017
55.82000 703.541
55.83000 733.603
55.84000 757.684
55.85000 779.929
55.86000 799.908
55.87000 794.928
55.88000 786.174
55.89000 782.028
55.90000 799.114
55.91000 818.850
55.92000 832.257
55.93000 826.427
55.94000 819.271
55.95000 814.424
55.96000 826.389
55.97000 835.676
55.98000 830.753
55.99000 806.618
56.00000 782.378
56.01000 758.492
56.02000 734.912
56.03000 711.617
56.04000 696.897
56.05000 687.270
56.06000 677.236
56.07000 659.549
56.08000 638.963
56.09000 618.133
56.10000 594.939
56.11000 571.148
56.12000 550.418
56.13000 533.070
56.14000 518.714
56.15000 501.890
56.16000 475.769
56.17000 448.757
56.18000 426.371
56.19000 415.606
56.20000 405.401
56.21000 398.964
56.22000 368.436
56.23000 346.052
56.24000 332.398
56.25000 328.317
56.26000 324.209
56.27000 315.810
56.28000 304.401
56.29000 293.247
56.30000 278.782
56.31000 263.434
56.32000 248.798
56.33000 243.666
56.34000 241.507
56.35000 239.033
56.36000 234.190
56.37000 228.862
56.38000 224.378
56.39000 215.505
56.40000 207.636
56.41000 202.395
56.42000 205.293
56.43000 208.769
56.44000 210.636
56.45000 209.159
56.46000 207.579
56.47000 206.661
56.48000 199.582
56.49000 194.586
56.50000 191.220
56.51000 189.288
56.52000 187.373
56.53000 186.345
56.54000 185.828
56.55000 185.329
56.56000 185.853
56.57000 186.716
56.58000 187.129
56.59000 183.057
56.60000 177.831
56.61000 173.367
56.62000 173.440
56.63000 174.265
56.64000 174.932
56.65000 180.435
56.66000 185.298
56.67000 185.785
56.68000 175.071
56.69000 163.796
56.70000 156.990
56.71000 157.845
56.72000 158.831
56.73000 159.353
56.74000 161.795
56.75000 163.446
56.76000 163.826
56.77000 163.298
56.78000 162.729
56.79000 160.889
56.80000 158.445
56.81000 156.128
56.82000 157.453
56.83000 159.742
56.84000 161.579
56.85000 159.921
56.86000 157.531
56.87000 155.930
56.88000 158.119
56.89000 160.804
56.90000 162.877
56.91000 153.048
56.92000 144.563
56.93000 140.957
56.94000 147.679
56.95000 154.736
56.96000 158.430
56.97000 157.393
56.98000 156.322
56.99000 155.224
57.00000 154.102
57.01000 152.991
57.02000 152.464
57.03000 152.282
57.04000 152.058
57.05000 150.997
57.06000 149.608
57.07000 148.319
57.08000 148.667
57.09000 149.367
57.10000 149.912
57.11000 149.511
57.12000 148.950
57.13000 148.245
57.14000 146.981
57.15000 145.659
57.16000 144.691
57.17000 148.186
57.18000 151.065
57.19000 152.162
57.20000 150.148
57.21000 148.077
57.22000 145.675
57.23000 142.895
57.24000 140.125
57.25000 139.316
57.26000 139.935
57.27000 140.520
57.28000 139.992
57.29000 138.925
57.30000 138.207
57.31000 142.449
57.32000 148.303
57.33000 153.602
57.34000 153.817
57.35000 153.046
57.36000 151.758
57.37000 147.932
57.38000 143.765
57.39000 141.209
57.40000 143.838
57.41000 146.859
57.42000 148.945
57.43000 152.202
57.44000 154.680
57.45000 154.579
57.46000 150.778
57.47000 146.950
57.48000 146.279
57.49000 148.510
57.50000 150.718
57.51000 151.808
57.52000 152.219
57.53000 152.331
57.54000 146.157
57.55000 137.466
57.56000 130.108
57.57000 136.788
57.58000 147.220
57.59000 156.395
57.60000 154.562
57.61000 151.347
57.62000 148.238
57.63000 145.550
57.64000 142.906
57.65000 141.855
57.66000 145.037
57.67000 148.448
57.68000 150.647
57.69000 149.808
57.70000 149.152
57.71000 148.850
57.72000 148.959
57.73000 149.053
57.74000 145.902
57.75000 140.335
57.76000 134.874
57.77000 137.893
57.78000 144.835
57.79000 151.003
57.80000 145.804
57.81000 136.841
57.82000 129.042
57.83000 130.642
57.84000 134.295
57.85000 137.402
57.86000 138.071
57.87000 138.352
57.88000 139.086
57.89000 141.306
57.90000 143.643
57.91000 144.680
57.92000 142.862
57.93000 140.942
57.94000 139.797
57.95000 137.652
57.96000 136.125
57.97000 135.955
57.98000 137.057
57.99000 138.122
58.00000 136.612
58.01000 133.533
58.02000 130.550
58.03000 130.646
58.04000 131.926
58.05000 133.536
58.06000 138.711
58.07000 144.858
58.08000 149.527
58.09000 144.786
58.10000 138.383
58.11000 133.142
58.12000 132.460
58.13000 132.301
58.14000 133.223
58.15000 137.074
58.16000 141.090
58.17000 143.790
58.18000 144.103
58.19000 144.367
58.20000 144.511
58.21000 148.316
58.22000 150.907
58.23000 148.038
58.24000 141.020
58.25000 134.166
58.26000 133.275
58.27000 135.381
58.28000 137.389
58.29000 140.673
58.30000 144.116
58.31000 147.328
58.32000 148.620
58.33000 149.484
58.34000 150.116
58.35000 149.566
58.36000 148.848
58.37000 148.287
58.38000 144.616
58.39000 141.483
58.40000 139.749
58.41000 141.143
58.42000 142.653
58.43000 143.189
58.44000 142.271
58.45000 141.339
58.46000 141.377
58.47000 142.345
58.48000 143.302
58.49000 143.402
58.50000 142.969
58.51000 142.562
58.52000 142.741
58.53000 143.165
58.54000 143.561
58.55000 142.264
58.56000 140.660
58.57000 139.441
58.58000 140.727
58.59000 142.465
58.60000 143.738
58.61000 143.075
58.62000 142.201
58.63000 141.550
58.64000 134.358
58.65000 128.465
58.66000 125.904
58.67000 129.504
58.68000 133.240
58.69000 133.704
58.70000 130.185
58.71000 126.664
58.72000 127.238
58.73000 130.965
58.74000 134.583
58.75000 134.020
58.76000 131.314
58.77000 128.692
58.78000 127.379
58.79000 126.515
58.80000 125.727
58.81000 130.600
58.82000 136.065
58.83000 140.367
58.84000 138.606
58.85000 135.972
58.86000 134.225
58.87000 135.503
58.88000 137.031
58.89000 138.105
58.90000 133.397
58.91000 129.659
58.92000 128.457
58.93000 131.112
58.94000 133.808
58.95000 136.267
58.96000 138.496
58.97000 140.707
58.98000 142.232
58.99000 143.303
59.00000 144.297
59.01000 143.471
59.02000 141.874
59.03000 140.110
59.04000 136.445
59.05000 132.242
59.06000 128.511
59.07000 132.964
59.08000 138.130
59.09000 142.190
59.10000 141.568
59.11000 140.420
59.12000 138.602
59.13000 134.905
59.14000 131.094
59.15000 128.585
59.16000 131.919
59.17000 134.476
59.18000 136.461
59.19000 137.734
59.20000 139.005
59.21000 140.187
59.22000 141.299
59.23000 142.394
59.24000 141.789
59.25000 140.345
59.26000 138.992
59.27000 139.118
59.28000 139.763
59.29000 140.388
59.30000 140.842
59.31000 141.255
59.32000 141.611
59.33000 137.792
59.34000 134.041
59.35000 129.726
59.36000 123.453
59.37000 117.014
59.38000 114.810
59.39000 122.448
59.40000 130.486
59.41000 135.396
59.42000 131.258
59.43000 128.224
59.44000 129.075
59.45000 133.817
59.46000 138.487
59.47000 136.882
59.48000 131.220
59.49000 125.714
59.50000 127.877
59.51000 133.085
59.52000 137.859
59.53000 137.533
59.54000 135.734
59.55000 134.477
59.56000 136.913
59.57000 140.044
59.58000 142.636
59.59000 138.281
59.60000 134.024
59.61000 131.664
59.62000 134.731
59.63000 138.135
59.64000 139.314
59.65000 136.221
59.66000 133.022
59.67000 131.231
59.68000 135.198
59.69000 137.956
59.70000 139.090
59.71000 138.913
59.72000 138.728
59.73000 138.229
59.74000 137.562
59.75000 136.923
59.76000 139.363
59.77000 142.663
59.78000 145.085
59.79000 139.662
59.80000 132.382
59.81000 126.141
59.82000 125.558
59.83000 125.826
59.84000 126.040
59.85000 122.567
59.86000 119.511
59.87000 119.583
59.88000 127.060
59.89000 134.850
59.90000 139.305
59.91000 138.482
59.92000 137.594
59.93000 137.145
59.94000 131.749
59.95000 128.169
59.96000 127.640
59.97000 129.123
59.98000 130.571
59.99000 131.144
60.00000 131.332
60.01000 131.508
60.02000 130.339
60.03000 128.909
60.04000 127.535
60.05000 126.545
60.06000 125.630
60.07000 124.485
60.08000 122.326
60.09000 120.048
60.10000 118.325
60.11000 120.884
60.12000 123.106
60.13000 125.979
60.14000 130.127
60.15000 134.309
60.16000 136.066
60.17000 134.685
60.18000 133.294
60.19000 134.284
60.20000 137.226
60.21000 140.122
60.22000 140.883
60.23000 140.486
60.24000 139.875
60.25000 135.551
60.26000 129.876
60.27000 124.660
60.28000 124.860
60.29000 126.206
60.30000 127.961
60.31000 131.985
60.32000 136.360
60.33000 138.537
60.34000 132.787
60.35000 126.321
60.36000 121.692
60.37000 123.336
60.38000 124.803
60.39000 125.677
60.40000 125.596
60.41000 125.502
60.42000 125.806
60.43000 126.528
60.44000 127.246
60.45000 125.721
60.46000 122.728
60.47000 119.892
60.48000 121.303
60.49000 124.615
60.50000 127.680
60.51000 127.660
60.52000 126.714
60.53000 125.867
60.54000 130.342
60.55000 135.158
60.56000 138.833
60.57000 137.373
60.58000 135.290
60.59000 133.726
60.60000 133.701
60.61000 133.778
60.62000 133.830
60.63000 131.555
60.64000 129.816
60.65000 130.627
60.66000 134.803
60.67000 138.987
60.68000 139.020
60.69000 135.561
60.70000 132.147
60.71000 131.297
60.72000 131.847
60.73000 132.438
60.74000 133.750
60.75000 135.329
60.76000 136.731
60.77000 136.472
60.78000 135.804
60.79000 135.224
60.80000 133.620
60.81000 132.116
60.82000 131.765
60.83000 135.657
60.84000 139.942
60.85000 142.414
60.86000 140.432
60.87000 138.246
60.88000 136.880
60.89000 136.472
60.90000 136.188
60.91000 134.895
60.92000 132.523
60.93000 130.167
60.94000 129.750
60.95000 130.662
60.96000 131.552
60.97000 131.591
60.98000 131.256
60.99000 130.881
61.00000 129.981
61.01000 128.921
61.02000 127.961
61.03000 127.733
61.04000 127.650
61.05000 127.582
61.06000 129.166
61.07000 130.654
61.08000 131.562
61.09000 130.711
61.10000 129.740
61.11000 129.959
61.12000 132.597
61.13000 135.305
61.14000 136.863
61.15000 135.923
61.16000 135.258
61.17000 136.636
61.18000 139.767
61.19000 142.821
61.20000 141.855
61.21000 138.627
61.22000 135.519
61.23000 133.609
61.24000 132.240
61.25000 131.121
61.26000 132.414
61.27000 134.313
61.28000 136.245
61.29000 138.370
61.30000 140.527
61.31000 142.261
61.32000 143.459
61.33000 144.390
61.34000 145.302
61.35000 146.167
61.36000 147.031
61.37000 146.121
61.38000 142.242
61.39000 138.315
61.40000 136.265
61.41000 143.143
61.42000 147.759
61.43000 147.302
61.44000 143.299
61.45000 139.412
61.46000 138.955
61.47000 140.091
61.48000 141.166
61.49000 148.238
61.50000 156.453
61.51000 164.540
61.52000 171.665
61.53000 178.593
61.54000 185.473
61.55000 192.132
61.56000 198.763
61.57000 203.854
61.58000 233.259
61.59000 257.860
61.60000 274.899
61.61000 276.281
61.62000 277.183
61.63000 278.184
61.64000 279.318
61.65000 280.452
61.66000 281.656
61.67000 282.920
61.68000 284.207
61.69000 286.780
61.70000 290.091
61.71000 293.020
61.72000 288.574
61.73000 281.290
61.74000 274.548
61.75000 275.984
61.76000 279.158
61.77000 279.648
61.78000 264.214
61.79000 246.157
61.80000 229.027
61.81000 215.447
61.82000 202.214
61.83000 192.581
61.84000 184.828
61.85000 178.931
61.86000 172.723
61.87000 165.982
61.88000 159.231
61.89000 153.361
61.90000 148.472
61.91000 143.604
61.92000 141.733
61.93000 141.997
61.94000 142.212
61.95000 140.928
61.96000 138.933
61.97000 137.074
61.98000 137.088
61.99000 137.695
62.00000 138.244
62.01000 141.171
62.02000 144.179
62.03000 146.285
62.04000 144.071
62.05000 141.294
62.06000 139.150
62.07000 138.997
62.08000 138.990
62.09000 138.985
62.10000 137.524
62.11000 136.394
62.12000 136.776
62.13000 139.275
62.14000 141.789
62.15000 144.089
62.16000 146.197
62.17000 148.283
62.18000 146.347
62.19000 142.155
62.20000 137.996
62.21000 134.497
62.22000 131.257
62.23000 128.452
62.24000 130.076
62.25000 132.858
62.26000 135.296
62.27000 136.203
62.28000 136.760
62.29000 137.412
62.30000 138.437
62.31000 139.499
62.32000 141.400
62.33000 145.481
62.34000 149.674
62.35000 152.354
62.36000 145.833
62.37000 140.965
62.38000 136.399
62.39000 132.176
62.40000 127.978
62.41000 127.714
62.42000 130.310
62.43000 132.854
62.44000 134.544
62.45000 135.774
62.46000 137.240
62.47000 142.037
62.48000 147.913
62.49000 152.916
62.50000 151.073
62.51000 147.769
62.52000 144.971
62.53000 143.472
62.54000 142.362
62.55000 141.062
62.56000 139.150
62.57000 137.192
62.58000 136.319
62.59000 137.779
62.60000 139.318
62.61000 140.227
62.62000 134.582
62.63000 130.562
62.64000 130.782
62.65000 134.882
62.66000 138.965
62.67000 141.977
62.68000 144.350
62.69000 146.644
62.70000 143.984
62.71000 139.607
62.72000 135.408
62.73000 133.078
62.74000 131.246
62.75000 129.933
62.76000 131.838
62.77000 134.298
62.78000 136.300
62.79000 134.576
62.80000 132.852
62.81000 132.689
62.82000 136.659
62.83000 140.851
62.84000 143.643
62.85000 143.954
62.86000 144.216
62.87000 144.358
62.88000 144.455
62.89000 144.528
62.90000 145.759
62.91000 147.849
62.92000 149.851
62.93000 148.812
62.94000 146.278
62.95000 143.868
62.96000 143.134
62.97000 142.967
62.98000 142.784
62.99000 142.465
63.00000 142.116
63.01000 141.752
63.02000 141.311
63.03000 140.860
63.04000 140.508
63.05000 139.351
63.06000 138.381
63.07000 139.746
63.08000 146.225
63.09000 152.884
63.10000 154.639
63.11000 149.243
63.12000 143.787
63.13000 141.951
63.14000 143.496
63.15000 144.997
63.16000 143.514
63.17000 140.218
63.18000 137.207
63.19000 140.417
63.20000 146.157
63.21000 151.505
63.22000 150.189
63.23000 147.361
63.24000 145.481
63.25000 149.614
63.26000 154.806
63.27000 158.642
63.28000 156.984
63.29000 154.743
63.30000 153.084
63.31000 153.332
63.32000 153.606
63.33000 154.864
63.34000 157.900
63.35000 160.973
63.36000 159.310
63.37000 152.022
63.38000 144.743
63.39000 141.606
63.40000 141.604
63.41000 141.697
63.42000 145.197
63.43000 150.405
63.44000 155.382
63.45000 156.879
63.46000 157.205
63.47000 157.502
63.48000 155.285
63.49000 152.831
63.50000 151.172
63.51000 153.562
63.52000 156.519
63.53000 158.007
63.54000 154.604
63.55000 150.810
63.56000 148.161
63.57000 153.951
63.58000 158.559
63.59000 161.268
63.60000 161.152
63.61000 161.009
63.62000 160.387
63.63000 159.308
63.64000 158.238
63.65000 158.955
63.66000 160.746
63.67000 162.408
63.68000 161.177
63.69000 158.746
63.70000 156.274
63.71000 153.350
63.72000 150.302
63.73000 147.606
63.74000 146.060
63.75000 144.902
63.76000 144.698
63.77000 148.437
63.78000 152.606
63.79000 156.098
63.80000 157.731
63.81000 159.258
63.82000 160.255
63.83000 155.736
63.84000 152.329
63.85000 151.648
63.86000 154.271
63.87000 156.880
63.88000 154.277
63.89000 147.649
63.90000 141.134
63.91000 142.358
63.92000 147.361
63.93000 152.103
63.94000 152.788
63.95000 152.084
63.96000 151.396
63.97000 150.848
63.98000 150.332
63.99000 149.890
64.00000 150.594
64.01000 151.327
64.02000 151.582
64.03000 150.216
64.04000 148.717
64.05000 149.247
64.06000 154.392
64.07000 159.714
64.08000 162.934
64.09000 161.137
64.10000 159.820
64.11000 158.681
64.12000 157.717
64.13000 156.774
64.14000 157.433
64.15000 159.105
64.16000 160.729
64.17000 161.814
64.18000 162.629
64.19000 163.429
64.20000 164.074
64.21000 164.674
64.22000 165.236
64.23000 165.534
64.24000 165.784
64.25000 165.991
64.26000 163.092
64.27000 160.421
64.28000 157.932
64.29000 155.954
64.30000 154.006
64.31000 153.719
64.32000 156.552
64.33000 159.458
64.34000 161.066
64.35000 169.227
64.36000 174.860
64.37000 176.623
64.38000 175.338
64.39000 174.046
64.40000 172.505
64.41000 170.833
64.42000 169.236
64.43000 169.573
64.44000 170.515
64.45000 171.331
64.46000 171.058
64.47000 170.532
64.48000 170.347
64.49000 171.967
64.50000 173.851
64.51000 175.339
64.52000 174.961
64.53000 174.530
64.54000 173.824
64.55000 172.479
64.56000 171.109
64.57000 170.980
64.58000 172.769
64.59000 174.579
64.60000 173.735
64.61000 170.243
64.62000 166.813
64.63000 168.773
64.64000 174.204
64.65000 179.301
64.66000 176.198
64.67000 169.569
64.68000 163.352
64.69000 167.136
64.70000 173.203
64.71000 178.466
64.72000 178.273
64.73000 177.056
64.74000 176.435
64.75000 178.382
64.76000 180.623
64.77000 182.308
64.78000 183.703
64.79000 184.780
64.80000 184.687
64.81000 182.358
64.82000 179.974
64.83000 180.368
64.84000 184.270
64.85000 188.177
64.86000 188.417
64.87000 185.719
64.88000 183.068
64.89000 182.431
64.90000 182.861
64.91000 183.281
64.92000 183.534
64.93000 183.728
64.94000 183.905
64.95000 185.855
64.96000 187.963
64.97000 190.295
64.98000 193.835
64.99000 197.555
65.00000 199.667
65.01000 196.103
65.02000 192.044
65.03000 189.158
65.04000 195.369
65.05000 200.389
65.06000 205.110
65.07000 209.361
65.08000 213.606
65.09000 218.375
65.10000 223.677
65.11000 228.945
65.12000 231.996
65.13000 233.566
65.14000 235.143
65.15000 236.871
65.16000 238.665
65.17000 240.388
65.18000 241.240
65.19000 241.837
65.20000 242.369
65.21000 252.096
65.22000 262.093
65.23000 270.489
65.24000 271.851
65.25000 272.385
65.26000 273.335
65.27000 275.496
65.28000 277.733
65.29000 279.225
65.30000 289.970
65.31000 298.105
65.32000 302.959
65.33000 303.586
65.34000 304.211
65.35000 310.680
65.36000 321.946
65.37000 333.052
65.38000 343.641
65.39000 353.654
65.40000 363.350
65.41000 367.556
65.42000 369.773
65.43000 371.884
65.44000 373.023
65.45000 373.929
65.46000 374.712
65.47000 381.162
65.48000 387.380
65.49000 394.314
65.50000 403.819
65.51000 413.554
65.52000 420.440
65.53000 420.480
65.54000 420.220
65.55000 420.058
65.56000 422.210
65.57000 423.780
65.58000 429.586
65.59000 439.805
65.60000 450.034
65.61000 461.220
65.62000 473.045
65.63000 484.573
65.64000 496.485
65.65000 508.019
65.66000 520.290
65.67000 541.726
65.68000 565.902
65.69000 593.173
65.70000 642.434
65.71000 695.996
65.72000 740.664
65.73000 801.045
65.74000 852.679
65.75000 903.455
65.76000 951.688
65.77000 999.753
65.78000 1046.814
65.79000 1091.882
65.80000 1136.895
65.81000 1162.515
65.82000 1193.113
65.83000 1214.452
65.84000 1234.310
65.85000 1252.926
65.86000 1271.300
65.87000 1278.059
65.88000 1278.423
65.89000 1278.773
65.90000 1262.289
65.91000 1241.042
65.92000 1217.665
65.93000 1174.361
65.94000 1126.167
65.95000 1075.529
65.96000 1011.062
65.97000 944.425
65.98000 891.105
65.99000 805.212
66.00000 733.330
66.01000 665.723
66.02000 608.584
66.03000 551.923
66.04000 500.660
66.05000 458.241
66.06000 415.949
66.07000 394.138
66.08000 374.933
66.09000 362.055
66.10000 355.892
66.11000 354.313
66.12000 352.457
66.13000 342.838
66.14000 329.687
66.15000 317.280
66.16000 317.135
66.17000 320.428
66.18000 323.366
66.19000 323.727
66.20000 323.572
66.21000 323.629
66.22000 324.653
66.23000 325.796
66.24000 326.669
66.25000 332.722
66.26000 337.769
66.27000 344.510
66.28000 354.677
66.29000 364.943
66.30000 378.480
66.31000 396.405
66.32000 414.339
66.33000 428.732
66.34000 440.071
66.35000 451.397
66.36000 462.018
66.37000 472.244
66.38000 481.974
66.39000 482.512
66.40000 479.591
66.41000 476.895
66.42000 476.002
66.43000 475.606
66.44000 474.657
66.45000 470.513
66.46000 465.857
66.47000 461.478
66.48000 458.140
66.49000 454.900
66.50000 452.557
66.51000 435.571
66.52000 422.003
66.53000 407.295
66.54000 390.684
66.55000 374.043
66.56000 357.371
66.57000 340.666
66.58000 324.037
66.59000 318.135
66.60000 319.684
66.61000 321.383
66.62000 327.457
66.63000 335.559
66.64000 342.888
66.65000 340.010
66.66000 333.963
66.67000 328.523
66.68000 323.077
66.69000 318.304
66.70000 315.348
66.71000 320.873
66.72000 327.472
66.73000 332.987
66.74000 335.165
66.75000 337.109
66.76000 338.431
66.77000 340.974
66.78000 342.901
66.79000 341.352
66.80000 335.046
66.81000 328.714
66.82000 324.071
66.83000 320.902
66.84000 317.771
66.85000 323.534
66.86000 334.122
66.87000 344.085
66.88000 342.034
66.89000 335.380
66.90000 329.390
66.91000 329.960
66.92000 332.206
66.93000 334.166
66.94000 338.475
66.95000 342.492
66.96000 346.703
66.97000 351.651
66.98000 356.672
66.99000 360.432
67.00000 360.985
67.01000 361.379
67.02000 361.629
67.03000 360.346
67.04000 359.396
67.05000 356.994
67.06000 352.979
67.07000 348.999
67.08000 350.129
67.09000 354.889
67.10000 359.545
67.11000 364.807
67.12000 370.131
67.13000 374.987
67.14000 373.474
67.15000 369.945
67.16000 366.620
67.17000 364.844
67.18000 363.391
67.19000 362.165
67.20000 369.550
67.21000 376.652
67.22000 382.220
67.23000 382.980
67.24000 383.393
67.25000 384.804
67.26000 388.314
67.27000 391.892
67.28000 393.982
67.29000 392.818
67.30000 391.983
67.31000 390.028
67.32000 387.073
67.33000 384.158
67.34000 383.605
67.35000 384.428
67.36000 385.222
67.37000 385.350
67.38000 385.225
67.39000 385.147
67.40000 385.539
67.41000 386.052
67.42000 388.846
67.43000 405.413
67.44000 424.291
67.45000 439.590
67.46000 433.032
67.47000 425.904
67.48000 421.442
67.49000 423.878
67.50000 426.667
67.51000 425.210
67.52000 416.388
67.53000 407.435
67.54000 402.674
67.55000 431.733
67.56000 451.429
67.57000 454.098
67.58000 444.432
67.59000 435.230
67.60000 441.020
67.61000 454.020
67.62000 466.355
67.63000 465.537
67.64000 460.869
67.65000 455.975
67.66000 449.316
67.67000 442.283
67.68000 437.667
67.69000 444.802
67.70000 453.498
67.71000 460.233
67.72000 467.115
67.73000 472.588
67.74000 474.933
67.75000 470.581
67.76000 466.006
67.77000 466.079
67.78000 472.773
67.79000 479.514
67.80000 485.540
67.81000 490.908
67.82000 496.249
67.83000 499.823
67.84000 502.347
67.85000 504.660
67.86000 502.606
67.87000 498.814
67.88000 495.289
67.89000 504.197
67.90000 515.215
67.91000 524.574
67.92000 523.698
67.93000 521.067
67.94000 518.317
67.95000 515.093
67.96000 511.820
67.97000 509.413
67.98000 519.044
67.99000 526.989
68.00000 533.517
68.01000 537.539
68.02000 541.514
68.03000 544.662
68.04000 546.852
68.05000 549.034
68.06000 549.091
68.07000 547.590
68.08000 546.281
68.09000 551.494
68.10000 559.903
68.11000 567.801
68.12000 568.298
68.13000 566.362
68.14000 564.607
68.15000 563.287
68.16000 562.205
68.17000 563.293
68.18000 575.146
68.19000 588.465
68.20000 599.381
68.21000 602.477
68.22000 604.970
68.23000 606.698
68.24000 609.722
68.25000 612.032
68.26000 612.553
68.27000 610.475
68.28000 608.377
68.29000 612.330
68.30000 621.916
68.31000 631.414
68.32000 641.648
68.33000 652.116
68.34000 662.164
68.35000 663.149
68.36000 660.461
68.37000 658.701
68.38000 666.879
68.39000 677.745
68.40000 687.321
68.41000 697.050
68.42000 705.457
68.43000 713.217
68.44000 718.363
68.45000 723.233
68.46000 730.641
68.47000 744.870
68.48000 759.474
68.49000 768.934
68.50000 794.527
68.51000 813.495
68.52000 824.297
68.53000 825.441
68.54000 826.647
68.55000 844.270
68.56000 874.270
68.57000 903.721
68.58000 930.451
68.59000 954.926
68.60000 979.726
68.61000 1009.381
68.62000 1040.662
68.63000 1074.807
68.64000 1132.444
68.65000 1195.279
68.66000 1248.839
68.67000 1317.609
68.68000 1377.244
68.69000 1434.347
68.70000 1483.052
68.71000 1531.089
68.72000 1580.060
68.73000 1631.109
68.74000 1682.234
68.75000 1712.867
68.76000 1830.190
68.77000 1914.070
68.78000 1989.092
68.79000 2055.688
68.80000 2122.369
68.81000 2195.171
68.82000 2271.752
68.83000 2345.991
68.84000 2494.563
68.85000 2664.346
68.86000 2841.345
68.87000 3097.773
68.88000 3376.114
68.89000 3693.634
68.90000 4264.057
68.91000 4879.747
68.92000 5384.881
68.93000 7346.156
68.94000 9085.342
68.95000 11288.591
68.96000 14762.604
68.97000 18309.199
68.98000 22329.363
68.99000 27219.127
69.00000 32127.674
69.01000 34815.422
69.02000 41770.902
69.03000 46555.230
69.04000 50281.953
69.05000 53195.059
69.06000 56078.375
69.07000 57838.715
69.08000 59027.715
69.09000 60162.055
69.10000 60726.930
69.11000 61070.852
69.12000 61438.832
69.13000 62009.168
69.14000 62625.188
69.15000 63243.605
69.16000 63874.438
69.17000 64507.039
69.18000 65003.859
69.19000 64060.832
69.20000 63211.938
69.21000 61726.402
69.22000 58799.129
69.23000 55816.652
69.24000 52634.938
69.25000 49152.266
69.26000 45666.633
69.27000 42679.059
69.28000 40175.727
69.29000 37680.613
69.30000 35831.055
69.31000 34387.773
69.32000 32965.059
69.33000 32023.090
69.34000 31283.332
69.35000 30591.279
69.36000 29641.941
69.37000 28713.771
69.38000 27685.783
69.39000 25998.723
69.40000 24191.145
69.41000 22247.133
69.42000 19729.500
69.43000 17148.018
69.44000 15219.232
69.45000 12341.735
69.46000 10054.763
69.47000 8099.171
69.48000 6763.684
69.49000 5442.409
69.50000 4425.549
69.51000 3783.940
69.52000 3144.607
69.53000 2693.635
69.54000 2392.070
69.55000 2093.426
69.56000 1911.010
69.57000 1788.850
69.58000 1668.346
69.59000 1574.340
69.60000 1489.549
69.61000 1412.062
69.62000 1354.487
69.63000 1307.420
69.64000 1260.350
69.65000 1213.270
69.66000 1166.187
69.67000 1121.891
69.68000 1087.203
69.69000 1053.326
69.70000 1029.413
69.71000 1008.458
69.72000 992.644
69.73000 972.565
69.74000 945.917
69.75000 919.197
69.76000 900.243
69.77000 889.003
69.78000 877.842
69.79000 862.136
69.80000 843.810
69.81000 825.574
69.82000 809.560
69.83000 794.497
69.84000 779.863
69.85000 770.223
69.86000 762.015
69.87000 754.718
69.88000 745.818
69.89000 737.836
69.90000 731.173
69.91000 730.164
69.92000 729.802
69.93000 727.886
69.94000 721.557
69.95000 714.957
69.96000 710.592
69.97000 691.426
69.98000 677.016
69.99000 665.222
70.00000 656.719
