20.00000 555.746
20.01000 556.768
20.02000 557.935
20.03000 558.009
20.04000 553.859
20.05000 549.289
20.06000 545.952
20.07000 552.831
20.08000 558.533
20.09000 561.832
20.10000 560.987
20.11000 560.070
20.12000 560.672
20.13000 562.988
20.14000 565.297
20.15000 565.402
20.16000 563.932
20.17000 562.596
20.18000 565.516
20.19000 570.470
20.20000 574.718
20.21000 569.127
20.22000 560.379
20.23000 552.472
20.24000 557.409
20.25000 564.138
20.26000 570.133
20.27000 572.587
20.28000 574.572
20.29000 576.241
20.30000 576.902
20.31000 577.488
20.32000 577.892
20.33000 571.604
20.34000 566.722
20.35000 563.717
20.36000 563.369
20.37000 563.039
20.38000 561.191
20.39000 557.967
20.40000 554.777
20.41000 555.429
20.42000 558.289
20.43000 560.919
20.44000 558.853
20.45000 554.928
20.46000 550.928
20.47000 546.143
20.48000 541.152
20.49000 536.770
20.50000 542.853
20.51000 549.611
20.52000 553.723
20.53000 547.411
20.54000 540.034
20.55000 538.081
20.56000 550.359
20.57000 563.386
20.58000 571.746
20.59000 564.659
20.60000 559.282
20.61000 561.002
20.62000 570.896
20.63000 580.726
20.64000 577.738
20.65000 565.332
20.66000 553.170
20.67000 552.055
20.68000 556.164
20.69000 559.367
20.70000 549.559
20.71000 535.498
20.72000 523.676
20.73000 529.650
20.74000 539.461
20.75000 547.785
20.76000 553.638
20.77000 558.267
20.78000 560.557
20.79000 555.276
20.80000 549.416
20.81000 546.091
20.82000 548.263
20.83000 550.626
20.84000 552.026
20.85000 544.143
20.86000 538.515
20.87000 538.050
20.88000 542.361
20.89000 546.679
20.90000 551.514
20.91000 556.659
20.92000 561.638
20.93000 563.603
20.94000 564.312
20.95000 564.745
20.96000 562.246
20.97000 558.958
20.98000 556.167
20.99000 556.499
21.00000 557.374
21.01000 558.088
21.02000 551.260
21.03000 545.027
21.04000 538.473
21.05000 531.063
21.06000 523.606
21.07000 523.420
21.08000 536.264
21.09000 549.367
21.10000 556.454
21.11000 547.828
21.12000 541.949
21.13000 544.817
21.14000 554.242
21.15000 563.448
21.16000 564.934
21.17000 562.585
21.18000 560.350
21.19000 566.056
21.20000 573.788
21.21000 579.928
21.22000 573.106
21.23000 563.433
21.24000 556.118
21.25000 560.679
21.26000 566.884
21.27000 571.729
21.28000 547.482
21.29000 526.316
21.30000 515.490
21.31000 527.523
21.32000 540.384
21.33000 548.815
21.34000 550.723
21.35000 552.572
21.36000 553.237
21.37000 552.782
21.38000 552.284
21.39000 548.678
21.40000 543.166
21.41000 537.760
21.42000 534.709
21.43000 532.624
21.44000 530.678
21.45000 534.294
21.46000 538.952
21.47000 543.320
21.48000 545.827
21.49000 548.003
21.50000 549.348
21.51000 547.291
21.52000 544.868
21.53000 543.070
21.54000 550.678
21.55000 557.003
21.56000 560.425
21.57000 558.544
21.58000 556.551
21.59000 553.728
21.60000 549.909
21.61000 546.097
21.62000 546.622
21.63000 550.439
21.64000 554.145
21.65000 553.724
21.66000 551.215
21.67000 548.848
21.68000 548.665
21.69000 549.223
21.70000 549.731
21.71000 547.540
21.72000 545.063
21.73000 543.233
21.74000 544.729
21.75000 546.696
21.76000 549.057
21.77000 552.743
21.78000 556.537
21.79000 559.195
21.80000 567.198
21.81000 573.404
21.82000 578.748
21.83000 582.799
21.84000 586.837
21.85000 585.449
21.86000 578.820
21.87000 572.244
21.88000 573.953
21.89000 580.725
21.90000 587.715
21.91000 599.749
21.92000 613.891
21.93000 627.137
21.94000 630.303
21.95000 630.650
21.96000 630.958
21.97000 639.388
21.98000 647.958
21.99000 655.747
22.00000 660.268
22.01000 664.429
22.02000 667.268
22.03000 666.439
22.04000 665.395
22.05000 664.711
22.06000 648.982
22.07000 637.167
22.08000 631.698
22.09000 634.004
22.10000 636.318
22.11000 635.247
22.12000 631.535
22.13000 627.885
22.14000 625.849
22.15000 624.683
22.16000 623.865
22.17000 628.566
22.18000 635.176
22.19000 640.430
22.20000 634.082
22.21000 625.078
22.22000 617.358
22.23000 610.906
22.24000 605.612
22.25000 602.322
22.26000 605.900
22.27000 610.053
22.28000 610.061
22.29000 600.559
22.30000 590.682
22.31000 584.681
22.32000 582.675
22.33000 581.275
22.34000 584.014
22.35000 590.838
22.36000 597.525
22.37000 592.805
22.38000 580.805
22.39000 569.145
22.40000 570.626
22.41000 577.355
22.42000 583.454
22.43000 582.264
22.44000 578.995
22.45000 575.769
22.46000 572.832
22.47000 569.948
22.48000 567.566
22.49000 556.426
22.50000 546.427
22.51000 539.813
22.52000 542.769
22.53000 546.306
22.54000 551.053
22.55000 558.097
22.56000 565.196
22.57000 569.146
22.58000 545.246
22.59000 528.697
22.60000 523.470
22.61000 527.259
22.62000 530.993
22.63000 532.450
22.64000 532.710
22.65000 532.959
22.66000 531.641
22.67000 529.898
22.68000 527.616
22.69000 520.593
22.70000 512.461
22.71000 506.882
22.72000 514.998
22.73000 525.146
22.74000 533.177
22.75000 530.274
22.76000 527.184
22.77000 525.638
22.78000 527.702
22.79000 529.914
22.80000 529.621
22.81000 525.413
22.82000 521.159
22.83000 519.023
22.84000 519.945
22.85000 520.538
22.86000 519.144
22.87000 516.456
22.88000 513.545
22.89000 505.008
22.90000 494.030
22.91000 483.723
22.92000 494.851
22.93000 510.679
22.94000 524.573
22.95000 525.190
22.96000 523.289
22.97000 521.286
22.98000 518.839
22.99000 516.341
23.00000 514.458
23.01000 501.086
23.02000 490.052
23.03000 487.414
23.04000 501.000
23.05000 514.997
23.06000 520.253
23.07000 514.353
23.08000 508.421
23.09000 503.915
23.10000 500.581
23.11000 497.388
23.12000 500.389
23.13000 506.706
23.14000 512.396
23.15000 507.454
23.16000 498.695
23.17000 490.657
23.18000 499.869
23.19000 511.749
23.20000 520.941
23.21000 515.401
23.22000 507.625
23.23000 502.387
23.24000 506.190
23.25000 510.794
23.26000 514.077
23.27000 497.484
23.28000 484.183
23.29000 480.557
23.30000 492.336
23.31000 504.313
23.32000 502.502
23.33000 486.476
23.34000 470.544
23.35000 475.065
23.36000 492.903
23.37000 510.247
23.38000 514.628
23.39000 513.275
23.40000 512.150
23.41000 513.815
23.42000 516.307
23.43000 518.533
23.44000 510.853
23.45000 502.491
23.46000 496.419
23.47000 500.511
23.48000 505.815
23.49000 508.938
23.50000 505.658
23.51000 501.962
23.52000 499.489
23.53000 509.416
23.54000 517.022
23.55000 515.264
23.56000 501.310
23.57000 487.324
23.58000 482.469
23.59000 485.192
23.60000 487.876
23.61000 484.210
23.62000 477.276
23.63000 471.187
23.64000 479.934
23.65000 494.108
23.66000 506.888
23.67000 506.783
23.68000 503.546
23.69000 500.742
23.70000 504.862
23.71000 509.281
23.72000 511.715
23.73000 506.937
23.74000 501.502
23.75000 500.503
23.76000 510.268
23.77000 520.515
23.78000 526.889
23.79000 513.351
23.80000 503.402
23.81000 503.766
23.82000 514.996
23.83000 526.113
23.84000 524.621
23.85000 514.600
23.86000 504.826
23.87000 499.169
23.88000 495.538
23.89000 491.891
23.90000 488.046
23.91000 484.141
23.92000 480.901
23.93000 482.440
23.94000 484.924
23.95000 486.999
23.96000 496.595
23.97000 505.323
23.98000 510.275
23.99000 503.926
24.00000 496.820
24.01000 491.030
24.02000 487.881
24.03000 484.806
24.04000 483.047
24.05000 490.948
24.06000 496.491
24.07000 499.103
24.08000 499.233
24.09000 499.296
24.10000 496.081
24.11000 491.043
24.12000 486.198
24.13000 484.548
24.14000 484.117
24.15000 483.612
24.16000 482.409
24.17000 481.033
24.18000 479.764
24.19000 479.101
24.20000 478.535
24.21000 478.081
24.22000 489.315
24.23000 499.297
24.24000 504.931
24.25000 499.814
24.26000 494.197
24.27000 492.186
24.28000 496.140
24.29000 500.184
24.30000 502.281
24.31000 496.641
24.32000 492.843
24.33000 490.231
24.34000 488.438
24.35000 486.635
24.36000 484.549
24.37000 482.332
24.38000 480.238
24.39000 482.649
24.40000 486.133
24.41000 488.711
24.42000 484.623
24.43000 479.189
24.44000 474.796
24.45000 475.216
24.46000 476.239
24.47000 477.022
24.48000 479.551
24.49000 481.642
24.50000 480.724
24.51000 473.654
24.52000 466.402
24.53000 464.942
24.54000 471.336
24.55000 477.770
24.56000 480.724
24.57000 480.668
24.58000 480.666
24.59000 483.563
24.60000 488.102
24.61000 492.265
24.62000 489.312
24.63000 483.657
24.64000 478.430
24.65000 480.645
24.66000 484.321
24.67000 487.314
24.68000 486.309
24.69000 484.654
24.70000 483.303
24.71000 483.099
24.72000 483.005
24.73000 482.937
24.74000 489.055
24.75000 493.987
24.76000 494.769
24.77000 488.553
24.78000 482.225
24.79000 481.096
24.80000 485.685
24.81000 490.257
24.82000 486.237
24.83000 476.275
24.84000 466.726
24.85000 469.561
24.86000 478.191
24.87000 485.790
24.88000 479.581
24.89000 469.041
24.90000 459.544
24.91000 466.029
24.92000 474.606
24.93000 481.447
24.94000 480.099
24.95000 477.700
24.96000 475.065
24.97000 471.697
24.98000 468.276
24.99000 465.942
25.00000 466.457
25.01000 466.908
25.02000 466.730
25.03000 465.679
25.04000 464.625
25.05000 464.737
25.06000 465.881
25.07000 467.013
25.08000 466.590
25.09000 465.300
25.10000 464.326
25.11000 469.554
25.12000 477.181
25.13000 484.316
25.14000 486.525
25.15000 487.464
25.16000 488.285
25.17000 483.756
25.18000 479.115
25.19000 474.640
25.20000 470.806
25.21000 467.036
25.22000 462.980
25.23000 458.190
25.24000 453.363
25.25000 450.292
25.26000 454.453
25.27000 457.566
25.28000 458.194
25.29000 456.032
25.30000 453.910
25.31000 458.165
25.32000 466.997
25.33000 475.644
25.34000 476.779
25.35000 474.430
25.36000 472.162
25.37000 471.014
25.38000 470.224
25.39000 470.065
25.40000 474.778
25.41000 480.516
25.42000 485.364
25.43000 481.854
25.44000 478.001
25.45000 474.768
25.46000 473.501
25.47000 472.379
25.48000 472.070
25.49000 473.485
25.50000 474.957
25.51000 475.821
25.52000 474.711
25.53000 473.919
25.54000 473.127
25.55000 472.336
25.56000 471.579
25.57000 472.802
25.58000 475.191
25.59000 477.500
25.60000 473.049
25.61000 466.342
25.62000 460.263
25.63000 460.636
25.64000 462.704
25.65000 464.616
25.66000 465.572
25.67000 466.365
25.68000 467.010
25.69000 467.643
25.70000 468.158
25.71000 468.453
25.72000 468.172
25.73000 467.860
25.74000 465.024
25.75000 457.767
25.76000 450.428
25.77000 446.506
25.78000 457.036
25.79000 464.193
25.80000 465.339
25.81000 462.086
25.82000 458.968
25.83000 460.342
25.84000 463.898
25.85000 467.275
25.86000 463.489
25.87000 457.837
25.88000 453.059
25.89000 455.199
25.90000 458.824
25.91000 460.472
25.92000 452.405
25.93000 443.030
25.94000 435.751
25.95000 447.691
25.96000 458.346
25.97000 464.927
25.98000 462.700
25.99000 460.172
26.00000 457.544
26.01000 454.772
26.02000 452.000
26.03000 450.536
26.04000 450.277
26.05000 450.089
26.06000 454.489
26.07000 461.643
26.08000 468.362
26.09000 465.913
26.10000 459.780
26.11000 454.073
26.12000 452.534
26.13000 452.153
26.14000 452.971
26.15000 461.282
26.16000 470.892
26.17000 476.908
26.18000 468.538
26.19000 458.666
26.20000 451.386
26.21000 459.235
26.22000 465.949
26.23000 469.002
26.24000 465.519
26.25000 461.907
26.26000 461.516
26.27000 464.900
26.28000 468.279
26.29000 465.681
26.30000 458.672
26.31000 451.696
26.32000 445.866
26.33000 440.603
26.34000 435.833
26.35000 438.334
26.36000 443.247
26.37000 447.709
26.38000 455.891
26.39000 463.838
26.40000 469.477
26.41000 463.539
26.42000 456.005
26.43000 449.505
26.44000 446.402
26.45000 443.565
26.46000 441.592
26.47000 443.693
26.48000 445.388
26.49000 446.055
26.50000 445.217
26.51000 444.366
26.52000 445.685
26.53000 449.047
26.54000 452.380
26.55000 452.274
26.56000 450.107
26.57000 448.299
26.58000 454.384
26.59000 463.699
26.60000 471.675
26.61000 465.105
26.62000 454.560
26.63000 445.252
26.64000 442.772
26.65000 441.676
26.66000 440.242
26.67000 437.428
26.68000 434.467
26.69000 434.041
26.70000 440.497
26.71000 447.340
26.72000 451.789
26.73000 454.020
26.74000 455.622
26.75000 454.063
26.76000 448.725
26.77000 443.401
26.78000 442.752
26.79000 445.667
26.80000 448.530
26.81000 443.289
26.82000 434.284
26.83000 425.834
26.84000 425.833
26.85000 428.690
26.86000 431.715
26.87000 436.139
26.88000 440.875
26.89000 444.919
26.90000 443.674
26.91000 441.998
26.92000 439.986
26.93000 436.850
26.94000 433.622
26.95000 432.884
26.96000 437.731
26.97000 442.788
26.98000 445.830
26.99000 440.497
27.00000 436.646
27.01000 435.227
27.02000 436.146
27.03000 437.008
27.04000 433.532
27.05000 427.351
27.06000 421.356
27.07000 425.230
27.08000 432.804
27.09000 439.273
27.10000 433.396
27.11000 424.079
27.12000 416.675
27.13000 421.766
27.14000 429.118
27.15000 435.163
27.16000 434.935
27.17000 434.182
27.18000 433.626
27.19000 433.619
27.20000 433.643
27.21000 434.651
27.22000 437.482
27.23000 440.353
27.24000 441.934
27.25000 436.272
27.26000 432.377
27.27000 432.667
27.28000 436.210
27.29000 439.682
27.30000 440.392
27.31000 439.683
27.32000 439.005
27.33000 436.045
27.34000 432.562
27.35000 429.769
27.36000 432.841
27.37000 437.251
27.38000 440.002
27.39000 434.071
27.40000 426.887
27.41000 421.231
27.42000 424.783
27.43000 428.243
27.44000 431.984
27.45000 436.371
27.46000 440.783
27.47000 442.302
27.48000 439.408
27.49000 436.467
27.50000 439.187
27.51000 447.472
27.52000 455.636
27.53000 453.810
27.54000 445.633
27.55000 437.910
27.56000 441.001
27.57000 448.685
27.58000 455.882
27.59000 454.595
27.60000 451.234
27.61000 447.826
27.62000 444.104
27.63000 440.325
27.64000 436.372
27.65000 431.680
27.66000 426.904
27.67000 423.326
27.68000 436.897
27.69000 448.297
27.70000 452.826
27.71000 444.371
27.72000 435.609
27.73000 429.454
27.74000 426.546
27.75000 423.653
27.76000 426.885
27.77000 434.939
27.78000 442.833
27.79000 444.180
27.80000 442.100
27.81000 439.861
27.82000 435.052
27.83000 429.339
27.84000 424.112
27.85000 428.027
27.86000 433.400
27.87000 437.726
27.88000 436.452
27.89000 434.350
27.90000 432.407
27.91000 431.015
27.92000 429.671
27.93000 428.719
27.94000 431.543
27.95000 433.805
27.96000 434.145
27.97000 431.491
27.98000 428.803
27.99000 424.738
28.00000 419.288
28.01000 413.875
28.02000 413.914
28.03000 417.431
28.04000 420.846
28.05000 421.703
28.06000 421.454
28.07000 421.107
28.08000 419.607
28.09000 417.772
28.10000 416.139
28.11000 415.127
28.12000 414.350
28.13000 414.239
28.14000 417.020
28.15000 420.135
28.16000 423.637
28.17000 428.247
28.18000 432.927
28.19000 436.034
28.20000 428.262
28.21000 422.317
28.22000 422.879
28.23000 431.715
28.24000 440.562
28.25000 442.592
28.26000 439.103
28.27000 435.665
28.28000 423.195
28.29000 406.420
28.30000 390.722
28.31000 393.184
28.32000 402.143
28.33000 410.463
28.34000 413.051
28.35000 414.277
28.36000 415.335
28.37000 416.528
28.38000 417.556
28.39000 418.306
28.40000 418.065
28.41000 417.736
28.42000 418.617
28.43000 422.369
28.44000 426.243
28.45000 428.631
28.46000 421.193
28.47000 415.766
28.48000 416.666
28.49000 424.063
28.50000 431.387
28.51000 431.504
28.52000 426.859
28.53000 422.335
28.54000 413.588
28.55000 403.475
28.56000 394.149
28.57000 394.406
28.58000 397.492
28.59000 401.382
28.60000 410.902
28.61000 421.507
28.62000 430.329
28.63000 421.384
28.64000 412.235
28.65000 406.013
28.66000 408.353
28.67000 411.246
28.68000 413.815
28.69000 415.752
28.70000 417.673
28.71000 418.759
28.72000 415.889
28.73000 413.879
28.74000 410.881
28.75000 407.066
28.76000 403.440
28.77000 408.444
28.78000 418.141
28.79000 427.447
28.80000 427.587
28.81000 424.594
28.82000 421.623
28.83000 418.859
28.84000 416.144
28.85000 414.519
28.86000 418.965
28.87000 424.350
28.88000 428.646
28.89000 427.978
28.90000 427.076
28.91000 425.988
28.92000 424.451
28.93000 422.893
28.94000 421.798
28.95000 421.450
28.96000 421.112
28.97000 420.939
28.98000 417.212
28.99000 414.724
29.00000 414.055
29.01000 414.613
29.02000 415.187
29.03000 416.226
29.04000 417.474
29.05000 418.650
29.06000 418.728
29.07000 418.497
29.08000 417.790
29.09000 413.670
29.10000 408.877
29.11000 404.959
29.12000 404.985
29.13000 405.490
29.14000 405.875
29.15000 405.160
29.16000 404.539
29.17000 405.997
29.18000 411.610
29.19000 417.338
29.20000 418.626
29.21000 414.034
29.22000 409.419
29.23000 410.291
29.24000 415.777
29.25000 421.192
29.26000 423.088
29.27000 423.034
29.28000 422.818
29.29000 419.658
29.30000 415.404
29.31000 411.483
29.32000 409.071
29.33000 407.245
29.34000 405.702
29.35000 405.771
29.36000 406.095
29.37000 405.859
29.38000 403.558
29.39000 401.063
29.40000 399.266
29.41000 412.955
29.42000 423.990
29.43000 428.535
29.44000 422.384
29.45000 416.075
29.46000 417.753
29.47000 427.996
29.48000 438.190
29.49000 435.403
29.50000 423.831
29.51000 412.513
29.52000 408.405
29.53000 407.595
29.54000 406.803
29.55000 406.229
29.56000 405.723
29.57000 405.268
29.58000 407.608
29.59000 410.146
29.60000 410.843
29.61000 403.060
29.62000 394.221
29.63000 389.884
29.64000 399.225
29.65000 409.506
29.66000 416.467
29.67000 411.722
29.68000 407.929
29.69000 407.406
29.70000 411.300
29.71000 415.213
29.72000 415.844
29.73000 413.646
29.74000 411.475
29.75000 411.596
29.76000 412.975
29.77000 414.491
29.78000 418.545
29.79000 423.560
29.80000 427.798
29.81000 424.504
29.82000 419.312
29.83000 414.789
29.84000 415.294
29.85000 416.420
29.86000 418.532
29.87000 424.356
29.88000 430.535
29.89000 433.756
29.90000 429.551
29.91000 424.989
29.92000 422.113
29.93000 419.936
29.94000 418.368
29.95000 418.674
29.96000 421.035
29.97000 423.423
29.98000 429.297
29.99000 437.613
30.00000 445.743
30.01000 445.824
30.02000 442.305
30.03000 439.043
30.04000 439.199
30.05000 440.424
30.06000 441.034
30.07000 437.022
30.08000 432.062
30.09000 427.889
30.10000 432.228
30.11000 436.753
30.12000 440.322
30.13000 440.938
30.14000 441.343
30.15000 440.843
30.16000 438.461
30.17000 436.021
30.18000 434.604
30.19000 432.433
30.20000 430.904
30.21000 428.863
30.22000 426.369
30.23000 423.936
30.24000 424.897
30.25000 427.811
30.26000 430.621
30.27000 432.230
30.28000 433.306
30.29000 433.829
30.30000 428.842
30.31000 422.440
30.32000 417.657
30.33000 422.503
30.34000 428.942
30.35000 434.145
30.36000 425.638
30.37000 417.623
30.38000 412.066
30.39000 412.798
30.40000 413.843
30.41000 415.858
30.42000 419.534
30.43000 423.239
30.44000 425.196
30.45000 426.538
30.46000 427.413
30.47000 422.943
30.48000 414.652
30.49000 406.671
30.50000 408.370
30.51000 414.667
30.52000 420.634
30.53000 419.681
30.54000 416.773
30.55000 414.239
30.56000 414.582
30.57000 415.527
30.58000 416.280
30.59000 416.106
30.60000 415.812
30.61000 415.584
30.62000 423.847
30.63000 430.890
30.64000 436.146
30.65000 437.624
30.66000 438.979
30.67000 440.853
30.68000 443.456
30.69000 446.064
30.70000 441.961
30.71000 431.840
30.72000 421.838
30.73000 419.018
30.74000 420.409
30.75000 422.103
30.76000 429.922
30.77000 440.148
30.78000 449.638
30.79000 451.835
30.80000 452.092
30.81000 451.087
30.82000 442.398
30.83000 432.411
30.84000 427.743
30.85000 443.873
30.86000 462.107
30.87000 475.466
30.88000 471.432
30.89000 467.621
30.90000 469.686
30.91000 482.007
30.92000 494.515
30.93000 502.038
30.94000 503.867
30.95000 505.683
30.96000 510.200
30.97000 516.633
30.98000 523.150
30.99000 532.448
31.00000 543.090
31.01000 554.055
31.02000 569.591
31.03000 586.609
31.04000 602.017
31.05000 625.022
31.06000 646.720
31.07000 668.617
31.08000 691.489
31.09000 714.492
31.10000 744.611
31.11000 797.603
31.12000 852.324
31.13000 890.091
31.14000 954.939
31.15000 1004.356
31.16000 1063.345
31.17000 1136.054
31.18000 1208.869
31.19000 1280.177
31.20000 1350.104
31.21000 1419.353
31.22000 1503.040
31.23000 1593.436
31.24000 1683.385
31.25000 1763.948
31.26000 1840.755
31.27000 1919.163
31.28000 2014.385
31.29000 2114.099
31.30000 2201.787
31.31000 2275.607
31.32000 2337.061
31.33000 2395.347
31.34000 2440.993
31.35000 2485.326
31.36000 2528.171
31.37000 2567.064
31.38000 2605.744
31.39000 2630.678
31.40000 2620.220
31.41000 2612.079
31.42000 2594.518
31.43000 2565.968
31.44000 2537.299
31.45000 2489.151
31.46000 2426.512
31.47000 2365.064
31.48000 2291.535
31.49000 2214.942
31.50000 2138.659
31.51000 2066.913
31.52000 1996.667
31.53000 1923.403
31.54000 1825.774
31.55000 1722.827
31.56000 1635.283
31.57000 1545.188
31.58000 1469.225
31.59000 1395.451
31.60000 1328.844
31.61000 1262.796
31.62000 1194.311
31.63000 1120.476
31.64000 1046.451
31.65000 1002.340
31.66000 942.667
31.67000 900.282
31.68000 855.765
31.69000 809.249
31.70000 762.965
31.71000 732.705
31.72000 712.211
31.73000 692.362
31.74000 667.354
31.75000 641.709
31.76000 616.801
31.77000 599.841
31.78000 585.047
31.79000 570.638
31.80000 558.684
31.81000 547.163
31.82000 537.736
31.83000 527.315
31.84000 518.690
31.85000 511.595
31.86000 508.634
31.87000 505.904
31.88000 497.542
31.89000 478.967
31.90000 460.181
31.91000 449.960
31.92000 455.290
31.93000 458.932
31.94000 455.275
31.95000 446.077
31.96000 437.093
31.97000 435.897
31.98000 438.615
31.99000 441.204
32.00000 442.173
32.01000 442.566
32.02000 442.901
32.03000 442.765
32.04000 442.525
32.05000 440.562
32.06000 429.811
32.07000 417.825
32.08000 408.441
32.09000 404.663
32.10000 402.005
32.11000 400.185
32.12000 400.240
32.13000 400.364
32.14000 401.554
32.15000 404.332
32.16000 407.125
32.17000 406.868
32.18000 403.690
32.19000 400.569
32.20000 401.617
32.21000 405.256
32.22000 408.614
32.23000 405.570
32.24000 399.865
32.25000 394.537
32.26000 395.852
32.27000 398.719
32.28000 401.213
32.29000 401.278
32.30000 400.906
32.31000 400.639
32.32000 400.806
32.33000 401.020
32.34000 401.180
32.35000 397.383
32.36000 394.250
32.37000 391.799
32.38000 390.608
32.39000 389.445
32.40000 384.935
32.41000 376.357
32.42000 367.788
32.43000 369.616
32.44000 379.440
32.45000 389.074
32.46000 391.406
32.47000 390.000
32.48000 388.435
32.49000 384.377
32.50000 379.464
32.51000 374.982
32.52000 373.034
32.53000 371.817
32.54000 370.050
32.55000 365.414
32.56000 360.365
32.57000 358.464
32.58000 367.277
32.59000 376.975
32.60000 383.793
32.61000 377.187
32.62000 371.787
32.63000 367.493
32.64000 364.877
32.65000 362.280
32.66000 363.728
32.67000 369.136
32.68000 374.503
32.69000 374.705
32.70000 371.687
32.71000 368.877
32.72000 371.010
32.73000 375.234
32.74000 379.059
32.75000 378.310
32.76000 376.266
32.77000 374.452
32.78000 379.826
32.79000 385.628
32.80000 391.513
32.81000 397.745
32.82000 404.016
32.83000 410.478
32.84000 417.475
32.85000 424.505
32.86000 429.133
32.87000 443.475
32.88000 454.207
32.89000 459.269
32.90000 457.296
32.91000 455.317
32.92000 457.315
32.93000 462.457
32.94000 467.517
32.95000 461.099
32.96000 449.085
32.97000 438.122
32.98000 444.163
32.99000 456.155
33.00000 466.130
33.01000 458.578
33.02000 446.962
33.03000 436.981
33.04000 430.857
33.05000 426.157
33.06000 421.900
33.07000 419.179
33.08000 416.590
33.09000 411.435
33.10000 400.324
33.11000 388.972
33.12000 382.041
33.13000 371.903
33.14000 364.627
33.15000 360.318
33.16000 358.977
33.17000 357.593
33.18000 352.469
33.19000 344.930
33.20000 337.599
33.21000 336.698
33.22000 338.479
33.23000 340.431
33.24000 344.402
33.25000 348.955
33.26000 352.498
33.27000 349.161
33.28000 344.529
33.29000 340.695
33.30000 338.404
33.31000 336.659
33.32000 337.056
33.33000 343.578
33.34000 350.478
33.35000 353.660
33.36000 349.704
33.37000 345.572
33.38000 343.259
33.39000 337.784
33.40000 333.993
33.41000 333.761
33.42000 336.399
33.43000 339.050
33.44000 342.235
33.45000 345.705
33.46000 349.028
33.47000 347.790
33.48000 345.119
33.49000 342.296
33.50000 338.123
33.51000 333.631
33.52000 330.758
33.53000 336.683
33.54000 343.933
33.55000 349.687
33.56000 343.349
33.57000 337.396
33.58000 333.915
33.59000 336.282
33.60000 338.895
33.61000 338.477
33.62000 333.267
33.63000 327.998
33.64000 325.334
33.65000 340.193
33.66000 349.990
33.67000 345.775
33.68000 332.335
33.69000 319.423
33.70000 320.153
33.71000 326.875
33.72000 333.194
33.73000 334.312
33.74000 333.936
33.75000 334.119
33.76000 338.197
33.77000 343.024
33.78000 345.091
33.79000 335.007
33.80000 323.487
33.81000 314.777
33.82000 319.455
33.83000 323.796
33.84000 328.768
33.85000 334.974
33.86000 341.212
33.87000 343.807
33.88000 341.691
33.89000 339.559
33.90000 337.840
33.91000 336.467
33.92000 335.135
33.93000 335.690
33.94000 337.267
33.95000 338.697
33.96000 337.587
33.97000 335.554
33.98000 333.685
33.99000 332.344
34.00000 331.260
34.01000 329.634
34.02000 324.995
34.03000 319.891
34.04000 317.566
34.05000 325.254
34.06000 333.845
34.07000 339.993
34.08000 332.122
34.09000 325.639
34.10000 324.539
34.11000 332.112
34.12000 339.801
34.13000 339.651
34.14000 331.309
34.15000 323.013
34.16000 319.081
34.17000 318.093
34.18000 317.125
34.19000 316.691
34.20000 316.497
34.21000 316.378
34.22000 317.200
34.23000 318.304
34.24000 319.292
34.25000 324.370
34.26000 329.501
34.27000 334.099
34.28000 336.299
34.29000 338.209
34.30000 338.163
34.31000 332.308
34.32000 326.068
34.33000 321.876
34.34000 329.330
34.35000 335.106
34.36000 336.618
34.37000 332.508
34.38000 328.371
34.39000 323.460
34.40000 317.900
34.41000 312.413
34.42000 312.985
34.43000 316.797
34.44000 320.079
34.45000 313.861
34.46000 304.126
34.47000 296.441
34.48000 308.010
34.49000 324.316
34.50000 338.467
34.51000 335.283
34.52000 330.245
34.53000 326.305
34.54000 326.397
34.55000 326.862
34.56000 326.579
34.57000 324.457
34.58000 322.250
34.59000 320.870
34.60000 320.013
34.61000 319.400
34.62000 322.614
34.63000 329.914
34.64000 337.153
34.65000 337.043
34.66000 331.901
34.67000 326.883
34.68000 324.177
34.69000 322.597
34.70000 321.229
34.71000 322.581
34.72000 324.763
34.73000 326.739
34.74000 327.207
34.75000 327.373
34.76000 327.512
34.77000 324.873
34.78000 322.392
34.79000 320.749
34.80000 321.642
34.81000 322.708
34.82000 323.639
34.83000 324.297
34.84000 324.947
34.85000 325.321
34.86000 315.684
34.87000 308.914
34.88000 308.112
34.89000 312.429
34.90000 316.640
34.91000 315.359
34.92000 310.987
34.93000 306.779
34.94000 309.484
34.95000 314.469
34.96000 318.583
34.97000 314.306
34.98000 307.924
34.99000 303.435
35.00000 309.923
35.01000 318.178
35.02000 324.816
35.03000 320.407
35.04000 315.978
35.05000 312.232
35.06000 310.196
35.07000 308.242
35.08000 307.168
35.09000 307.567
35.10000 307.989
35.11000 308.209
35.12000 306.714
35.13000 305.720
35.14000 307.094
35.15000 310.121
35.16000 312.989
35.17000 311.157
35.18000 307.142
35.19000 303.345
35.20000 307.722
35.21000 314.083
35.22000 319.729
35.23000 320.033
35.24000 319.245
35.25000 317.564
35.26000 311.698
35.27000 305.301
35.28000 300.391
35.29000 311.506
35.30000 321.186
35.31000 326.017
35.32000 320.822
35.33000 315.321
35.34000 311.412
35.35000 309.690
35.36000 307.982
35.37000 307.854
35.38000 309.107
35.39000 310.427
35.40000 315.406
35.41000 322.482
35.42000 329.089
35.43000 326.640
35.44000 320.710
35.45000 315.221
35.46000 316.557
35.47000 319.327
35.48000 320.979
35.49000 316.005
35.50000 309.941
35.51000 305.775
35.52000 308.862
35.53000 312.658
35.54000 315.421
35.55000 303.813
35.56000 294.328
35.57000 290.650
35.58000 296.880
35.59000 303.276
35.60000 308.101
35.61000 311.174
35.62000 314.233
35.63000 314.875
35.64000 313.805
35.65000 312.651
35.66000 308.914
35.67000 303.954
35.68000 299.177
35.69000 296.900
35.70000 295.416
35.71000 294.076
35.72000 296.691
35.73000 299.712
35.74000 301.320
35.75000 296.174
35.76000 290.149
35.77000 286.347
35.78000 289.532
35.79000 293.225
35.80000 295.755
35.81000 291.164
35.82000 287.554
35.83000 289.041
35.84000 297.663
35.85000 306.331
35.86000 310.646
35.87000 311.067
35.88000 311.484
35.89000 311.245
35.90000 310.639
35.91000 310.006
35.92000 308.844
35.93000 307.475
35.94000 306.632
35.95000 311.136
35.96000 317.034
35.97000 322.203
35.98000 315.204
35.99000 307.443
36.00000 300.218
36.01000 295.082
36.02000 290.157
36.03000 288.791
36.04000 296.666
36.05000 305.016
36.06000 310.352
36.07000 299.314
36.08000 291.066
36.09000 287.724
36.10000 289.966
36.11000 292.199
36.12000 292.162
36.13000 290.476
36.14000 288.825
36.15000 288.540
36.16000 288.900
36.17000 289.598
36.18000 295.060
36.19000 302.063
36.20000 308.823
36.21000 313.684
36.22000 318.141
36.23000 321.914
36.24000 321.285
36.25000 320.266
36.26000 318.992
36.27000 316.903
36.28000 314.753
36.29000 310.370
36.30000 301.190
36.31000 291.849
36.32000 286.338
36.33000 298.020
36.34000 306.358
36.35000 308.506
36.36000 304.997
36.37000 301.511
36.38000 299.450
36.39000 298.238
36.40000 297.066
36.41000 297.797
36.42000 299.203
36.43000 300.120
36.44000 295.932
36.45000 290.386
36.46000 285.690
36.47000 286.265
36.48000 287.746
36.49000 288.951
36.50000 296.761
36.51000 303.699
36.52000 307.239
36.53000 301.793
36.54000 295.868
36.55000 293.518
36.56000 297.505
36.57000 301.615
36.58000 303.825
36.59000 303.899
36.60000 303.948
36.61000 304.204
36.62000 304.611
36.63000 304.917
36.64000 301.728
36.65000 296.821
36.66000 292.155
36.67000 294.635
36.68000 299.105
36.69000 303.713
36.70000 309.430
36.71000 315.388
36.72000 319.993
36.73000 317.858
36.74000 314.803
36.75000 312.424
36.76000 312.533
36.77000 312.774
36.78000 313.079
36.79000 313.525
36.80000 313.976
36.81000 310.245
36.82000 300.424
36.83000 290.553
36.84000 289.236
36.85000 295.904
36.86000 302.504
36.87000 304.490
36.88000 303.674
36.89000 302.882
36.90000 302.600
36.91000 302.525
36.92000 302.456
36.93000 303.645
36.94000 305.031
36.95000 305.624
36.96000 301.198
36.97000 295.891
36.98000 292.832
36.99000 298.880
37.00000 305.894
37.01000 311.084
37.02000 318.840
37.03000 324.967
37.04000 329.404
37.05000 330.786
37.06000 332.105
37.07000 329.115
37.08000 321.013
37.09000 312.924
37.10000 312.217
37.11000 317.060
37.12000 321.762
37.13000 321.403
37.14000 318.511
37.15000 315.834
37.16000 316.398
37.17000 318.051
37.18000 319.554
37.19000 312.896
37.20000 305.405
37.21000 299.461
37.22000 301.376
37.23000 304.389
37.24000 306.345
37.25000 304.779
37.26000 302.933
37.27000 301.644
37.28000 302.300
37.29000 302.849
37.30000 300.831
37.31000 294.999
37.32000 289.132
37.33000 286.989
37.34000 288.398
37.35000 289.795
37.36000 288.893
37.37000 286.611
37.38000 284.386
37.39000 283.469
37.40000 283.093
37.41000 282.729
37.42000 282.496
37.43000 282.299
37.44000 282.125
37.45000 290.253
37.46000 298.565
37.47000 304.579
37.48000 301.096
37.49000 296.579
37.50000 293.747
37.51000 295.541
37.52000 297.601
37.53000 298.945
37.54000 298.151
37.55000 297.534
37.56000 299.890
37.57000 305.847
37.58000 311.786
37.59000 311.434
37.60000 306.228
37.61000 301.112
37.62000 299.520
37.63000 299.721
37.64000 299.472
37.65000 292.250
37.66000 282.641
37.67000 274.672
37.68000 280.547
37.69000 289.556
37.70000 297.265
37.71000 296.140
37.72000 294.124
37.73000 295.058
37.74000 305.995
37.75000 317.755
37.76000 322.454
37.77000 311.119
37.78000 299.167
37.79000 291.938
37.80000 290.305
37.81000 289.181
37.82000 290.586
37.83000 294.454
37.84000 298.328
37.85000 302.698
37.86000 307.382
37.87000 311.929
37.88000 310.833
37.89000 307.534
37.90000 304.555
37.91000 305.211
37.92000 306.893
37.93000 308.131
37.94000 306.426
37.95000 304.181
37.96000 302.331
37.97000 301.815
37.98000 301.513
37.99000 300.472
38.00000 297.364
38.01000 294.132
38.02000 294.072
38.03000 299.962
38.04000 305.989
38.05000 309.326
38.06000 305.836
38.07000 303.432
38.08000 306.025
38.09000 312.553
38.10000 318.877
38.11000 317.008
38.12000 310.881
38.13000 305.024
38.14000 305.840
38.15000 308.763
38.16000 311.060
38.17000 307.943
38.18000 303.576
38.19000 301.278
38.20000 309.948
38.21000 320.225
38.22000 328.337
38.23000 330.086
38.24000 331.057
38.25000 331.586
38.26000 331.092
38.27000 330.558
38.28000 329.946
38.29000 329.215
38.30000 328.482
38.31000 332.355
38.32000 340.817
38.33000 349.281
38.34000 357.949
38.35000 366.748
38.36000 375.318
38.37000 378.276
38.38000 378.823
38.39000 379.336
38.40000 393.782
38.41000 410.586
38.42000 426.614
38.43000 437.380
38.44000 447.161
38.45000 461.848
38.46000 497.633
38.47000 535.836
38.48000 564.549
38.49000 620.957
38.50000 666.394
38.51000 703.559
38.52000 724.910
38.53000 745.875
38.54000 784.380
38.55000 845.018
38.56000 905.630
38.57000 968.131
38.58000 1031.883
38.59000 1095.292
38.60000 1144.163
38.61000 1185.334
38.62000 1227.497
38.63000 1286.165
38.64000 1350.695
38.65000 1409.834
38.66000 1462.677
38.67000 1508.414
38.68000 1549.072
38.69000 1562.233
38.70000 1571.274
38.71000 1577.427
38.72000 1573.403
38.73000 1568.493
38.74000 1565.003
38.75000 1556.257
38.76000 1549.431
38.77000 1538.894
38.78000 1522.515
38.79000 1506.063
38.80000 1480.262
38.81000 1444.939
38.82000 1409.839
38.83000 1357.194
38.84000 1293.969
38.85000 1231.043
38.86000 1175.765
38.87000 1123.835
38.88000 1070.747
38.89000 1003.704
38.90000 932.573
38.91000 869.122
38.92000 820.232
38.93000 780.118
38.94000 738.489
38.95000 690.216
38.96000 641.162
38.97000 595.805
38.98000 561.183
38.99000 527.244
39.00000 504.624
39.01000 466.293
39.02000 437.614
39.03000 417.456
39.04000 408.268
39.05000 399.130
39.06000 393.148
39.07000 389.754
39.08000 386.408
39.09000 370.751
39.10000 349.090
39.11000 328.391
39.12000 324.267
39.13000 326.144
39.14000 327.608
39.15000 325.308
39.16000 322.104
39.17000 319.334
39.18000 319.548
39.19000 320.119
39.20000 318.801
39.21000 310.702
39.22000 301.994
39.23000 296.276
39.24000 297.735
39.25000 299.507
39.26000 300.605
39.27000 299.638
39.28000 298.924
39.29000 295.619
39.30000 289.618
39.31000 283.665
39.32000 282.762
39.33000 285.237
39.34000 287.650
39.35000 287.496
39.36000 286.258
39.37000 284.895
39.38000 281.987
39.39000 278.617
39.40000 275.478
39.41000 273.974
39.42000 272.789
39.43000 271.802
39.44000 269.246
39.45000 266.970
39.46000 264.970
39.47000 263.786
39.48000 262.657
39.49000 265.047
39.50000 274.424
39.51000 283.992
39.52000 289.436
39.53000 282.240
39.54000 277.187
39.55000 272.560
39.56000 268.290
39.57000 264.130
39.58000 265.174
39.59000 269.081
39.60000 272.835
39.61000 269.144
39.62000 263.120
39.63000 258.079
39.64000 262.233
39.65000 268.640
39.66000 273.233
39.67000 267.575
39.68000 260.310
39.69000 254.499
39.70000 257.512
39.71000 260.606
39.72000 263.586
39.73000 266.287
39.74000 268.974
39.75000 270.467
39.76000 270.004
39.77000 269.513
39.78000 269.260
39.79000 269.152
39.80000 269.061
39.81000 266.757
39.82000 262.944
39.83000 259.249
39.84000 258.857
39.85000 259.967
39.86000 261.015
39.87000 263.300
39.88000 265.741
39.89000 268.268
39.90000 271.416
39.91000 274.688
39.92000 275.857
39.93000 267.416
39.94000 257.788
39.95000 250.441
39.96000 254.224
39.97000 257.801
39.98000 259.580
39.99000 257.722
40.00000 255.759
40.01000 257.041
40.02000 262.672
40.03000 268.321
40.04000 270.878
40.05000 270.791
40.06000 270.676
40.07000 269.150
40.08000 266.834
40.09000 264.596
40.10000 263.789
40.11000 263.522
40.12000 263.275
40.13000 261.288
40.14000 259.117
40.15000 257.152
40.16000 256.378
40.17000 255.795
40.18000 256.034
40.19000 259.343
40.20000 262.944
40.21000 265.547
40.22000 266.257
40.23000 266.733
40.24000 264.622
40.25000 258.196
40.26000 251.703
40.27000 247.172
40.28000 244.772
40.29000 242.384
40.30000 245.713
40.31000 252.939
40.32000 260.024
40.33000 263.000
40.34000 264.073
40.35000 264.779
40.36000 260.642
40.37000 255.002
40.38000 249.928
40.39000 251.573
40.40000 254.213
40.41000 257.187
40.42000 261.720
40.43000 266.450
40.44000 269.718
40.45000 268.495
40.46000 266.957
40.47000 265.911
40.48000 267.567
40.49000 268.864
40.50000 266.921
40.51000 260.547
40.52000 254.146
40.53000 246.364
40.54000 237.378
40.55000 228.495
40.56000 230.849
40.57000 239.410
40.58000 247.670
40.59000 250.148
40.60000 250.413
40.61000 251.119
40.62000 256.176
40.63000 262.342
40.64000 267.725
40.65000 266.127
40.66000 263.781
40.67000 260.198
40.68000 251.908
40.69000 243.159
40.70000 237.564
40.71000 239.977
40.72000 242.784
40.73000 244.562
40.74000 246.639
40.75000 248.149
40.76000 249.604
40.77000 250.998
40.78000 252.404
40.79000 255.544
40.80000 259.914
40.81000 264.190
40.82000 259.665
40.83000 251.341
40.84000 243.444
40.85000 241.357
40.86000 241.107
40.87000 241.184
40.88000 243.748
40.89000 246.831
40.90000 249.429
40.91000 246.600
40.92000 243.650
40.93000 242.607
40.94000 247.535
40.95000 252.896
40.96000 255.689
40.97000 253.090
40.98000 250.320
40.99000 248.702
41.00000 245.920
41.01000 243.959
41.02000 242.809
41.03000 242.384
41.04000 241.991
41.05000 243.466
41.06000 246.030
41.07000 248.504
41.08000 244.672
41.09000 238.747
41.10000 233.928
41.11000 240.300
41.12000 249.582
41.13000 256.754
41.14000 251.198
41.15000 243.510
41.16000 237.281
41.17000 246.385
41.18000 255.052
41.19000 260.078
41.20000 255.687
41.21000 250.816
41.22000 246.861
41.23000 244.495
41.24000 242.157
41.25000 240.915
41.26000 240.538
41.27000 240.299
41.28000 242.729
41.29000 247.090
41.30000 251.305
41.31000 250.794
41.32000 248.011
41.33000 245.371
41.34000 245.679
41.35000 246.838
41.36000 247.331
41.37000 242.614
41.38000 236.792
41.39000 232.783
41.40000 237.588
41.41000 243.562
41.42000 248.188
41.43000 245.092
41.44000 242.176
41.45000 240.005
41.46000 239.430
41.47000 238.908
41.48000 239.880
41.49000 242.978
41.50000 246.091
41.51000 246.812
41.52000 245.355
41.53000 243.912
41.54000 243.251
41.55000 243.056
41.56000 242.795
41.57000 241.152
41.58000 238.961
41.59000 236.924
41.60000 240.563
41.61000 245.205
41.62000 248.918
41.63000 246.900
41.64000 243.900
41.65000 240.531
41.66000 235.695
41.67000 230.709
41.68000 227.043
41.69000 228.159
41.70000 229.218
41.71000 230.281
41.72000 231.349
41.73000 232.419
41.74000 235.236
41.75000 240.077
41.76000 244.906
41.77000 247.842
41.78000 249.370
41.79000 250.764
41.80000 247.614
41.81000 242.241
41.82000 237.094
41.83000 235.226
41.84000 234.434
41.85000 233.716
41.86000 237.217
41.87000 241.110
41.88000 244.027
41.89000 242.097
41.90000 239.509
41.91000 238.756
41.92000 243.971
41.93000 249.646
41.94000 253.578
41.95000 244.065
41.96000 236.551
41.97000 231.698
41.98000 230.706
41.99000 229.745
42.00000 228.271
42.01000 226.319
42.02000 224.386
42.03000 231.574
42.04000 244.027
42.05000 255.901
42.06000 255.293
42.07000 249.632
42.08000 244.168
42.09000 240.802
42.10000 238.003
42.11000 235.537
42.12000 233.655
42.13000 232.121
42.14000 231.794
42.15000 236.341
42.16000 241.403
42.17000 244.843
42.18000 243.931
42.19000 242.779
42.20000 242.034
42.21000 245.684
42.22000 248.420
42.23000 247.353
42.24000 241.793
42.25000 236.229
42.26000 231.545
42.27000 227.524
42.28000 223.576
42.29000 224.804
42.30000 228.481
42.31000 232.051
42.32000 234.033
42.33000 235.483
42.34000 236.719
42.35000 236.187
42.36000 235.265
42.37000 234.479
42.38000 226.822
42.39000 219.578
42.40000 215.975
42.41000 224.441
42.42000 233.865
42.43000 240.192
42.44000 239.641
42.45000 238.838
42.46000 238.357
42.47000 235.385
42.48000 233.258
42.49000 233.079
42.50000 234.750
42.51000 236.397
42.52000 236.258
42.53000 235.017
42.54000 233.814
42.55000 232.110
42.56000 230.300
42.57000 228.941
42.58000 232.546
42.59000 237.518
42.60000 241.443
42.61000 238.608
42.62000 234.565
42.63000 231.249
42.64000 234.329
42.65000 237.424
42.66000 240.074
42.67000 241.506
42.68000 242.868
42.69000 241.994
42.70000 237.018
42.71000 231.954
42.72000 229.182
42.73000 223.692
42.74000 219.939
42.75000 222.230
42.76000 229.165
42.77000 235.925
42.78000 236.062
42.79000 232.832
42.80000 229.751
42.81000 228.575
42.82000 228.086
42.83000 227.533
42.84000 226.450
42.85000 225.246
42.86000 224.197
42.87000 223.941
42.88000 223.798
42.89000 223.686
42.90000 233.321
42.91000 241.668
42.92000 244.731
42.93000 235.843
42.94000 226.499
42.95000 219.933
42.96000 217.559
42.97000 215.227
42.98000 215.023
42.99000 216.883
43.00000 218.781
43.01000 223.587
43.02000 230.223
43.03000 236.632
43.04000 237.772
43.05000 236.698
43.06000 235.694
43.07000 234.815
43.08000 234.050
43.09000 233.097
43.10000 230.911
43.11000 228.500
43.12000 226.254
43.13000 224.704
43.14000 223.232
43.15000 222.131
43.16000 219.197
43.17000 216.825
43.18000 215.552
43.19000 216.337
43.20000 217.168
43.21000 220.934
43.22000 228.314
43.23000 235.689
43.24000 239.534
43.25000 240.606
43.26000 241.615
43.27000 240.156
43.28000 237.417
43.29000 234.578
43.30000 230.122
43.31000 225.105
43.32000 220.521
43.33000 218.054
43.34000 216.296
43.35000 215.294
43.36000 218.290
43.37000 221.869
43.38000 224.664
43.39000 224.761
43.40000 224.631
43.41000 224.539
43.42000 225.923
43.43000 227.018
43.44000 225.972
43.45000 221.634
43.46000 217.259
43.47000 220.157
43.48000 230.271
43.49000 240.313
43.50000 237.728
43.51000 227.218
43.52000 217.135
43.53000 217.421
43.54000 222.147
43.55000 226.239
43.56000 222.950
43.57000 217.547
43.58000 212.744
43.59000 214.817
43.60000 217.730
43.61000 219.773
43.62000 218.092
43.63000 215.986
43.64000 214.015
43.65000 212.428
43.66000 210.864
43.67000 209.831
43.68000 221.347
43.69000 230.069
43.70000 235.950
43.71000 238.259
43.72000 240.544
43.73000 238.730
43.74000 233.635
43.75000 228.618
43.76000 225.266
43.77000 222.867
43.78000 220.538
43.79000 219.368
43.80000 218.608
43.81000 218.392
43.82000 222.982
43.83000 228.700
43.84000 233.623
43.85000 228.478
43.86000 222.846
43.87000 218.984
43.88000 221.329
43.89000 224.213
43.90000 226.605
43.91000 227.843
43.92000 229.032
43.93000 229.762
43.94000 227.084
43.95000 225.136
43.96000 221.311
43.97000 215.582
43.98000 209.875
43.99000 206.229
44.00000 203.929
44.01000 201.691
44.02000 207.758
44.03000 216.988
44.04000 225.588
44.05000 226.651
44.06000 225.513
44.07000 224.357
44.08000 223.066
44.09000 221.750
44.10000 220.657
44.11000 219.895
44.12000 219.297
44.13000 218.403
44.14000 216.654
44.15000 214.851
44.16000 214.855
44.17000 218.365
44.18000 221.965
44.19000 223.992
44.20000 225.845
44.21000 227.130
44.22000 227.759
44.23000 227.854
44.24000 227.873
44.25000 224.554
44.26000 219.441
44.27000 214.538
44.28000 210.813
44.29000 207.732
44.30000 205.226
44.31000 207.941
44.32000 211.905
44.33000 216.340
44.34000 223.372
44.35000 230.801
44.36000 236.712
44.37000 229.757
44.38000 223.226
44.39000 220.339
44.40000 226.173
44.41000 232.385
44.42000 235.975
44.43000 235.372
44.44000 234.713
44.45000 234.379
44.46000 227.304
44.47000 222.592
44.48000 221.172
44.49000 221.945
44.50000 222.740
44.51000 224.095
44.52000 225.698
44.53000 227.207
44.54000 223.172
44.55000 217.973
44.56000 213.418
44.57000 213.401
44.58000 214.268
44.59000 214.755
44.60000 213.548
44.61000 212.138
44.62000 211.068
44.63000 212.930
44.64000 214.543
44.65000 215.176
44.66000 213.871
44.67000 212.513
44.68000 214.749
44.69000 221.688
44.70000 228.641
44.71000 231.347
44.72000 230.515
44.73000 229.669
44.74000 228.159
44.75000 226.287
44.76000 224.740
44.77000 228.956
44.78000 235.290
44.79000 241.120
44.80000 244.262
44.81000 246.484
44.82000 248.959
44.83000 252.866
44.84000 256.996
44.85000 260.771
44.86000 263.250
44.87000 265.611
44.88000 267.306
44.89000 263.619
44.90000 260.612
44.91000 260.639
44.92000 265.614
44.93000 270.658
44.94000 272.334
44.95000 270.441
44.96000 268.558
44.97000 273.046
44.98000 281.754
44.99000 290.353
45.00000 295.916
45.01000 300.104
45.02000 303.714
45.03000 299.968
45.04000 293.992
45.05000 288.633
45.06000 293.676
45.07000 299.889
45.08000 305.615
45.09000 309.125
45.10000 312.363
45.11000 313.516
45.12000 308.402
45.13000 302.865
45.14000 299.130
45.15000 310.848
45.16000 319.894
45.17000 324.106
45.18000 321.862
45.19000 319.587
45.20000 318.913
45.21000 319.601
45.22000 320.281
45.23000 314.524
45.24000 305.415
45.25000 296.801
45.26000 297.293
45.27000 301.195
45.28000 304.294
45.29000 299.729
45.30000 293.255
45.31000 287.626
45.32000 281.259
45.33000 275.726
45.34000 271.223
45.35000 270.551
45.36000 270.241
45.37000 270.864
45.38000 273.805
45.39000 276.856
45.40000 278.771
45.41000 272.033
45.42000 267.067
45.43000 264.692
45.44000 265.121
45.45000 265.523
45.46000 262.603
45.47000 257.380
45.48000 252.277
45.49000 249.740
45.50000 248.444
45.51000 247.361
45.52000 249.063
45.53000 251.627
45.54000 254.183
45.55000 256.679
45.56000 259.163
45.57000 261.248
45.58000 254.395
45.59000 247.751
45.60000 242.640
45.61000 242.225
45.62000 242.136
45.63000 242.769
45.64000 244.880
45.65000 247.035
45.66000 248.281
45.67000 239.744
45.68000 233.729
45.69000 233.508
45.70000 238.325
45.71000 243.096
45.72000 245.412
45.73000 246.330
45.74000 247.215
45.75000 243.041
45.76000 237.308
45.77000 231.501
45.78000 224.982
45.79000 218.282
45.80000 213.693
45.81000 221.512
45.82000 231.357
45.83000 239.295
45.84000 236.120
45.85000 232.667
45.86000 229.001
45.87000 224.796
45.88000 220.565
45.89000 219.909
45.90000 225.312
45.91000 230.813
45.92000 233.703
45.93000 222.046
45.94000 214.176
45.95000 211.449
45.96000 212.355
45.97000 213.212
45.98000 212.553
45.99000 211.180
46.00000 209.881
46.01000 209.996
46.02000 210.511
46.03000 211.756
46.04000 218.526
46.05000 226.442
46.06000 232.902
46.07000 232.466
46.08000 231.140
46.09000 230.120
46.10000 224.461
46.11000 219.717
46.12000 216.635
46.13000 217.033
46.14000 217.540
46.15000 218.140
46.16000 218.870
46.17000 219.600
46.18000 216.425
46.19000 209.790
46.20000 203.255
46.21000 202.482
46.22000 205.051
46.23000 207.604
46.24000 209.834
46.25000 211.940
46.26000 213.891
46.27000 210.659
46.28000 206.541
46.29000 203.576
46.30000 207.537
46.31000 212.654
46.32000 215.399
46.33000 208.971
46.34000 201.630
46.35000 196.268
46.36000 192.569
46.37000 189.783
46.38000 190.057
46.39000 195.618
46.40000 201.271
46.41000 207.792
46.42000 215.293
46.43000 222.767
46.44000 221.846
46.45000 214.936
46.46000 208.072
46.47000 202.686
46.48000 198.009
46.49000 193.822
46.50000 196.471
46.51000 201.315
46.52000 205.694
46.53000 202.961
46.54000 199.234
46.55000 196.055
46.56000 195.524
46.57000 195.343
46.58000 196.066
46.59000 199.667
46.60000 203.482
46.61000 206.106
46.62000 207.049
46.63000 207.716
46.64000 204.901
46.65000 197.151
46.66000 189.369
46.67000 188.102
46.68000 192.740
46.69000 197.331
46.70000 199.710
46.71000 200.757
46.72000 201.683
46.73000 200.116
46.74000 197.561
46.75000 195.127
46.76000 193.933
46.77000 193.068
46.78000 192.308
46.79000 198.504
46.80000 204.847
46.81000 208.935
46.82000 204.131
46.83000 198.418
46.84000 194.880
46.85000 197.056
46.86000 199.533
46.87000 201.124
46.88000 201.627
46.89000 201.980
46.90000 199.051
46.91000 192.339
46.92000 185.668
46.93000 187.141
46.94000 194.604
46.95000 201.920
46.96000 197.834
46.97000 188.546
46.98000 180.194
46.99000 185.317
47.00000 194.849
47.01000 203.312
47.02000 203.261
47.03000 201.373
47.04000 199.771
47.05000 200.421
47.06000 201.222
47.07000 201.610
47.08000 200.659
47.09000 199.606
47.10000 199.101
47.11000 199.786
47.12000 200.512
47.13000 200.942
47.14000 196.485
47.15000 193.304
47.16000 193.279
47.17000 196.176
47.18000 199.021
47.19000 198.352
47.20000 195.565
47.21000 192.868
47.22000 192.501
47.23000 193.041
47.24000 193.592
47.25000 194.253
47.26000 194.942
47.27000 195.304
47.28000 193.609
47.29000 191.556
47.30000 189.879
47.31000 192.008
47.32000 194.076
47.33000 196.009
47.34000 197.579
47.35000 199.129
47.36000 197.330
47.37000 189.525
47.38000 181.600
47.39000 177.312
47.40000 183.956
47.41000 188.500
47.42000 189.735
47.43000 188.485
47.44000 187.249
47.45000 186.482
47.46000 185.948
47.47000 185.439
47.48000 190.187
47.49000 196.207
47.50000 201.454
47.51000 200.406
47.52000 197.972
47.53000 195.239
47.54000 190.999
47.55000 186.549
47.56000 183.074
47.57000 191.096
47.58000 198.219
47.59000 200.055
47.60000 190.193
47.61000 179.907
47.62000 175.872
47.63000 181.051
47.64000 186.314
47.65000 191.006
47.66000 195.157
47.67000 199.233
47.68000 197.904
47.69000 193.254
47.70000 188.779
47.71000 188.207
47.72000 189.238
47.73000 190.201
47.74000 183.570
47.75000 175.673
47.76000 169.962
47.77000 178.293
47.78000 189.123
47.79000 198.378
47.80000 201.165
47.81000 203.255
47.82000 204.806
47.83000 196.619
47.84000 189.829
47.85000 186.026
47.86000 187.685
47.87000 189.460
47.88000 191.242
47.89000 193.034
47.90000 194.820
47.91000 192.776
47.92000 187.828
47.93000 182.995
47.94000 182.429
47.95000 184.024
47.96000 185.580
47.97000 186.533
47.98000 187.283
47.99000 187.966
48.00000 190.648
48.01000 193.422
48.02000 194.981
48.03000 190.281
48.04000 184.693
48.05000 179.525
48.06000 175.770
48.07000 172.130
48.08000 169.580
48.09000 175.352
48.10000 179.957
48.11000 181.804
48.12000 179.507
48.13000 177.168
48.14000 178.620
48.15000 183.738
48.16000 188.816
48.17000 189.179
48.18000 186.634
48.19000 184.281
48.20000 186.391
48.21000 190.370
48.22000 193.673
48.23000 189.389
48.24000 182.980
48.25000 177.303
48.26000 172.723
48.27000 168.932
48.28000 166.839
48.29000 171.852
48.30000 177.652
48.31000 182.860
48.32000 186.424
48.33000 189.893
48.34000 192.167
48.35000 187.759
48.36000 184.407
48.37000 179.838
48.38000 173.778
48.39000 167.741
48.40000 169.007
48.41000 175.978
48.42000 182.833
48.43000 185.105
48.44000 185.013
48.45000 184.815
48.46000 182.939
48.47000 180.482
48.48000 178.252
48.49000 177.971
48.50000 178.136
48.51000 178.278
48.52000 175.148
48.53000 172.102
48.54000 171.015
48.55000 176.649
48.56000 182.846
48.57000 186.387
48.58000 183.827
48.59000 181.025
48.60000 179.323
48.61000 181.775
48.62000 183.557
48.63000 181.800
48.64000 176.545
48.65000 171.349
48.66000 171.141
48.67000 174.119
48.68000 177.013
48.69000 178.518
48.70000 179.387
48.71000 179.938
48.72000 176.814
48.73000 172.643
48.74000 169.921
48.75000 176.942
48.76000 185.773
48.77000 193.069
48.78000 188.388
48.79000 183.409
48.80000 179.269
48.81000 177.502
48.82000 175.879
48.83000 174.302
48.84000 172.813
48.85000 171.325
48.86000 170.498
48.87000 172.783
48.88000 174.369
48.89000 175.349
48.90000 175.848
48.91000 176.357
48.92000 177.265
48.93000 178.383
48.94000 179.453
48.95000 178.290
48.96000 176.473
48.97000 174.767
48.98000 174.040
48.99000 173.541
49.00000 174.008
49.01000 179.660
49.02000 186.083
49.03000 191.167
49.04000 183.792
49.05000 177.001
49.06000 173.931
49.07000 179.567
49.08000 185.562
49.09000 188.903
49.10000 188.095
49.11000 187.237
49.12000 186.807
49.13000 184.052
49.14000 182.193
49.15000 178.499
49.16000 173.609
49.17000 168.957
49.18000 170.257
49.19000 174.144
49.20000 177.793
49.21000 179.581
49.22000 180.717
49.23000 181.714
49.24000 181.752
49.25000 181.609
49.26000 181.591
49.27000 182.115
49.28000 182.702
49.29000 183.145
49.30000 179.956
49.31000 177.281
49.32000 176.298
49.33000 178.588
49.34000 180.962
49.35000 180.678
49.36000 176.998
49.37000 173.311
49.38000 174.970
49.39000 180.958
49.40000 186.770
49.41000 184.890
49.42000 178.888
49.43000 173.109
49.44000 171.124
49.45000 170.503
49.46000 169.933
49.47000 173.075
49.48000 176.666
49.49000 180.034
49.50000 182.177
49.51000 184.135
49.52000 184.286
49.53000 177.998
49.54000 171.138
49.55000 166.246
49.56000 170.222
49.57000 173.544
49.58000 174.668
49.59000 172.290
49.60000 169.866
49.61000 170.893
49.62000 175.483
49.63000 180.046
49.64000 181.091
49.65000 179.819
49.66000 178.603
49.67000 178.859
49.68000 179.768
49.69000 180.682
49.70000 181.675
49.71000 182.690
49.72000 183.597
49.73000 182.177
49.74000 180.547
49.75000 178.486
49.76000 174.515
49.77000 170.316
49.78000 168.447
49.79000 173.422
49.80000 178.841
49.81000 182.468
49.82000 183.793
49.83000 184.730
49.84000 183.737
49.85000 180.227
49.86000 176.713
49.87000 176.467
49.88000 178.936
49.89000 181.371
49.90000 183.262
49.91000 184.812
49.92000 186.130
49.93000 183.370
49.94000 179.116
49.95000 175.954
49.96000 182.889
49.97000 192.282
49.98000 200.418
49.99000 193.616
50.00000 185.854
50.01000 179.505
50.02000 178.289
50.03000 177.542
50.04000 177.320
50.05000 178.376
50.06000 179.489
50.07000 180.182
50.08000 179.841
50.09000 179.585
50.10000 178.782
50.11000 177.401
50.12000 176.018
50.13000 174.469
50.14000 172.807
50.15000 171.186
50.16000 167.864
50.17000 163.957
50.18000 160.636
50.19000 164.714
50.20000 171.028
50.21000 176.602
50.22000 176.845
50.23000 176.034
50.24000 175.355
50.25000 178.377
50.26000 181.261
50.27000 183.986
50.28000 186.236
50.29000 188.454
50.30000 188.949
50.31000 185.984
50.32000 182.922
50.33000 181.170
50.34000 176.839
50.35000 173.811
50.36000 173.946
50.37000 176.764
50.38000 179.536
50.39000 180.074
50.40000 179.368
50.41000 178.688
50.42000 184.007
50.43000 191.088
50.44000 197.653
50.45000 199.315
50.46000 199.760
50.47000 200.338
50.48000 201.672
50.49000 203.126
50.50000 204.293
50.51000 202.439
50.52000 200.709
50.53000 200.631
50.54000 204.641
50.55000 208.843
50.56000 210.561
50.57000 208.167
50.58000 205.710
50.59000 204.436
50.60000 212.086
50.61000 217.219
50.62000 218.375
50.63000 216.784
50.64000 215.396
50.65000 219.852
50.66000 226.995
50.67000 233.742
50.68000 235.005
50.69000 234.613
50.70000 233.930
50.71000 231.108
50.72000 227.854
50.73000 225.025
50.74000 224.163
50.75000 223.546
50.76000 223.075
50.77000 224.767
50.78000 226.222
50.79000 227.502
50.80000 228.428
50.81000 229.344
50.82000 226.120
50.83000 217.277
50.84000 208.408
50.85000 206.697
50.86000 211.174
50.87000 215.629
50.88000 218.935
50.89000 221.588
50.90000 224.075
50.91000 223.419
50.92000 221.567
50.93000 219.855
50.94000 211.910
50.95000 203.360
50.96000 196.724
50.97000 201.282
50.98000 207.659
50.99000 210.422
51.00000 199.528
51.01000 187.318
51.02000 178.459
51.03000 183.537
51.04000 187.958
51.05000 191.180
51.06000 192.375
51.07000 193.537
51.08000 191.444
51.09000 185.768
51.10000 180.113
51.11000 177.190
51.12000 176.199
51.13000 175.243
51.14000 175.299
51.15000 175.829
51.16000 176.251
51.17000 175.225
51.18000 173.745
51.19000 172.411
51.20000 176.614
51.21000 181.303
51.22000 184.540
51.23000 180.915
51.24000 176.408
51.25000 172.807
51.26000 172.024
51.27000 171.443
51.28000 171.046
51.29000 174.355
51.30000 176.917
51.31000 179.164
51.32000 180.977
51.33000 182.785
51.34000 181.188
51.35000 176.582
51.36000 172.026
51.37000 173.711
51.38000 178.879
51.39000 183.610
51.40000 179.739
51.41000 172.537
51.42000 165.841
51.43000 164.218
51.44000 163.904
51.45000 163.629
51.46000 162.221
51.47000 160.853
51.48000 159.603
51.49000 158.804
51.50000 158.050
51.51000 159.428
51.52000 166.279
51.53000 173.407
51.54000 177.943
51.55000 175.572
51.56000 173.762
51.57000 172.938
51.58000 173.223
51.59000 173.512
51.60000 174.262
51.61000 175.345
51.62000 176.404
51.63000 173.265
51.64000 168.324
51.65000 163.591
51.66000 161.729
51.67000 160.785
51.68000 160.245
51.69000 162.823
51.70000 166.058
51.71000 168.792
51.72000 163.642
51.73000 158.467
51.74000 154.984
51.75000 156.858
51.76000 159.129
51.77000 160.552
51.78000 160.176
51.79000 159.741
51.80000 159.486
51.81000 162.907
51.82000 165.338
51.83000 168.397
51.84000 172.025
51.85000 175.541
51.86000 172.337
51.87000 165.172
51.88000 158.250
51.89000 156.623
51.90000 157.057
51.91000 157.835
51.92000 162.147
51.93000 167.388
51.94000 172.057
51.95000 173.234
51.96000 173.817
51.97000 174.291
51.98000 172.095
51.99000 170.082
52.00000 169.153
52.01000 171.062
52.02000 173.120
52.03000 173.050
52.04000 169.249
52.05000 165.380
52.06000 163.310
52.07000 163.922
52.08000 164.331
52.09000 163.090
52.10000 160.639
52.11000 158.244
52.12000 157.697
52.13000 158.048
52.14000 158.382
52.15000 158.691
52.16000 158.969
52.17000 159.436
52.18000 161.393
52.19000 163.671
52.20000 164.793
52.21000 160.230
52.22000 154.901
52.23000 150.762
52.24000 155.139
52.25000 159.135
52.26000 161.809
52.27000 161.619
52.28000 161.331
52.29000 161.263
52.30000 161.509
52.31000 161.757
52.32000 160.703
52.33000 158.448
52.34000 156.226
52.35000 156.182
52.36000 157.444
52.37000 158.775
52.38000 161.560
52.39000 164.930
52.40000 168.066
52.41000 166.305
52.42000 163.527
52.43000 160.824
52.44000 158.593
52.45000 156.443
52.46000 154.698
52.47000 154.573
52.48000 154.619
52.49000 154.652
52.50000 159.006
52.51000 162.561
52.52000 164.785
52.53000 164.631
52.54000 164.429
52.55000 164.306
52.56000 164.275
52.57000 164.244
52.58000 162.910
52.59000 160.619
52.60000 158.383
52.61000 158.055
52.62000 158.673
52.63000 159.104
52.64000 156.797
52.65000 153.580
52.66000 150.657
52.67000 154.542
52.68000 159.291
52.69000 163.692
52.70000 166.341
52.71000 168.748
52.72000 168.648
52.73000 160.294
52.74000 151.294
52.75000 145.034
52.76000 149.005
52.77000 152.276
52.78000 155.721
52.79000 159.420
52.80000 163.122
52.81000 164.432
52.82000 163.487
52.83000 162.551
52.84000 163.474
52.85000 165.494
52.86000 167.378
52.87000 166.224
52.88000 163.826
52.89000 161.409
52.90000 158.776
52.91000 156.085
52.92000 153.710
52.93000 155.110
52.94000 156.897
52.95000 158.695
52.96000 160.541
52.97000 162.393
52.98000 161.955
52.99000 155.298
53.00000 148.292
53.01000 143.736
53.02000 152.577
53.03000 159.264
53.04000 160.965
53.05000 156.696
53.06000 152.439
53.07000 153.426
53.08000 158.414
53.09000 163.314
53.10000 165.441
53.11000 166.146
53.12000 166.619
53.13000 163.571
53.14000 159.332
53.15000 155.778
53.16000 157.924
53.17000 161.346
53.18000 164.269
53.19000 165.614
53.20000 166.560
53.21000 166.985
53.22000 165.662
53.23000 164.199
53.24000 162.977
53.25000 162.298
53.26000 161.640
53.27000 161.243
53.28000 159.638
53.29000 158.488
53.30000 159.009
53.31000 161.139
53.32000 163.257
53.33000 164.455
53.34000 165.077
53.35000 165.681
53.36000 163.441
53.37000 160.190
53.38000 157.469
53.39000 160.667
53.40000 165.515
53.41000 169.197
53.42000 165.259
53.43000 159.939
53.44000 155.565
53.45000 154.755
53.46000 154.412
53.47000 154.663
53.48000 156.557
53.49000 158.546
53.50000 160.796
53.51000 163.527
53.52000 166.269
53.53000 167.778
53.54000 163.079
53.55000 159.839
53.56000 158.654
53.57000 159.066
53.58000 159.489
53.59000 160.342
53.60000 161.415
53.61000 162.439
53.62000 164.499
53.63000 166.745
53.64000 168.670
53.65000 167.863
53.66000 166.431
53.67000 164.778
53.68000 161.965
53.69000 158.984
53.70000 156.637
53.71000 157.644
53.72000 158.675
53.73000 158.881
53.74000 157.199
53.75000 155.442
53.76000 154.651
53.77000 155.334
53.78000 156.033
53.79000 154.485
53.80000 150.727
53.81000 146.996
53.82000 145.530
53.83000 145.505
53.84000 145.517
53.85000 146.391
53.86000 147.633
53.87000 148.795
53.88000 150.055
53.89000 151.225
53.90000 152.348
53.91000 153.149
53.92000 153.890
53.93000 154.804
53.94000 156.451
53.95000 158.181
53.96000 159.478
53.97000 160.005
53.98000 160.380
53.99000 160.870
54.00000 161.578
54.01000 162.291
54.02000 162.243
54.03000 161.247
54.04000 160.250
54.05000 157.806
54.06000 154.231
54.07000 150.790
54.08000 152.907
54.09000 157.935
54.10000 162.463
54.11000 158.827
54.12000 152.323
54.13000 146.370
54.14000 149.966
54.15000 155.143
54.16000 159.469
54.17000 159.248
54.18000 158.355
54.19000 157.758
54.20000 158.197
54.21000 158.725
54.22000 159.098
54.23000 162.062
54.24000 164.394
54.25000 166.270
54.26000 167.432
54.27000 168.587
54.28000 167.341
54.29000 163.681
54.30000 160.045
54.31000 158.593
54.32000 158.557
54.33000 158.500
54.34000 157.919
54.35000 157.111
54.36000 156.242
54.37000 154.649
54.38000 152.847
54.39000 151.242
54.40000 149.046
54.41000 147.040
54.42000 145.293
54.43000 144.664
54.44000 144.165
54.45000 144.772
54.46000 148.557
54.47000 152.541
54.48000 155.187
54.49000 156.896
54.50000 158.142
54.51000 158.706
54.52000 158.402
54.53000 158.096
54.54000 158.139
54.55000 158.465
54.56000 158.786
54.57000 160.748
54.58000 163.502
54.59000 166.122
54.60000 166.492
54.61000 166.056
54.62000 165.324
54.63000 161.928
54.64000 157.898
54.65000 154.422
54.66000 153.044
54.67000 152.145
54.68000 151.477
54.69000 151.628
54.70000 151.851
54.71000 154.074
54.72000 161.050
54.73000 168.228
54.74000 172.654
54.75000 165.770
54.76000 160.725
54.77000 157.550
54.78000 156.295
54.79000 155.054
54.80000 155.136
54.81000 156.093
54.82000 157.026
54.83000 159.537
54.84000 162.596
54.85000 165.372
54.86000 164.711
54.87000 163.033
54.88000 161.569
54.89000 161.603
54.90000 161.926
54.91000 162.195
54.92000 164.034
54.93000 165.711
54.94000 166.115
54.95000 162.793
54.96000 159.230
54.97000 155.932
54.98000 153.152
54.99000 150.387
55.00000 148.821
55.01000 151.232
55.02000 152.926
55.03000 157.117
55.04000 163.374
55.05000 169.557
55.06000 172.343
55.07000 173.282
55.08000 174.183
55.09000 173.600
55.10000 172.548
55.11000 171.655
55.12000 172.232
55.13000 173.164
55.14000 174.002
55.15000 174.318
55.16000 174.552
55.17000 174.739
55.18000 174.084
55.19000 173.494
55.20000 171.962
55.21000 168.152
55.22000 164.241
55.23000 164.457
55.24000 171.356
55.25000 178.347
55.26000 181.928
55.27000 182.561
55.28000 182.957
55.29000 180.256
55.30000 175.467
55.31000 170.863
55.32000 171.322
55.33000 174.056
55.34000 176.632
55.35000 177.163
55.36000 177.084
55.37000 177.065
55.38000 177.472
55.39000 177.963
55.40000 180.375
55.41000 191.461
55.42000 203.604
55.43000 212.843
55.44000 210.969
55.45000 208.911
55.46000 207.081
55.47000 205.709
55.48000 204.349
55.49000 204.846
55.50000 207.804
55.51000 210.771
55.52000 216.584
55.53000 224.781
55.54000 232.904
55.55000 237.377
55.56000 239.825
55.57000 242.525
55.58000 249.772
55.59000 258.709
55.60000 266.948
55.61000 273.184
55.62000 278.325
55.63000 285.392
55.64000 303.442
55.65000 323.230
55.66000 341.523
55.67000 354.294
55.68000 366.549
55.69000 375.381
55.70000 400.534
55.71000 420.385
55.72000 441.293
55.73000 463.948
55.74000 486.628
55.75000 507.358
55.76000 525.995
55.77000 544.539
55.78000 565.673
55.79000 588.324
55.80000 611.202
55.81000 640.551
55.82000 672.865
55.83000 704.520
55.84000 727.663
55.85000 748.193
55.86000 766.631
55.87000 781.444
55.88000 793.766
55.89000 807.828
55.90000 829.908
55.91000 852.990
55.92000 872.133
55.93000 879.302
55.94000 885.646
55.95000 889.942
55.96000 887.600
55.97000 885.708
55.98000 887.961
55.99000 895.818
56.00000 903.683
56.01000 895.301
56.02000 872.909
56.03000 850.787
56.04000 836.074
56.05000 825.812
56.06000 815.311
56.07000 800.301
56.08000 783.583
56.09000 765.883
56.10000 738.650
56.11000 709.012
56.12000 683.188
56.13000 655.151
56.14000 630.888
56.15000 608.688
56.16000 594.255
56.17000 580.567
56.18000 564.857
56.19000 544.069
56.20000 523.037
56.21000 509.769
56.22000 486.220
56.23000 469.049
56.24000 452.149
56.25000 435.548
56.26000 418.974
56.27000 405.934
56.28000 395.374
56.29000 385.050
56.30000 367.848
56.31000 348.280
56.32000 328.862
56.33000 311.446
56.34000 294.656
56.35000 279.173
56.36000 273.509
56.37000 269.862
56.38000 266.794
56.39000 261.676
56.40000 257.189
56.41000 252.357
56.42000 246.458
56.43000 240.483
56.44000 232.621
56.45000 220.841
56.46000 208.939
56.47000 202.022
56.48000 199.088
56.49000 197.046
56.50000 195.569
56.51000 194.588
56.52000 193.595
56.53000 191.853
56.54000 189.682
56.55000 187.588
56.56000 186.675
56.57000 186.246
56.58000 185.607
56.59000 182.874
56.60000 179.602
56.61000 176.608
56.62000 175.264
56.63000 174.194
56.64000 173.329
56.65000 173.432
56.66000 173.594
56.67000 174.141
56.68000 175.675
56.69000 177.259
56.70000 178.020
56.71000 177.372
56.72000 176.699
56.73000 176.344
56.74000 170.731
56.75000 166.947
56.76000 167.694
56.77000 171.685
56.78000 175.427
56.79000 171.402
56.80000 163.685
56.81000 156.370
56.82000 156.999
56.83000 159.912
56.84000 162.222
56.85000 159.894
56.86000 156.592
56.87000 153.896
56.88000 154.105
56.89000 154.694
56.90000 155.149
56.91000 153.992
56.92000 152.981
56.93000 154.293
56.94000 160.526
56.95000 166.919
56.96000 166.624
56.97000 156.920
56.98000 147.155
56.99000 143.540
57.00000 145.456
57.01000 147.355
57.02000 148.212
57.03000 148.458
57.04000 148.825
57.05000 151.666
57.06000 155.479
57.07000 159.018
57.08000 154.159
57.09000 147.795
57.10000 142.598
57.11000 144.510
57.12000 147.624
57.13000 150.138
57.14000 150.299
57.15000 150.222
57.16000 150.165
57.17000 153.241
57.18000 155.742
57.19000 155.292
57.20000 149.687
57.21000 143.986
57.22000 140.720
57.23000 140.238
57.24000 139.760
57.25000 143.591
57.26000 150.507
57.27000 157.193
57.28000 156.297
57.29000 151.728
57.30000 147.210
57.31000 143.411
57.32000 139.844
57.33000 136.615
57.34000 138.430
57.35000 140.980
57.36000 142.951
57.37000 142.077
57.38000 140.822
57.39000 140.459
57.40000 142.964
57.41000 145.687
57.42000 147.566
57.43000 149.355
57.44000 150.697
57.45000 150.234
57.46000 147.179
57.47000 144.106
57.48000 145.538
57.49000 151.109
57.50000 156.625
57.51000 154.832
57.52000 148.792
57.53000 143.046
57.54000 143.461
57.55000 146.345
57.56000 148.798
57.57000 146.719
57.58000 143.428
57.59000 140.534
57.60000 142.499
57.61000 144.914
57.62000 146.560
57.63000 145.136
57.64000 143.394
57.65000 141.945
57.66000 141.278
57.67000 140.653
57.68000 140.250
57.69000 143.040
57.70000 145.123
57.71000 143.741
57.72000 138.312
57.73000 132.907
57.74000 133.243
57.75000 137.853
57.76000 142.376
57.77000 143.968
57.78000 144.110
57.79000 144.293
57.80000 145.082
57.81000 146.072
57.82000 146.701
57.83000 144.415
57.84000 141.491
57.85000 139.005
57.86000 143.411
57.87000 147.908
57.88000 150.561
57.89000 147.166
57.90000 143.300
57.91000 140.883
57.92000 141.654
57.93000 142.539
57.94000 143.066
57.95000 145.655
57.96000 147.501
57.97000 145.989
57.98000 141.325
57.99000 136.734
58.00000 137.275
58.01000 140.946
58.02000 144.502
58.03000 148.020
58.04000 151.333
58.05000 154.030
58.06000 150.062
58.07000 144.278
58.08000 139.513
58.09000 141.240
58.10000 144.114
58.11000 146.466
58.12000 144.168
58.13000 141.878
58.14000 141.008
58.15000 143.979
58.16000 147.164
58.17000 149.138
58.18000 148.914
58.19000 148.644
58.20000 148.498
58.21000 143.694
58.22000 140.405
58.23000 140.164
58.24000 142.239
58.25000 144.294
58.26000 145.635
58.27000 146.617
58.28000 147.554
58.29000 143.233
58.30000 137.584
58.31000 132.377
58.32000 130.828
58.33000 130.095
58.34000 130.304
58.35000 135.324
58.36000 141.021
58.37000 145.483
58.38000 137.172
58.39000 129.713
58.40000 125.099
58.41000 126.855
58.42000 128.849
58.43000 130.239
58.44000 130.729
58.45000 131.211
58.46000 132.422
58.47000 134.332
58.48000 136.213
58.49000 135.927
58.50000 134.293
58.51000 132.684
58.52000 131.660
58.53000 130.878
58.54000 130.148
58.55000 135.030
58.56000 140.873
58.57000 146.089
58.58000 147.225
58.59000 147.624
58.60000 146.866
58.61000 141.304
58.62000 135.216
58.63000 130.681
58.64000 134.688
58.65000 138.191
58.66000 139.846
58.67000 138.082
58.68000 136.242
58.69000 136.404
58.70000 139.001
58.71000 141.599
58.72000 141.372
58.73000 138.970
58.74000 136.627
58.75000 136.546
58.76000 137.626
58.77000 138.508
58.78000 136.309
58.79000 133.052
58.80000 130.079
58.81000 133.224
58.82000 137.248
58.83000 140.693
58.84000 141.118
58.85000 141.108
58.86000 141.175
58.87000 141.500
58.88000 141.847
58.89000 142.092
58.90000 134.059
58.91000 127.728
58.92000 124.676
58.93000 126.613
58.94000 128.602
58.95000 131.617
58.96000 135.640
58.97000 139.632
58.98000 139.060
58.99000 135.653
59.00000 132.303
59.01000 130.307
59.02000 128.884
59.03000 127.418
59.04000 125.467
59.05000 123.377
59.06000 121.523
59.07000 128.822
59.08000 136.610
59.09000 141.989
59.10000 137.161
59.11000 131.186
59.12000 127.749
59.13000 131.447
59.14000 135.573
59.15000 138.290
59.16000 141.681
59.17000 144.191
59.18000 144.152
59.19000 140.948
59.20000 137.736
59.21000 135.017
59.22000 132.688
59.23000 130.397
59.24000 133.865
59.25000 140.138
59.26000 145.903
59.27000 143.438
59.28000 138.090
59.29000 133.648
59.30000 137.086
59.31000 142.354
59.32000 146.880
59.33000 150.011
59.34000 152.486
59.35000 152.405
59.36000 143.449
59.37000 133.737
59.38000 128.170
59.39000 132.235
59.40000 136.690
59.41000 139.412
59.42000 132.711
59.43000 127.842
59.44000 126.876
59.45000 129.819
59.46000 132.762
59.47000 135.576
59.48000 138.307
59.49000 140.964
59.50000 140.236
59.51000 138.154
59.52000 136.125
59.53000 134.730
59.54000 133.517
59.55000 132.562
59.56000 133.358
59.57000 134.485
59.58000 135.418
59.59000 137.297
59.60000 138.938
59.61000 140.020
59.62000 139.504
59.63000 138.888
59.64000 138.987
59.65000 140.457
59.66000 141.962
59.67000 142.804
59.68000 137.197
59.69000 133.305
59.70000 132.211
59.71000 133.376
59.72000 134.534
59.73000 135.431
59.74000 136.189
59.75000 136.915
59.76000 136.230
59.77000 135.121
59.78000 134.278
59.79000 135.813
59.80000 137.910
59.81000 138.953
59.82000 134.253
59.83000 128.688
59.84000 124.270
59.85000 126.978
59.86000 129.662
59.87000 132.200
59.88000 134.394
59.89000 136.575
59.90000 135.896
59.91000 130.693
59.92000 125.435
59.93000 122.774
59.94000 125.452
59.95000 127.247
59.96000 129.219
59.97000 131.309
59.98000 133.339
59.99000 133.825
60.00000 133.631
60.01000 133.449
60.02000 134.284
60.03000 135.319
60.04000 135.941
60.05000 133.676
60.06000 130.856
60.07000 128.423
60.08000 127.701
60.09000 127.181
60.10000 126.788
60.11000 124.277
60.12000 122.201
60.13000 121.678
60.14000 124.193
60.15000 126.788
60.16000 128.260
60.17000 128.277
60.18000 128.289
60.19000 129.501
60.20000 131.694
60.21000 133.843
60.22000 134.001
60.23000 133.080
60.24000 132.190
60.25000 131.859
60.26000 131.730
60.27000 131.612
60.28000 131.099
60.29000 130.555
60.30000 130.308
60.31000 131.706
60.32000 133.359
60.33000 134.342
60.34000 132.909
60.35000 131.259
60.36000 130.077
60.37000 131.019
60.38000 131.810
60.39000 131.244
60.40000 128.490
60.41000 125.707
60.42000 126.460
60.43000 130.912
60.44000 135.340
60.45000 137.979
60.46000 139.397
60.47000 140.807
60.48000 141.987
60.49000 143.065
60.50000 143.852
60.51000 141.013
60.52000 137.086
60.53000 133.571
60.54000 132.817
60.55000 132.632
60.56000 132.636
60.57000 133.487
60.58000 134.442
60.59000 133.786
60.60000 128.344
60.61000 122.585
60.62000 118.715
60.63000 122.915
60.64000 126.200
60.65000 127.144
60.66000 124.995
60.67000 122.836
60.68000 123.269
60.69000 125.884
60.70000 128.464
60.71000 131.837
60.72000 135.546
60.73000 139.003
60.74000 137.915
60.75000 135.143
60.76000 132.726
60.77000 133.649
60.78000 135.395
60.79000 136.911
60.80000 132.259
60.81000 127.467
60.82000 124.491
60.83000 128.194
60.84000 132.518
60.85000 135.077
60.86000 133.301
60.87000 131.325
60.88000 130.090
60.89000 133.350
60.90000 135.750
60.91000 136.275
60.92000 134.796
60.93000 133.324
60.94000 132.726
60.95000 132.728
60.96000 132.729
60.97000 130.754
60.98000 128.001
60.99000 125.686
61.00000 129.002
61.01000 134.041
61.02000 137.970
61.03000 133.790
61.04000 127.983
61.05000 123.118
61.06000 124.561
61.07000 126.412
61.08000 129.655
61.09000 137.117
61.10000 144.867
61.11000 149.211
61.12000 146.635
61.13000 143.857
61.14000 142.259
61.15000 140.990
61.16000 140.103
61.17000 139.492
61.18000 139.118
61.19000 138.741
61.20000 138.167
61.21000 137.482
61.22000 136.824
61.23000 137.926
61.24000 139.584
61.25000 140.838
61.26000 138.183
61.27000 134.546
61.28000 131.590
61.29000 132.589
61.30000 134.225
61.31000 135.541
61.32000 138.101
61.33000 140.274
61.34000 141.782
61.35000 141.629
61.36000 141.397
61.37000 140.743
61.38000 139.384
61.39000 138.013
61.40000 137.297
61.41000 140.115
61.42000 142.008
61.43000 142.046
61.44000 140.787
61.45000 139.570
61.46000 139.623
61.47000 140.266
61.48000 140.874
61.49000 145.021
61.50000 149.845
61.51000 154.418
61.52000 157.105
61.53000 159.407
61.54000 163.774
61.55000 177.817
61.56000 193.091
61.57000 204.818
61.58000 214.796
61.59000 222.585
61.60000 231.154
61.61000 241.337
61.62000 251.569
61.63000 255.206
61.64000 249.779
61.65000 244.300
61.66000 247.155
61.67000 257.306
61.68000 267.422
61.69000 275.627
61.70000 282.737
61.71000 289.449
61.72000 288.474
61.73000 284.543
61.74000 280.904
61.75000 267.023
61.76000 252.186
61.77000 238.261
61.78000 229.747
61.79000 222.124
61.80000 214.173
61.81000 204.966
61.82000 195.636
61.83000 188.843
61.84000 177.644
61.85000 168.854
61.86000 162.404
61.87000 159.954
61.88000 157.572
61.89000 155.521
61.90000 153.841
61.91000 152.167
61.92000 150.103
61.93000 147.782
61.94000 145.445
61.95000 142.596
61.96000 139.505
61.97000 136.722
61.98000 138.169
61.99000 140.959
62.00000 143.478
62.01000 139.727
62.02000 135.280
62.03000 131.154
62.04000 128.562
62.05000 126.171
62.06000 125.432
62.07000 129.896
62.08000 134.739
62.09000 138.058
62.10000 135.236
62.11000 132.974
62.12000 133.145
62.13000 136.725
62.14000 140.327
62.15000 142.157
62.16000 142.399
62.17000 142.639
62.18000 143.414
62.19000 144.478
62.20000 145.513
62.21000 145.952
62.22000 146.158
62.23000 146.228
62.24000 144.913
62.25000 143.237
62.26000 141.769
62.27000 138.367
62.28000 135.169
62.29000 133.140
62.30000 135.671
62.31000 138.662
62.32000 140.324
62.33000 138.532
62.34000 136.562
62.35000 135.303
62.36000 139.383
62.37000 142.424
62.38000 142.807
62.39000 140.164
62.40000 137.517
62.41000 134.587
62.42000 131.451
62.43000 128.379
62.44000 132.260
62.45000 139.220
62.46000 145.945
62.47000 149.346
62.48000 151.671
62.49000 153.609
62.50000 152.500
62.51000 150.742
62.52000 149.253
62.53000 148.078
62.54000 147.129
62.55000 145.682
62.56000 142.642
62.57000 139.483
62.58000 137.417
62.59000 137.703
62.60000 138.068
62.61000 138.284
62.62000 144.795
62.63000 149.426
62.64000 150.519
62.65000 148.375
62.66000 146.275
62.67000 146.996
62.68000 149.397
62.69000 151.719
62.70000 147.354
62.71000 140.715
62.72000 134.492
62.73000 132.618
62.74000 131.902
62.75000 131.810
62.76000 135.582
62.77000 140.019
62.78000 143.633
62.79000 140.841
62.80000 138.018
62.81000 136.631
62.82000 139.044
62.83000 141.660
62.84000 143.744
62.85000 144.884
62.86000 146.006
62.87000 146.610
62.88000 144.519
62.89000 143.088
62.90000 141.866
62.91000 140.799
62.92000 139.732
62.93000 138.682
62.94000 137.640
62.95000 136.649
62.96000 138.705
62.97000 141.536
62.98000 143.966
62.99000 143.169
63.00000 141.669
63.01000 140.844
63.02000 143.379
63.03000 146.373
63.04000 148.705
63.05000 151.582
63.06000 153.907
63.07000 154.581
63.08000 151.640
63.09000 148.571
63.10000 145.860
63.11000 143.670
63.12000 141.484
63.13000 140.935
63.14000 141.914
63.15000 142.842
63.16000 140.348
63.17000 135.774
63.18000 131.639
63.19000 137.067
63.20000 146.384
63.21000 155.066
63.22000 155.506
63.23000 153.878
63.24000 152.799
63.25000 155.191
63.26000 158.193
63.27000 159.841
63.28000 155.990
63.29000 151.556
63.30000 148.274
63.31000 150.635
63.32000 152.711
63.33000 153.021
63.34000 150.141
63.35000 147.195
63.36000 146.091
63.37000 147.176
63.38000 148.261
63.39000 147.543
63.40000 145.475
63.41000 143.473
63.42000 143.896
63.43000 145.533
63.44000 146.999
63.45000 145.896
63.46000 143.929
63.47000 142.140
63.48000 146.187
63.49000 150.913
63.50000 154.905
63.51000 155.156
63.52000 154.884
63.53000 153.577
63.54000 148.821
63.55000 143.789
63.56000 140.275
63.57000 143.438
63.58000 146.012
63.59000 148.091
63.60000 149.434
63.61000 150.770
63.62000 150.401
63.63000 148.402
63.64000 146.421
63.65000 146.042
63.66000 146.645
63.67000 147.181
63.68000 146.200
63.69000 144.591
63.70000 143.434
63.71000 147.285
63.72000 152.522
63.73000 157.153
63.74000 153.739
63.75000 149.540
63.76000 145.308
63.77000 140.938
63.78000 136.553
63.79000 135.449
63.80000 143.364
63.81000 151.797
63.82000 157.305
63.83000 156.192
63.84000 155.270
63.85000 153.933
63.86000 152.093
63.87000 150.248
63.88000 147.108
63.89000 142.969
63.90000 138.900
63.91000 140.456
63.92000 144.735
63.93000 148.895
63.94000 151.208
63.95000 152.888
63.96000 154.552
63.97000 156.092
63.98000 157.603
63.99000 158.896
64.00000 154.476
64.01000 150.057
64.02000 146.713
64.03000 147.020
64.04000 147.629
64.05000 148.082
64.06000 148.183
64.07000 148.270
64.08000 148.323
64.09000 151.586
64.10000 153.935
64.11000 155.687
64.12000 156.855
64.13000 157.994
64.14000 156.739
64.15000 153.973
64.16000 151.287
64.17000 152.127
64.18000 154.338
64.19000 156.431
64.20000 157.196
64.21000 157.586
64.22000 157.576
64.23000 154.912
64.24000 151.761
64.25000 149.164
64.26000 149.073
64.27000 149.230
64.28000 149.775
64.29000 151.409
64.30000 153.109
64.31000 156.018
64.32000 161.201
64.33000 166.437
64.34000 169.336
64.35000 168.070
64.36000 167.185
64.37000 165.563
64.38000 163.360
64.39000 161.105
64.40000 156.747
64.41000 151.296
64.42000 146.085
64.43000 150.175
64.44000 157.001
64.45000 163.013
64.46000 161.980
64.47000 159.317
64.48000 157.728
64.49000 161.834
64.50000 166.775
64.51000 170.676
64.52000 169.733
64.53000 168.647
64.54000 167.281
64.55000 165.270
64.56000 163.232
64.57000 161.180
64.58000 159.104
64.59000 157.027
64.60000 158.321
64.61000 162.977
64.62000 167.613
64.63000 170.534
64.64000 172.352
64.65000 174.045
64.66000 172.693
64.67000 170.030
64.68000 167.532
64.69000 167.610
64.70000 168.355
64.71000 169.411
64.72000 172.579
64.73000 176.142
64.74000 179.207
64.75000 180.129
64.76000 180.805
64.77000 181.314
64.78000 178.511
64.79000 176.160
64.80000 174.027
64.81000 172.309
64.82000 170.601
64.83000 171.332
64.84000 175.141
64.85000 178.954
64.86000 178.556
64.87000 174.787
64.88000 171.157
64.89000 173.453
64.90000 178.891
64.91000 183.940
64.92000 182.516
64.93000 178.790
64.94000 175.375
64.95000 182.294
64.96000 190.627
64.97000 197.845
64.98000 199.024
64.99000 199.296
65.00000 198.813
65.01000 195.667
65.02000 192.289
65.03000 189.888
65.04000 190.005
65.05000 190.175
65.06000 191.704
65.07000 195.376
65.08000 199.074
65.09000 201.098
65.10000 201.417
65.11000 201.733
65.12000 200.475
65.13000 198.217
65.14000 196.225
65.15000 201.073
65.16000 208.918
65.17000 216.456
65.18000 220.295
65.19000 223.048
65.20000 225.505
65.21000 232.011
65.22000 238.347
65.23000 242.746
65.24000 238.632
65.25000 233.518
65.26000 231.205
65.27000 237.038
65.28000 243.390
65.29000 247.625
65.30000 249.484
65.31000 250.815
65.32000 254.681
65.33000 261.812
65.34000 268.942
65.35000 270.116
65.36000 266.401
65.37000 262.738
65.38000 271.005
65.39000 285.296
65.40000 298.924
65.41000 301.118
65.42000 299.169
65.43000 297.934
65.44000 303.207
65.45000 310.047
65.46000 315.960
65.47000 321.898
65.48000 326.948
65.49000 330.516
65.50000 328.762
65.51000 326.529
65.52000 328.050
65.53000 338.589
65.54000 349.524
65.55000 356.298
65.56000 358.942
65.57000 360.804
65.58000 367.368
65.59000 378.832
65.60000 390.216
65.61000 393.299
65.62000 390.824
65.63000 388.411
65.64000 398.674
65.65000 413.872
65.66000 429.516
65.67000 450.709
65.68000 473.561
65.69000 497.802
65.70000 531.917
65.71000 567.963
65.72000 598.023
65.73000 646.949
65.74000 689.401
65.75000 733.487
65.76000 782.410
65.77000 831.652
65.78000 882.150
65.79000 935.142
65.80000 988.202
65.81000 1018.403
65.82000 1047.161
65.83000 1067.181
65.84000 1076.690
65.85000 1077.390
65.86000 1078.005
65.87000 1074.569
65.88000 1068.902
65.89000 1063.458
65.90000 1062.569
65.91000 1063.312
65.92000 1061.388
65.93000 1034.513
65.94000 1001.515
65.95000 963.764
65.96000 899.122
65.97000 830.259
65.98000 775.158
65.99000 704.297
66.00000 645.824
66.01000 591.248
66.02000 546.212
66.03000 501.610
66.04000 460.221
66.05000 424.092
66.06000 388.038
66.07000 369.445
66.08000 361.602
66.09000 356.317
66.10000 350.658
66.11000 344.745
66.12000 338.747
66.13000 330.368
66.14000 320.907
66.15000 311.981
66.16000 303.678
66.17000 296.241
66.18000 289.719
66.19000 289.845
66.20000 291.298
66.21000 294.651
66.22000 306.691
66.23000 319.805
66.24000 329.815
66.25000 334.015
66.26000 337.013
66.27000 342.800
66.28000 354.234
66.29000 365.831
66.30000 378.638
66.31000 393.071
66.32000 407.500
66.33000 419.760
66.34000 430.142
66.35000 440.293
66.36000 438.724
66.37000 430.577
66.38000 423.094
66.39000 427.891
66.40000 437.307
66.41000 445.999
66.42000 439.659
66.43000 430.602
66.44000 422.826
66.45000 422.463
66.46000 423.288
66.47000 423.447
66.48000 421.115
66.49000 418.547
66.50000 416.689
66.51000 409.819
66.52000 404.364
66.53000 394.580
66.54000 377.568
66.55000 360.444
66.56000 346.981
66.57000 337.498
66.58000 328.060
66.59000 320.536
66.60000 314.411
66.61000 308.426
66.62000 306.543
66.63000 306.562
66.64000 307.067
66.65000 313.995
66.66000 322.919
66.67000 330.947
66.68000 328.906
66.69000 325.320
66.70000 320.850
66.71000 312.256
66.72000 303.139
66.73000 295.896
66.74000 294.418
66.75000 293.345
66.76000 292.616
66.77000 300.173
66.78000 306.003
66.79000 310.655
66.80000 313.693
66.81000 316.718
66.82000 315.894
66.83000 311.709
66.84000 307.572
66.85000 308.129
66.86000 311.293
66.87000 314.374
66.88000 315.859
66.89000 316.732
66.90000 317.705
66.91000 319.668
66.92000 321.884
66.93000 323.819
66.94000 325.465
66.95000 326.834
66.96000 327.306
66.97000 324.363
66.98000 321.087
66.99000 320.018
67.00000 324.558
67.01000 329.375
67.02000 332.427
67.03000 330.160
67.04000 328.451
67.05000 331.733
67.06000 340.559
67.07000 349.322
67.08000 348.606
67.09000 341.159
67.10000 333.873
67.11000 335.738
67.12000 341.675
67.13000 347.330
67.14000 349.153
67.15000 349.763
67.16000 350.034
67.17000 347.726
67.18000 344.880
67.19000 342.480
67.20000 353.824
67.21000 364.787
67.22000 373.461
67.23000 374.956
67.24000 375.931
67.25000 374.081
67.26000 366.296
67.27000 358.322
67.28000 353.662
67.29000 365.265
67.30000 373.499
67.31000 374.964
67.32000 370.390
67.33000 365.943
67.34000 368.943
67.35000 376.283
67.36000 383.368
67.37000 380.767
67.38000 374.755
67.39000 369.954
67.40000 377.416
67.41000 388.070
67.42000 396.554
67.43000 391.933
67.44000 385.115
67.45000 379.589
67.46000 395.698
67.47000 410.588
67.48000 419.311
67.49000 412.068
67.50000 404.008
67.51000 401.845
67.52000 409.911
67.53000 418.160
67.54000 422.546
67.55000 419.836
67.56000 417.987
67.57000 416.186
67.58000 414.418
67.59000 412.748
67.60000 414.224
67.61000 417.212
67.62000 420.048
67.63000 418.225
67.64000 415.158
67.65000 413.233
67.66000 420.237
67.67000 429.138
67.68000 436.479
67.69000 436.236
67.70000 434.984
67.71000 434.014
67.72000 436.477
67.73000 438.637
67.74000 437.784
67.75000 430.478
67.76000 422.957
67.77000 421.645
67.78000 429.175
67.79000 436.769
67.80000 447.930
67.81000 462.330
67.82000 476.524
67.83000 477.797
67.84000 471.394
67.85000 465.160
67.86000 462.417
67.87000 461.063
67.88000 459.805
67.89000 472.027
67.90000 486.286
67.91000 497.911
67.92000 493.280
67.93000 485.861
67.94000 479.779
67.95000 478.990
67.96000 478.747
67.97000 478.568
67.98000 488.262
67.99000 496.165
68.00000 502.019
68.01000 504.247
68.02000 506.407
68.03000 507.623
68.04000 507.748
68.05000 507.871
68.06000 509.453
68.07000 512.093
68.08000 514.774
68.09000 518.852
68.10000 523.616
68.11000 528.235
68.12000 530.748
68.13000 532.569
68.14000 534.221
68.15000 538.764
68.16000 543.325
68.17000 548.088
68.18000 553.858
68.19000 559.765
68.20000 565.459
68.21000 570.457
68.22000 575.401
68.23000 578.828
68.24000 574.575
68.25000 571.170
68.26000 574.851
68.27000 588.823
68.28000 602.878
68.29000 608.694
68.30000 606.839
68.31000 605.002
68.32000 609.219
68.33000 616.946
68.34000 624.366
68.35000 625.181
68.36000 623.320
68.37000 622.153
68.38000 628.415
68.39000 636.688
68.40000 643.978
68.41000 656.715
68.42000 668.515
68.43000 677.408
68.44000 674.562
68.45000 670.474
68.46000 672.350
68.47000 690.253
68.48000 709.040
68.49000 721.208
68.50000 720.140
68.51000 719.162
68.52000 728.055
68.53000 748.626
68.54000 769.206
68.55000 787.307
68.56000 803.541
68.57000 819.476
68.58000 846.480
68.59000 877.862
68.60000 908.900
68.61000 934.790
68.62000 958.956
68.63000 984.743
68.64000 1023.829
68.65000 1065.858
68.66000 1101.683
68.67000 1174.432
68.68000 1239.958
68.69000 1299.021
68.70000 1336.640
68.71000 1372.554
68.72000 1418.400
68.73000 1486.321
68.74000 1555.050
68.75000 1596.233
68.76000 1676.465
68.77000 1733.695
68.78000 1785.208
68.79000 1831.283
68.80000 1877.289
68.81000 1918.299
68.82000 1956.224
68.83000 1992.990
68.84000 2112.506
68.85000 2258.061
68.86000 2408.151
68.87000 2608.163
68.88000 2821.949
68.89000 3066.761
68.90000 3511.859
68.91000 3992.807
68.92000 4387.394
68.93000 5965.854
68.94000 7366.637
68.95000 9181.028
68.96000 12128.021
68.97000 15139.704
68.98000 18598.619
68.99000 22878.777
69.00000 27176.674
69.01000 29530.051
69.02000 35615.770
69.03000 39802.020
69.04000 43106.180
69.05000 45731.762
69.06000 48328.098
69.07000 49821.926
69.08000 50754.828
69.09000 51644.844
69.10000 52107.309
69.11000 52401.125
69.12000 52710.453
69.13000 53150.223
69.14000 53619.441
69.15000 54126.656
69.16000 54830.496
69.17000 55562.391
69.18000 56137.188
69.19000 55520.227
69.20000 54948.484
69.21000 53799.832
69.22000 51344.719
69.23000 48839.582
69.24000 46012.723
69.25000 42699.906
69.26000 39382.242
69.27000 36664.957
69.28000 34531.332
69.29000 32405.096
69.30000 30859.346
69.31000 29678.920
69.32000 28513.939
69.33000 27710.033
69.34000 27057.998
69.35000 26448.012
69.36000 25712.357
69.37000 25011.936
69.38000 24216.158
69.39000 22790.768
69.40000 21250.246
69.41000 19582.201
69.42000 17377.990
69.43000 15114.096
69.44000 13422.603
69.45000 10882.021
69.46000 8862.293
69.47000 7138.201
69.48000 5967.324
69.49000 4809.126
69.50000 3911.915
69.51000 3336.420
69.52000 2762.928
69.53000 2374.525
69.54000 2132.657
69.55000 1893.135
69.56000 1746.966
69.57000 1649.194
69.58000 1552.121
69.59000 1466.238
69.60000 1384.245
69.61000 1309.315
69.62000 1258.193
69.63000 1217.655
69.64000 1176.688
69.65000 1133.451
69.66000 1089.883
69.67000 1050.766
69.68000 1026.994
69.69000 1004.515
69.70000 988.649
69.71000 959.557
69.72000 937.078
69.73000 912.641
69.74000 885.189
69.75000 857.704
69.76000 837.080
69.77000 823.272
69.78000 809.562
69.79000 805.739
69.80000 808.220
69.81000 810.133
69.82000 798.215
69.83000 780.370
69.84000 762.892
69.85000 749.684
69.86000 737.701
69.87000 727.047
69.88000 718.803
69.89000 712.039
69.90000 703.336
69.91000 686.311
69.92000 668.337
69.93000 655.907
69.94000 659.239
69.95000 663.536
69.96000 666.378
69.97000 653.534
69.98000 643.775
69.99000 639.119
70.00000 640.884
