0.30000 354528.813
0.30040 358692.781
0.30080 352528.969
0.30120 355263.719
0.30160 353123.781
0.30200 352707.281
0.30240 354866.938
0.30280 349351.656
0.30320 350661.938
0.30360 354359.625
0.30400 347875.500
0.30440 351467.313
0.30480 350175.688
0.30520 350668.375
0.30560 351476.031
0.30600 347695.438
0.30640 350498.813
0.30680 347397.906
0.30720 349150.969
0.30760 347652.438
0.30800 344900.500
0.30840 347530.250
0.30880 344455.375
0.30920 346960.375
0.30960 344914.125
0.31000 345626.094
0.31040 348240.313
0.31080 342586.219
0.31120 348129.094
0.31160 343651.750
0.31200 345740.594
0.31240 347592.125
0.31280 339036.781
0.31320 340581.219
0.31360 338939.469
0.31400 345209.313
0.31440 340505.031
0.31480 340149.500
0.31520 344185.406
0.31560 338914.594
0.31600 342354.125
0.31640 339064.094
0.31680 338427.188
0.31720 336223.031
0.31760 339473.813
0.31800 341242.844
0.31840 335507.125
0.31880 338498.438
0.31920 337744.281
0.31960 334571.156
0.32000 336699.125
0.32040 332510.469
0.32080 337846.969
0.32120 334127.563
0.32160 336170.219
0.32200 338376.000
0.32240 331137.781
0.32280 334144.656
0.32320 331152.219
0.32360 334140.813
0.32400 332113.813
0.32440 330018.094
0.32480 335378.125
0.32520 331408.625
0.32560 333546.188
0.32600 329408.969
0.32640 333821.906
0.32680 330734.063
0.32720 328661.438
0.32760 332425.375
0.32800 326835.844
0.32840 328962.531
0.32880 326484.375
0.32920 328549.125
0.32960 328988.781
0.33000 323789.688
0.33040 328166.344
0.33080 325157.125
0.33120 324677.656
0.33160 327114.156
0.33200 323740.125
0.33240 326663.906
0.33280 324231.500
0.33320 321299.719
0.33360 325777.656
0.33400 320472.906
0.33440 323115.875
0.33480 321135.313
0.33520 321535.469
0.33560 323446.875
0.33600 317571.813
0.33640 319219.813
0.33680 320295.219
0.33720 319266.625
0.33760 320409.563
0.33800 315713.188
0.33840 317053.781
0.33880 318822.250
0.33920 314401.750
0.33960 317258.125
0.34000 316110.094
0.34040 320505.344
0.34080 314945.406
0.34120 317698.594
0.34160 315576.781
0.34200 313487.625
0.34240 314158.906
0.34280 312425.250
0.34320 311993.500
0.34360 311556.406
0.34400 313167.813
0.34440 315133.500
0.34480 308172.219
0.34520 312524.625
0.34560 309795.125
0.34600 311025.156
0.34640 312503.094
0.34680 308226.969
0.34720 309589.969
0.34760 308206.563
0.34800 307437.500
0.34840 308925.156
0.34880 306153.563
0.34920 309247.969
0.34960 305453.125
0.35000 305357.438
0.35040 309047.156
0.35080 302952.500
0.35120 306366.031
0.35160 303629.156
0.35200 300820.719
0.35240 308044.000
0.35280 301775.125
0.35320 303245.188
0.35360 299664.719
0.35400 301032.563
0.35440 304071.500
0.35480 299675.469
0.35520 302223.938
0.35560 298640.156
0.35600 300099.281
0.35640 301868.688
0.35680 297264.969
0.35720 299967.781
0.35760 298758.813
0.35800 297300.313
0.35840 298909.219
0.35880 293174.063
0.35920 297398.344
0.35960 295203.625
0.36000 295446.406
0.36040 296387.125
0.36080 291737.438
0.36120 296491.750
0.36160 290993.688
0.36200 293922.375
0.36240 290877.719
0.36280 291313.219
0.36320 294831.938
0.36360 289657.406
0.36400 291683.625
0.36440 291316.531
0.36480 287615.906
0.36520 287932.781
0.36560 290079.563
0.36600 289465.688
0.36640 286190.125
0.36680 288050.531
0.36720 286649.000
0.36760 283204.094
0.36800 286879.969
0.36840 282932.938
0.36880 284804.094
0.36920 287021.344
0.36960 280939.281
0.37000 284885.656
0.37040 283500.469
0.37080 283334.375
0.37120 284552.500
0.37160 278970.625
0.37200 282073.656
0.37240 279567.594
0.37280 279352.563
0.37320 281259.500
0.37360 276606.219
0.37400 279785.625
0.37440 277907.344
0.37480 274026.688
0.37520 276343.969
0.37560 275392.813
0.37600 276629.375
0.37640 273898.094
0.37680 275071.531
0.37720 277023.250
0.37760 272473.219
0.37800 276324.813
0.37840 270828.406
0.37880 271892.500
0.37920 275043.594
0.37960 270367.313
0.38000 273609.469
0.38040 270322.219
0.38080 270111.156
0.38120 271526.875
0.38160 267559.125
0.38200 269544.750
0.38240 267050.094
0.38280 266153.344
0.38320 267187.719
0.38360 268365.375
0.38400 267507.250
0.38440 266065.719
0.38480 267300.000
0.38520 267747.656
0.38560 263527.313
0.38600 265347.781
0.38640 262032.047
0.38680 263559.125
0.38720 265900.031
0.38760 261496.734
0.38800 263392.813
0.38840 260313.234
0.38880 260040.391
0.38920 262786.906
0.38960 258064.516
0.39000 260055.828
0.39040 258055.766
0.39080 257162.250
0.39120 257413.578
0.39160 257959.953
0.39200 258131.719
0.39240 253963.797
0.39280 257334.953
0.39320 256715.484
0.39360 252743.375
0.39400 253936.344
0.39440 252430.375
0.39480 253879.063
0.39520 252892.516
0.39560 251805.422
0.39600 252597.344
0.39640 249303.391
0.39680 251218.734
0.39720 248361.609
0.39760 248660.188
0.39800 250399.109
0.39840 248277.797
0.39880 248899.172
0.39920 245617.422
0.39960 247187.031
0.40000 250051.219
0.40040 244747.375
0.40080 246004.094
0.40120 243503.219
0.40160 244003.422
0.40200 246226.281
0.40240 243209.578
0.40280 245169.703
0.40320 241595.297
0.40360 241732.547
0.40400 242414.734
0.40440 239659.719
0.40480 242167.422
0.40520 240201.313
0.40560 238994.234
0.40600 240824.063
0.40640 237344.953
0.40680 238910.500
0.40720 238813.188
0.40760 234501.672
0.40800 238133.516
0.40840 234218.563
0.40880 234760.578
0.40920 232639.766
0.40960 235269.609
0.41000 235513.656
0.41040 231669.141
0.41080 234608.578
0.41120 229945.281
0.41160 230669.344
0.41200 234574.563
0.41240 228324.953
0.41280 231858.609
0.41320 228529.203
0.41360 230421.000
0.41400 229419.609
0.41440 227220.672
0.41480 228340.250
0.41520 225109.000
0.41560 225541.703
0.41600 227554.969
0.41640 224738.516
0.41680 226188.891
0.41720 222637.234
0.41760 222378.516
0.41800 225207.953
0.41840 220974.750
0.41880 223682.141
0.41920 220827.672
0.41960 220327.844
0.42000 223263.703
0.42040 218204.984
0.42080 219669.656
0.42120 217896.031
0.42160 218339.594
0.42200 220147.016
0.42240 217632.969
0.42280 217624.250
0.42320 215265.500
0.42360 213371.531
0.42400 213387.109
0.42440 213497.313
0.42480 215594.891
0.42520 212103.156
0.42560 212278.328
0.42600 212255.000
0.42640 210381.734
0.42680 212904.891
0.42720 208738.563
0.42760 209747.109
0.42800 210046.734
0.42840 208960.703
0.42880 209763.813
0.42920 207541.797
0.42960 207835.641
0.43000 206999.672
0.43040 205830.625
0.43080 206992.313
0.43120 204221.938
0.43160 204157.406
0.43200 205329.297
0.43240 202308.672
0.43280 203961.375
0.43320 200816.703
0.43360 200572.500
0.43400 202909.969
0.43440 199915.594
0.43480 200736.094
0.43520 198341.719
0.43560 197579.609
0.43600 200417.719
0.43640 196256.266
0.43680 197343.625
0.43720 195903.469
0.43760 195426.313
0.43800 198130.500
0.43840 193515.750
0.43880 195011.703
0.43920 195147.500
0.43960 191638.422
0.44000 192132.234
0.44040 190777.375
0.44080 192750.813
0.44120 190603.016
0.44160 189032.094
0.44200 191124.688
0.44240 187937.484
0.44280 190154.406
0.44320 188452.563
0.44360 188759.438
0.44400 186525.188
0.44440 186425.375
0.44480 188561.859
0.44520 183176.359
0.44560 186127.609
0.44600 185033.922
0.44640 181880.688
0.44680 184008.375
0.44720 181897.828
0.44760 182270.969
0.44800 181521.844
0.44840 180307.188
0.44880 180976.359
0.44920 178278.094
0.44960 180568.656
0.45000 177963.766
0.45040 176400.047
0.45080 178270.719
0.45120 175235.906
0.45160 175776.766
0.45200 177406.844
0.45240 173847.281
0.45280 176844.891
0.45320 172231.984
0.45360 172627.516
0.45400 173675.938
0.45440 171734.094
0.45480 171844.328
0.45520 170344.078
0.45560 170097.281
0.45600 170596.141
0.45640 167831.859
0.45680 168830.281
0.45720 167299.094
0.45760 166766.422
0.45800 168781.781
0.45840 164266.578
0.45880 166271.563
0.45920 163472.391
0.45960 165370.031
0.46000 164098.234
0.46040 162715.250
0.46080 164362.984
0.46120 161657.281
0.46160 162289.391
0.46200 161308.047
0.46240 159511.125
0.46280 161404.250
0.46320 157898.531
0.46360 160219.344
0.46400 159753.875
0.46440 155394.406
0.46480 157394.969
0.46520 155042.375
0.46560 155844.188
0.46600 156287.797
0.46640 153382.719
0.46680 154010.734
0.46720 152609.563
0.46760 153312.719
0.46800 152676.656
0.46840 150662.484
0.46880 151233.516
0.46920 150089.688
0.46960 150897.094
0.47000 150651.156
0.47040 147670.000
0.47080 149038.344
0.47120 146961.828
0.47160 147030.234
0.47200 147424.859
0.47240 144425.344
0.47280 145263.844
0.47320 144074.234
0.47360 143206.781
0.47400 143465.063
0.47440 142418.969
0.47480 142906.734
0.47520 141374.484
0.47560 139978.078
0.47600 141152.594
0.47640 138309.844
0.47680 139956.219
0.47720 138736.938
0.47760 137628.063
0.47800 137923.031
0.47840 135370.891
0.47880 136103.906
0.47920 135638.938
0.47960 133747.969
0.48000 133277.484
0.48040 132238.703
0.48080 133525.313
0.48120 132111.891
0.48160 132078.969
0.48200 132384.406
0.48240 129898.844
0.48280 130430.805
0.48320 128778.203
0.48360 129379.523
0.48400 128873.547
0.48440 126258.578
0.48480 127791.281
0.48520 126577.602
0.48560 125637.945
0.48600 127493.242
0.48640 123213.000
0.48680 125424.258
0.48720 123045.445
0.48760 123561.359
0.48800 123603.414
0.48840 121552.141
0.48880 122783.242
0.48920 120528.773
0.48960 119113.242
0.49000 120796.703
0.49040 118659.297
0.49080 119424.453
0.49120 117327.977
0.49160 117474.828
0.49200 117385.719
0.49240 114966.875
0.49280 115535.719
0.49320 115762.977
0.49360 114146.234
0.49400 114302.227
0.49440 112265.102
0.49480 112583.031
0.49520 111796.813
0.49560 111148.719
0.49600 111121.039
0.49640 109734.469
0.49680 110711.117
0.49720 108018.625
0.49760 108376.586
0.49800 107532.672
0.49840 106793.336
0.49880 107789.344
0.49920 105442.859
0.49960 105296.305
0.50000 106088.570
0.50040 104738.641
0.50080 103978.508
0.50120 102391.672
0.50160 104096.313
0.50200 102022.188
0.50240 101347.273
0.50280 101334.336
0.50320 99964.063
0.50360 99932.625
0.50400 99084.133
0.50440 97753.953
0.50480 99398.125
0.50520 96464.211
0.50560 96840.969
0.50600 96857.445
0.50640 95332.438
0.50680 94642.281
0.50720 94197.984
0.50760 95046.969
0.50800 93455.539
0.50840 91837.359
0.50880 92953.938
0.50920 91243.172
0.50960 91617.352
0.51000 90257.719
0.51040 89720.641
0.51080 89687.781
0.51120 88101.688
0.51160 88015.977
0.51200 88554.141
0.51240 86678.031
0.51280 87166.063
0.51320 86206.164
0.51360 85606.688
0.51400 84865.797
0.51440 84047.430
0.51480 84196.211
0.51520 83807.844
0.51560 83087.602
0.51600 82377.867
0.51640 80996.492
0.51680 81346.375
0.51720 81084.383
0.51760 79398.516
0.51800 79948.125
0.51840 79011.234
0.51880 78216.398
0.51920 78277.977
0.51960 76770.945
0.52000 76990.023
0.52040 76828.242
0.52080 75144.859
0.52120 75054.945
0.52160 73760.563
0.52200 74148.102
0.52240 73495.383
0.52280 73080.922
0.52320 73103.469
0.52360 71074.984
0.52400 71722.625
0.52440 70839.680
0.52480 69606.813
0.52520 69730.500
0.52560 69299.422
0.52600 69111.969
0.52640 68385.992
0.52680 68051.297
0.52720 67422.984
0.52760 66075.375
0.52800 66433.063
0.52840 64930.020
0.52880 64792.875
0.52920 63870.086
0.52960 63307.465
0.53000 63592.609
0.53040 61791.703
0.53080 62114.984
0.53120 61167.125
0.53160 61321.996
0.53200 60802.949
0.53240 59813.039
0.53280 59484.711
0.53320 58286.863
0.53360 58906.027
0.53400 58370.449
0.53440 57086.180
0.53480 57778.773
0.53520 56371.445
0.53560 56392.801
0.53600 56084.742
0.53640 54818.684
0.53680 54773.801
0.53720 53525.461
0.53760 53209.355
0.53800 52948.840
0.53840 52150.094
0.53880 52071.176
0.53920 51235.398
0.53960 51401.543
0.54000 50050.781
0.54040 49845.324
0.54080 49677.680
0.54120 49098.305
0.54160 49248.590
0.54200 48060.977
0.54240 47807.352
0.54280 47281.742
0.54320 46765.188
0.54360 46259.270
0.54400 45463.219
0.54440 45181.965
0.54480 45067.469
0.54520 44512.012
0.54560 43674.742
0.54600 42910.039
0.54640 43414.973
0.54680 42354.691
0.54720 41715.938
0.54760 41444.406
0.54800 40870.316
0.54840 40670.102
0.54880 40251.594
0.54920 39024.598
0.54960 39555.242
0.55000 38215.926
0.55040 38264.957
0.55080 37845.355
0.55120 36982.055
0.55160 36945.418
0.55200 36683.543
0.55240 36331.926
0.55280 35654.969
0.55320 35731.848
0.55360 34933.965
0.55400 34067.863
0.55440 34300.238
0.55480 33762.012
0.55520 33175.430
0.55560 33225.961
0.55600 32288.729
0.55640 32262.826
0.55680 31882.318
0.55720 30735.736
0.55760 30502.064
0.55800 30237.355
0.55840 30200.201
0.55880 29352.881
0.55920 29184.420
0.55960 28347.783
0.56000 28407.789
0.56040 28160.473
0.56080 27447.271
0.56120 27366.328
0.56160 26982.430
0.56200 26378.596
0.56240 25597.367
0.56280 25459.244
0.56320 25457.656
0.56360 24960.098
0.56400 24741.064
0.56440 24121.861
0.56480 24195.859
0.56520 23766.330
0.56560 22879.021
0.56600 23072.611
0.56640 22401.561
0.56680 22203.992
0.56720 22054.412
0.56760 21013.957
0.56800 21223.207
0.56840 20852.600
0.56880 20084.633
0.56920 19987.207
0.56960 19957.471
0.57000 19488.904
0.57040 19250.941
0.57080 18825.219
0.57120 18923.670
0.57160 18193.289
0.57200 17916.313
0.57240 17733.832
0.57280 17169.297
0.57320 17411.758
0.57360 16723.172
0.57400 16574.279
0.57440 16085.461
0.57480 15791.765
0.57520 15760.223
0.57560 15241.463
0.57600 14947.351
0.57640 14840.233
0.57680 14474.980
0.57720 14512.643
0.57760 13863.761
0.57800 13563.224
0.57840 13395.901
0.57880 13011.206
0.57920 12824.780
0.57960 12546.967
0.58000 12384.910
0.58040 12197.758
0.58080 11784.972
0.58120 11722.863
0.58160 11321.109
0.58200 10934.840
0.58240 11024.476
0.58280 10806.359
0.58320 10452.758
0.58360 10269.354
0.58400 9820.792
0.58440 9778.302
0.58480 9408.956
0.58520 9343.288
0.58560 9223.492
0.58600 8678.589
0.58640 8774.447
0.58680 8492.485
0.58720 8449.875
0.58760 8287.159
0.58800 7771.967
0.58840 7672.605
0.58880 7484.109
0.58920 7345.018
0.58960 7232.803
0.59000 7152.896
0.59040 6765.740
0.59080 6760.287
0.59120 6437.817
0.59160 6435.357
0.59200 6137.285
0.59240 6031.045
0.59280 5781.303
0.59320 5792.332
0.59360 5645.977
0.59400 5347.628
0.59440 5263.980
0.59480 4967.485
0.59520 5122.422
0.59560 4894.315
0.59600 4637.078
0.59640 4605.926
0.59680 4493.648
0.59720 4288.608
0.59760 4285.791
0.59800 4038.971
0.59840 3972.349
0.59880 3832.925
0.59920 3682.264
0.59960 3664.195
0.60000 3564.793
0.60040 3366.656
0.60080 3114.453
0.60120 3060.126
0.60160 3118.248
0.60200 3010.968
0.60240 2934.674
0.60280 2861.028
0.60320 2682.979
0.60360 2722.077
0.60400 2503.401
0.60440 2460.450
0.60480 2299.268
0.60520 2270.354
0.60560 2285.316
0.60600 2137.816
0.60640 2084.296
0.60680 1948.755
0.60720 1937.965
0.60760 1865.898
0.60800 1747.806
0.60840 1731.900
0.60880 1621.157
0.60920 1582.356
0.60960 1614.856
0.61000 1536.705
0.61040 1499.046
0.61080 1345.234
0.61120 1344.535
0.61160 1304.300
0.61200 1258.463
0.61240 1243.628
0.61280 1127.265
0.61320 1117.592
0.61360 1122.034
0.61400 1043.604
0.61440 972.571
0.61480 972.420
0.61520 911.842
0.61560 855.814
0.61600 819.973
0.61640 860.292
0.61680 743.870
0.61720 772.207
0.61760 747.003
0.61800 703.028
0.61840 679.621
0.61880 604.343
0.61920 620.302
0.61960 633.491
0.62000 604.432
0.62040 580.249
0.62080 500.192
0.62120 482.586
0.62160 486.090
0.62200 469.798
0.62240 438.868
0.62280 404.763
0.62320 393.390
0.62360 393.920
0.62400 359.992
0.62440 360.670
0.62480 413.989
0.62520 338.733
0.62560 315.339
0.62600 300.733
0.62640 289.744
0.62680 274.280
0.62720 267.266
0.62760 236.394
0.62800 250.341
0.62840 248.243
0.62880 221.841
0.62920 224.272
0.62960 222.394
0.63000 177.999
0.63040 195.053
0.63080 160.444
0.63120 178.971
0.63160 176.026
0.63200 166.902
0.63240 150.323
0.63280 164.692
0.63320 137.261
0.63360 147.028
0.63400 157.801
0.63440 123.063
0.63480 140.638
0.63520 126.756
0.63560 128.032
0.63600 112.407
0.63640 109.362
0.63680 103.868
0.63720 85.530
0.63760 94.379
0.63800 80.759
0.63840 88.416
0.63880 81.127
0.63920 82.782
0.63960 83.892
0.64000 87.687
0.64040 53.554
0.64080 79.706
0.64120 70.450
0.64160 59.488
0.64200 60.429
0.64240 73.485
0.64280 71.343
0.64320 55.150
0.64360 58.437
0.64400 49.096
0.64440 47.881
0.64480 45.276
0.64520 50.195
0.64560 46.037
0.64600 47.493
0.64640 43.257
0.64680 52.170
0.64720 42.263
0.64760 44.279
0.64800 37.185
0.64840 32.425
0.64880 39.278
0.64920 36.486
0.64960 36.189
0.65000 32.315
0.65040 25.196
0.65080 48.144
0.65120 28.005
0.65160 34.047
0.65200 25.183
0.65240 32.172
0.65280 43.077
0.65320 31.351
0.65360 28.403
0.65400 22.139
0.65440 21.107
0.65480 15.922
0.65520 24.039
0.65560 28.096
0.65600 13.201
0.65640 22.245
0.65680 15.098
0.65720 32.296
0.65760 18.324
0.65800 20.907
0.65840 20.065
0.65880 23.020
0.65920 19.986
0.65960 23.199
0.66000 27.075
0.66040 21.196
0.66080 17.091
0.66120 28.247
0.66160 14.050
0.66200 20.092
0.66240 18.158
0.66280 15.917
0.66320 11.251
0.66360 19.018
0.66400 19.043
0.66440 12.085
0.66480 16.015
0.66520 16.148
0.66560 17.103
0.66600 19.112
0.66640 18.191
0.66680 14.252
0.66720 11.999
0.66760 15.128
0.66800 19.893
0.66840 15.138
0.66880 21.301
0.66920 14.245
0.66960 12.905
0.67000 13.069
0.67040 18.219
0.67080 18.978
0.67120 11.043
0.67160 11.079
0.67200 10.026
0.67240 14.113
0.67280 10.018
0.67320 17.190
0.67360 7.025
0.67400 15.268
0.67440 10.039
0.67480 12.100
0.67520 15.008
0.67560 16.013
0.67600 8.157
0.67640 8.026
0.67680 7.904
0.67720 6.016
0.67760 5.997
0.67800 19.985
0.67840 17.051
0.67880 10.987
0.67920 12.060
0.67960 3.945
0.68000 8.071
0.68040 8.047
0.68080 10.967
0.68120 10.971
0.68160 6.037
0.68200 5.969
0.68240 6.110
0.68280 6.034
0.68320 13.089
0.68360 11.172
0.68400 13.082
0.68440 10.981
0.68480 13.055
0.68520 8.077
0.68560 15.107
0.68600 10.019
0.68640 10.972
0.68680 8.934
0.68720 8.960
0.68760 12.039
0.68800 13.192
0.68840 6.072
0.68880 14.249
0.68920 11.928
0.68960 11.165
0.69000 8.103
0.69040 9.961
0.69080 7.032
0.69120 11.960
0.69160 10.002
0.69200 11.152
0.69240 9.975
0.69280 9.145
0.69320 7.107
0.69360 8.109
0.69400 10.140
0.69440 9.189
0.69480 6.024
0.69520 7.009
0.69560 10.084
0.69600 5.970
0.69640 9.921
0.69680 8.095
0.69720 9.122
0.69760 8.021
0.69800 9.009
0.69840 9.162
0.69880 13.123
0.69920 2.999
0.69960 4.981
0.70000 2.946
0.70040 6.115
0.70080 13.168
0.70120 7.963
0.70160 3.053
0.70200 5.116
0.70240 8.013
0.70280 6.991
0.70320 6.030
0.70360 9.124
0.70400 8.055
0.70440 10.077
0.70480 8.061
0.70520 9.134
0.70560 4.013
0.70600 7.082
0.70640 12.008
0.70680 11.055
0.70720 6.035
0.70760 3.988
0.70800 7.129
0.70840 6.006
0.70880 9.057
0.70920 8.008
0.70960 6.984
0.71000 8.936
0.71040 5.051
0.71080 11.995
0.71120 6.984
0.71160 5.024
0.71200 8.968
0.71240 6.024
0.71280 8.102
0.71320 3.949
0.71360 5.045
0.71400 4.067
0.71440 8.063
0.71480 7.037
0.71520 7.922
0.71560 13.136
0.71600 12.888
0.71640 9.982
0.71680 6.069
0.71720 5.028
0.71760 5.040
0.71800 11.094
0.71840 6.157
0.71880 3.019
0.71920 4.957
0.71960 9.982
0.72000 4.001
0.72040 3.973
0.72080 7.115
0.72120 7.058
0.72160 4.004
0.72200 8.163
0.72240 9.945
0.72280 6.966
0.72320 10.977
0.72360 4.987
0.72400 4.011
0.72440 4.055
0.72480 5.063
0.72520 5.017
0.72560 9.032
0.72600 6.023
0.72640 6.061
0.72680 6.983
0.72720 5.020
0.72760 7.971
0.72800 0.000
0.72840 3.989
0.72880 5.014
0.72920 4.963
0.72960 6.103
0.73000 6.021
0.73040 11.977
0.73080 12.074
0.73120 1.992
0.73160 2.991
0.73200 3.998
0.73240 12.148
0.73280 2.022
0.73320 5.997
0.73360 4.945
0.73400 9.115
0.73440 6.147
0.73480 9.168
0.73520 3.080
0.73560 4.067
0.73600 6.061
0.73640 4.995
0.73680 7.098
0.73720 8.941
0.73760 3.989
0.73800 3.966
0.73840 7.027
0.73880 6.976
0.73920 4.046
0.73960 5.013
0.74000 3.031
0.74040 11.287
0.74080 5.924
0.74120 3.948
0.74160 2.018
0.74200 6.034
0.74240 3.954
0.74280 9.012
0.74320 5.972
0.74360 6.103
0.74400 3.018
0.74440 2.971
0.74480 5.037
0.74520 4.039
0.74560 5.051
0.74600 6.103
0.74640 3.049
0.74680 10.033
0.74720 1.960
0.74760 4.081
0.74800 7.886
0.74840 6.086
0.74880 6.979
0.74920 4.937
0.74960 6.072
0.75000 3.972
0.75040 3.046
0.75080 5.114
0.75120 0.981
0.75160 1.986
0.75200 4.061
0.75240 5.109
0.75280 1.984
0.75320 3.089
0.75360 5.021
0.75400 1.983
0.75440 9.088
0.75480 6.014
0.75520 5.967
0.75560 8.022
0.75600 2.030
0.75640 1.968
0.75680 9.077
0.75720 5.974
0.75760 5.089
0.75800 1.057
0.75840 1.057
0.75880 4.043
0.75920 4.102
0.75960 3.026
0.76000 4.152
0.76040 7.949
0.76080 2.990
0.76120 6.025
0.76160 4.066
0.76200 1.957
0.76240 3.003
0.76280 2.016
0.76320 2.040
0.76360 8.053
0.76400 5.044
0.76440 2.961
0.76480 0.983
0.76520 1.995
0.76560 3.982
0.76600 4.060
0.76640 3.004
0.76680 1.989
0.76720 3.018
0.76760 4.004
0.76800 4.059
0.76840 3.045
0.76880 3.031
0.76920 4.020
0.76960 5.035
0.77000 4.093
0.77040 9.060
0.77080 4.923
0.77120 10.035
0.77160 4.001
0.77200 5.104
0.77240 5.048
0.77280 2.032
0.77320 2.953
0.77360 5.957
0.77400 9.012
0.77440 4.996
0.77480 1.046
0.77520 4.001
0.77560 2.017
0.77600 0.977
0.77640 3.987
0.77680 0.983
0.77720 4.104
0.77760 4.036
0.77800 3.075
0.77840 4.967
0.77880 1.007
0.77920 4.987
0.77960 8.037
0.78000 2.998
0.78040 0.992
0.78080 10.087
0.78120 6.049
0.78160 2.940
0.78200 8.084
0.78240 3.022
0.78280 6.000
0.78320 0.000
0.78360 1.030
0.78400 6.037
0.78440 3.944
0.78480 5.035
0.78520 0.977
0.78560 5.056
0.78600 3.111
0.78640 2.003
0.78680 2.041
0.78720 2.035
0.78760 5.063
0.78800 2.993
0.78840 0.973
0.78880 3.010
0.78920 1.954
0.78960 3.996
0.79000 3.157
0.79040 8.114
0.79080 2.018
0.79120 2.005
0.79160 4.038
0.79200 3.006
0.79240 6.049
0.79280 1.066
0.79320 2.962
0.79360 2.994
0.79400 2.044
0.79440 3.067
0.79480 0.000
0.79520 2.005
0.79560 3.055
0.79600 1.961
0.79640 0.990
0.79680 4.006
0.79720 2.035
0.79760 5.964
0.79800 0.993
0.79840 4.031
0.79880 3.036
0.79920 4.979
0.79960 4.020
0.80000 4.074
0.80040 2.989
0.80080 4.993
0.80120 0.000
0.80160 4.922
0.80200 3.955
0.80240 4.954
0.80280 1.983
0.80320 5.017
0.80360 3.043
0.80400 1.009
0.80440 2.003
0.80480 2.035
0.80520 5.050
0.80560 3.971
0.80600 0.000
0.80640 1.974
0.80680 4.983
0.80720 4.082
0.80760 0.000
0.80800 6.012
0.80840 3.956
0.80880 2.992
0.80920 2.971
0.80960 2.049
0.81000 6.046
0.81040 1.966
0.81080 5.035
0.81120 2.968
0.81160 3.033
0.81200 1.985
0.81240 2.969
0.81280 5.000
0.81320 2.022
0.81360 0.988
0.81400 4.125
0.81440 2.044
0.81480 4.023
0.81520 2.024
0.81560 6.021
0.81600 2.968
0.81640 5.095
0.81680 2.039
0.81720 1.045
0.81760 3.919
0.81800 5.031
0.81840 4.972
0.81880 4.095
0.81920 0.000
0.81960 2.991
0.82000 1.008
0.82040 2.017
0.82080 3.068
0.82120 0.000
0.82160 2.967
0.82200 6.069
0.82240 1.021
0.82280 4.941
0.82320 0.000
0.82360 1.015
0.82400 1.006
0.82440 3.998
0.82480 6.052
0.82520 2.037
0.82560 1.001
0.82600 3.036
0.82640 3.006
0.82680 3.009
0.82720 3.006
0.82760 5.978
0.82800 1.993
0.82840 1.046
0.82880 2.102
0.82920 0.978
0.82960 0.978
0.83000 3.042
0.83040 0.992
0.83080 0.978
0.83120 1.011
0.83160 3.014
0.83200 2.039
0.83240 2.078
0.83280 2.008
0.83320 2.963
0.83360 2.047
0.83400 2.989
0.83440 0.978
0.83480 0.982
0.83520 6.061
0.83560 0.997
0.83600 1.979
0.83640 2.025
0.83680 2.998
0.83720 2.977
0.83760 1.984
0.83800 3.002
0.83840 5.105
0.83880 3.111
0.83920 3.982
0.83960 1.975
0.84000 3.033
0.84040 2.063
0.84080 0.000
0.84120 0.000
0.84160 1.990
0.84200 1.009
0.84240 2.021
0.84280 3.084
0.84320 4.013
0.84360 4.058
0.84400 1.994
0.84440 2.961
0.84480 3.072
0.84520 3.988
0.84560 3.010
0.84600 1.972
0.84640 1.013
0.84680 1.012
0.84720 4.091
0.84760 1.045
0.84800 3.007
0.84840 0.981
0.84880 2.020
0.84920 2.993
0.84960 3.997
0.85000 3.002
0.85040 1.990
0.85080 2.989
0.85120 1.987
0.85160 1.986
0.85200 1.953
0.85240 1.024
0.85280 4.926
0.85320 3.007
0.85360 3.017
0.85400 1.954
0.85440 2.995
0.85480 1.983
0.85520 1.948
0.85560 3.921
0.85600 0.000
0.85640 4.083
0.85680 1.040
0.85720 1.016
0.85760 1.956
0.85800 2.043
0.85840 1.963
0.85880 6.017
0.85920 0.981
0.85960 0.000
0.86000 0.000
0.86040 1.019
0.86080 0.955
0.86120 2.010
0.86160 4.052
0.86200 1.019
0.86240 1.961
0.86280 0.000
0.86320 4.023
0.86360 1.955
0.86400 2.079
0.86440 0.000
0.86480 3.015
0.86520 2.030
0.86560 5.049
0.86600 3.060
0.86640 2.004
0.86680 2.925
0.86720 5.103
0.86760 0.983
0.86800 0.977
0.86840 1.989
0.86880 3.003
0.86920 4.149
0.86960 1.013
0.87000 1.965
0.87040 1.029
0.87080 2.066
0.87120 0.984
0.87160 0.000
0.87200 4.035
0.87240 0.990
0.87280 1.046
0.87320 2.974
0.87360 2.026
0.87400 1.035
0.87440 0.000
0.87480 5.051
0.87520 0.000
0.87560 2.983
0.87600 3.044
0.87640 2.954
0.87680 0.000
0.87720 2.999
0.87760 1.024
0.87800 0.955
0.87840 0.976
0.87880 0.000
0.87920 1.035
0.87960 0.000
0.88000 2.983
0.88040 2.025
0.88080 0.000
0.88120 0.993
0.88160 2.009
0.88200 2.063
0.88240 1.984
0.88280 1.015
0.88320 6.088
0.88360 4.005
0.88400 3.048
0.88440 4.028
0.88480 1.032
0.88520 0.997
0.88560 4.925
0.88600 2.032
0.88640 1.958
0.88680 1.033
0.88720 0.000
0.88760 0.978
0.88800 4.081
0.88840 1.991
0.88880 2.017
0.88920 0.000
0.88960 1.008
0.89000 0.977
0.89040 0.977
0.89080 1.029
0.89120 0.000
0.89160 2.009
0.89200 1.955
0.89240 3.975
0.89280 0.998
0.89320 2.976
0.89360 2.972
0.89400 1.014
0.89440 2.017
0.89480 1.001
0.89520 2.052
0.89560 0.988
0.89600 1.989
0.89640 2.000
0.89680 2.049
0.89720 0.000
0.89760 1.007
0.89800 0.998
0.89840 1.005
0.89880 0.000
0.89920 0.976
0.89960 0.000
0.90000 0.978
0.90040 0.998
0.90080 4.046
0.90120 1.006
0.90160 3.032
0.90200 2.976
0.90240 0.000
0.90280 0.000
0.90320 1.000
0.90360 2.017
0.90400 3.073
0.90440 0.000
0.90480 1.982
0.90520 1.014
0.90560 1.006
0.90600 1.974
0.90640 1.022
0.90680 0.000
0.90720 2.963
0.90760 2.055
0.90800 0.000
0.90840 0.000
0.90880 1.993
0.90920 0.000
0.90960 4.022
0.91000 0.000
0.91040 3.048
0.91080 0.000
0.91120 0.000
0.91160 0.000
0.91200 2.042
0.91240 1.985
0.91280 0.976
0.91320 0.000
0.91360 0.000
0.91400 0.969
0.91440 0.000
0.91480 0.997
0.91520 4.041
0.91560 1.046
0.91600 0.978
0.91640 1.057
0.91680 0.000
0.91720 3.118
0.91760 3.991
0.91800 4.003
0.91840 0.000
0.91880 0.000
0.91920 3.049
0.91960 0.989
0.92000 1.955
0.92040 0.000
0.92080 0.990
0.92120 3.026
0.92160 0.985
0.92200 1.961
0.92240 3.002
0.92280 0.000
0.92320 2.952
0.92360 3.057
0.92400 4.023
0.92440 0.000
0.92480 0.984
0.92520 2.016
0.92560 0.000
0.92600 0.000
0.92640 0.000
0.92680 1.993
0.92720 3.039
0.92760 1.013
0.92800 1.001
0.92840 1.972
0.92880 3.000
0.92920 0.988
0.92960 2.009
0.93000 2.997
0.93040 2.017
0.93080 0.000
0.93120 1.997
0.93160 1.976
0.93200 1.943
0.93240 1.008
0.93280 1.030
0.93320 0.978
0.93360 0.997
0.93400 1.046
0.93440 5.081
0.93480 1.046
0.93520 2.066
0.93560 3.044
0.93600 2.055
0.93640 1.004
0.93680 0.000
0.93720 4.008
0.93760 1.981
0.93800 3.065
0.93840 1.012
0.93880 0.976
0.93920 0.000
0.93960 4.032
0.94000 2.069
0.94040 0.990
0.94080 0.000
0.94120 1.022
0.94160 0.000
0.94200 3.008
0.94240 1.045
0.94280 0.978
0.94320 3.068
0.94360 1.054
0.94400 0.000
0.94440 0.000
0.94480 0.000
0.94520 1.975
0.94560 1.955
0.94600 1.006
0.94640 1.986
0.94680 0.000
0.94720 0.977
0.94760 5.114
0.94800 0.997
0.94840 0.000
0.94880 1.030
0.94920 0.978
0.94960 1.040
0.95000 0.000
0.95040 2.095
0.95080 0.000
0.95120 1.040
0.95160 0.978
0.95200 6.035
0.95240 0.000
0.95280 3.028
0.95320 0.000
0.95360 1.992
0.95400 0.000
0.95440 0.000
0.95480 2.982
0.95520 3.026
0.95560 3.100
0.95600 0.997
0.95640 1.022
0.95680 0.969
0.95720 2.001
0.95760 0.000
0.95800 1.990
0.95840 0.962
0.95880 0.000
0.95920 1.953
0.95960 0.000
0.96000 0.000
0.96040 1.008
0.96080 1.025
0.96120 3.910
0.96160 1.081
0.96200 0.983
0.96240 1.022
0.96280 0.000
0.96320 1.006
0.96360 2.934
0.96400 0.000
0.96440 0.989
0.96480 0.000
0.96520 2.018
0.96560 1.041
0.96600 1.988
0.96640 1.024
0.96680 1.020
0.96720 1.032
0.96760 1.032
0.96800 0.995
0.96840 2.024
0.96880 1.004
0.96920 0.000
0.96960 0.969
0.97000 2.005
0.97040 2.007
0.97080 1.040
0.97120 2.042
0.97160 2.971
0.97200 4.022
0.97240 0.978
0.97280 2.016
0.97320 2.012
0.97360 0.000
0.97400 3.036
0.97440 3.053
0.97480 1.964
0.97520 1.035
0.97560 0.989
0.97600 0.981
0.97640 1.998
0.97680 2.046
0.97720 0.000
0.97760 0.000
0.97800 0.981
0.97840 1.001
0.97880 0.978
0.97920 3.057
0.97960 0.000
0.98000 1.045
0.98040 1.984
0.98080 0.000
0.98120 0.000
0.98160 1.025
0.98200 2.035
0.98240 2.039
0.98280 0.000
0.98320 1.990
0.98360 1.994
0.98400 0.000
0.98440 0.000
0.98480 2.027
0.98520 2.025
0.98560 0.981
0.98600 0.997
0.98640 0.000
0.98680 0.000
0.98720 0.000
0.98760 0.000
0.98800 0.000
0.98840 1.009
0.98880 2.010
0.98920 0.962
0.98960 0.000
0.99000 1.009
0.99040 3.996
0.99080 0.988
0.99120 1.983
0.99160 2.027
0.99200 0.000
0.99240 0.969
0.99280 0.978
0.99320 0.000
0.99360 1.029
0.99400 0.000
0.99440 4.035
0.99480 0.978
0.99520 0.978
0.99560 1.054
0.99600 0.000
0.99640 0.978
0.99680 0.000
0.99720 0.000
0.99760 0.000
0.99800 2.006
0.99840 1.014
0.99880 1.013
0.99920 4.019
0.99960 0.977
1.00000 1.015
1.00040 0.000
1.00080 2.992
1.00120 1.946
1.00160 0.000
1.00200 0.000
1.00240 1.005
1.00280 2.086
1.00320 1.054
1.00360 0.000
1.00400 1.969
1.00440 0.000
1.00480 0.000
1.00520 0.000
1.00560 1.994
1.00600 0.000
1.00640 0.000
1.00680 0.976
1.00720 0.000
1.00760 0.000
1.00800 2.029
1.00840 0.962
1.00880 0.000
1.00920 1.956
1.00960 0.962
1.01000 1.001
1.01040 0.988
1.01080 2.018
1.01120 0.000
1.01160 0.989
1.01200 1.007
1.01240 2.050
1.01280 0.000
1.01320 0.978
1.01360 1.046
1.01400 3.055
1.01440 0.993
1.01480 0.000
1.01520 2.019
1.01560 3.008
1.01600 0.000
1.01640 0.000
1.01680 0.000
1.01720 0.000
1.01760 0.000
1.01800 0.978
1.01840 1.958
1.01880 1.013
1.01920 0.997
1.01960 0.000
1.02000 0.000
1.02040 0.000
1.02080 0.000
1.02120 0.000
1.02160 0.000
1.02200 1.971
1.02240 1.975
1.02280 2.037
1.02320 0.000
1.02360 0.977
1.02400 0.977
1.02440 0.981
1.02480 1.046
1.02520 0.000
1.02560 0.000
1.02600 0.000
1.02640 0.000
1.02680 3.944
1.02720 1.012
1.02760 1.025
1.02800 3.067
1.02840 0.000
1.02880 1.029
1.02920 1.041
1.02960 0.000
1.03000 0.984
1.03040 1.025
1.03080 1.012
1.03120 0.000
1.03160 0.000
1.03200 0.000
1.03240 2.029
1.03280 0.000
1.03320 2.014
1.03360 2.017
1.03400 0.978
1.03440 1.020
1.03480 0.000
1.03520 0.000
1.03560 1.030
1.03600 0.000
1.03640 0.000
1.03680 0.000
1.03720 0.984
1.03760 2.025
1.03800 0.000
1.03840 0.992
1.03880 0.000
1.03920 0.976
1.03960 4.027
1.04000 2.022
1.04040 2.015
1.04080 1.030
1.04120 0.000
1.04160 1.005
1.04200 0.000
1.04240 1.999
1.04280 1.002
1.04320 0.000
1.04360 0.000
1.04400 0.983
1.04440 0.994
1.04480 1.040
1.04520 1.030
1.04560 0.000
1.04600 0.000
1.04640 0.978
1.04680 0.997
1.04720 0.978
1.04760 0.000
1.04800 0.976
1.04840 1.019
1.04880 2.004
1.04920 2.045
1.04960 0.000
1.05000 0.000
1.05040 0.000
1.05080 1.066
1.05120 2.062
1.05160 0.000
1.05200 1.081
1.05240 0.000
1.05280 0.000
1.05320 0.000
1.05360 0.992
1.05400 0.000
1.05440 0.000
1.05480 1.020
1.05520 0.000
1.05560 0.000
1.05600 3.055
1.05640 0.000
1.05680 0.000
1.05720 0.000
1.05760 0.000
1.05800 1.015
1.05840 0.000
1.05880 0.990
1.05920 1.029
1.05960 0.000
1.06000 1.054
1.06040 1.001
1.06080 0.000
1.06120 0.988
1.06160 0.000
1.06200 0.000
1.06240 0.994
1.06280 0.000
1.06320 1.989
1.06360 0.000
1.06400 1.029
1.06440 0.000
1.06480 0.983
1.06520 0.000
1.06560 1.999
1.06600 1.994
1.06640 2.053
1.06680 0.000
1.06720 1.021
1.06760 0.000
1.06800 0.000
1.06840 0.988
1.06880 0.000
1.06920 1.081
1.06960 2.024
1.07000 0.994
1.07040 0.000
1.07080 0.000
1.07120 0.000
1.07160 0.000
1.07200 0.000
1.07240 0.983
1.07280 0.978
1.07320 1.983
1.07360 3.042
1.07400 1.033
1.07440 0.000
1.07480 1.032
1.07520 0.998
1.07560 1.015
1.07600 0.000
1.07640 0.000
1.07680 0.000
1.07720 0.992
1.07760 0.965
1.07800 1.021
1.07840 0.000
1.07880 0.969
1.07920 1.996
1.07960 2.057
1.08000 0.000
1.08040 0.000
1.08080 1.032
1.08120 1.033
1.08160 0.000
1.08200 1.020
1.08240 1.029
1.08280 0.000
1.08320 0.000
1.08360 0.982
1.08400 0.978
1.08440 0.000
1.08480 0.000
1.08520 2.017
1.08560 3.026
1.08600 3.062
1.08640 0.000
1.08680 0.969
1.08720 0.000
1.08760 0.000
1.08800 0.000
1.08840 0.000
1.08880 0.990
1.08920 0.000
1.08960 0.000
1.09000 0.000
1.09040 2.069
1.09080 0.000
1.09120 0.998
1.09160 0.000
1.09200 0.969
1.09240 0.973
1.09280 0.000
1.09320 0.000
1.09360 1.006
1.09400 0.000
1.09440 1.020
1.09480 1.016
1.09520 1.016
1.09560 0.000
1.09600 0.000
1.09640 1.012
1.09680 0.981
1.09720 0.000
1.09760 0.000
1.09800 1.015
1.09840 1.950
1.09880 0.000
1.09920 1.081
1.09960 0.000
1.10000 0.000
1.10040 0.000
1.10080 1.020
1.10120 1.022
1.10160 0.000
1.10200 0.983
1.10240 4.065
1.10280 2.095
1.10320 0.000
1.10360 0.000
1.10400 0.997
1.10440 0.000
1.10480 0.988
1.10520 1.008
1.10560 0.969
1.10600 1.013
1.10640 0.988
1.10680 0.000
1.10720 0.000
1.10760 0.000
1.10800 0.000
1.10840 1.008
1.10880 0.000
1.10920 0.000
1.10960 0.998
1.11000 0.000
1.11040 1.004
1.11080 0.000
1.11120 0.992
1.11160 0.000
1.11200 0.998
1.11240 1.041
1.11280 0.978
1.11320 0.000
1.11360 0.000
1.11400 0.000
1.11440 1.977
1.11480 0.000
1.11520 1.033
1.11560 0.000
1.11600 0.994
1.11640 0.978
1.11680 3.008
1.11720 0.000
1.11760 0.000
1.11800 0.000
1.11840 0.000
1.11880 0.997
1.11920 0.000
1.11960 0.000
1.12000 0.000
1.12040 1.009
1.12080 1.024
1.12120 0.000
1.12160 0.000
1.12200 0.000
1.12240 2.058
1.12280 0.000
1.12320 0.000
1.12360 0.000
1.12400 0.000
1.12440 2.010
1.12480 0.000
1.12520 1.981
1.12560 0.000
1.12600 0.000
1.12640 2.052
1.12680 1.985
1.12720 1.007
1.12760 0.000
1.12800 1.047
1.12840 0.000
1.12880 0.000
1.12920 4.092
1.12960 0.997
1.13000 0.000
1.13040 1.013
1.13080 0.989
1.13120 0.000
1.13160 1.985
1.13200 1.021
1.13240 0.000
1.13280 1.016
1.13320 0.000
1.13360 0.995
1.13400 0.000
1.13440 1.007
1.13480 0.969
1.13520 0.000
1.13560 0.000
1.13600 0.000
1.13640 0.993
1.13680 0.000
1.13720 0.000
1.13760 2.009
1.13800 0.972
1.13840 0.000
1.13880 0.000
1.13920 1.025
1.13960 0.992
1.14000 0.000
1.14040 0.997
1.14080 1.022
1.14120 0.969
1.14160 0.000
1.14200 0.978
1.14240 0.000
1.14280 0.000
1.14320 0.000
1.14360 0.978
1.14400 0.998
1.14440 2.113
1.14480 0.000
1.14520 0.000
1.14560 0.984
1.14600 1.045
1.14640 0.000
1.14680 0.000
1.14720 0.000
1.14760 0.000
1.14800 0.972
1.14840 0.000
1.14880 0.000
1.14920 0.000
1.14960 0.998
1.15000 1.055
1.15040 0.000
1.15080 0.000
1.15120 0.977
1.15160 1.001
1.15200 0.000
1.15240 0.000
1.15280 0.982
1.15320 2.013
1.15360 0.000
1.15400 3.109
1.15440 0.000
1.15480 3.002
1.15520 0.000
1.15560 1.020
1.15600 2.003
1.15640 0.000
1.15680 2.025
1.15720 2.042
1.15760 0.000
1.15800 0.000
1.15840 1.022
1.15880 0.998
1.15920 1.022
1.15960 0.000
1.16000 0.000
1.16040 0.978
1.16080 0.000
1.16120 0.000
1.16160 0.000
1.16200 1.007
1.16240 2.053
1.16280 0.994
1.16320 0.962
1.16360 0.000
1.16400 0.000
1.16440 0.000
1.16480 2.016
1.16520 2.081
1.16560 2.979
1.16600 1.014
1.16640 0.000
1.16680 2.001
1.16720 0.973
1.16760 1.022
1.16800 0.000
1.16840 0.000
1.16880 0.000
1.16920 1.991
1.16960 0.000
1.17000 0.000
1.17040 0.969
1.17080 1.978
1.17120 0.000
1.17160 0.000
1.17200 0.000
1.17240 1.015
1.17280 0.000
1.17320 0.000
1.17360 0.000
1.17400 1.015
1.17440 2.006
1.17480 0.000
1.17520 1.081
1.17560 0.000
1.17600 0.000
1.17640 1.013
1.17680 0.000
1.17720 1.012
1.17760 0.000
1.17800 0.000
1.17840 0.000
1.17880 0.000
1.17920 1.001
1.17960 1.021
1.18000 0.000
1.18040 0.000
1.18080 1.993
1.18120 0.000
1.18160 0.969
1.18200 0.000
1.18240 0.994
1.18280 0.000
1.18320 0.000
1.18360 0.000
1.18400 0.000
1.18440 0.000
1.18480 0.000
1.18520 0.997
1.18560 0.000
1.18600 0.998
1.18640 0.000
1.18680 0.000
1.18720 0.000
1.18760 0.000
1.18800 1.996
1.18840 0.000
1.18880 1.004
1.18920 0.000
1.18960 1.976
1.19000 0.000
1.19040 0.000
1.19080 1.005
1.19120 1.013
1.19160 0.000
1.19200 2.010
1.19240 0.000
1.19280 0.000
1.19320 0.000
1.19360 1.005
1.19400 1.039
1.19440 0.000
1.19480 0.000
1.19520 0.993
1.19560 0.000
1.19600 1.006
1.19640 0.000
1.19680 1.014
1.19720 0.000
1.19760 0.000
1.19800 0.000
1.19840 0.998
1.19880 0.000
1.19920 2.981
1.19960 1.006
1.20000 1.005
1.20040 1.015
1.20080 0.000
1.20120 0.998
1.20160 1.046
1.20200 0.000
1.20240 1.006
1.20280 0.000
1.20320 0.969
1.20360 0.989
1.20400 0.000
1.20440 0.998
1.20480 0.000
1.20520 1.057
1.20560 1.006
1.20600 1.965
1.20640 0.969
1.20680 0.000
1.20720 0.962
1.20760 0.969
1.20800 0.000
1.20840 2.018
1.20880 0.000
1.20920 1.033
1.20960 0.000
1.21000 0.000
1.21040 0.000
1.21080 0.969
1.21120 1.022
1.21160 0.976
1.21200 1.021
1.21240 0.000
1.21280 0.000
1.21320 1.029
1.21360 0.000
1.21400 0.978
1.21440 0.000
1.21480 0.984
1.21520 0.000
1.21560 0.972
1.21600 1.022
1.21640 0.000
1.21680 0.000
1.21720 0.955
1.21760 0.000
1.21800 0.000
1.21840 2.067
1.21880 0.000
1.21920 0.000
1.21960 0.000
1.22000 0.000
1.22040 0.000
1.22080 2.019
1.22120 1.040
1.22160 0.000
1.22200 0.981
1.22240 0.000
1.22280 0.000
1.22320 0.000
1.22360 0.000
1.22400 0.000
1.22440 0.962
1.22480 1.005
1.22520 0.000
1.22560 0.962
1.22600 0.000
1.22640 1.013
1.22680 0.000
1.22720 0.000
1.22760 1.012
1.22800 0.000
1.22840 1.057
1.22880 0.976
1.22920 0.000
1.22960 0.000
1.23000 0.000
1.23040 1.020
1.23080 0.000
1.23120 0.989
1.23160 0.000
1.23200 0.000
1.23240 1.012
1.23280 0.000
1.23320 0.000
1.23360 0.000
1.23400 0.000
1.23440 2.022
1.23480 2.063
1.23520 0.000
1.23560 0.000
1.23600 0.000
1.23640 0.000
1.23680 0.000
1.23720 0.000
1.23760 0.000
1.23800 0.976
1.23840 0.000
1.23880 0.977
1.23920 0.000
1.23960 0.000
1.24000 0.000
1.24040 0.000
1.24080 0.000
1.24120 0.000
1.24160 0.000
1.24200 0.000
1.24240 0.977
1.24280 0.000
1.24320 0.990
1.24360 0.000
1.24400 0.000
1.24440 1.970
1.24480 1.009
1.24520 0.000
1.24560 0.000
1.24600 1.001
1.24640 0.997
1.24680 0.000
1.24720 0.000
1.24760 0.000
1.24800 1.001
1.24840 0.000
1.24880 0.988
1.24920 0.000
1.24960 1.012
1.25000 0.000
1.25040 0.000
1.25080 0.000
1.25120 1.001
1.25160 0.000
1.25200 0.990
1.25240 0.000
1.25280 0.000
1.25320 0.000
1.25360 0.000
1.25400 2.034
1.25440 0.000
1.25480 1.055
1.25520 1.957
1.25560 0.000
1.25600 0.000
1.25640 0.978
1.25680 0.000
1.25720 0.000
1.25760 1.016
1.25800 0.000
1.25840 0.000
1.25880 0.000
1.25920 0.000
1.25960 0.000
1.26000 0.000
1.26040 1.019
1.26080 0.000
1.26120 0.000
1.26160 0.000
1.26200 0.000
1.26240 0.998
1.26280 1.025
1.26320 0.000
1.26360 0.000
1.26400 0.000
1.26440 0.000
1.26480 0.000
1.26520 0.000
1.26560 0.000
1.26600 1.013
1.26640 1.029
1.26680 0.000
1.26720 0.000
1.26760 0.990
1.26800 0.000
1.26840 0.000
1.26880 0.000
1.26920 0.000
1.26960 2.002
1.27000 0.978
1.27040 0.000
1.27080 0.000
1.27120 0.000
1.27160 0.981
1.27200 2.029
1.27240 0.000
1.27280 0.000
1.27320 0.000
1.27360 2.034
1.27400 1.032
1.27440 1.988
1.27480 0.000
1.27520 1.014
1.27560 0.000
1.27600 0.000
1.27640 0.000
1.27680 0.000
1.27720 0.000
1.27760 0.000
1.27800 0.000
1.27840 0.000
1.27880 0.000
1.27920 0.000
1.27960 1.009
1.28000 0.000
1.28040 0.000
1.28080 0.000
1.28120 1.030
1.28160 0.000
1.28200 0.000
1.28240 0.000
1.28280 0.000
1.28320 0.000
1.28360 0.000
1.28400 0.000
1.28440 0.000
1.28480 0.000
1.28520 1.000
1.28560 0.000
1.28600 0.000
1.28640 2.996
1.28680 0.000
1.28720 0.000
1.28760 0.000
1.28800 0.000
1.28840 1.022
1.28880 0.000
1.28920 0.955
1.28960 0.000
1.29000 0.976
1.29040 0.000
1.29080 1.022
1.29120 0.000
1.29160 0.000
1.29200 0.000
1.29240 1.996
1.29280 0.000
1.29320 0.000
1.29360 2.007
1.29400 0.000
1.29440 0.000
1.29480 1.007
1.29520 1.018
1.29560 0.000
1.29600 0.000
1.29640 0.000
1.29680 1.018
1.29720 0.990
1.29760 2.014
1.29800 0.972
1.29840 0.000
1.29880 0.000
1.29920 0.000
1.29960 0.000
1.30000 0.000
1.30040 0.000
1.30080 1.029
1.30120 0.000
1.30160 0.000
1.30200 0.000
1.30240 0.000
1.30280 0.000
1.30320 0.000
1.30360 0.000
1.30400 0.000
1.30440 0.000
1.30480 0.000
1.30520 0.000
1.30560 0.997
1.30600 0.000
1.30640 1.030
1.30680 0.000
1.30720 0.000
1.30760 0.000
1.30800 0.000
1.30840 0.000
1.30880 0.000
1.30920 0.000
1.30960 0.000
1.31000 0.000
1.31040 2.041
1.31080 0.000
1.31120 0.000
1.31160 0.000
1.31200 0.000
1.31240 0.000
1.31280 0.977
1.31320 0.000
1.31360 0.976
1.31400 0.000
1.31440 1.991
1.31480 0.000
1.31520 0.000
1.31560 0.992
1.31600 0.000
1.31640 1.011
1.31680 0.000
1.31720 0.000
1.31760 0.000
1.31800 0.000
1.31840 0.000
1.31880 2.036
1.31920 0.000
1.31960 0.986
1.32000 0.000
1.32040 0.000
1.32080 0.992
1.32120 1.001
1.32160 0.000
1.32200 0.000
1.32240 0.000
1.32280 0.000
1.32320 0.000
1.32360 1.066
1.32400 0.000
1.32440 0.000
1.32480 2.973
1.32520 0.978
1.32560 0.998
1.32600 0.000
1.32640 0.000
1.32680 0.000
1.32720 0.000
1.32760 0.000
1.32800 0.000
1.32840 0.000
1.32880 0.000
1.32920 0.000
1.32960 0.000
1.33000 0.000
1.33040 1.989
1.33080 0.000
1.33120 0.000
1.33160 0.981
1.33200 1.041
1.33240 0.000
1.33280 0.000
1.33320 0.000
1.33360 0.000
1.33400 0.000
1.33440 0.000
1.33480 0.000
1.33520 0.000
1.33560 0.000
1.33600 0.000
1.33640 0.000
1.33680 0.000
1.33720 0.000
1.33760 1.009
1.33800 0.000
1.33840 0.000
1.33880 0.984
1.33920 0.000
1.33960 0.000
1.34000 0.000
1.34040 0.000
1.34080 0.000
1.34120 3.007
1.34160 0.000
1.34200 0.000
1.34240 0.000
1.34280 0.998
1.34320 1.039
1.34360 0.000
1.34400 0.965
1.34440 0.000
1.34480 0.000
1.34520 0.000
1.34560 0.000
1.34600 0.000
1.34640 0.000
1.34680 0.000
1.34720 1.957
1.34760 1.081
1.34800 0.982
1.34840 0.000
1.34880 0.000
1.34920 1.019
1.34960 1.029
1.35000 1.062
1.35040 0.000
1.35080 0.000
1.35120 0.000
1.35160 1.066
1.35200 0.000
1.35240 0.000
1.35280 0.000
1.35320 1.054
1.35360 0.000
1.35400 0.000
1.35440 0.000
1.35480 0.000
1.35520 0.000
1.35560 0.000
1.35600 0.000
1.35640 1.012
1.35680 0.989
1.35720 0.000
1.35760 0.000
1.35800 0.969
1.35840 0.000
1.35880 0.000
1.35920 0.000
1.35960 0.000
1.36000 0.000
1.36040 0.000
1.36080 0.998
1.36120 0.000
1.36160 0.978
1.36200 0.000
1.36240 0.988
1.36280 0.000
1.36320 0.000
1.36360 0.000
1.36400 0.000
1.36440 0.000
1.36480 0.000
1.36520 0.000
1.36560 0.000
1.36600 0.969
1.36640 0.976
1.36680 0.000
1.36720 0.000
1.36760 1.013
1.36800 0.000
1.36840 0.000
1.36880 0.978
1.36920 0.000
1.36960 0.000
1.37000 0.000
1.37040 0.000
1.37080 0.000
1.37120 0.000
1.37160 0.000
1.37200 0.000
1.37240 0.000
1.37280 0.000
1.37320 0.000
1.37360 0.000
1.37400 0.000
1.37440 0.000
1.37480 0.000
1.37520 1.005
1.37560 0.000
1.37600 0.000
1.37640 0.000
1.37680 1.009
1.37720 1.046
1.37760 0.000
1.37800 0.000
1.37840 0.000
1.37880 0.000
1.37920 0.977
1.37960 0.000
1.38000 0.000
1.38040 0.000
1.38080 1.024
1.38120 0.000
1.38160 1.032
1.38200 0.000
1.38240 0.000
1.38280 0.000
1.38320 0.000
1.38360 0.000
1.38400 0.000
1.38440 1.055
1.38480 0.000
1.38520 0.000
1.38560 0.000
1.38600 0.000
1.38640 0.978
1.38680 0.000
1.38720 0.000
1.38760 0.000
1.38800 0.000
1.38840 0.000
1.38880 0.000
1.38920 1.000
1.38960 0.989
1.39000 0.994
1.39040 0.000
1.39080 0.000
1.39120 0.000
1.39160 0.000
1.39200 1.012
1.39240 0.000
1.39280 0.000
1.39320 0.000
1.39360 0.000
1.39400 1.062
1.39440 0.000
1.39480 0.000
1.39520 1.939
1.39560 2.035
1.39600 0.000
1.39640 0.000
1.39680 0.000
1.39720 0.000
1.39760 0.990
1.39800 0.000
1.39840 0.000
1.39880 0.000
1.39920 0.000
1.39960 0.000
1.40000 0.000
1.40040 0.000
1.40080 0.000
1.40120 0.000
1.40160 0.000
1.40200 1.977
1.40240 0.000
1.40280 0.000
1.40320 0.000
1.40360 0.000
1.40400 0.000
1.40440 0.000
1.40480 0.000
1.40520 0.000
1.40560 0.000
1.40600 0.000
1.40640 0.969
1.40680 0.000
1.40720 0.000
1.40760 0.000
1.40800 0.000
1.40840 1.019
1.40880 0.000
1.40920 0.000
1.40960 0.000
1.41000 0.000
1.41040 0.000
1.41080 0.000
1.41120 0.000
1.41160 0.000
1.41200 0.000
1.41240 0.000
1.41280 0.989
1.41320 0.000
1.41360 0.000
1.41400 0.000
1.41440 0.000
1.41480 0.000
1.41520 0.000
1.41560 1.006
1.41600 1.033
1.41640 1.006
1.41680 0.000
1.41720 0.000
1.41760 0.000
1.41800 1.013
1.41840 0.000
1.41880 0.000
1.41920 0.000
1.41960 0.000
1.42000 0.000
1.42040 0.000
1.42080 0.000
1.42120 0.000
1.42160 0.000
1.42200 0.000
1.42240 0.000
1.42280 0.000
1.42320 0.980
1.42360 0.000
1.42400 0.000
1.42440 0.000
1.42480 0.977
1.42520 0.969
1.42560 0.000
1.42600 1.001
1.42640 0.000
1.42680 1.005
1.42720 0.000
1.42760 1.022
1.42800 1.057
1.42840 0.000
1.42880 1.015
1.42920 0.000
1.42960 0.000
1.43000 0.000
1.43040 0.000
1.43080 0.000
1.43120 0.000
1.43160 0.000
1.43200 0.000
1.43240 0.000
1.43280 0.976
1.43320 1.020
1.43360 1.046
1.43400 0.000
1.43440 0.000
1.43480 0.000
1.43520 0.000
1.43560 0.000
1.43600 0.000
1.43640 0.000
1.43680 0.000
1.43720 0.978
1.43760 0.000
1.43800 1.021
1.43840 0.000
1.43880 0.000
1.43920 0.983
1.43960 0.997
1.44000 0.000
1.44040 0.000
1.44080 0.000
1.44120 0.000
1.44160 0.998
1.44200 0.000
1.44240 0.992
1.44280 0.000
1.44320 0.000
1.44360 0.000
1.44400 0.000
1.44440 0.000
1.44480 0.000
1.44520 0.000
1.44560 0.000
1.44600 0.000
1.44640 0.000
1.44680 0.000
1.44720 0.000
1.44760 0.000
1.44800 0.000
1.44840 0.000
1.44880 0.000
1.44920 1.046
1.44960 0.969
1.45000 0.000
1.45040 0.000
1.45080 0.000
1.45120 1.001
1.45160 0.000
1.45200 0.000
1.45240 0.000
1.45280 1.020
1.45320 0.000
1.45360 0.000
1.45400 0.989
1.45440 0.000
1.45480 0.000
1.45520 0.000
1.45560 0.000
1.45600 0.000
1.45640 0.000
1.45680 0.978
1.45720 2.073
1.45760 0.000
1.45800 0.000
1.45840 0.000
1.45880 0.978
1.45920 0.000
1.45960 0.000
1.46000 0.000
1.46040 0.000
1.46080 0.997
1.46120 0.000
1.46160 1.001
1.46200 0.000
1.46240 0.000
1.46280 0.000
1.46320 0.000
1.46360 0.000
1.46400 0.000
1.46440 0.000
1.46480 0.000
1.46520 0.000
1.46560 0.998
1.46600 0.000
1.46640 0.000
1.46680 0.000
1.46720 0.000
1.46760 0.000
1.46800 0.000
1.46840 0.000
1.46880 0.000
1.46920 0.995
1.46960 0.000
1.47000 0.000
1.47040 0.000
1.47080 0.000
1.47120 0.972
1.47160 1.023
1.47200 0.000
1.47240 0.000
1.47280 0.997
1.47320 0.000
1.47360 0.000
1.47400 0.986
1.47440 0.000
1.47480 0.000
1.47520 1.023
1.47560 0.000
1.47600 0.000
1.47640 0.000
1.47680 0.998
1.47720 0.000
1.47760 0.000
1.47800 1.001
1.47840 0.000
1.47880 0.000
1.47920 0.000
1.47960 0.000
1.48000 0.000
1.48040 0.000
1.48080 0.000
1.48120 1.020
1.48160 0.000
1.48200 0.981
1.48240 1.046
1.48280 0.000
1.48320 0.000
1.48360 0.000
1.48400 0.000
1.48440 1.039
1.48480 0.000
1.48520 0.000
1.48560 0.000
1.48600 0.000
1.48640 1.991
1.48680 0.000
1.48720 0.000
1.48760 0.000
1.48800 0.000
1.48840 0.000
1.48880 0.000
1.48920 0.000
1.48960 0.000
1.49000 0.000
1.49040 1.940
1.49080 1.022
1.49120 0.000
1.49160 0.000
1.49200 0.000
1.49240 0.000
1.49280 0.000
1.49320 0.000
1.49360 0.000
1.49400 0.000
1.49440 0.000
1.49480 0.000
1.49520 0.000
1.49560 0.000
1.49600 0.000
1.49640 0.000
1.49680 1.000
1.49720 0.000
1.49760 0.000
1.49800 0.000
1.49840 1.045
1.49880 1.005
1.49920 0.000
1.49960 0.000
1.50000 0.000
