20.00000 485.234
20.01000 489.700
20.02000 494.803
20.03000 497.814
20.04000 492.568
20.05000 486.478
20.06000 481.980
20.07000 477.716
20.08000 474.421
20.09000 470.408
20.10000 465.081
20.11000 459.726
20.12000 458.072
20.13000 460.971
20.14000 463.876
20.15000 467.413
20.16000 471.437
20.17000 475.403
20.18000 476.778
20.19000 476.758
20.20000 476.840
20.21000 478.721
20.22000 481.265
20.23000 483.612
20.24000 475.571
20.25000 466.038
20.26000 458.163
20.27000 460.063
20.28000 463.564
20.29000 467.851
20.30000 475.188
20.31000 482.831
20.32000 488.452
20.33000 481.620
20.34000 475.822
20.35000 474.730
20.36000 482.125
20.37000 489.694
20.38000 494.058
20.39000 494.541
20.40000 495.015
20.41000 493.541
20.42000 490.546
20.43000 487.450
20.44000 480.019
20.45000 470.288
20.46000 461.407
20.47000 467.216
20.48000 478.355
20.49000 488.617
20.50000 485.935
20.51000 480.688
20.52000 475.882
20.53000 473.638
20.54000 471.806
20.55000 471.582
20.56000 477.512
20.57000 484.045
20.58000 488.830
20.59000 486.384
20.60000 484.207
20.61000 480.083
20.62000 472.497
20.63000 464.843
20.64000 463.292
20.65000 469.011
20.66000 474.731
20.67000 477.271
20.68000 477.344
20.69000 477.490
20.70000 480.577
20.71000 485.202
20.72000 489.819
20.73000 494.289
20.74000 498.706
20.75000 502.768
20.76000 495.767
20.77000 487.120
20.78000 479.655
20.79000 478.930
20.80000 479.273
20.81000 479.853
20.82000 481.323
20.83000 482.879
20.84000 484.014
20.85000 488.904
20.86000 492.815
20.87000 494.216
20.88000 491.216
20.89000 488.135
20.90000 486.027
20.91000 485.062
20.92000 484.100
20.93000 478.434
20.94000 469.234
20.95000 460.258
20.96000 460.061
20.97000 464.386
20.98000 468.305
20.99000 465.578
21.00000 460.509
21.01000 455.856
21.02000 460.371
21.03000 466.347
21.04000 471.627
21.05000 473.005
21.06000 473.777
21.07000 473.975
21.08000 472.042
21.09000 469.908
21.10000 468.359
21.11000 470.691
21.12000 472.629
21.13000 472.664
21.14000 469.415
21.15000 466.109
21.16000 464.204
21.17000 463.918
21.18000 463.635
21.19000 463.105
21.20000 462.396
21.21000 461.752
21.22000 463.549
21.23000 466.585
21.24000 470.060
21.25000 480.526
21.26000 493.420
21.27000 505.232
21.28000 502.613
21.29000 497.264
21.30000 491.596
21.31000 484.166
21.32000 476.466
21.33000 470.502
21.34000 470.883
21.35000 471.849
21.36000 472.547
21.37000 475.578
21.38000 477.989
21.39000 476.895
21.40000 469.837
21.41000 462.681
21.42000 461.001
21.43000 465.537
21.44000 470.065
21.45000 471.096
21.46000 469.550
21.47000 467.988
21.48000 465.868
21.49000 463.468
21.50000 461.541
21.51000 466.967
21.52000 474.911
21.53000 482.173
21.54000 480.114
21.55000 476.369
21.56000 472.768
21.57000 469.950
21.58000 467.250
21.59000 466.949
21.60000 475.291
21.61000 484.411
21.62000 490.975
21.63000 480.190
21.64000 471.323
21.65000 466.929
21.66000 470.030
21.67000 473.249
21.68000 475.913
21.69000 477.959
21.70000 479.997
21.71000 479.446
21.72000 477.029
21.73000 474.723
21.74000 476.272
21.75000 479.722
21.76000 482.806
21.77000 480.343
21.78000 476.008
21.79000 472.052
21.80000 474.432
21.81000 477.822
21.82000 482.734
21.83000 495.765
21.84000 509.995
21.85000 519.510
21.86000 512.295
21.87000 503.606
21.88000 497.380
21.89000 505.173
21.90000 511.604
21.91000 513.811
21.92000 509.044
21.93000 504.173
21.94000 504.580
21.95000 510.784
21.96000 516.968
21.97000 527.371
21.98000 540.675
21.99000 553.767
22.00000 559.776
22.01000 562.342
22.02000 564.828
22.03000 566.115
22.04000 567.004
22.05000 567.813
22.06000 569.091
22.07000 570.316
22.08000 572.334
22.09000 578.521
22.10000 585.311
22.11000 591.630
22.12000 596.298
22.13000 600.823
22.14000 604.052
22.15000 595.195
22.16000 588.045
22.17000 581.171
22.18000 574.748
22.19000 568.331
22.20000 562.339
22.21000 556.807
22.22000 551.298
22.23000 552.660
22.24000 558.811
22.25000 564.809
22.26000 565.884
22.27000 564.602
22.28000 563.050
22.29000 557.633
22.30000 550.948
22.31000 544.873
22.32000 551.307
22.33000 559.436
22.34000 564.861
22.35000 556.321
22.36000 545.793
22.37000 534.438
22.38000 520.236
22.39000 505.794
22.40000 495.540
22.41000 506.437
22.42000 515.402
22.43000 515.449
22.44000 501.206
22.45000 486.774
22.46000 482.749
22.47000 489.784
22.48000 496.788
22.49000 492.938
22.50000 481.661
22.51000 470.694
22.52000 469.284
22.53000 472.386
22.54000 475.068
22.55000 471.828
22.56000 466.677
22.57000 462.005
22.58000 453.321
22.59000 444.889
22.60000 439.011
22.61000 446.112
22.62000 455.028
22.63000 461.116
22.64000 457.609
22.65000 453.311
22.66000 450.273
22.67000 452.343
22.68000 454.072
22.69000 456.617
22.70000 460.452
22.71000 464.303
22.72000 465.496
22.73000 463.911
22.74000 462.334
22.75000 460.890
22.76000 459.554
22.77000 458.160
22.78000 455.046
22.79000 451.132
22.80000 447.765
22.81000 451.914
22.82000 458.454
22.83000 464.375
22.84000 462.212
22.85000 458.784
22.86000 455.030
22.87000 449.642
22.88000 444.029
22.89000 438.747
22.90000 434.572
22.91000 430.486
22.92000 427.611
22.93000 443.676
22.94000 456.410
22.95000 462.561
22.96000 458.473
22.97000 454.265
22.98000 449.428
22.99000 443.944
23.00000 438.490
23.01000 435.661
23.02000 434.617
23.03000 433.799
23.04000 439.461
23.05000 448.096
23.06000 456.285
23.07000 458.518
23.08000 458.883
23.09000 459.212
23.10000 460.380
23.11000 461.561
23.12000 461.657
23.13000 456.410
23.14000 450.442
23.15000 445.650
23.16000 444.729
23.17000 444.112
23.18000 443.680
23.19000 445.825
23.20000 447.521
23.21000 450.015
23.22000 453.734
23.23000 457.466
23.24000 454.517
23.25000 444.817
23.26000 435.176
23.27000 432.411
23.28000 434.194
23.29000 435.832
23.30000 433.495
23.31000 429.360
23.32000 425.792
23.33000 429.654
23.34000 435.812
23.35000 441.363
23.36000 448.539
23.37000 455.134
23.38000 459.386
23.39000 452.287
23.40000 443.685
23.41000 436.959
23.42000 436.325
23.43000 436.158
23.44000 436.041
23.45000 439.151
23.46000 441.586
23.47000 441.434
23.48000 437.378
23.49000 433.282
23.50000 432.724
23.51000 435.678
23.52000 438.614
23.53000 440.945
23.54000 442.850
23.55000 444.614
23.56000 442.579
23.57000 438.851
23.58000 435.603
23.59000 438.484
23.60000 443.232
23.61000 447.503
23.62000 449.461
23.63000 450.763
23.64000 451.627
23.65000 450.402
23.66000 448.907
23.67000 446.456
23.68000 440.946
23.69000 435.207
23.70000 431.226
23.71000 435.105
23.72000 438.235
23.73000 438.904
23.74000 435.914
23.75000 432.891
23.76000 438.795
23.77000 453.419
23.78000 467.942
23.79000 469.231
23.80000 462.097
23.81000 455.099
23.82000 451.606
23.83000 449.654
23.84000 448.117
23.85000 451.784
23.86000 457.011
23.87000 461.704
23.88000 467.075
23.89000 471.891
23.90000 473.863
23.91000 462.482
23.92000 449.398
23.93000 440.263
23.94000 443.578
23.95000 447.805
23.96000 450.723
23.97000 458.483
23.98000 464.438
23.99000 468.227
24.00000 468.846
24.01000 469.437
24.02000 466.434
24.03000 459.981
24.04000 453.575
24.05000 454.848
24.06000 460.897
24.07000 466.551
24.08000 462.342
24.09000 453.864
24.10000 446.076
24.11000 446.712
24.12000 449.839
24.13000 452.639
24.14000 459.201
24.15000 465.579
24.16000 469.920
24.17000 464.858
24.18000 458.619
24.19000 455.387
24.20000 461.497
24.21000 468.274
24.22000 472.930
24.23000 467.304
24.24000 462.833
24.25000 454.481
24.26000 440.533
24.27000 426.542
24.28000 420.578
24.29000 422.196
24.30000 423.801
24.31000 424.909
24.32000 425.693
24.33000 426.458
24.34000 426.775
24.35000 426.901
24.36000 427.064
24.37000 427.672
24.38000 428.409
24.39000 429.068
24.40000 422.839
24.41000 416.244
24.42000 410.900
24.43000 411.240
24.44000 412.278
24.45000 413.164
24.46000 413.582
24.47000 413.968
24.48000 414.232
24.49000 418.078
24.50000 421.041
24.51000 423.275
24.52000 424.476
24.53000 425.669
24.54000 428.587
24.55000 433.105
24.56000 437.585
24.57000 432.726
24.58000 422.307
24.59000 412.288
24.60000 411.649
24.61000 414.955
24.62000 418.111
24.63000 419.510
24.64000 420.405
24.65000 421.204
24.66000 419.444
24.67000 417.487
24.68000 416.978
24.69000 422.950
24.70000 429.703
24.71000 433.733
24.72000 429.546
24.73000 424.801
24.74000 421.573
24.75000 416.722
24.76000 413.063
24.77000 410.894
24.78000 410.811
24.79000 410.740
24.80000 408.441
24.81000 404.105
24.82000 399.808
24.83000 398.500
24.84000 398.998
24.85000 399.602
24.86000 402.613
24.87000 406.622
24.88000 410.335
24.89000 410.672
24.90000 410.054
24.91000 409.504
24.92000 406.083
24.93000 402.643
24.94000 401.256
24.95000 408.920
24.96000 417.652
24.97000 421.640
24.98000 411.518
24.99000 400.461
25.00000 392.978
25.01000 406.219
25.02000 416.536
25.03000 421.272
25.04000 418.321
25.05000 415.322
25.06000 412.718
25.07000 410.467
25.08000 408.238
25.09000 403.077
25.10000 396.305
25.11000 389.811
25.12000 389.416
25.13000 391.512
25.14000 393.809
25.15000 398.350
25.16000 403.515
25.17000 408.102
25.18000 407.890
25.19000 406.938
25.20000 405.224
25.21000 400.204
25.22000 394.802
25.23000 390.910
25.24000 391.446
25.25000 392.268
25.26000 392.821
25.27000 397.502
25.28000 401.068
25.29000 403.633
25.30000 404.839
25.31000 406.034
25.32000 403.640
25.33000 398.072
25.34000 392.561
25.35000 397.367
25.36000 408.019
25.37000 418.190
25.38000 418.118
25.39000 413.922
25.40000 409.557
25.41000 403.358
25.42000 396.657
25.43000 390.721
25.44000 396.637
25.45000 403.622
25.46000 408.999
25.47000 407.504
25.48000 405.228
25.49000 404.246
25.50000 406.999
25.51000 409.987
25.52000 411.989
25.53000 397.578
25.54000 386.558
25.55000 382.910
25.56000 389.103
25.57000 395.343
25.58000 398.175
25.59000 398.044
25.60000 397.914
25.61000 397.536
25.62000 397.027
25.63000 396.568
25.64000 397.138
25.65000 398.118
25.66000 399.114
25.67000 400.282
25.68000 401.498
25.69000 402.572
25.70000 401.693
25.71000 400.632
25.72000 399.997
25.73000 401.152
25.74000 402.507
25.75000 402.707
25.76000 399.620
25.77000 396.331
25.78000 394.138
25.79000 407.227
25.80000 417.208
25.81000 418.846
25.82000 409.516
25.83000 400.148
25.84000 398.077
25.85000 402.251
25.86000 406.378
25.87000 403.677
25.88000 397.227
25.89000 391.290
25.90000 395.642
25.91000 404.019
25.92000 411.510
25.93000 409.733
25.94000 405.488
25.95000 401.745
25.96000 403.853
25.97000 406.558
25.98000 407.793
25.99000 402.939
26.00000 397.420
26.01000 391.607
26.02000 384.970
26.03000 378.283
26.04000 373.851
26.05000 384.874
26.06000 393.300
26.07000 396.492
26.08000 392.911
26.09000 389.310
26.10000 389.213
26.11000 392.067
26.12000 394.887
26.13000 391.950
26.14000 385.921
26.15000 380.269
26.16000 381.964
26.17000 386.493
26.18000 390.762
26.19000 392.363
26.20000 393.266
26.21000 394.060
26.22000 392.341
26.23000 390.488
26.24000 388.077
26.25000 383.384
26.26000 378.448
26.27000 377.391
26.28000 387.058
26.29000 397.349
26.30000 404.135
26.31000 401.184
26.32000 398.839
26.33000 396.124
26.34000 392.937
26.35000 389.754
26.36000 388.806
26.37000 389.709
26.38000 390.602
26.39000 392.934
26.40000 395.985
26.41000 398.930
26.42000 399.870
26.43000 400.048
26.44000 400.047
26.45000 398.257
26.46000 396.004
26.47000 394.027
26.48000 394.981
26.49000 396.228
26.50000 396.616
26.51000 393.557
26.52000 390.136
26.53000 387.463
26.54000 386.827
26.55000 386.307
26.56000 385.966
26.57000 389.114
26.58000 391.487
26.59000 390.418
26.60000 385.030
26.61000 379.642
26.62000 379.614
26.63000 383.960
26.64000 388.246
26.65000 389.980
26.66000 390.306
26.67000 390.452
26.68000 387.291
26.69000 382.891
26.70000 379.113
26.71000 381.438
26.72000 385.316
26.73000 388.711
26.74000 385.303
26.75000 381.405
26.76000 378.958
26.77000 382.253
26.78000 386.137
26.79000 388.876
26.80000 388.538
26.81000 388.030
26.82000 387.699
26.83000 384.076
26.84000 381.365
26.85000 382.367
26.86000 387.951
26.87000 393.537
26.88000 395.680
26.89000 395.057
26.90000 394.443
26.91000 388.270
26.92000 379.360
26.93000 371.317
26.94000 378.773
26.95000 391.951
26.96000 403.218
26.97000 396.108
26.98000 384.393
26.99000 374.161
27.00000 376.349
27.01000 379.969
27.02000 382.010
27.03000 377.898
27.04000 373.167
27.05000 372.246
27.06000 381.417
27.07000 391.127
27.08000 397.428
27.09000 398.333
27.10000 398.914
27.11000 395.868
27.12000 388.416
27.13000 380.964
27.14000 376.419
27.15000 374.172
27.16000 371.958
27.17000 369.660
27.18000 367.387
27.19000 365.232
27.20000 365.150
27.21000 365.822
27.22000 367.259
27.23000 375.913
27.24000 386.348
27.25000 395.439
27.26000 390.341
27.27000 384.026
27.28000 379.581
27.29000 382.318
27.30000 385.762
27.31000 385.816
27.32000 377.021
27.33000 367.767
27.34000 361.795
27.35000 369.080
27.36000 374.592
27.37000 378.475
27.38000 380.410
27.39000 382.329
27.40000 380.841
27.41000 376.704
27.42000 372.632
27.43000 369.293
27.44000 366.430
27.45000 363.830
27.46000 365.684
27.47000 369.136
27.48000 372.825
27.49000 378.697
27.50000 385.101
27.51000 390.665
27.52000 387.208
27.53000 383.037
27.54000 380.210
27.55000 382.466
27.56000 385.211
27.57000 383.468
27.58000 370.180
27.59000 356.307
27.60000 347.407
27.61000 350.976
27.62000 353.748
27.63000 358.387
27.64000 365.225
27.65000 372.052
27.66000 375.849
27.67000 377.323
27.68000 378.773
27.69000 373.962
27.70000 366.177
27.71000 358.607
27.72000 354.597
27.73000 351.846
27.74000 349.782
27.75000 353.946
27.76000 359.601
27.77000 364.502
27.78000 370.205
27.79000 375.165
27.80000 378.957
27.81000 378.396
27.82000 377.424
27.83000 376.183
27.84000 374.258
27.85000 372.299
27.86000 371.049
27.87000 362.228
27.88000 355.714
27.89000 353.666
27.90000 356.788
27.91000 359.899
27.92000 359.471
27.93000 356.372
27.94000 353.327
27.95000 352.642
27.96000 353.141
27.97000 353.613
27.98000 353.648
27.99000 353.530
28.00000 353.783
28.01000 357.324
28.02000 361.639
28.03000 365.371
28.04000 361.071
28.05000 356.371
28.06000 354.398
28.07000 362.433
28.08000 371.393
28.09000 375.725
28.10000 368.495
28.11000 360.714
28.12000 355.778
28.13000 357.709
28.14000 359.194
28.15000 359.258
28.16000 357.704
28.17000 356.151
28.18000 355.160
28.19000 354.585
28.20000 354.021
28.21000 356.639
28.22000 360.706
28.23000 364.795
28.24000 369.229
28.25000 373.782
28.26000 377.464
28.27000 373.573
28.28000 367.925
28.29000 363.053
28.30000 358.904
28.31000 355.477
28.32000 354.879
28.33000 364.504
28.34000 375.054
28.35000 380.918
28.36000 375.242
28.37000 369.033
28.38000 365.116
28.39000 366.191
28.40000 367.026
28.41000 366.020
28.42000 362.949
28.43000 359.890
28.44000 359.204
28.45000 360.253
28.46000 361.281
28.47000 361.091
28.48000 360.327
28.49000 359.595
28.50000 359.350
28.51000 359.270
28.52000 358.797
28.53000 354.980
28.54000 350.398
28.55000 346.458
28.56000 346.990
28.57000 348.002
28.58000 350.462
28.59000 358.077
28.60000 366.149
28.61000 370.271
28.62000 364.806
28.63000 358.911
28.64000 355.215
28.65000 359.624
28.66000 362.897
28.67000 362.402
28.68000 357.753
28.69000 353.134
28.70000 353.571
28.71000 357.648
28.72000 361.645
28.73000 363.303
28.74000 363.801
28.75000 364.310
28.76000 364.980
28.77000 365.704
28.78000 366.433
28.79000 367.210
28.80000 367.998
28.81000 368.674
28.82000 368.030
28.83000 367.324
28.84000 365.017
28.85000 357.094
28.86000 348.685
28.87000 345.715
28.88000 355.760
28.89000 366.369
28.90000 372.983
28.91000 376.749
28.92000 379.433
28.93000 377.139
28.94000 369.447
28.95000 361.778
28.96000 357.829
28.97000 356.516
28.98000 355.230
28.99000 359.020
29.00000 365.008
29.01000 370.698
29.02000 372.055
29.03000 371.988
29.04000 371.607
29.05000 368.646
29.06000 365.113
29.07000 362.090
29.08000 360.291
29.09000 358.921
29.10000 356.558
29.11000 350.761
29.12000 344.674
29.13000 340.516
29.14000 340.911
29.15000 341.496
29.16000 341.859
29.17000 349.849
29.18000 355.669
29.19000 358.069
29.20000 356.824
29.21000 355.601
29.22000 357.330
29.23000 361.122
29.24000 364.832
29.25000 365.832
29.26000 365.560
29.27000 365.232
29.28000 364.107
29.29000 362.723
29.30000 361.052
29.31000 357.069
29.32000 352.582
29.33000 348.753
29.34000 349.567
29.35000 350.802
29.36000 351.378
29.37000 349.716
29.38000 347.869
29.39000 347.826
29.40000 351.977
29.41000 356.299
29.42000 358.961
29.43000 358.035
29.44000 357.339
29.45000 355.294
29.46000 351.836
29.47000 348.390
29.48000 346.382
29.49000 345.362
29.50000 344.366
29.51000 345.424
29.52000 347.359
29.53000 349.227
29.54000 350.184
29.55000 350.851
29.56000 351.503
29.57000 352.042
29.58000 352.556
29.59000 352.994
29.60000 358.938
29.61000 364.570
29.62000 368.230
29.63000 365.269
29.64000 361.772
29.65000 359.056
29.66000 358.129
29.67000 357.273
29.68000 356.748
29.69000 361.285
29.70000 364.575
29.71000 364.021
29.72000 359.504
29.73000 354.999
29.74000 351.922
29.75000 349.811
29.76000 347.750
29.77000 351.642
29.78000 357.991
29.79000 363.791
29.80000 362.200
29.81000 358.284
29.82000 355.387
29.83000 360.393
29.84000 367.068
29.85000 372.734
29.86000 378.087
29.87000 382.541
29.88000 385.189
29.89000 381.862
29.90000 378.064
29.91000 375.746
29.92000 376.772
29.93000 377.926
29.94000 378.628
29.95000 390.819
29.96000 399.616
29.97000 401.994
29.98000 397.864
29.99000 393.736
30.00000 389.868
30.01000 386.173
30.02000 382.568
30.03000 380.919
30.04000 380.193
30.05000 379.731
30.06000 382.755
30.07000 386.861
30.08000 391.320
30.09000 398.472
30.10000 406.184
30.11000 412.711
30.12000 410.151
30.13000 406.997
30.14000 403.841
30.15000 400.680
30.16000 397.518
30.17000 395.376
30.18000 395.505
30.19000 395.717
30.20000 395.845
30.21000 398.422
30.22000 400.276
30.23000 395.849
30.24000 385.159
30.25000 374.529
30.26000 369.600
30.27000 368.415
30.28000 367.260
30.29000 372.260
30.30000 379.660
30.31000 386.542
30.32000 386.787
30.33000 385.004
30.34000 383.817
30.35000 387.082
30.36000 391.257
30.37000 394.781
30.38000 388.118
30.39000 381.440
30.40000 375.279
30.41000 370.777
30.42000 366.400
30.43000 364.551
30.44000 368.247
30.45000 372.140
30.46000 374.479
30.47000 380.080
30.48000 384.083
30.49000 383.058
30.50000 377.102
30.51000 371.170
30.52000 367.295
30.53000 364.753
30.54000 362.276
30.55000 363.278
30.56000 365.695
30.57000 368.078
30.58000 370.045
30.59000 371.886
30.60000 373.571
30.61000 374.106
30.62000 374.410
30.63000 374.666
30.64000 372.651
30.65000 370.727
30.66000 371.951
30.67000 383.128
30.68000 395.038
30.69000 400.193
30.70000 390.739
30.71000 380.784
30.72000 374.840
30.73000 374.700
30.74000 374.637
30.75000 380.751
30.76000 392.820
30.77000 404.739
30.78000 404.266
30.79000 395.895
30.80000 387.750
30.81000 383.128
30.82000 380.184
30.83000 377.628
30.84000 379.839
30.85000 383.464
30.86000 387.043
30.87000 390.297
30.88000 393.487
30.89000 396.164
30.90000 400.451
30.91000 404.188
30.92000 406.692
30.93000 405.354
30.94000 403.740
30.95000 405.947
30.96000 416.299
30.97000 426.920
30.98000 433.221
30.99000 436.254
31.00000 438.381
31.01000 440.942
31.02000 443.916
31.03000 446.935
31.04000 453.549
31.05000 462.419
31.06000 471.042
31.07000 477.970
31.08000 483.867
31.09000 490.732
31.10000 509.193
31.11000 531.042
31.12000 552.728
31.13000 573.263
31.14000 593.574
31.15000 610.569
31.16000 638.820
31.17000 663.448
31.18000 688.729
31.19000 716.021
31.20000 743.454
31.21000 777.609
31.22000 825.887
31.23000 874.613
31.24000 903.333
31.25000 966.543
31.26000 1011.346
31.27000 1067.974
31.28000 1135.627
31.29000 1203.053
31.30000 1253.834
31.31000 1294.317
31.32000 1333.625
31.33000 1383.816
31.34000 1435.815
31.35000 1487.394
31.36000 1534.051
31.37000 1579.290
31.38000 1624.503
31.39000 1669.526
31.40000 1714.513
31.41000 1752.046
31.42000 1768.498
31.43000 1780.029
31.44000 1785.740
31.45000 1773.835
31.46000 1760.726
31.47000 1746.639
31.48000 1730.526
31.49000 1714.350
31.50000 1704.879
31.51000 1659.843
31.52000 1627.954
31.53000 1587.343
31.54000 1538.735
31.55000 1490.050
31.56000 1436.087
31.57000 1378.906
31.58000 1323.444
31.59000 1265.493
31.60000 1209.584
31.61000 1153.515
31.62000 1095.601
31.63000 1037.164
31.64000 981.256
31.65000 942.620
31.66000 907.243
31.67000 877.815
31.68000 826.021
31.69000 780.952
31.70000 741.132
31.71000 716.974
31.72000 693.861
31.73000 667.522
31.74000 634.600
31.75000 601.485
31.76000 582.223
31.77000 560.382
31.78000 545.032
31.79000 535.333
31.80000 530.732
31.81000 526.045
31.82000 515.756
31.83000 502.103
31.84000 488.876
31.85000 472.604
31.86000 456.023
31.87000 440.069
31.88000 431.133
31.89000 424.159
31.90000 417.424
31.91000 412.295
31.92000 407.464
31.93000 403.458
31.94000 402.082
31.95000 401.198
31.96000 399.194
31.97000 393.897
31.98000 388.386
31.99000 383.541
32.00000 380.036
32.01000 376.569
32.02000 374.566
32.03000 361.928
32.04000 353.034
32.05000 349.705
32.06000 351.314
32.07000 352.905
32.08000 353.330
32.09000 353.065
32.10000 352.809
32.11000 350.743
32.12000 348.100
32.13000 346.586
32.14000 357.468
32.15000 371.762
32.16000 382.968
32.17000 373.816
32.18000 360.949
32.19000 350.309
32.20000 336.793
32.21000 325.376
32.22000 317.112
32.23000 317.983
32.24000 319.433
32.25000 322.607
32.26000 329.198
32.27000 335.881
32.28000 339.716
32.29000 343.345
32.30000 345.880
32.31000 347.150
32.32000 347.316
32.33000 347.427
32.34000 344.382
32.35000 339.496
32.36000 334.772
32.37000 331.662
32.38000 329.334
32.39000 327.078
32.40000 325.592
32.41000 324.315
32.42000 323.059
32.43000 321.946
32.44000 320.857
32.45000 319.960
32.46000 315.406
32.47000 311.320
32.48000 310.614
32.49000 319.560
32.50000 329.102
32.51000 334.790
32.52000 332.951
32.53000 330.915
32.54000 329.755
32.55000 324.437
32.56000 320.721
32.57000 321.345
32.58000 325.695
32.59000 329.996
32.60000 331.590
32.61000 331.628
32.62000 331.664
32.63000 329.759
32.64000 327.246
32.65000 325.004
32.66000 325.603
32.67000 326.962
32.68000 328.142
32.69000 328.193
32.70000 328.045
32.71000 327.923
32.72000 321.378
32.73000 315.423
32.74000 311.680
32.75000 314.161
32.76000 317.016
32.77000 320.274
32.78000 324.307
32.79000 328.360
32.80000 330.653
32.81000 330.247
32.82000 329.957
32.83000 329.645
32.84000 329.314
32.85000 328.971
32.86000 327.926
32.87000 326.485
32.88000 325.094
32.89000 326.261
32.90000 328.290
32.91000 329.602
32.92000 323.547
32.93000 315.554
32.94000 308.033
32.95000 303.467
32.96000 299.414
32.97000 296.094
32.98000 305.916
32.99000 315.128
33.00000 320.894
33.01000 317.104
33.02000 312.755
33.03000 308.671
33.04000 305.092
33.05000 301.526
33.06000 299.521
33.07000 305.712
33.08000 310.019
33.09000 309.530
33.10000 305.051
33.11000 300.644
33.12000 299.784
33.13000 300.904
33.14000 301.983
33.15000 302.917
33.16000 303.743
33.17000 304.549
33.18000 305.151
33.19000 305.700
33.20000 304.846
33.21000 295.367
33.22000 284.415
33.23000 275.471
33.24000 284.469
33.25000 293.379
33.26000 299.586
33.27000 298.401
33.28000 296.796
33.29000 296.537
33.30000 298.799
33.31000 301.118
33.32000 302.412
33.33000 309.932
33.34000 315.134
33.35000 312.972
33.36000 304.784
33.37000 296.716
33.38000 294.398
33.39000 295.242
33.40000 296.054
33.41000 295.778
33.42000 295.136
33.43000 294.474
33.44000 293.610
33.45000 292.696
33.46000 291.097
33.47000 285.363
33.48000 278.934
33.49000 273.701
33.50000 280.768
33.51000 287.578
33.52000 293.984
33.53000 299.300
33.54000 304.557
33.55000 308.284
33.56000 309.193
33.57000 310.042
33.58000 310.511
33.59000 302.782
33.60000 297.430
33.61000 292.348
33.62000 287.483
33.63000 282.770
33.64000 285.017
33.65000 291.033
33.66000 296.814
33.67000 301.585
33.68000 305.704
33.69000 308.939
33.70000 303.644
33.71000 296.204
33.72000 289.248
33.73000 285.171
33.74000 281.569
33.75000 278.646
33.76000 287.219
33.77000 295.155
33.78000 299.788
33.79000 295.645
33.80000 291.030
33.81000 288.721
33.82000 290.599
33.83000 292.565
33.84000 293.646
33.85000 290.375
33.86000 288.129
33.87000 289.733
33.88000 294.391
33.89000 298.865
33.90000 295.306
33.91000 287.459
33.92000 279.927
33.93000 281.673
33.94000 286.473
33.95000 291.133
33.96000 294.479
33.97000 297.499
33.98000 299.819
33.99000 298.053
34.00000 295.624
34.01000 293.659
34.02000 286.395
34.03000 280.058
34.04000 277.550
34.05000 285.068
34.06000 293.111
34.07000 297.941
34.08000 297.020
34.09000 295.986
34.10000 295.421
34.11000 294.991
34.12000 294.688
34.13000 292.614
34.14000 289.155
34.15000 285.697
34.16000 282.269
34.17000 278.857
34.18000 275.587
34.19000 280.076
34.20000 286.874
34.21000 293.207
34.22000 295.228
34.23000 296.196
34.24000 297.035
34.25000 297.127
34.26000 297.101
34.27000 297.079
34.28000 296.738
34.29000 296.436
34.30000 296.350
34.31000 296.823
34.32000 297.324
34.33000 296.958
34.34000 295.059
34.35000 293.132
34.36000 292.088
34.37000 296.480
34.38000 299.463
34.39000 294.819
34.40000 284.312
34.41000 274.106
34.42000 275.825
34.43000 283.727
34.44000 291.292
34.45000 288.349
34.46000 282.133
34.47000 276.911
34.48000 280.737
34.49000 286.735
34.50000 292.157
34.51000 294.325
34.52000 295.982
34.53000 297.314
34.54000 293.392
34.55000 289.809
34.56000 286.985
34.57000 286.091
34.58000 285.291
34.59000 283.534
34.60000 280.114
34.61000 276.663
34.62000 274.807
34.63000 282.987
34.64000 288.562
34.65000 289.260
34.66000 286.268
34.67000 283.365
34.68000 283.851
34.69000 286.069
34.70000 288.189
34.71000 287.138
34.72000 285.128
34.73000 283.728
34.74000 287.769
34.75000 293.097
34.76000 296.640
34.77000 290.272
34.78000 282.378
34.79000 276.055
34.80000 277.039
34.81000 278.385
34.82000 280.312
34.83000 283.697
34.84000 287.152
34.85000 284.742
34.86000 272.294
34.87000 259.675
34.88000 252.941
34.89000 262.901
34.90000 269.664
34.91000 269.426
34.92000 263.973
34.93000 258.702
34.94000 260.121
34.95000 264.908
34.96000 269.478
34.97000 277.054
34.98000 285.054
34.99000 292.522
35.00000 295.336
35.01000 297.066
35.02000 297.992
35.03000 294.525
35.04000 290.393
35.05000 287.095
35.06000 282.559
35.07000 278.805
35.08000 274.770
35.09000 270.040
35.10000 265.279
35.11000 262.210
35.12000 261.997
35.13000 261.830
35.14000 261.742
35.15000 270.258
35.16000 276.039
35.17000 279.655
35.18000 281.683
35.19000 283.626
35.20000 282.581
35.21000 280.053
35.22000 277.643
35.23000 274.212
35.24000 270.708
35.25000 268.226
35.26000 274.498
35.27000 282.777
35.28000 288.997
35.29000 284.148
35.30000 277.653
35.31000 272.486
35.32000 269.652
35.33000 267.535
35.34000 266.300
35.35000 267.212
35.36000 268.220
35.37000 269.509
35.38000 271.263
35.39000 273.024
35.40000 273.950
35.41000 271.307
35.42000 269.510
35.43000 267.054
35.44000 264.124
35.45000 261.307
35.46000 262.352
35.47000 265.284
35.48000 268.076
35.49000 269.457
35.50000 270.299
35.51000 270.854
35.52000 268.997
35.53000 266.594
35.54000 264.759
35.55000 265.922
35.56000 267.524
35.57000 268.793
35.58000 262.997
35.59000 257.842
35.60000 254.553
35.61000 255.747
35.62000 257.137
35.63000 259.094
35.64000 261.981
35.65000 264.881
35.66000 266.392
35.67000 266.956
35.68000 267.322
35.69000 265.682
35.70000 262.614
35.71000 259.673
35.72000 260.843
35.73000 263.995
35.74000 266.992
35.75000 266.345
35.76000 264.635
35.77000 262.949
35.78000 261.461
35.79000 260.016
35.80000 258.965
35.81000 259.962
35.82000 261.253
35.83000 262.272
35.84000 262.833
35.85000 263.252
35.86000 263.836
35.87000 264.813
35.88000 265.806
35.89000 266.202
35.90000 265.637
35.91000 265.058
35.92000 264.759
35.93000 271.137
35.94000 275.368
35.95000 270.464
35.96000 259.162
35.97000 248.267
35.98000 250.135
35.99000 258.067
36.00000 265.599
36.01000 260.582
36.02000 252.187
36.03000 244.996
36.04000 247.551
36.05000 252.236
36.06000 256.977
36.07000 262.001
36.08000 267.064
36.09000 271.050
36.10000 269.386
36.11000 267.676
36.12000 265.097
36.13000 260.491
36.14000 255.802
36.15000 253.066
36.16000 253.433
36.17000 253.840
36.18000 254.049
36.19000 248.499
36.20000 244.819
36.21000 247.400
36.22000 254.301
36.23000 261.152
36.24000 266.490
36.25000 271.120
36.26000 275.510
36.27000 275.396
36.28000 273.961
36.29000 271.906
36.30000 264.919
36.31000 256.870
36.32000 250.297
36.33000 251.160
36.34000 253.052
36.35000 254.537
36.36000 256.192
36.37000 257.527
36.38000 258.622
36.39000 259.164
36.40000 259.684
36.41000 261.232
36.42000 264.389
36.43000 267.566
36.44000 269.181
36.45000 266.153
36.46000 264.165
36.47000 266.936
36.48000 272.938
36.49000 278.636
36.50000 275.449
36.51000 268.162
36.52000 261.262
36.53000 260.053
36.54000 260.593
36.55000 260.573
36.56000 256.189
36.57000 250.880
36.58000 247.260
36.59000 252.013
36.60000 257.904
36.61000 262.509
36.62000 261.218
36.63000 259.814
36.64000 258.273
36.65000 256.421
36.66000 254.557
36.67000 255.166
36.68000 259.587
36.69000 264.050
36.70000 266.302
36.71000 270.850
36.72000 273.846
36.73000 272.122
36.74000 267.239
36.75000 262.422
36.76000 259.439
36.77000 257.290
36.78000 255.258
36.79000 258.314
36.80000 262.574
36.81000 265.999
36.82000 263.037
36.83000 258.743
36.84000 256.612
36.85000 265.030
36.86000 274.855
36.87000 282.507
36.88000 278.867
36.89000 275.269
36.90000 271.547
36.91000 267.551
36.92000 263.544
36.93000 261.352
36.94000 261.914
36.95000 262.506
36.96000 262.801
36.97000 273.239
36.98000 280.156
36.99000 282.928
37.00000 282.969
37.01000 283.002
37.02000 282.800
37.03000 282.493
37.04000 282.203
37.05000 284.960
37.06000 288.346
37.07000 291.446
37.08000 292.408
37.09000 292.932
37.10000 292.685
37.11000 288.739
37.12000 284.308
37.13000 280.869
37.14000 290.052
37.15000 298.112
37.16000 300.312
37.17000 289.615
37.18000 278.457
37.19000 272.147
37.20000 273.092
37.21000 274.107
37.22000 274.698
37.23000 274.873
37.24000 275.047
37.25000 275.179
37.26000 275.285
37.27000 275.398
37.28000 275.733
37.29000 276.166
37.30000 276.574
37.31000 271.369
37.32000 265.050
37.33000 259.811
37.34000 262.529
37.35000 266.854
37.36000 270.468
37.37000 270.727
37.38000 270.555
37.39000 270.422
37.40000 260.012
37.41000 251.149
37.42000 247.219
37.43000 253.987
37.44000 261.124
37.45000 265.899
37.46000 267.193
37.47000 268.455
37.48000 267.363
37.49000 263.995
37.50000 260.638
37.51000 258.327
37.52000 256.685
37.53000 255.155
37.54000 256.461
37.55000 259.002
37.56000 261.394
37.57000 254.979
37.58000 246.720
37.59000 239.853
37.60000 243.062
37.61000 248.274
37.62000 252.265
37.63000 250.573
37.64000 248.165
37.65000 246.310
37.66000 248.487
37.67000 250.441
37.68000 251.528
37.69000 250.758
37.70000 249.927
37.71000 250.356
37.72000 252.616
37.73000 254.891
37.74000 257.352
37.75000 259.989
37.76000 262.601
37.77000 263.274
37.78000 262.725
37.79000 262.179
37.80000 261.722
37.81000 261.303
37.82000 260.909
37.83000 257.271
37.84000 253.082
37.85000 249.821
37.86000 253.154
37.87000 257.777
37.88000 260.934
37.89000 257.377
37.90000 252.989
37.91000 249.622
37.92000 253.286
37.93000 256.573
37.94000 259.607
37.95000 262.106
37.96000 264.587
37.97000 264.696
37.98000 261.413
37.99000 258.104
38.00000 257.640
38.01000 259.838
38.02000 262.048
38.03000 265.171
38.04000 268.862
38.05000 272.341
38.06000 270.815
38.07000 267.171
38.08000 263.751
38.09000 260.729
38.10000 258.080
38.11000 255.972
38.12000 257.642
38.13000 260.038
38.14000 262.532
38.15000 265.461
38.16000 268.443
38.17000 270.723
38.18000 269.143
38.19000 267.687
38.20000 266.654
38.21000 266.499
38.22000 266.370
38.23000 266.264
38.24000 266.189
38.25000 266.115
38.26000 269.560
38.27000 276.242
38.28000 282.875
38.29000 286.175
38.30000 287.436
38.31000 288.483
38.32000 284.613
38.33000 278.692
38.34000 273.146
38.35000 276.158
38.36000 281.113
38.37000 285.967
38.38000 290.132
38.39000 294.166
38.40000 298.098
38.41000 301.579
38.42000 305.005
38.43000 307.615
38.44000 307.871
38.45000 307.949
38.46000 310.597
38.47000 318.508
38.48000 326.576
38.49000 338.074
38.50000 354.329
38.51000 370.610
38.52000 386.829
38.53000 402.979
38.54000 419.182
38.55000 438.861
38.56000 460.635
38.57000 482.301
38.58000 501.563
38.59000 519.837
38.60000 536.926
38.61000 581.920
38.62000 629.881
38.63000 675.514
38.64000 705.458
38.65000 732.481
38.66000 761.046
38.67000 796.344
38.68000 832.429
38.69000 859.803
38.70000 916.827
38.71000 963.146
38.72000 997.167
38.73000 1006.377
38.74000 1014.879
38.75000 1028.412
38.76000 1048.813
38.77000 1069.246
38.78000 1073.602
38.79000 1063.654
38.80000 1053.696
38.81000 1043.104
38.82000 1032.135
38.83000 1020.875
38.84000 1003.347
38.85000 983.280
38.86000 964.544
38.87000 937.490
38.88000 910.882
38.89000 883.061
38.90000 847.217
38.91000 809.903
38.92000 772.060
38.93000 731.941
38.94000 691.560
38.95000 661.048
38.96000 616.638
38.97000 581.127
38.98000 548.566
38.99000 521.874
39.00000 495.342
39.01000 471.060
39.02000 449.805
39.03000 428.577
39.04000 412.084
39.05000 399.759
39.06000 387.343
39.07000 369.637
39.08000 348.837
39.09000 328.564
39.10000 319.326
39.11000 314.496
39.12000 309.994
39.13000 301.567
39.14000 292.975
39.15000 284.950
39.16000 280.622
39.17000 276.960
39.18000 274.500
39.19000 277.130
39.20000 280.332
39.21000 282.742
39.22000 276.278
39.23000 270.789
39.24000 263.416
39.25000 252.349
39.26000 241.185
39.27000 238.299
39.28000 246.368
39.29000 254.484
39.30000 259.276
39.31000 261.199
39.32000 263.013
39.33000 258.721
39.34000 250.912
39.35000 243.453
39.36000 243.124
39.37000 245.602
39.38000 247.907
39.39000 246.915
39.40000 245.220
39.41000 243.786
39.42000 244.025
39.43000 244.560
39.44000 245.134
39.45000 245.875
39.46000 246.634
39.47000 247.204
39.48000 247.395
39.49000 247.527
39.50000 245.846
39.51000 240.663
39.52000 235.391
39.53000 231.036
39.54000 227.873
39.55000 224.718
39.56000 223.651
39.57000 224.355
39.58000 225.073
39.59000 226.597
39.60000 228.578
39.61000 230.512
39.62000 231.519
39.63000 232.167
39.64000 232.768
39.65000 229.924
39.66000 226.538
39.67000 224.542
39.68000 231.276
39.69000 239.531
39.70000 244.417
39.71000 235.468
39.72000 225.027
39.73000 217.231
39.74000 221.744
39.75000 225.825
39.76000 232.110
39.77000 242.587
39.78000 253.165
39.79000 253.399
39.80000 240.364
39.81000 227.294
39.82000 221.591
39.83000 222.036
39.84000 222.482
39.85000 223.032
39.86000 223.639
39.87000 224.451
39.88000 229.185
39.89000 235.419
39.90000 241.199
39.91000 239.042
39.92000 235.241
39.93000 231.488
39.94000 228.034
39.95000 224.630
39.96000 223.094
39.97000 229.109
39.98000 235.923
39.99000 240.989
40.00000 235.728
40.01000 231.177
40.02000 227.051
40.03000 223.726
40.04000 220.418
40.05000 220.533
40.06000 224.969
40.07000 229.414
40.08000 232.942
40.09000 235.708
40.10000 238.411
40.11000 238.025
40.12000 235.937
40.13000 233.759
40.14000 229.912
40.15000 225.436
40.16000 221.292
40.17000 220.432
40.18000 220.414
40.19000 220.693
40.20000 222.775
40.21000 225.162
40.22000 227.311
40.23000 228.515
40.24000 229.621
40.25000 230.440
40.26000 230.038
40.27000 229.673
40.28000 229.389
40.29000 229.255
40.30000 229.125
40.31000 228.436
40.32000 227.053
40.33000 225.671
40.34000 222.434
40.35000 217.715
40.36000 213.085
40.37000 212.500
40.38000 214.111
40.39000 215.622
40.40000 215.300
40.41000 214.298
40.42000 213.372
40.43000 214.357
40.44000 215.673
40.45000 217.275
40.46000 220.576
40.47000 224.160
40.48000 226.650
40.49000 224.851
40.50000 222.617
40.51000 220.970
40.52000 218.988
40.53000 217.438
40.54000 217.676
40.55000 221.169
40.56000 224.730
40.57000 225.749
40.58000 223.658
40.59000 221.562
40.60000 221.211
40.61000 222.243
40.62000 223.199
40.63000 220.822
40.64000 216.659
40.65000 212.784
40.66000 213.957
40.67000 216.980
40.68000 219.768
40.69000 222.237
40.70000 224.378
40.71000 225.494
40.72000 220.601
40.73000 214.730
40.74000 210.695
40.75000 213.757
40.76000 217.523
40.77000 220.289
40.78000 220.968
40.79000 221.407
40.80000 220.615
40.81000 217.612
40.82000 214.565
40.83000 212.678
40.84000 212.187
40.85000 211.701
40.86000 212.954
40.87000 215.557
40.88000 218.095
40.89000 217.905
40.90000 216.275
40.91000 214.453
40.92000 209.331
40.93000 203.017
40.94000 197.204
40.95000 201.827
40.96000 208.244
40.97000 214.325
40.98000 218.468
40.99000 222.300
41.00000 225.287
41.01000 225.057
41.02000 224.513
41.03000 224.116
41.04000 209.703
41.05000 198.031
41.06000 194.300
41.07000 204.616
41.08000 215.200
41.09000 221.153
41.10000 221.619
41.11000 222.074
41.12000 222.476
41.13000 222.835
41.14000 223.100
41.15000 219.550
41.16000 214.017
41.17000 209.031
41.18000 213.165
41.19000 220.543
41.20000 227.322
41.21000 225.043
41.22000 221.061
41.23000 217.990
41.24000 220.095
41.25000 223.015
41.26000 224.730
41.27000 221.934
41.28000 218.707
41.29000 216.357
41.30000 216.499
41.31000 216.704
41.32000 215.952
41.33000 213.534
41.34000 211.086
41.35000 209.957
41.36000 210.366
41.37000 210.777
41.38000 210.492
41.39000 209.684
41.40000 208.955
41.41000 211.283
41.42000 215.177
41.43000 218.733
41.44000 216.801
41.45000 212.944
41.46000 209.407
41.47000 209.117
41.48000 209.544
41.49000 210.350
41.50000 213.264
41.51000 216.505
41.52000 219.063
41.53000 219.102
41.54000 218.906
41.55000 218.764
41.56000 214.994
41.57000 211.963
41.58000 211.290
41.59000 214.665
41.60000 218.109
41.61000 216.911
41.62000 210.386
41.63000 203.874
41.64000 202.748
41.65000 205.627
41.66000 208.439
41.67000 208.813
41.68000 207.954
41.69000 207.221
41.70000 208.460
41.71000 210.380
41.72000 212.138
41.73000 209.930
41.74000 207.141
41.75000 205.498
41.76000 210.142
41.77000 215.741
41.78000 219.702
41.79000 217.705
41.80000 215.164
41.81000 213.329
41.82000 208.630
41.83000 204.924
41.84000 204.842
41.85000 210.893
41.86000 217.044
41.87000 219.246
41.88000 216.993
41.89000 214.743
41.90000 213.059
41.91000 211.801
41.92000 210.643
41.93000 213.030
41.94000 217.181
41.95000 220.866
41.96000 217.360
41.97000 211.405
41.98000 205.963
41.99000 202.628
42.00000 200.097
42.01000 198.956
42.02000 205.321
42.03000 212.805
42.04000 218.333
42.05000 216.844
42.06000 214.729
42.07000 213.209
42.08000 212.057
42.09000 211.188
42.10000 210.662
42.11000 210.706
42.12000 210.758
42.13000 208.606
42.14000 204.004
42.15000 199.418
42.16000 201.355
42.17000 207.960
42.18000 214.394
42.19000 214.996
42.20000 212.737
42.21000 210.429
42.22000 207.384
42.23000 204.092
42.24000 201.089
42.25000 204.845
42.26000 209.532
42.27000 212.602
42.28000 207.094
42.29000 200.328
42.30000 195.123
42.31000 195.427
42.32000 196.213
42.33000 196.775
42.34000 204.078
42.35000 209.880
42.36000 211.870
42.37000 207.597
42.38000 203.234
42.39000 201.959
42.40000 204.056
42.41000 206.147
42.42000 207.345
42.43000 207.901
42.44000 208.363
42.45000 205.740
42.46000 201.625
42.47000 198.138
42.48000 203.849
42.49000 212.602
42.50000 220.569
42.51000 211.685
42.52000 200.499
42.53000 192.159
42.54000 198.681
42.55000 207.344
42.56000 214.659
42.57000 217.285
42.58000 219.510
42.59000 221.094
42.60000 214.658
42.61000 209.493
42.62000 205.020
42.63000 201.669
42.64000 198.333
42.65000 195.332
42.66000 192.691
42.67000 190.062
42.68000 192.708
42.69000 198.996
42.70000 205.067
42.71000 204.284
42.72000 200.234
42.73000 196.730
42.74000 201.035
42.75000 207.883
42.76000 214.104
42.77000 210.282
42.78000 204.958
42.79000 199.676
42.80000 194.607
42.81000 189.569
42.82000 186.556
42.83000 190.484
42.84000 194.992
42.85000 198.188
42.86000 193.324
42.87000 189.372
42.88000 188.553
42.89000 192.729
42.90000 196.970
42.91000 197.983
42.92000 195.587
42.93000 193.202
42.94000 196.663
42.95000 204.086
42.96000 211.170
42.97000 207.977
42.98000 199.955
42.99000 192.580
43.00000 194.217
43.01000 198.748
43.02000 202.856
43.03000 206.968
43.04000 210.596
43.05000 212.943
43.06000 208.815
43.07000 203.787
43.08000 199.505
43.09000 197.744
43.10000 196.188
43.11000 195.089
43.12000 189.057
43.13000 184.331
43.14000 183.630
43.15000 189.254
43.16000 194.954
43.17000 197.678
43.18000 197.310
43.19000 196.943
43.20000 196.765
43.21000 196.715
43.22000 196.740
43.23000 198.986
43.24000 202.259
43.25000 205.070
43.26000 201.579
43.27000 196.094
43.28000 191.133
43.29000 194.836
43.30000 199.718
43.31000 203.835
43.32000 204.145
43.33000 203.935
43.34000 203.210
43.35000 200.768
43.36000 198.188
43.37000 196.376
43.38000 199.754
43.39000 202.463
43.40000 201.441
43.41000 194.644
43.42000 187.782
43.43000 187.458
43.44000 193.813
43.45000 200.132
43.46000 197.537
43.47000 189.067
43.48000 180.924
43.49000 182.000
43.50000 187.282
43.51000 192.392
43.52000 195.218
43.53000 197.330
43.54000 199.237
43.55000 196.705
43.56000 193.663
43.57000 191.101
43.58000 190.892
43.59000 190.997
43.60000 191.257
43.61000 192.026
43.62000 192.834
43.63000 193.399
43.64000 194.208
43.65000 194.825
43.66000 195.067
43.67000 194.737
43.68000 194.400
43.69000 193.771
43.70000 192.849
43.71000 191.932
43.72000 191.084
43.73000 190.294
43.74000 189.470
43.75000 187.712
43.76000 185.534
43.77000 183.655
43.78000 185.651
43.79000 188.838
43.80000 191.709
43.81000 196.015
43.82000 200.053
43.83000 203.120
43.84000 201.511
43.85000 199.288
43.86000 196.895
43.87000 193.951
43.88000 190.966
43.89000 188.888
43.90000 188.165
43.91000 187.656
43.92000 187.540
43.93000 188.013
43.94000 188.491
43.95000 189.266
43.96000 190.334
43.97000 191.395
43.98000 192.298
43.99000 193.086
44.00000 193.731
44.01000 190.641
44.02000 185.895
44.03000 181.719
44.04000 184.767
44.05000 190.004
44.06000 194.711
44.07000 198.059
44.08000 200.749
44.09000 202.159
44.10000 197.507
44.11000 192.071
44.12000 188.931
44.13000 193.098
44.14000 197.809
44.15000 201.071
44.16000 192.142
44.17000 185.103
44.18000 182.545
44.19000 186.610
44.20000 190.736
44.21000 191.435
44.22000 188.805
44.23000 186.195
44.24000 190.713
44.25000 199.661
44.26000 208.187
44.27000 205.948
44.28000 199.005
44.29000 192.312
44.30000 188.714
44.31000 186.040
44.32000 183.642
44.33000 187.728
44.34000 192.430
44.35000 196.728
44.36000 199.140
44.37000 201.312
44.38000 202.160
44.39000 198.852
44.40000 195.241
44.41000 192.753
44.42000 191.554
44.43000 190.687
44.44000 191.061
44.45000 193.243
44.46000 195.440
44.47000 195.838
44.48000 194.516
44.49000 193.204
44.50000 196.937
44.51000 203.740
44.52000 210.283
44.53000 210.383
44.54000 207.709
44.55000 205.181
44.56000 204.415
44.57000 204.168
44.58000 203.947
44.59000 202.281
44.60000 200.580
44.61000 199.747
44.62000 202.907
44.63000 206.563
44.64000 209.527
44.65000 210.349
44.66000 211.020
44.67000 211.480
44.68000 213.653
44.69000 215.322
44.70000 214.628
44.71000 210.544
44.72000 206.435
44.73000 205.311
44.74000 206.990
44.75000 208.656
44.76000 208.024
44.77000 205.998
44.78000 204.044
44.79000 203.812
44.80000 204.310
44.81000 204.636
44.82000 202.922
44.83000 200.618
44.84000 198.561
44.85000 205.967
44.86000 214.009
44.87000 220.801
44.88000 221.940
44.89000 222.390
44.90000 223.716
44.91000 227.715
44.92000 231.899
44.93000 234.754
44.94000 232.927
44.95000 231.451
44.96000 230.700
44.97000 230.971
44.98000 231.250
44.99000 233.158
45.00000 236.569
45.01000 239.951
45.02000 242.600
45.03000 244.758
45.04000 246.999
45.05000 251.148
45.06000 256.095
45.07000 261.021
45.08000 265.691
45.09000 270.289
45.10000 274.387
45.11000 276.134
45.12000 277.264
45.13000 277.122
45.14000 271.319
45.15000 264.839
45.16000 260.528
45.17000 262.730
45.18000 265.372
45.19000 267.165
45.20000 269.869
45.21000 271.907
45.22000 273.519
45.23000 274.540
45.24000 275.556
45.25000 274.265
45.26000 270.877
45.27000 267.521
45.28000 261.037
45.29000 252.830
45.30000 244.970
45.31000 244.848
45.32000 247.919
45.33000 251.053
45.34000 254.914
45.35000 258.978
45.36000 262.592
45.37000 257.546
45.38000 251.763
45.39000 247.038
45.40000 246.953
45.41000 247.413
45.42000 247.865
45.43000 248.292
45.44000 248.718
45.45000 249.005
45.46000 241.560
45.47000 235.851
45.48000 234.114
45.49000 237.817
45.50000 241.549
45.51000 240.625
45.52000 235.540
45.53000 230.505
45.54000 227.615
45.55000 226.036
45.56000 224.508
45.57000 224.082
45.58000 224.105
45.59000 224.255
45.60000 225.821
45.61000 227.780
45.62000 229.518
45.63000 228.385
45.64000 226.946
45.65000 225.175
45.66000 221.969
45.67000 218.599
45.68000 215.436
45.69000 212.882
45.70000 210.366
45.71000 208.675
45.72000 201.122
45.73000 195.390
45.74000 193.036
45.75000 195.238
45.76000 197.466
45.77000 200.452
45.78000 204.104
45.79000 207.718
45.80000 207.435
45.81000 204.923
45.82000 202.484
45.83000 201.604
45.84000 201.348
45.85000 201.011
45.86000 199.808
45.87000 198.368
45.88000 197.093
45.89000 196.518
45.90000 196.130
45.91000 195.819
45.92000 195.829
45.93000 195.877
45.94000 195.332
45.95000 193.087
45.96000 190.736
45.97000 189.164
45.98000 186.761
45.99000 184.964
46.00000 185.440
46.01000 188.937
46.02000 192.446
46.03000 194.269
46.04000 194.634
46.05000 194.994
46.06000 195.183
46.07000 195.271
46.08000 195.457
46.09000 197.640
46.10000 200.612
46.11000 203.071
46.12000 200.091
46.13000 195.649
46.14000 191.726
46.15000 190.738
46.16000 190.335
46.17000 190.363
46.18000 192.189
46.19000 194.215
46.20000 194.001
46.21000 187.443
46.22000 180.500
46.23000 175.882
46.24000 180.166
46.25000 183.503
46.26000 184.529
46.27000 182.535
46.28000 180.530
46.29000 180.397
46.30000 181.856
46.31000 183.298
46.32000 182.234
46.33000 179.802
46.34000 177.545
46.35000 178.748
46.36000 181.298
46.37000 183.410
46.38000 180.984
46.39000 177.355
46.40000 174.158
46.41000 179.890
46.42000 186.175
46.43000 190.508
46.44000 186.805
46.45000 182.230
46.46000 178.318
46.47000 176.257
46.48000 174.306
46.49000 173.014
46.50000 171.459
46.51000 170.307
46.52000 169.632
46.53000 169.571
46.54000 169.518
46.55000 172.415
46.56000 177.781
46.57000 183.082
46.58000 182.697
46.59000 179.212
46.60000 175.754
46.61000 172.822
46.62000 170.090
46.63000 167.926
46.64000 171.521
46.65000 176.619
46.66000 181.100
46.67000 172.859
46.68000 163.889
46.69000 157.520
46.70000 161.703
46.71000 167.008
46.72000 170.450
46.73000 168.764
46.74000 166.782
46.75000 165.478
46.76000 177.957
46.77000 187.384
46.78000 189.443
46.79000 182.167
46.80000 174.869
46.81000 172.244
46.82000 173.469
46.83000 174.678
46.84000 172.831
46.85000 169.388
46.86000 166.221
46.87000 168.217
46.88000 172.166
46.89000 175.565
46.90000 173.497
46.91000 170.025
46.92000 166.980
46.93000 163.622
46.94000 160.694
46.95000 159.179
46.96000 163.311
46.97000 168.032
46.98000 171.017
46.99000 169.297
47.00000 167.312
47.01000 166.013
47.02000 176.324
47.03000 184.092
47.04000 186.260
47.05000 181.446
47.06000 176.615
47.07000 173.172
47.08000 170.856
47.09000 168.571
47.10000 170.137
47.11000 173.700
47.12000 176.908
47.13000 173.656
47.14000 167.995
47.15000 163.179
47.16000 166.597
47.17000 172.097
47.18000 176.909
47.19000 178.596
47.20000 179.597
47.21000 179.689
47.22000 176.199
47.23000 172.343
47.24000 168.723
47.25000 165.731
47.26000 162.773
47.27000 160.847
47.28000 165.608
47.29000 169.204
47.30000 169.520
47.31000 165.808
47.32000 162.095
47.33000 161.230
47.34000 162.638
47.35000 164.027
47.36000 166.290
47.37000 168.945
47.38000 171.390
47.39000 170.127
47.40000 167.503
47.41000 165.160
47.42000 165.500
47.43000 166.508
47.44000 167.388
47.45000 169.441
47.46000 171.361
47.47000 172.327
47.48000 169.595
47.49000 166.493
47.50000 164.058
47.51000 163.379
47.52000 162.793
47.53000 162.414
47.54000 162.223
47.55000 162.086
47.56000 162.133
47.57000 162.402
47.58000 162.679
47.59000 165.040
47.60000 169.039
47.61000 172.978
47.62000 175.677
47.63000 177.658
47.64000 179.363
47.65000 176.328
47.66000 171.576
47.67000 167.110
47.68000 165.323
47.69000 164.193
47.70000 163.209
47.71000 165.546
47.72000 167.996
47.73000 169.930
47.74000 169.896
47.75000 169.670
47.76000 169.373
47.77000 168.891
47.78000 168.400
47.79000 168.084
47.80000 166.987
47.81000 166.175
47.82000 164.433
47.83000 161.585
47.84000 158.736
47.85000 156.177
47.86000 153.842
47.87000 151.544
47.88000 149.696
47.89000 148.135
47.90000 146.946
47.91000 151.992
47.92000 159.263
47.93000 165.839
47.94000 166.038
47.95000 164.695
47.96000 163.529
47.97000 160.386
47.98000 157.441
47.99000 157.001
48.00000 165.980
48.01000 175.861
48.02000 180.171
48.03000 170.223
48.04000 159.563
48.05000 152.736
48.06000 158.966
48.07000 163.680
48.08000 165.945
48.09000 165.347
48.10000 164.745
48.11000 164.313
48.12000 164.010
48.13000 163.711
48.14000 162.900
48.15000 161.861
48.16000 160.986
48.17000 162.781
48.18000 165.516
48.19000 167.713
48.20000 165.070
48.21000 161.274
48.22000 157.987
48.23000 158.471
48.24000 159.380
48.25000 160.775
48.26000 163.971
48.27000 167.336
48.28000 168.591
48.29000 164.524
48.30000 160.198
48.31000 157.444
48.32000 154.207
48.33000 151.849
48.34000 152.968
48.35000 158.088
48.36000 163.214
48.37000 168.502
48.38000 173.911
48.39000 179.225
48.40000 177.696
48.41000 172.871
48.42000 167.899
48.43000 160.619
48.44000 152.537
48.45000 145.816
48.46000 151.088
48.47000 159.171
48.48000 166.153
48.49000 165.501
48.50000 163.960
48.51000 162.096
48.52000 159.059
48.53000 155.914
48.54000 152.918
48.55000 150.293
48.56000 147.686
48.57000 146.035
48.58000 159.985
48.59000 170.288
48.60000 173.618
48.61000 169.049
48.62000 164.488
48.63000 162.723
48.64000 163.022
48.65000 163.316
48.66000 163.682
48.67000 164.070
48.68000 164.528
48.69000 166.067
48.70000 167.975
48.71000 169.387
48.72000 166.514
48.73000 162.651
48.74000 159.323
48.75000 160.405
48.76000 161.882
48.77000 162.150
48.78000 158.071
48.79000 153.601
48.80000 151.506
48.81000 155.232
48.82000 159.225
48.83000 161.738
48.84000 156.883
48.85000 153.288
48.86000 154.265
48.87000 160.337
48.88000 166.368
48.89000 165.040
48.90000 158.361
48.91000 151.811
48.92000 153.697
48.93000 159.515
48.94000 165.008
48.95000 165.591
48.96000 164.521
48.97000 163.830
48.98000 166.357
48.99000 169.614
49.00000 172.413
49.01000 166.634
49.02000 160.676
49.03000 156.527
49.04000 158.782
49.05000 161.600
49.06000 163.433
49.07000 162.891
49.08000 162.242
49.09000 161.837
49.10000 159.989
49.11000 158.639
49.12000 157.179
49.13000 155.596
49.14000 154.049
49.15000 157.739
49.16000 165.178
49.17000 172.470
49.18000 168.875
49.19000 160.336
49.20000 152.265
49.21000 151.092
49.22000 152.209
49.23000 152.951
49.24000 150.581
49.25000 147.514
49.26000 144.886
49.27000 147.947
49.28000 151.227
49.29000 153.643
49.30000 153.044
49.31000 152.186
49.32000 152.253
49.33000 154.523
49.34000 156.888
49.35000 158.359
49.36000 155.114
49.37000 152.729
49.38000 153.754
49.39000 158.456
49.40000 163.130
49.41000 163.726
49.42000 161.447
49.43000 159.215
49.44000 156.746
49.45000 154.264
49.46000 151.995
49.47000 152.783
49.48000 154.571
49.49000 156.386
49.50000 158.413
49.51000 160.486
49.52000 162.259
49.53000 158.725
49.54000 155.111
49.55000 152.169
49.56000 151.537
49.57000 151.100
49.58000 151.683
49.59000 154.665
49.60000 157.746
49.61000 159.651
49.62000 156.768
49.63000 154.652
49.64000 152.246
49.65000 149.534
49.66000 146.857
49.67000 148.696
49.68000 153.672
49.69000 158.539
49.70000 159.508
49.71000 158.676
49.72000 157.844
49.73000 157.013
49.74000 156.182
49.75000 155.416
49.76000 155.166
49.77000 155.028
49.78000 154.910
49.79000 156.576
49.80000 158.186
49.81000 158.782
49.82000 155.942
49.83000 152.820
49.84000 151.105
49.85000 152.646
49.86000 154.317
49.87000 155.344
49.88000 153.769
49.89000 152.616
49.90000 152.467
49.91000 153.362
49.92000 154.245
49.93000 153.650
49.94000 152.044
49.95000 150.474
49.96000 152.388
49.97000 155.772
49.98000 158.785
49.99000 156.715
50.00000 153.032
50.01000 150.043
50.02000 152.515
50.03000 156.152
50.04000 159.245
50.05000 157.447
50.06000 155.375
50.07000 154.027
50.08000 155.096
50.09000 156.359
50.10000 157.911
50.11000 160.125
50.12000 162.363
50.13000 163.731
50.14000 156.008
50.15000 150.408
50.16000 148.918
50.17000 151.640
50.18000 154.355
50.19000 156.292
50.20000 157.705
50.21000 159.084
50.22000 155.643
50.23000 150.239
50.24000 145.224
50.25000 145.396
50.26000 147.192
50.27000 149.248
50.28000 153.315
50.29000 157.805
50.30000 161.611
50.31000 157.555
50.32000 153.268
50.33000 151.355
50.34000 157.247
50.35000 163.750
50.36000 165.958
50.37000 158.516
50.38000 150.711
50.39000 145.972
50.40000 151.444
50.41000 155.428
50.42000 156.983
50.43000 156.090
50.44000 155.210
50.45000 155.519
50.46000 156.619
50.47000 157.691
50.48000 162.210
50.49000 168.014
50.50000 173.412
50.51000 173.531
50.52000 172.022
50.53000 171.098
50.54000 174.607
50.55000 179.031
50.56000 182.772
50.57000 179.603
50.58000 176.189
50.59000 174.919
50.60000 180.599
50.61000 186.812
50.62000 189.223
50.63000 183.212
50.64000 176.895
50.65000 173.084
50.66000 185.810
50.67000 194.988
50.68000 198.473
50.69000 196.316
50.70000 194.203
50.71000 196.164
50.72000 200.789
50.73000 205.295
50.74000 206.808
50.75000 206.980
50.76000 207.087
50.77000 206.352
50.78000 205.362
50.79000 204.286
50.80000 202.571
50.81000 200.726
50.82000 199.170
50.83000 203.420
50.84000 207.597
50.85000 209.298
50.86000 203.093
50.87000 196.295
50.88000 193.315
50.89000 198.666
50.90000 204.310
50.91000 207.693
50.92000 200.335
50.93000 195.038
50.94000 191.722
50.95000 190.335
50.96000 188.972
50.97000 189.756
50.98000 191.921
50.99000 194.029
51.00000 190.393
51.01000 184.530
51.02000 179.035
51.03000 178.126
51.04000 178.591
51.05000 178.452
51.06000 173.913
51.07000 168.493
51.08000 163.936
51.09000 164.900
51.10000 166.288
51.11000 167.170
51.12000 166.460
51.13000 165.635
51.14000 166.459
51.15000 170.835
51.16000 175.330
51.17000 178.009
51.18000 175.475
51.19000 173.647
51.20000 168.535
51.21000 160.275
51.22000 152.071
51.23000 148.368
51.24000 147.521
51.25000 146.697
51.26000 151.175
51.27000 157.616
51.28000 163.874
51.29000 167.912
51.30000 171.295
51.31000 173.503
51.32000 167.293
51.33000 159.424
51.34000 152.828
51.35000 152.543
51.36000 152.962
51.37000 153.801
51.38000 155.946
51.39000 158.184
51.40000 158.600
51.41000 155.150
51.42000 151.575
51.43000 149.459
51.44000 143.926
51.45000 139.997
51.46000 139.324
51.47000 141.721
51.48000 144.134
51.49000 147.831
51.50000 152.329
51.51000 156.700
51.52000 153.676
51.53000 147.812
51.54000 142.347
51.55000 141.641
51.56000 142.318
51.57000 143.019
51.58000 143.895
51.59000 144.804
51.60000 145.564
51.61000 150.772
51.62000 155.549
51.63000 158.008
51.64000 153.382
51.65000 148.264
51.66000 145.850
51.67000 149.088
51.68000 152.504
51.69000 154.513
51.70000 150.704
51.71000 147.987
51.72000 145.098
51.73000 142.049
51.74000 139.049
51.75000 139.633
51.76000 142.422
51.77000 145.129
51.78000 143.708
51.79000 140.715
51.80000 138.227
51.81000 141.608
51.82000 146.669
51.83000 150.694
51.84000 147.561
51.85000 143.063
51.86000 139.315
51.87000 139.883
51.88000 140.783
51.89000 141.731
51.90000 142.822
51.91000 143.922
51.92000 144.378
51.93000 143.506
51.94000 142.595
51.95000 142.062
51.96000 144.639
51.97000 146.467
51.98000 147.312
51.99000 147.261
52.00000 147.197
52.01000 146.238
52.02000 144.737
52.03000 143.281
52.04000 144.612
52.05000 146.964
52.06000 149.255
52.07000 150.847
52.08000 152.243
52.09000 152.963
52.10000 149.097
52.11000 144.371
52.12000 140.444
52.13000 140.778
52.14000 141.470
52.15000 141.552
52.16000 139.819
52.17000 137.966
52.18000 138.490
52.19000 143.838
52.20000 149.326
52.21000 152.511
52.22000 140.883
52.23000 132.664
52.24000 131.538
52.25000 136.776
52.26000 141.939
52.27000 142.428
52.28000 140.123
52.29000 137.891
52.30000 137.564
52.31000 137.990
52.32000 138.468
52.33000 139.519
52.34000 140.728
52.35000 141.445
52.36000 138.875
52.37000 135.699
52.38000 133.067
52.39000 142.663
52.40000 151.753
52.41000 156.582
52.42000 148.947
52.43000 140.509
52.44000 134.034
52.45000 131.486
52.46000 129.048
52.47000 127.642
52.48000 133.347
52.49000 137.367
52.50000 140.352
52.51000 142.422
52.52000 144.449
52.53000 143.920
52.54000 141.885
52.55000 139.917
52.56000 139.975
52.57000 140.799
52.58000 141.282
52.59000 138.045
52.60000 133.790
52.61000 130.404
52.62000 132.716
52.63000 136.061
52.64000 138.825
52.65000 137.343
52.66000 135.726
52.67000 135.567
52.68000 139.613
52.69000 143.923
52.70000 146.369
52.71000 145.139
52.72000 143.811
52.73000 143.051
52.74000 141.916
52.75000 141.124
52.76000 141.970
52.77000 144.238
52.78000 146.510
52.79000 149.014
52.80000 151.653
52.81000 154.202
52.82000 151.486
52.83000 146.957
52.84000 142.359
52.85000 137.028
52.86000 131.498
52.87000 126.874
52.88000 128.080
52.89000 130.326
52.90000 132.176
52.91000 136.515
52.92000 140.312
52.93000 142.973
52.94000 142.410
52.95000 141.650
52.96000 140.807
52.97000 139.804
52.98000 138.797
52.99000 138.225
53.00000 138.718
53.01000 139.066
53.02000 140.070
53.03000 141.633
53.04000 143.189
53.05000 144.329
53.06000 145.231
53.07000 146.102
53.08000 143.884
53.09000 140.659
53.10000 137.853
53.11000 139.406
53.12000 142.116
53.13000 143.942
53.14000 140.166
53.15000 135.406
53.16000 131.499
53.17000 136.657
53.18000 141.703
53.19000 144.565
53.20000 141.312
53.21000 137.696
53.22000 136.720
53.23000 140.801
53.24000 145.007
53.25000 147.381
53.26000 144.615
53.27000 142.682
53.28000 142.432
53.29000 143.599
53.30000 144.833
53.31000 149.534
53.32000 156.188
53.33000 162.603
53.34000 158.283
53.35000 150.338
53.36000 143.156
53.37000 143.774
53.38000 146.434
53.39000 149.208
53.40000 152.694
53.41000 156.303
53.42000 159.257
53.43000 155.073
53.44000 151.020
53.45000 148.533
53.46000 150.367
53.47000 152.452
53.48000 154.585
53.49000 156.811
53.50000 159.038
53.51000 160.287
53.52000 154.779
53.53000 150.952
53.54000 150.346
53.55000 152.406
53.56000 154.436
53.57000 155.012
53.58000 154.780
53.59000 154.556
53.60000 155.268
53.61000 156.270
53.62000 156.970
53.63000 154.656
53.64000 151.566
53.65000 148.749
53.66000 147.597
53.67000 146.728
53.68000 146.020
53.69000 145.108
53.70000 144.345
53.71000 143.272
53.72000 141.353
53.73000 139.387
53.74000 139.173
53.75000 142.220
53.76000 145.340
53.77000 147.076
53.78000 145.471
53.79000 144.352
53.80000 142.733
53.81000 140.708
53.82000 138.744
53.83000 139.691
53.84000 142.230
53.85000 144.671
53.86000 144.820
53.87000 144.156
53.88000 143.476
53.89000 142.633
53.90000 141.749
53.91000 140.897
53.92000 140.239
53.93000 139.613
53.94000 139.104
53.95000 131.604
53.96000 124.898
53.97000 120.053
53.98000 120.197
53.99000 120.615
54.00000 122.143
54.01000 125.706
54.02000 129.313
54.03000 131.306
54.04000 134.988
54.05000 137.523
54.06000 137.355
54.07000 135.023
54.08000 132.729
54.09000 132.150
54.10000 132.495
54.11000 132.826
54.12000 138.570
54.13000 145.812
54.14000 152.235
54.15000 150.791
54.16000 147.380
54.17000 144.327
54.18000 143.396
54.19000 142.813
54.20000 142.340
54.21000 137.070
54.22000 132.384
54.23000 130.008
54.24000 133.737
54.25000 137.793
54.26000 139.457
54.27000 136.804
54.28000 134.061
54.29000 132.557
54.30000 135.107
54.31000 136.862
54.32000 137.139
54.33000 136.250
54.34000 135.341
54.35000 133.584
54.36000 131.375
54.37000 129.257
54.38000 128.350
54.39000 127.914
54.40000 127.736
54.41000 129.978
54.42000 132.817
54.43000 135.343
54.44000 136.058
54.45000 136.480
54.46000 136.821
54.47000 138.962
54.48000 140.847
54.49000 141.895
54.50000 140.762
54.51000 139.516
54.52000 138.230
54.53000 136.873
54.54000 135.515
54.55000 134.775
54.56000 131.176
54.57000 128.715
54.58000 129.146
54.59000 131.824
54.60000 134.456
54.61000 135.207
54.62000 134.974
54.63000 134.752
54.64000 135.386
54.65000 136.264
54.66000 136.944
54.67000 135.788
54.68000 134.188
54.69000 133.309
54.70000 136.543
54.71000 140.429
54.72000 143.559
54.73000 141.504
54.74000 139.432
54.75000 138.472
54.76000 140.369
54.77000 142.410
54.78000 142.378
54.79000 138.710
54.80000 134.975
54.81000 132.957
54.82000 130.434
54.83000 128.723
54.84000 130.706
54.85000 135.513
54.86000 140.194
54.87000 139.906
54.88000 137.055
54.89000 134.327
54.90000 137.124
54.91000 141.544
54.92000 145.042
54.93000 140.204
54.94000 133.375
54.95000 128.165
54.96000 132.055
54.97000 137.362
54.98000 141.622
54.99000 142.506
55.00000 142.964
55.01000 142.495
55.02000 139.680
55.03000 136.751
55.04000 136.204
55.05000 139.774
55.06000 143.418
55.07000 145.371
55.08000 142.352
55.09000 140.303
55.10000 141.628
55.11000 145.492
55.12000 149.165
55.13000 145.667
55.14000 138.524
55.15000 131.698
55.16000 136.414
55.17000 144.533
55.18000 151.873
55.19000 152.321
55.20000 151.149
55.21000 149.836
55.22000 147.744
55.23000 145.533
55.24000 143.764
55.25000 141.755
55.26000 140.112
55.27000 139.695
55.28000 142.334
55.29000 145.118
55.30000 146.481
55.31000 145.426
55.32000 144.330
55.33000 143.747
55.34000 143.391
55.35000 143.159
55.36000 144.831
55.37000 147.914
55.38000 150.909
55.39000 150.697
55.40000 148.880
55.41000 147.146
55.42000 146.811
55.43000 146.945
55.44000 147.305
55.45000 149.622
55.46000 152.393
55.47000 155.352
55.48000 159.331
55.49000 163.464
55.50000 166.759
55.51000 166.446
55.52000 165.930
55.53000 165.623
55.54000 165.829
55.55000 166.058
55.56000 166.346
55.57000 166.731
55.58000 167.118
55.59000 167.322
55.60000 176.287
55.61000 182.358
55.62000 184.804
55.63000 184.608
55.64000 184.542
55.65000 189.007
55.66000 195.710
55.67000 202.098
55.68000 208.765
55.69000 215.034
55.70000 220.646
55.71000 220.672
55.72000 219.424
55.73000 219.141
55.74000 224.013
55.75000 229.646
55.76000 234.123
55.77000 251.571
55.78000 266.546
55.79000 279.718
55.80000 288.527
55.81000 297.141
55.82000 308.712
55.83000 325.172
55.84000 341.706
55.85000 350.368
55.86000 373.886
55.87000 389.784
55.88000 400.574
55.89000 407.694
55.90000 415.233
55.91000 436.745
55.92000 465.055
55.93000 492.001
55.94000 506.679
55.95000 516.487
55.96000 526.508
55.97000 538.304
55.98000 550.500
55.99000 562.925
56.00000 576.563
56.01000 590.378
56.02000 601.316
56.03000 593.968
56.04000 586.793
56.05000 583.057
56.06000 587.532
56.07000 592.361
56.08000 588.702
56.09000 571.215
56.10000 553.533
56.11000 544.343
56.12000 545.572
56.13000 546.369
56.14000 542.234
56.15000 534.608
56.16000 526.948
56.17000 518.200
56.18000 508.930
56.19000 500.119
56.20000 487.246
56.21000 474.117
56.22000 461.374
56.23000 451.791
56.24000 442.908
56.25000 432.248
56.26000 412.401
56.27000 391.243
56.28000 374.549
56.29000 354.608
56.30000 338.391
56.31000 323.318
56.32000 310.933
56.33000 298.661
56.34000 289.944
56.35000 286.930
56.36000 283.991
56.37000 282.476
56.38000 271.584
56.39000 264.231
56.40000 255.072
56.41000 244.653
56.42000 234.340
56.43000 227.280
56.44000 221.758
56.45000 216.517
56.46000 206.601
56.47000 196.057
56.48000 186.525
56.49000 185.131
56.50000 185.506
56.51000 184.876
56.52000 179.125
56.53000 172.657
56.54000 167.572
56.55000 175.539
56.56000 182.780
56.57000 185.564
56.58000 178.007
56.59000 170.030
56.60000 164.592
56.61000 163.166
56.62000 161.790
56.63000 161.086
56.64000 155.206
56.65000 151.286
56.66000 150.920
56.67000 152.993
56.68000 155.016
56.69000 155.575
56.70000 155.450
56.71000 155.333
56.72000 151.103
56.73000 146.001
56.74000 141.517
56.75000 141.909
56.76000 143.345
56.77000 144.801
56.78000 146.358
56.79000 147.929
56.80000 149.159
56.81000 145.916
56.82000 143.036
56.83000 140.508
56.84000 138.788
56.85000 137.099
56.86000 135.002
56.87000 132.268
56.88000 129.527
56.89000 128.137
56.90000 126.130
56.91000 124.832
56.92000 128.619
56.93000 135.841
56.94000 142.804
56.95000 142.295
56.96000 138.356
56.97000 134.628
56.98000 133.189
56.99000 132.526
57.00000 132.331
57.01000 135.748
57.02000 139.927
57.03000 142.742
57.04000 138.837
57.05000 134.025
57.06000 130.268
57.07000 133.970
57.08000 137.390
57.09000 138.397
57.10000 133.963
57.11000 129.323
57.12000 128.289
57.13000 132.785
57.14000 137.341
57.15000 139.633
57.16000 137.533
57.17000 136.111
57.18000 132.840
57.19000 128.336
57.20000 124.056
57.21000 125.951
57.22000 130.640
57.23000 135.072
57.24000 130.875
57.25000 124.571
57.26000 119.251
57.27000 121.410
57.28000 125.120
57.29000 128.474
57.30000 130.103
57.31000 131.502
57.32000 132.591
57.33000 133.623
57.34000 134.440
57.35000 133.831
57.36000 130.050
57.37000 126.153
57.38000 123.932
57.39000 124.244
57.40000 124.581
57.41000 124.730
57.42000 124.693
57.43000 124.674
57.44000 126.419
57.45000 129.319
57.46000 132.120
57.47000 132.247
57.48000 131.182
57.49000 130.177
57.50000 127.414
57.51000 124.390
57.52000 121.637
57.53000 120.908
57.54000 120.593
57.55000 120.308
57.56000 120.169
57.57000 120.048
57.58000 119.954
57.59000 121.186
57.60000 122.243
57.61000 124.082
57.62000 127.634
57.63000 131.245
57.64000 131.606
57.65000 127.127
57.66000 122.603
57.67000 120.084
57.68000 119.528
57.69000 119.006
57.70000 121.524
57.71000 126.007
57.72000 130.250
57.73000 128.290
57.74000 123.602
57.75000 119.186
57.76000 119.154
57.77000 120.330
57.78000 121.711
57.79000 124.597
57.80000 127.787
57.81000 130.148
57.82000 128.618
57.83000 126.591
57.84000 125.025
57.85000 127.459
57.86000 129.620
57.87000 130.487
57.88000 128.559
57.89000 126.535
57.90000 124.610
57.91000 122.831
57.92000 121.053
57.93000 122.646
57.94000 127.480
57.95000 132.295
57.96000 135.556
57.97000 137.829
57.98000 139.935
57.99000 137.861
58.00000 133.976
58.01000 130.321
58.02000 125.922
58.03000 121.701
58.04000 118.336
58.05000 121.123
58.06000 125.126
58.07000 127.995
58.08000 125.616
58.09000 122.579
58.10000 120.242
58.11000 120.271
58.12000 120.428
58.13000 120.636
58.14000 120.952
58.15000 121.271
58.16000 122.248
58.17000 124.172
58.18000 126.103
58.19000 126.411
58.20000 125.184
58.21000 123.942
58.22000 121.546
58.23000 118.425
58.24000 115.361
58.25000 113.670
58.26000 112.564
58.27000 111.526
58.28000 114.916
58.29000 119.186
58.30000 122.820
58.31000 121.957
58.32000 120.220
58.33000 118.538
58.34000 117.111
58.35000 115.715
58.36000 114.645
58.37000 120.977
58.38000 126.385
58.39000 130.214
58.40000 130.727
58.41000 131.136
58.42000 131.003
58.43000 130.102
58.44000 129.195
58.45000 128.096
58.46000 126.819
58.47000 125.537
58.48000 123.931
58.49000 122.125
58.50000 120.465
58.51000 122.249
58.52000 125.482
58.53000 128.514
58.54000 126.212
58.55000 122.721
58.56000 120.037
58.57000 122.957
58.58000 126.950
58.59000 129.807
58.60000 127.573
58.61000 124.726
58.62000 122.552
58.63000 120.877
58.64000 119.583
58.65000 119.137
58.66000 120.440
58.67000 121.798
58.68000 120.861
58.69000 116.711
58.70000 112.541
58.71000 112.784
58.72000 117.061
58.73000 121.311
58.74000 123.739
58.75000 125.058
58.76000 126.311
58.77000 126.075
58.78000 125.220
58.79000 124.419
58.80000 121.521
58.81000 118.347
58.82000 115.606
58.83000 115.824
58.84000 116.598
58.85000 117.402
58.86000 118.335
58.87000 119.284
58.88000 120.005
58.89000 120.487
58.90000 120.854
58.91000 121.336
58.92000 122.054
58.93000 122.779
58.94000 123.721
58.95000 124.963
58.96000 126.206
58.97000 126.144
58.98000 124.908
58.99000 123.653
59.00000 121.134
59.01000 117.857
59.02000 114.702
59.03000 114.233
59.04000 114.862
59.05000 115.450
59.06000 118.861
59.07000 122.671
59.08000 125.392
59.09000 120.828
59.10000 114.915
59.11000 111.067
59.12000 116.187
59.13000 122.347
59.14000 127.015
59.15000 125.984
59.16000 124.885
59.17000 123.382
59.18000 121.067
59.19000 118.730
59.20000 117.709
59.21000 118.476
59.22000 119.252
59.23000 117.779
59.24000 114.320
59.25000 110.921
59.26000 111.266
59.27000 113.822
59.28000 116.402
59.29000 119.506
59.30000 122.822
59.31000 125.916
59.32000 126.656
59.33000 126.740
59.34000 126.428
59.35000 123.508
59.36000 120.112
59.37000 117.230
59.38000 116.546
59.39000 116.111
59.40000 115.784
59.41000 117.080
59.42000 118.177
59.43000 118.948
59.44000 119.077
59.45000 119.188
59.46000 118.657
59.47000 117.266
59.48000 115.871
59.49000 114.697
59.50000 113.718
59.51000 112.771
59.52000 113.712
59.53000 115.751
59.54000 117.654
59.55000 116.732
59.56000 114.687
59.57000 112.783
59.58000 113.428
59.59000 114.635
59.60000 115.768
59.61000 116.420
59.62000 116.986
59.63000 117.277
59.64000 116.411
59.65000 115.417
59.66000 114.670
59.67000 118.342
59.68000 121.425
59.69000 123.044
59.70000 121.808
59.71000 120.497
59.72000 120.351
59.73000 121.738
59.74000 123.130
59.75000 123.242
59.76000 122.260
59.77000 121.257
59.78000 119.086
59.79000 116.245
59.80000 113.557
59.81000 113.923
59.82000 115.484
59.83000 116.937
59.84000 117.441
59.85000 117.669
59.86000 118.021
59.87000 119.172
59.88000 120.463
59.89000 120.867
59.90000 117.594
59.91000 113.919
59.92000 111.168
59.93000 118.834
59.94000 125.302
59.95000 127.001
59.96000 119.533
59.97000 111.838
59.98000 109.097
59.99000 112.777
60.00000 116.480
60.01000 116.800
60.02000 114.274
60.03000 111.846
60.04000 114.602
60.05000 120.286
60.06000 125.792
60.07000 127.823
60.08000 128.513
60.09000 129.154
60.10000 125.480
60.11000 121.146
60.12000 117.628
60.13000 119.193
60.14000 121.639
60.15000 123.737
60.16000 124.407
60.17000 124.924
60.18000 125.310
60.19000 120.508
60.20000 116.532
60.21000 113.264
60.22000 111.334
60.23000 109.437
60.24000 110.507
60.25000 115.362
60.26000 120.225
60.27000 122.199
60.28000 121.776
60.29000 121.298
60.30000 118.075
60.31000 113.326
60.32000 109.042
60.33000 113.593
60.34000 121.505
60.35000 128.837
60.36000 123.829
60.37000 116.450
60.38000 110.632
60.39000 114.386
60.40000 119.772
60.41000 124.127
60.42000 124.340
60.43000 124.119
60.44000 123.954
60.45000 122.319
60.46000 120.984
60.47000 119.543
60.48000 117.903
60.49000 116.258
60.50000 115.690
60.51000 116.476
60.52000 117.264
60.53000 120.208
60.54000 124.895
60.55000 129.493
60.56000 129.924
60.57000 128.068
60.58000 126.083
60.59000 121.740
60.60000 116.511
60.61000 111.674
60.62000 109.801
60.63000 108.797
60.64000 107.927
60.65000 107.869
60.66000 107.948
60.67000 108.912
60.68000 113.381
60.69000 118.211
60.70000 121.782
60.71000 121.497
60.72000 121.111
60.73000 120.520
60.74000 119.551
60.75000 118.574
60.76000 117.660
60.77000 116.822
60.78000 115.985
60.79000 118.084
60.80000 122.524
60.81000 126.864
60.82000 126.700
60.83000 124.103
60.84000 121.538
60.85000 119.573
60.86000 117.829
60.87000 116.219
60.88000 115.798
60.89000 115.687
60.90000 115.167
60.91000 112.212
60.92000 108.858
60.93000 107.576
60.94000 114.384
60.95000 122.007
60.96000 127.620
60.97000 122.301
60.98000 117.730
60.99000 115.358
61.00000 116.975
61.01000 118.673
61.02000 119.158
61.03000 118.167
61.04000 117.175
61.05000 118.525
61.06000 121.713
61.07000 124.891
61.08000 127.614
61.09000 130.095
61.10000 132.279
61.11000 129.296
61.12000 124.430
61.13000 119.944
61.14000 118.934
61.15000 118.798
61.16000 118.746
61.17000 119.184
61.18000 119.702
61.19000 120.836
61.20000 124.335
61.21000 128.067
61.22000 130.804
61.23000 125.460
61.24000 121.006
61.25000 118.441
61.26000 119.249
61.27000 120.123
61.28000 120.932
61.29000 121.665
61.30000 122.396
61.31000 124.366
61.32000 127.287
61.33000 130.082
61.34000 127.719
61.35000 122.648
61.36000 117.800
61.37000 116.746
61.38000 117.054
61.39000 117.338
61.40000 117.933
61.41000 118.532
61.42000 119.344
61.43000 121.376
61.44000 123.603
61.45000 125.598
61.46000 126.718
61.47000 127.753
61.48000 128.508
61.49000 135.570
61.50000 141.259
61.51000 148.776
61.52000 159.507
61.53000 170.299
61.54000 184.821
61.55000 203.737
61.56000 222.615
61.57000 233.767
61.58000 238.962
61.59000 244.185
61.60000 250.478
61.61000 257.325
61.62000 264.308
61.63000 273.514
61.64000 283.507
61.65000 292.684
61.66000 295.977
61.67000 297.656
61.68000 299.364
61.69000 301.232
61.70000 303.125
61.71000 304.650
61.72000 304.806
61.73000 304.832
61.74000 304.851
61.75000 300.669
61.76000 297.292
61.77000 287.402
61.78000 266.216
61.79000 244.829
61.80000 225.594
61.81000 208.853
61.82000 192.162
61.83000 179.995
61.84000 171.305
61.85000 162.664
61.86000 155.918
61.87000 150.139
61.88000 144.413
61.89000 139.553
61.90000 134.996
61.91000 130.820
61.92000 133.247
61.93000 136.797
61.94000 139.191
61.95000 135.173
61.96000 130.170
61.97000 126.351
61.98000 126.880
61.99000 127.812
62.00000 128.487
62.01000 133.992
62.02000 138.396
62.03000 138.955
62.04000 132.944
62.05000 126.822
62.06000 124.102
62.07000 125.261
62.08000 126.421
62.09000 126.911
62.10000 126.904
62.11000 126.891
62.12000 126.633
62.13000 126.254
62.14000 126.054
62.15000 128.669
62.16000 132.252
62.17000 135.530
62.18000 134.886
62.19000 133.503
62.20000 132.223
62.21000 131.501
62.22000 130.864
62.23000 129.753
62.24000 126.927
62.25000 123.947
62.26000 121.799
62.27000 132.580
62.28000 141.299
62.29000 144.442
62.30000 138.198
62.31000 131.804
62.32000 127.224
62.33000 124.681
62.34000 122.147
62.35000 123.795
62.36000 128.463
62.37000 133.032
62.38000 134.143
62.39000 133.542
62.40000 132.839
62.41000 130.583
62.42000 127.802
62.43000 125.262
62.44000 126.461
62.45000 128.283
62.46000 129.831
62.47000 129.904
62.48000 129.758
62.49000 129.724
62.50000 130.088
62.51000 130.488
62.52000 130.774
62.53000 130.775
62.54000 130.766
62.55000 130.596
62.56000 130.160
62.57000 129.719
62.58000 129.681
62.59000 130.086
62.60000 130.490
62.61000 131.069
62.62000 131.767
62.63000 132.476
62.64000 133.541
62.65000 134.780
62.66000 135.964
62.67000 136.332
62.68000 136.427
62.69000 136.514
62.70000 138.200
62.71000 140.013
62.72000 140.389
62.73000 133.186
62.74000 124.878
62.75000 118.830
62.76000 120.720
62.77000 123.299
62.78000 125.140
62.79000 129.700
62.80000 133.269
62.81000 133.718
62.82000 129.068
62.83000 124.345
62.84000 122.557
62.85000 123.955
62.86000 125.349
62.87000 126.309
62.88000 126.955
62.89000 127.626
62.90000 129.119
62.91000 131.006
62.92000 133.019
62.93000 136.862
62.94000 141.306
62.95000 145.348
62.96000 139.513
62.97000 132.415
62.98000 126.665
62.99000 127.914
63.00000 130.166
63.01000 132.105
63.02000 132.965
63.03000 133.733
63.04000 134.279
63.05000 136.870
63.06000 138.909
63.07000 138.862
63.08000 135.459
63.09000 132.010
63.10000 131.723
63.11000 134.811
63.12000 137.887
63.13000 139.219
63.14000 139.332
63.15000 139.426
63.16000 138.976
63.17000 138.267
63.18000 137.529
63.19000 136.380
63.20000 135.099
63.21000 133.936
63.22000 135.425
63.23000 137.252
63.24000 139.310
63.25000 142.550
63.26000 145.956
63.27000 148.449
63.28000 147.831
63.29000 146.954
63.30000 146.334
63.31000 141.370
63.32000 137.463
63.33000 135.638
63.34000 137.117
63.35000 138.637
63.36000 139.533
63.37000 139.775
63.38000 140.015
63.39000 137.991
63.40000 134.448
63.41000 131.099
63.42000 133.539
63.43000 138.686
63.44000 143.521
63.45000 144.050
63.46000 143.203
63.47000 142.436
63.48000 140.521
63.49000 138.615
63.50000 136.856
63.51000 135.833
63.52000 134.912
63.53000 134.678
63.54000 136.753
63.55000 139.016
63.56000 140.610
63.57000 144.673
63.58000 147.828
63.59000 149.452
63.60000 148.683
63.61000 147.886
63.62000 146.430
63.63000 144.295
63.64000 142.172
63.65000 138.331
63.66000 133.387
63.67000 128.639
63.68000 129.523
63.69000 133.001
63.70000 136.286
63.71000 136.952
63.72000 136.794
63.73000 136.650
63.74000 138.355
63.75000 140.198
63.76000 141.088
63.77000 137.267
63.78000 132.807
63.79000 129.601
63.80000 130.545
63.81000 131.817
63.82000 132.709
63.83000 139.061
63.84000 144.025
63.85000 146.647
63.86000 145.666
63.87000 144.644
63.88000 146.597
63.89000 151.571
63.90000 156.516
63.91000 154.158
63.92000 147.022
63.93000 140.074
63.94000 138.407
63.95000 139.137
63.96000 139.677
63.97000 137.698
63.98000 134.937
63.99000 132.447
64.00000 137.907
64.01000 144.155
64.02000 150.320
64.03000 156.076
64.04000 161.778
64.05000 164.416
64.06000 157.061
64.07000 148.932
64.08000 143.259
64.09000 150.187
64.10000 155.768
64.11000 158.504
64.12000 156.925
64.13000 155.301
64.14000 156.061
64.15000 159.202
64.16000 162.324
64.17000 161.445
64.18000 157.985
64.19000 154.568
64.20000 152.298
64.21000 150.542
64.22000 149.047
64.23000 150.916
64.24000 153.815
64.25000 156.424
64.26000 153.006
64.27000 148.927
64.28000 145.582
64.29000 145.747
64.30000 146.371
64.31000 146.897
64.32000 147.109
64.33000 147.296
64.34000 147.426
64.35000 151.928
64.36000 155.438
64.37000 157.793
64.38000 158.423
64.39000 159.037
64.40000 157.956
64.41000 155.211
64.42000 152.485
64.43000 153.148
64.44000 155.963
64.45000 158.692
64.46000 159.193
64.47000 158.710
64.48000 158.388
64.49000 160.090
64.50000 162.402
64.51000 164.478
64.52000 165.199
64.53000 165.592
64.54000 165.716
64.55000 164.578
64.56000 163.279
64.57000 162.309
64.58000 162.385
64.59000 162.538
64.60000 162.644
64.61000 157.828
64.62000 154.079
64.63000 156.140
64.64000 166.744
64.65000 177.424
64.66000 179.827
64.67000 174.242
64.68000 168.697
64.69000 163.590
64.70000 158.840
64.71000 154.443
64.72000 158.934
64.73000 167.290
64.74000 174.854
64.75000 172.706
64.76000 167.674
64.77000 163.163
64.78000 169.233
64.79000 176.369
64.80000 181.837
64.81000 179.563
64.82000 176.314
64.83000 174.894
64.84000 179.182
64.85000 183.880
64.86000 187.112
64.87000 187.236
64.88000 187.252
64.89000 187.250
64.90000 187.221
64.91000 187.192
64.92000 186.492
64.93000 185.155
64.94000 183.828
64.95000 186.630
64.96000 191.936
64.97000 197.081
64.98000 198.321
64.99000 197.888
65.00000 196.974
65.01000 190.281
65.02000 181.899
65.03000 174.401
65.04000 179.272
65.05000 185.624
65.06000 191.699
65.07000 196.506
65.08000 201.157
65.09000 202.747
65.10000 194.920
65.11000 186.431
65.12000 180.620
65.13000 191.219
65.14000 199.548
65.15000 204.841
65.16000 205.805
65.17000 206.737
65.18000 208.308
65.19000 210.476
65.20000 212.626
65.21000 212.984
65.22000 212.246
65.23000 211.587
65.24000 212.786
65.25000 214.770
65.26000 216.701
65.27000 218.002
65.28000 219.121
65.29000 220.120
65.30000 223.737
65.31000 227.324
65.32000 230.190
65.33000 229.817
65.34000 229.050
65.35000 231.145
65.36000 241.912
65.37000 253.273
65.38000 261.013
65.39000 266.037
65.40000 269.728
65.41000 272.464
65.42000 273.857
65.43000 275.242
65.44000 280.915
65.45000 290.525
65.46000 300.049
65.47000 299.877
65.48000 293.904
65.49000 288.558
65.50000 297.521
65.51000 312.443
65.52000 326.571
65.53000 331.598
65.54000 334.041
65.55000 336.216
65.56000 352.575
65.57000 369.118
65.58000 385.243
65.59000 399.524
65.60000 413.586
65.61000 426.023
65.62000 433.606
65.63000 440.865
65.64000 445.784
65.65000 507.142
65.66000 554.131
65.67000 601.880
65.68000 650.678
65.69000 699.501
65.70000 775.714
65.71000 876.666
65.72000 976.664
65.73000 1094.890
65.74000 1221.439
65.75000 1347.564
65.76000 1464.276
65.77000 1577.125
65.78000 1687.194
65.79000 1766.028
65.80000 1836.126
65.81000 1898.406
65.82000 1951.827
65.83000 1996.733
65.84000 2034.321
65.85000 2040.009
65.86000 2041.979
65.87000 2040.001
65.88000 2026.399
65.89000 2012.040
65.90000 2002.357
65.91000 1978.908
65.92000 1961.173
65.93000 1904.572
65.94000 1795.026
65.95000 1685.166
65.96000 1564.349
65.97000 1433.798
65.98000 1304.559
65.99000 1178.006
66.00000 1055.729
66.01000 934.629
66.02000 838.804
66.03000 753.200
66.04000 669.768
66.05000 610.190
66.06000 557.187
66.07000 510.201
66.08000 492.195
66.09000 481.194
66.10000 468.518
66.11000 448.652
66.12000 427.964
66.13000 409.317
66.14000 396.589
66.15000 384.237
66.16000 375.950
66.17000 388.450
66.18000 398.151
66.19000 404.072
66.20000 404.924
66.21000 405.750
66.22000 406.517
66.23000 407.235
66.24000 407.944
66.25000 420.495
66.26000 439.518
66.27000 458.584
66.28000 478.544
66.29000 498.860
66.30000 519.405
66.31000 542.405
66.32000 566.071
66.33000 587.002
66.34000 603.631
66.35000 617.333
66.36000 628.473
66.37000 628.784
66.38000 627.882
66.39000 631.265
66.40000 646.902
66.41000 663.297
66.42000 674.241
66.43000 666.486
66.44000 660.380
66.45000 652.783
66.46000 643.219
66.47000 633.637
66.48000 618.116
66.49000 597.486
66.50000 577.089
66.51000 563.415
66.52000 553.840
66.53000 543.568
66.54000 519.215
66.55000 489.330
66.56000 460.526
66.57000 443.110
66.58000 428.741
66.59000 416.061
66.60000 402.935
66.61000 391.544
66.62000 380.697
66.63000 372.115
66.64000 363.781
66.65000 357.712
66.66000 358.028
66.67000 358.728
66.68000 359.192
66.69000 353.525
66.70000 349.223
66.71000 349.038
66.72000 354.206
66.73000 359.385
66.74000 357.309
66.75000 349.094
66.76000 340.977
66.77000 343.047
66.78000 350.697
66.79000 357.755
66.80000 353.213
66.81000 344.177
66.82000 336.125
66.83000 338.205
66.84000 342.954
66.85000 347.134
66.86000 355.104
66.87000 362.533
66.88000 368.302
66.89000 367.265
66.90000 365.495
66.91000 363.423
66.92000 360.513
66.93000 357.554
66.94000 355.600
66.95000 359.476
66.96000 362.438
66.97000 369.272
66.98000 381.060
66.99000 392.854
67.00000 398.331
67.01000 398.546
67.02000 398.758
67.03000 400.640
67.04000 403.382
67.05000 405.545
67.06000 396.661
67.07000 383.561
67.08000 372.282
67.09000 379.382
67.10000 391.251
67.11000 401.675
67.12000 402.385
67.13000 401.568
67.14000 401.093
67.15000 401.997
67.16000 403.047
67.17000 404.237
67.18000 405.812
67.19000 407.408
67.20000 408.457
67.21000 404.521
67.22000 401.540
67.23000 397.299
67.24000 391.469
67.25000 385.657
67.26000 389.035
67.27000 399.948
67.28000 410.715
67.29000 413.967
67.30000 413.107
67.31000 412.159
67.32000 409.593
67.33000 406.417
67.34000 403.684
67.35000 405.330
67.36000 408.095
67.37000 410.517
67.38000 417.197
67.39000 423.542
67.40000 427.127
67.41000 419.737
67.42000 411.212
67.43000 405.153
67.44000 405.747
67.45000 406.709
67.46000 407.338
67.47000 425.355
67.48000 438.866
67.49000 445.103
67.50000 442.317
67.51000 439.509
67.52000 437.471
67.53000 436.056
67.54000 434.661
67.55000 438.885
67.56000 445.951
67.57000 452.958
67.58000 458.911
67.59000 464.473
67.60000 469.041
67.61000 463.995
67.62000 456.529
67.63000 450.003
67.64000 451.293
67.65000 453.503
67.66000 455.306
67.67000 455.513
67.68000 455.557
67.69000 457.211
67.70000 463.141
67.71000 469.303
67.72000 473.307
67.73000 481.050
67.74000 486.781
67.75000 487.320
67.76000 481.520
67.77000 475.729
67.78000 477.297
67.79000 484.711
67.80000 492.015
67.81000 492.585
67.82000 489.645
67.83000 486.842
67.84000 486.436
67.85000 486.906
67.86000 487.700
67.87000 491.561
67.88000 496.182
67.89000 500.211
67.90000 496.277
67.91000 491.808
67.92000 489.064
67.93000 492.973
67.94000 497.541
67.95000 501.481
67.96000 503.772
67.97000 505.977
67.98000 507.401
67.99000 505.090
68.00000 503.346
68.01000 505.115
68.02000 511.104
68.03000 517.097
68.04000 522.081
68.05000 526.276
68.06000 530.406
68.07000 530.196
68.08000 527.777
68.09000 525.427
68.10000 524.262
68.11000 523.524
68.12000 523.992
68.13000 535.676
68.14000 550.098
68.15000 562.640
68.16000 556.134
68.17000 547.986
68.18000 543.853
68.19000 554.968
68.20000 567.563
68.21000 577.391
68.22000 580.072
68.23000 582.390
68.24000 583.879
68.25000 590.154
68.26000 594.798
68.27000 603.379
68.28000 616.615
68.29000 629.821
68.30000 634.133
68.31000 631.600
68.32000 629.109
68.33000 620.267
68.34000 608.517
68.35000 597.933
68.36000 606.712
68.37000 622.365
68.38000 637.022
68.39000 642.612
68.40000 646.021
68.41000 648.979
68.42000 657.145
68.43000 664.797
68.44000 672.103
68.45000 678.117
68.46000 684.009
68.47000 691.275
68.48000 702.042
68.49000 712.982
68.50000 719.974
68.51000 745.332
68.52000 764.030
68.53000 783.153
68.54000 802.770
68.55000 822.349
68.56000 833.533
68.57000 838.358
68.58000 843.102
68.59000 864.984
68.60000 894.614
68.61000 924.622
68.62000 960.734
68.63000 998.982
68.64000 1037.616
68.65000 1079.696
68.66000 1122.591
68.67000 1159.707
68.68000 1212.365
68.69000 1259.170
68.70000 1307.832
68.71000 1363.338
68.72000 1419.481
68.73000 1468.610
68.74000 1500.141
68.75000 1530.825
68.76000 1550.325
68.77000 1636.743
68.78000 1700.333
68.79000 1756.033
68.80000 1802.703
68.81000 1849.422
68.82000 1907.425
68.83000 1973.844
68.84000 2039.082
68.85000 2143.389
68.86000 2263.116
68.87000 2389.360
68.88000 2618.317
68.89000 2882.698
68.90000 3179.227
68.91000 3757.239
68.92000 4400.866
68.93000 4956.355
68.94000 6799.660
68.95000 8529.478
68.96000 10545.064
68.97000 13598.173
68.98000 16745.764
68.99000 20083.666
69.00000 23892.328
69.01000 27722.934
69.02000 30143.271
69.03000 34521.246
69.04000 37716.477
69.05000 40194.430
69.06000 41864.672
69.07000 43531.500
69.08000 44725.688
69.09000 45572.754
69.10000 46404.066
69.11000 47017.883
69.12000 47505.563
69.13000 48010.297
69.14000 48777.070
69.15000 49632.902
69.16000 50438.340
69.17000 50811.109
69.18000 51084.570
69.19000 51319.969
69.20000 49810.141
69.21000 48311.160
69.22000 46466.164
69.23000 43383.574
69.24000 40190.715
69.25000 37083.891
69.26000 34186.828
69.27000 31299.244
69.28000 29485.320
69.29000 27560.910
69.30000 26168.420
69.31000 25125.111
69.32000 24468.629
69.33000 23813.809
69.34000 23382.629
69.35000 23113.178
69.36000 22848.961
69.37000 22152.184
69.38000 21277.232
69.39000 20364.461
69.40000 18885.342
69.41000 17216.518
69.42000 15511.975
69.43000 13506.657
69.44000 11433.371
69.45000 9653.313
69.46000 7832.114
69.47000 6287.310
69.48000 4905.253
69.49000 4096.676
69.50000 3338.077
69.51000 2705.450
69.52000 2375.556
69.53000 2058.925
69.54000 1861.188
69.55000 1663.082
69.56000 1520.181
69.57000 1403.059
69.58000 1314.028
69.59000 1225.224
69.60000 1167.431
69.61000 1131.722
69.62000 1096.737
69.63000 1045.005
69.64000 987.483
69.65000 932.097
69.66000 907.923
69.67000 894.052
69.68000 878.518
69.69000 849.245
69.70000 816.917
69.71000 789.234
69.72000 764.804
69.73000 744.583
69.74000 727.231
69.75000 719.840
69.76000 713.297
69.77000 704.683
69.78000 691.162
69.79000 677.433
69.80000 668.910
69.81000 647.645
69.82000 632.216
69.83000 620.205
69.84000 611.856
69.85000 603.521
69.86000 596.741
69.87000 591.052
69.88000 585.484
69.89000 581.474
69.90000 578.336
69.91000 574.863
69.92000 566.622
69.93000 556.831
69.94000 547.483
69.95000 541.725
69.96000 536.754
69.97000 532.509
69.98000 525.029
69.99000 518.343
70.00000 513.249
