20.00000 497.464
20.01000 496.191
20.02000 494.736
20.03000 491.893
20.04000 483.572
20.05000 474.691
20.06000 468.132
20.07000 476.026
20.08000 482.758
20.09000 488.142
20.10000 491.057
20.11000 493.919
20.12000 494.491
20.13000 492.244
20.14000 489.994
20.15000 489.081
20.16000 489.239
20.17000 489.400
20.18000 489.694
20.19000 490.059
20.20000 490.214
20.21000 486.626
20.22000 481.662
20.23000 477.080
20.24000 477.382
20.25000 478.745
20.26000 479.996
20.27000 480.589
20.28000 481.074
20.29000 480.309
20.30000 474.685
20.31000 468.575
20.32000 464.081
20.33000 464.282
20.34000 464.631
20.35000 466.200
20.36000 469.969
20.37000 473.783
20.38000 477.521
20.39000 481.167
20.40000 484.806
20.41000 488.728
20.42000 492.853
20.43000 496.874
20.44000 496.494
20.45000 493.779
20.46000 490.812
20.47000 483.467
20.48000 474.535
20.49000 466.306
20.50000 460.423
20.51000 455.675
20.52000 453.965
20.53000 469.874
20.54000 488.621
20.55000 503.012
20.56000 500.739
20.57000 496.831
20.58000 493.968
20.59000 484.710
20.60000 477.307
20.61000 472.594
20.62000 472.664
20.63000 472.826
20.64000 471.551
20.65000 468.561
20.66000 465.575
20.67000 468.134
20.68000 474.955
20.69000 481.564
20.70000 479.506
20.71000 472.918
20.72000 466.527
20.73000 463.440
20.74000 461.534
20.75000 459.782
20.76000 469.158
20.77000 479.941
20.78000 488.077
20.79000 481.121
20.80000 471.775
20.81000 464.914
20.82000 467.415
20.83000 470.815
20.84000 473.294
20.85000 484.549
20.86000 493.560
20.87000 497.133
20.88000 491.178
20.89000 485.047
20.90000 482.289
20.91000 483.484
20.92000 484.682
20.93000 483.536
20.94000 480.618
20.95000 477.747
20.96000 476.728
20.97000 476.664
20.98000 476.634
20.99000 477.184
21.00000 477.937
21.01000 478.629
21.02000 476.304
21.03000 473.590
21.04000 471.207
21.05000 470.685
21.06000 470.453
21.07000 470.607
21.08000 472.196
21.09000 473.921
21.10000 475.173
21.11000 474.213
21.12000 473.393
21.13000 472.564
21.14000 471.722
21.15000 470.879
21.16000 469.912
21.17000 468.802
21.18000 467.696
21.19000 467.787
21.20000 468.771
21.21000 469.837
21.22000 473.974
21.23000 479.669
21.24000 484.888
21.25000 482.503
21.26000 477.478
21.27000 472.875
21.28000 473.456
21.29000 475.056
21.30000 476.697
21.31000 478.560
21.32000 480.456
21.33000 482.161
21.34000 483.162
21.35000 484.098
21.36000 484.776
21.37000 484.799
21.38000 484.794
21.39000 483.707
21.40000 480.779
21.41000 477.821
21.42000 476.237
21.43000 476.212
21.44000 476.190
21.45000 478.154
21.46000 481.561
21.47000 484.908
21.48000 486.087
21.49000 486.183
21.50000 486.240
21.51000 485.704
21.52000 484.964
21.53000 484.288
21.54000 478.828
21.55000 472.992
21.56000 467.614
21.57000 464.721
21.58000 462.202
21.59000 461.601
21.60000 467.915
21.61000 474.850
21.62000 479.842
21.63000 479.914
21.64000 479.795
21.65000 479.968
21.66000 480.630
21.67000 481.299
21.68000 482.271
21.69000 483.583
21.70000 484.890
21.71000 487.146
21.72000 490.067
21.73000 492.901
21.74000 492.711
21.75000 491.028
21.76000 489.874
21.77000 496.727
21.78000 506.281
21.79000 514.999
21.80000 514.412
21.81000 512.011
21.82000 510.426
21.83000 513.192
21.84000 516.600
21.85000 517.749
21.86000 510.881
21.87000 503.306
21.88000 497.879
21.89000 506.407
21.90000 513.398
21.91000 522.644
21.92000 535.612
21.93000 548.635
21.94000 556.265
21.95000 557.970
21.96000 559.665
21.97000 560.206
21.98000 559.919
21.99000 559.808
22.00000 565.505
22.01000 574.025
22.02000 582.089
22.03000 583.417
22.04000 582.506
22.05000 581.677
22.06000 592.675
22.07000 604.762
22.08000 615.578
22.09000 619.718
22.10000 622.890
22.11000 625.520
22.12000 626.257
22.13000 626.830
22.14000 627.240
22.15000 612.082
22.16000 600.012
22.17000 595.832
22.18000 604.487
22.19000 613.322
22.20000 613.209
22.21000 603.429
22.22000 593.686
22.23000 588.171
22.24000 585.668
22.25000 583.103
22.26000 578.568
22.27000 573.089
22.28000 567.427
22.29000 559.119
22.30000 549.944
22.31000 541.605
22.32000 547.677
22.33000 555.857
22.34000 560.848
22.35000 549.360
22.36000 535.527
22.37000 524.986
22.38000 525.790
22.39000 527.550
22.40000 528.799
22.41000 520.852
22.42000 514.511
22.43000 507.654
22.44000 499.966
22.45000 492.268
22.46000 486.715
22.47000 483.442
22.48000 480.185
22.49000 482.369
22.50000 488.274
22.51000 493.908
22.52000 491.213
22.53000 484.585
22.54000 478.654
22.55000 482.514
22.56000 489.535
22.57000 495.904
22.58000 493.193
22.59000 489.060
22.60000 485.156
22.61000 482.410
22.62000 479.827
22.63000 476.850
22.64000 472.538
22.65000 468.116
22.66000 464.991
22.67000 457.816
22.68000 452.242
22.69000 451.341
22.70000 457.817
22.71000 464.383
22.72000 466.052
22.73000 462.602
22.74000 459.169
22.75000 461.012
22.76000 466.406
22.77000 471.569
22.78000 469.900
22.79000 465.052
22.80000 460.287
22.81000 456.667
22.82000 453.413
22.83000 450.466
22.84000 453.289
22.85000 456.863
22.86000 458.842
22.87000 452.850
22.88000 445.763
22.89000 440.757
22.90000 442.712
22.91000 445.227
22.92000 446.996
22.93000 445.102
22.94000 443.558
22.95000 441.497
22.96000 438.634
22.97000 435.761
22.98000 437.489
22.99000 443.946
23.00000 450.367
23.01000 447.351
23.02000 438.086
23.03000 429.251
23.04000 432.714
23.05000 441.819
23.06000 449.909
23.07000 444.413
23.08000 434.657
23.09000 425.844
23.10000 428.400
23.11000 432.751
23.12000 436.565
23.13000 437.733
23.14000 438.544
23.15000 439.349
23.16000 440.139
23.17000 440.927
23.18000 441.479
23.19000 431.031
23.20000 422.815
23.21000 420.688
23.22000 427.890
23.23000 435.192
23.24000 438.807
23.25000 438.695
23.26000 438.585
23.27000 434.897
23.28000 428.914
23.29000 423.228
23.30000 425.747
23.31000 431.975
23.32000 437.753
23.33000 437.637
23.34000 435.700
23.35000 433.954
23.36000 436.973
23.37000 440.489
23.38000 442.210
23.39000 435.233
23.40000 427.104
23.41000 421.873
23.42000 426.048
23.43000 430.946
23.44000 434.360
23.45000 428.087
23.46000 423.087
23.47000 420.777
23.48000 422.527
23.49000 424.318
23.50000 426.436
23.51000 428.880
23.52000 431.308
23.53000 429.162
23.54000 424.096
23.55000 419.131
23.56000 416.869
23.57000 415.812
23.58000 415.064
23.59000 418.268
23.60000 422.674
23.61000 426.639
23.62000 433.470
23.63000 439.967
23.64000 445.425
23.65000 445.927
23.66000 445.786
23.67000 444.100
23.68000 437.476
23.69000 430.481
23.70000 425.629
23.71000 435.664
23.72000 443.616
23.73000 446.728
23.74000 442.644
23.75000 438.494
23.76000 438.541
23.77000 442.690
23.78000 446.809
23.79000 442.998
23.80000 434.210
23.81000 425.549
23.82000 420.171
23.83000 416.235
23.84000 412.703
23.85000 414.225
23.86000 417.263
23.87000 419.991
23.88000 424.031
23.89000 427.795
23.90000 431.181
23.91000 432.790
23.92000 434.173
23.93000 433.811
23.94000 427.949
23.95000 421.684
23.96000 417.360
23.97000 429.555
23.98000 439.141
23.99000 442.147
24.00000 435.519
24.01000 428.808
24.02000 426.226
24.03000 427.610
24.04000 428.984
24.05000 428.714
24.06000 427.423
24.07000 426.184
24.08000 426.279
24.09000 426.951
24.10000 427.874
24.11000 431.873
24.12000 436.780
24.13000 441.176
24.14000 440.863
24.15000 439.778
24.16000 438.742
24.17000 437.930
24.18000 437.147
24.19000 436.000
24.20000 433.723
24.21000 431.365
24.22000 429.746
24.23000 429.944
24.24000 430.137
24.25000 427.072
24.26000 419.310
24.27000 411.512
24.28000 411.342
24.29000 418.378
24.30000 425.357
24.31000 425.589
24.32000 421.667
24.33000 417.791
24.34000 415.022
24.35000 412.726
24.36000 410.441
24.37000 408.300
24.38000 406.200
24.39000 404.323
24.40000 412.739
24.41000 421.817
24.42000 429.265
24.43000 429.305
24.44000 428.436
24.45000 427.207
24.46000 424.874
24.47000 422.465
24.48000 420.818
24.49000 415.044
24.50000 410.626
24.51000 406.607
24.52000 403.154
24.53000 399.708
24.54000 403.631
24.55000 414.400
24.56000 425.078
24.57000 425.246
24.58000 419.052
24.59000 413.033
24.60000 411.120
24.61000 410.933
24.62000 410.872
24.63000 412.276
24.64000 414.101
24.65000 415.728
24.66000 416.150
24.67000 416.317
24.68000 416.675
24.69000 417.888
24.70000 419.204
24.71000 420.050
24.72000 419.480
24.73000 418.814
24.74000 418.361
24.75000 414.294
24.76000 411.176
24.77000 408.023
24.78000 404.824
24.79000 401.626
24.80000 401.800
24.81000 405.057
24.82000 408.284
24.83000 411.485
24.84000 414.609
24.85000 417.458
24.86000 414.093
24.87000 408.152
24.88000 402.473
24.89000 399.781
24.90000 397.933
24.91000 396.289
24.92000 409.392
24.93000 423.179
24.94000 433.970
24.95000 431.561
24.96000 427.593
24.97000 422.531
24.98000 414.214
24.99000 405.682
25.00000 399.908
25.01000 404.202
25.02000 407.620
25.03000 409.645
25.04000 409.749
25.05000 409.841
25.06000 409.712
25.07000 409.386
25.08000 409.062
25.09000 408.616
25.10000 408.107
25.11000 407.761
25.12000 411.005
25.13000 415.714
25.14000 420.099
25.15000 420.860
25.16000 420.611
25.17000 420.390
25.18000 418.042
25.19000 415.666
25.20000 413.382
25.21000 411.502
25.22000 409.669
25.23000 407.848
25.24000 406.060
25.25000 404.275
25.26000 403.073
25.27000 411.150
25.28000 417.349
25.29000 418.196
25.30000 411.784
25.31000 405.336
25.32000 402.147
25.33000 401.841
25.34000 401.539
25.35000 395.800
25.36000 387.052
25.37000 378.736
25.38000 379.638
25.39000 384.251
25.40000 388.944
25.41000 394.502
25.42000 400.297
25.43000 405.431
25.44000 402.743
25.45000 399.186
25.46000 396.949
25.47000 400.355
25.48000 404.402
25.49000 406.832
25.50000 404.589
25.51000 402.053
25.52000 400.353
25.53000 402.338
25.54000 403.884
25.55000 405.893
25.56000 408.522
25.57000 411.147
25.58000 407.750
25.59000 399.114
25.60000 390.572
25.61000 389.181
25.62000 391.881
25.63000 394.343
25.64000 391.886
25.65000 387.475
25.66000 383.539
25.67000 384.673
25.68000 387.177
25.69000 389.390
25.70000 401.096
25.71000 412.674
25.72000 420.717
25.73000 413.889
25.74000 405.405
25.75000 398.738
25.76000 397.240
25.77000 396.061
25.78000 395.275
25.79000 390.291
25.80000 386.521
25.81000 388.150
25.82000 396.875
25.83000 405.625
25.84000 410.443
25.85000 411.892
25.86000 413.325
25.87000 410.304
25.88000 404.866
25.89000 399.731
25.90000 400.685
25.91000 404.021
25.92000 406.863
25.93000 404.531
25.94000 400.822
25.95000 397.551
25.96000 401.133
25.97000 405.260
25.98000 407.506
25.99000 401.958
26.00000 395.560
26.01000 389.824
26.02000 385.950
26.03000 382.187
26.04000 379.692
26.05000 394.636
26.06000 405.994
26.07000 411.823
26.08000 410.497
26.09000 409.138
26.10000 405.480
26.11000 399.886
26.12000 394.360
26.13000 391.235
26.14000 389.509
26.15000 387.630
26.16000 382.779
26.17000 376.781
26.18000 371.808
26.19000 377.320
26.20000 385.583
26.21000 392.851
26.22000 398.442
26.23000 403.003
26.24000 405.451
26.25000 399.277
26.26000 392.180
26.27000 388.717
26.28000 395.302
26.29000 402.473
26.30000 407.201
26.31000 403.207
26.32000 400.111
26.33000 397.061
26.34000 394.071
26.35000 391.081
26.36000 388.641
26.37000 386.657
26.38000 384.698
26.39000 384.205
26.40000 384.518
26.41000 384.852
26.42000 385.565
26.43000 386.422
26.44000 387.149
26.45000 386.567
26.46000 385.647
26.47000 384.840
26.48000 386.908
26.49000 389.105
26.50000 391.489
26.51000 394.625
26.52000 397.840
26.53000 398.316
26.54000 391.324
26.55000 383.910
26.56000 379.047
26.57000 379.475
26.58000 379.878
26.59000 379.889
26.60000 379.409
26.61000 378.936
26.62000 382.346
26.63000 388.923
26.64000 395.411
26.65000 396.248
26.66000 394.053
26.67000 392.134
26.68000 395.304
26.69000 400.381
26.70000 404.696
26.71000 401.524
26.72000 396.448
26.73000 392.004
26.74000 385.460
26.75000 379.548
26.76000 376.382
26.77000 384.078
26.78000 392.890
26.79000 398.171
26.80000 393.963
26.81000 389.233
26.82000 386.148
26.83000 377.696
26.84000 371.409
26.85000 369.179
26.86000 371.954
26.87000 374.748
26.88000 379.116
26.89000 384.747
26.90000 390.298
26.91000 390.321
26.92000 387.444
26.93000 384.462
26.94000 379.605
26.95000 374.056
26.96000 369.114
26.97000 370.024
26.98000 372.400
26.99000 374.474
27.00000 375.371
27.01000 375.973
27.02000 376.193
27.03000 374.927
27.04000 373.511
27.05000 373.872
27.06000 378.939
27.07000 384.258
27.08000 387.709
27.09000 381.082
27.10000 376.078
27.11000 374.694
27.12000 377.710
27.13000 380.735
27.14000 383.455
27.15000 385.934
27.16000 388.376
27.17000 387.780
27.18000 385.633
27.19000 383.457
27.20000 380.783
27.21000 377.927
27.22000 376.056
27.23000 383.479
27.24000 393.195
27.25000 401.659
27.26000 391.410
27.27000 380.069
27.28000 371.280
27.29000 372.286
27.30000 374.257
27.31000 376.129
27.32000 377.741
27.33000 379.339
27.34000 380.370
27.35000 376.584
27.36000 373.748
27.37000 374.788
27.38000 380.461
27.39000 386.127
27.40000 387.594
27.41000 385.793
27.42000 384.020
27.43000 382.234
27.44000 380.498
27.45000 378.953
27.46000 380.634
27.47000 383.473
27.48000 385.549
27.49000 380.580
27.50000 373.899
27.51000 368.092
27.52000 381.791
27.53000 396.116
27.54000 404.639
27.55000 391.227
27.56000 375.697
27.57000 367.136
27.58000 376.497
27.59000 386.763
27.60000 393.350
27.61000 387.490
27.62000 383.048
27.63000 379.389
27.64000 376.649
27.65000 373.915
27.66000 372.286
27.67000 371.503
27.68000 370.732
27.69000 368.767
27.70000 366.270
27.71000 364.083
27.72000 367.014
27.73000 371.755
27.74000 376.246
27.75000 378.472
27.76000 380.156
27.77000 381.615
27.78000 377.582
27.79000 373.419
27.80000 371.340
27.81000 377.020
27.82000 383.432
27.83000 386.506
27.84000 381.115
27.85000 375.308
27.86000 371.603
27.87000 363.324
27.88000 357.243
27.89000 356.807
27.90000 362.908
27.91000 369.011
27.92000 373.820
27.93000 377.655
27.94000 381.423
27.95000 381.910
27.96000 380.766
27.97000 379.452
27.98000 375.406
27.99000 370.409
28.00000 366.089
28.01000 367.791
28.02000 370.911
28.03000 373.608
28.04000 375.002
28.05000 376.016
28.06000 377.390
28.07000 380.080
28.08000 382.893
28.09000 384.421
28.10000 382.738
28.11000 380.902
28.12000 379.738
28.13000 371.960
28.14000 366.235
28.15000 366.393
28.16000 373.253
28.17000 380.064
28.18000 376.610
28.19000 365.533
28.20000 354.655
28.21000 359.411
28.22000 371.573
28.23000 383.025
28.24000 383.372
28.25000 379.904
28.26000 377.002
28.27000 379.011
28.28000 382.160
28.29000 384.876
28.30000 380.173
28.31000 375.235
28.32000 372.047
28.33000 375.184
28.34000 378.893
28.35000 381.316
28.36000 380.569
28.37000 379.676
28.38000 379.112
28.39000 369.896
28.40000 363.123
28.41000 359.156
28.42000 358.334
28.43000 357.547
28.44000 362.408
28.45000 371.397
28.46000 380.216
28.47000 383.314
28.48000 383.572
28.49000 383.753
28.50000 382.759
28.51000 381.367
28.52000 379.291
28.53000 371.374
28.54000 362.122
28.55000 354.165
28.56000 359.854
28.57000 366.382
28.58000 371.049
28.59000 369.095
28.60000 366.554
28.61000 365.059
28.62000 366.102
28.63000 367.258
28.64000 367.983
28.65000 372.325
28.66000 375.500
28.67000 378.239
28.68000 380.496
28.69000 382.709
28.70000 378.286
28.71000 369.086
28.72000 360.067
28.73000 357.624
28.74000 358.358
28.75000 359.103
28.76000 360.002
28.77000 360.952
28.78000 361.764
28.79000 361.411
28.80000 360.796
28.81000 360.269
28.82000 362.522
28.83000 364.767
28.84000 365.534
28.85000 361.111
28.86000 356.240
28.87000 353.598
28.88000 356.291
28.89000 359.215
28.90000 361.038
28.91000 355.593
28.92000 351.594
28.93000 354.198
28.94000 363.961
28.95000 373.668
28.96000 374.994
28.97000 370.378
28.98000 365.858
28.99000 362.518
29.00000 359.853
29.01000 357.335
29.02000 356.954
29.03000 357.274
29.04000 357.569
29.05000 357.653
29.06000 357.689
29.07000 357.721
29.08000 359.169
29.09000 360.561
29.10000 362.135
29.11000 364.336
29.12000 366.590
29.13000 368.356
29.14000 368.970
29.15000 369.536
29.16000 369.886
29.17000 365.461
29.18000 362.232
29.19000 362.498
29.20000 366.490
29.21000 370.461
29.22000 371.580
29.23000 370.710
29.24000 369.857
29.25000 361.752
29.26000 350.673
29.27000 340.675
29.28000 345.948
29.29000 356.169
29.30000 364.816
29.31000 360.789
29.32000 354.000
29.33000 348.206
29.34000 351.455
29.35000 355.259
29.36000 356.531
29.37000 349.181
29.38000 341.117
29.39000 338.745
29.40000 349.605
29.41000 361.004
29.42000 368.025
29.43000 363.614
29.44000 360.347
29.45000 359.132
29.46000 360.070
29.47000 361.000
29.48000 360.906
29.49000 360.107
29.50000 359.326
29.51000 357.860
29.52000 356.148
29.53000 354.726
29.54000 357.310
29.55000 361.172
29.56000 364.973
29.57000 368.286
29.58000 371.496
29.59000 374.227
29.60000 368.574
29.61000 362.853
29.62000 358.930
29.63000 361.044
29.64000 363.646
29.65000 364.619
29.66000 361.859
29.67000 358.952
29.68000 357.173
29.69000 373.317
29.70000 385.025
29.71000 391.376
29.72000 392.202
29.73000 393.020
29.74000 392.999
29.75000 392.409
29.76000 391.832
29.77000 388.580
29.78000 384.288
29.79000 380.718
29.80000 386.878
29.81000 396.099
29.82000 404.426
29.83000 405.823
29.84000 405.756
29.85000 405.700
29.86000 408.464
29.87000 411.103
29.88000 413.037
29.89000 412.642
29.90000 412.062
29.91000 414.246
29.92000 422.671
29.93000 431.334
29.94000 436.605
29.95000 451.963
29.96000 463.010
29.97000 464.041
29.98000 454.913
29.99000 445.872
30.00000 445.714
30.01000 451.482
30.02000 457.109
30.03000 459.087
30.04000 459.394
30.05000 459.359
30.06000 454.832
30.07000 448.912
30.08000 443.274
30.09000 439.784
30.10000 436.741
30.11000 434.165
30.12000 433.433
30.13000 433.026
30.14000 435.506
30.15000 447.394
30.16000 460.009
30.17000 466.880
30.18000 460.967
30.19000 454.585
30.20000 450.725
30.21000 438.883
30.22000 430.387
30.23000 426.356
30.24000 426.776
30.25000 427.162
30.26000 424.278
30.27000 419.245
30.28000 414.338
30.29000 415.055
30.30000 418.139
30.31000 420.914
30.32000 419.708
30.33000 417.286
30.34000 414.679
30.35000 410.689
30.36000 406.417
30.37000 402.811
30.38000 401.331
30.39000 400.325
30.40000 399.341
30.41000 398.423
30.42000 397.511
30.43000 397.414
30.44000 399.109
30.45000 400.867
30.46000 401.923
30.47000 398.935
30.48000 396.784
30.49000 393.913
30.50000 390.336
30.51000 386.832
30.52000 389.766
30.53000 396.865
30.54000 403.780
30.55000 407.783
30.56000 410.376
30.57000 412.793
30.58000 413.002
30.59000 412.547
30.60000 411.907
30.61000 409.910
30.62000 407.639
30.63000 405.727
30.64000 408.157
30.65000 410.648
30.66000 414.107
30.67000 420.631
30.68000 427.380
30.69000 430.221
30.70000 424.611
30.71000 418.711
30.72000 415.188
30.73000 413.872
30.74000 412.953
30.75000 419.071
30.76000 431.971
30.77000 444.651
30.78000 438.964
30.79000 421.569
30.80000 404.644
30.81000 410.650
30.82000 425.848
30.83000 439.832
30.84000 438.934
30.85000 433.623
30.86000 429.582
30.87000 434.693
30.88000 441.617
30.89000 447.427
30.90000 452.164
30.91000 455.996
30.92000 459.796
30.93000 463.500
30.94000 467.197
30.95000 472.613
30.96000 481.693
30.97000 490.894
30.98000 496.353
30.99000 521.028
31.00000 538.597
31.01000 552.704
31.02000 563.528
31.03000 574.296
31.04000 580.627
31.05000 584.171
31.06000 587.616
31.07000 603.851
31.08000 624.487
31.09000 647.122
31.10000 693.714
31.11000 747.305
31.12000 800.341
31.13000 849.450
31.14000 897.794
31.15000 938.244
31.16000 1015.089
31.17000 1082.667
31.18000 1147.152
31.19000 1202.138
31.20000 1256.457
31.21000 1334.406
31.22000 1461.999
31.23000 1591.171
31.24000 1667.306
31.25000 1818.019
31.26000 1924.792
31.27000 2025.762
31.28000 2121.323
31.29000 2217.060
31.30000 2325.639
31.31000 2442.163
31.32000 2555.305
31.33000 2659.036
31.34000 2753.729
31.35000 2846.849
31.36000 2921.540
31.37000 2990.927
31.38000 3058.113
31.39000 3110.000
31.40000 3158.953
31.41000 3199.794
31.42000 3159.389
31.43000 3117.730
31.44000 3073.243
31.45000 3020.197
31.46000 2966.564
31.47000 2894.204
31.48000 2783.065
31.49000 2670.739
31.50000 2604.967
31.51000 2490.094
31.52000 2408.961
31.53000 2308.575
31.54000 2190.538
31.55000 2072.628
31.56000 1963.544
31.57000 1859.840
31.58000 1759.254
31.59000 1644.278
31.60000 1529.633
31.61000 1417.382
31.62000 1332.589
31.63000 1255.582
31.64000 1180.078
31.65000 1114.837
31.66000 1051.533
31.67000 998.874
31.68000 929.706
31.69000 870.830
31.70000 818.700
31.71000 786.695
31.72000 756.032
31.73000 726.327
31.74000 698.575
31.75000 670.881
31.76000 654.773
31.77000 620.974
31.78000 597.157
31.79000 577.928
31.80000 562.839
31.81000 547.798
31.82000 535.944
31.83000 526.003
31.84000 516.371
31.85000 498.447
31.86000 478.266
31.87000 459.025
31.88000 450.318
31.89000 444.553
31.90000 439.581
31.91000 439.927
31.92000 441.260
31.93000 442.365
31.94000 431.261
31.95000 420.914
31.96000 412.003
31.97000 407.314
31.98000 402.899
31.99000 398.828
32.00000 395.446
32.01000 392.084
32.02000 390.142
32.03000 392.198
32.04000 393.650
32.05000 390.199
32.06000 382.396
32.07000 374.693
32.08000 373.085
32.09000 375.085
32.10000 377.020
32.11000 375.141
32.12000 371.909
32.13000 368.930
32.14000 368.716
32.15000 369.264
32.16000 370.067
32.17000 372.549
32.18000 375.338
32.19000 377.644
32.20000 365.138
32.21000 353.432
32.22000 346.382
32.23000 352.823
32.24000 360.119
32.25000 363.953
32.26000 360.925
32.27000 357.711
32.28000 355.866
32.29000 353.236
32.30000 351.389
32.31000 345.853
32.32000 337.095
32.33000 328.479
32.34000 328.168
32.35000 332.698
32.36000 337.078
32.37000 340.844
32.38000 344.167
32.39000 347.188
32.40000 346.967
32.41000 345.867
32.42000 344.491
32.43000 341.323
32.44000 337.834
32.45000 334.958
32.46000 331.378
32.47000 328.366
32.48000 326.411
32.49000 327.472
32.50000 328.720
32.51000 330.302
32.52000 332.539
32.53000 334.792
32.54000 336.076
32.55000 327.866
32.56000 322.124
32.57000 325.129
32.58000 335.649
32.59000 345.976
32.60000 345.617
32.61000 339.119
32.62000 332.845
32.63000 333.066
32.64000 335.677
32.65000 338.002
32.66000 337.318
32.67000 335.832
32.68000 334.339
32.69000 332.811
32.70000 331.277
32.71000 330.017
32.72000 322.379
32.73000 315.531
32.74000 312.425
32.75000 319.856
32.76000 327.920
32.77000 332.538
32.78000 330.519
32.79000 328.335
32.80000 327.099
32.81000 325.956
32.82000 325.156
32.83000 321.035
32.84000 314.107
32.85000 307.330
32.86000 308.513
32.87000 314.203
32.88000 319.690
32.89000 316.013
32.90000 309.219
32.91000 302.705
32.92000 299.067
32.93000 296.186
32.94000 294.752
32.95000 302.367
32.96000 311.554
32.97000 319.081
32.98000 319.017
32.99000 318.297
33.00000 318.491
33.01000 321.225
33.02000 324.107
33.03000 325.371
33.04000 323.565
33.05000 321.685
33.06000 320.629
33.07000 313.771
33.08000 309.008
33.09000 309.452
33.10000 314.227
33.11000 318.942
33.12000 320.639
33.13000 320.654
33.14000 320.668
33.15000 319.076
33.16000 317.007
33.17000 314.958
33.18000 313.117
33.19000 311.330
33.20000 310.004
33.21000 311.511
33.22000 313.502
33.23000 315.129
33.24000 306.483
33.25000 298.522
33.26000 293.780
33.27000 297.840
33.28000 302.401
33.29000 308.170
33.30000 316.199
33.31000 324.280
33.32000 328.789
33.33000 320.327
33.34000 314.444
33.35000 309.595
33.36000 305.590
33.37000 301.679
33.38000 302.177
33.39000 305.100
33.40000 307.912
33.41000 305.535
33.42000 301.478
33.43000 298.034
33.44000 300.637
33.45000 304.783
33.46000 307.924
33.47000 304.987
33.48000 301.030
33.49000 297.809
33.50000 303.456
33.51000 308.816
33.52000 311.486
33.53000 306.907
33.54000 301.927
33.55000 300.236
33.56000 304.608
33.57000 309.112
33.58000 311.607
33.59000 308.451
33.60000 306.265
33.61000 305.603
33.62000 306.169
33.63000 306.692
33.64000 305.279
33.65000 302.818
33.66000 300.453
33.67000 297.080
33.68000 293.573
33.69000 290.772
33.70000 294.795
33.71000 300.533
33.72000 304.633
33.73000 299.002
33.74000 291.764
33.75000 285.890
33.76000 290.958
33.77000 295.991
33.78000 299.844
33.79000 300.565
33.80000 301.118
33.81000 300.748
33.82000 298.705
33.83000 296.627
33.84000 295.484
33.85000 285.010
33.86000 277.818
33.87000 281.296
33.88000 293.237
33.89000 304.997
33.90000 308.912
33.91000 308.640
33.92000 308.379
33.93000 301.924
33.94000 293.775
33.95000 286.778
33.96000 290.696
33.97000 297.317
33.98000 302.199
33.99000 296.919
34.00000 289.990
34.01000 284.385
34.02000 286.200
34.03000 288.275
34.04000 289.852
34.05000 290.125
34.06000 290.330
34.07000 292.475
34.08000 298.092
34.09000 303.778
34.10000 306.881
34.11000 294.485
34.12000 285.958
34.13000 279.880
34.14000 275.714
34.15000 271.618
34.16000 270.437
34.17000 270.787
34.18000 271.124
34.19000 277.141
34.20000 284.666
34.21000 291.061
34.22000 286.979
34.23000 280.341
34.24000 275.110
34.25000 277.958
34.26000 282.095
34.27000 285.430
34.28000 281.117
34.29000 277.012
34.30000 276.423
34.31000 284.904
34.32000 293.847
34.33000 297.087
34.34000 290.271
34.35000 283.265
34.36000 279.469
34.37000 278.915
34.38000 278.532
34.39000 276.400
34.40000 272.924
34.41000 269.663
34.42000 274.999
34.43000 284.790
34.44000 294.164
34.45000 291.177
34.46000 284.308
34.47000 278.191
34.48000 278.914
34.49000 281.279
34.50000 283.658
34.51000 286.121
34.52000 288.597
34.53000 290.587
34.54000 291.653
34.55000 292.446
34.56000 293.933
34.57000 297.184
34.58000 300.522
34.59000 299.736
34.60000 291.786
34.61000 283.706
34.62000 279.362
34.63000 274.909
34.64000 271.896
34.65000 275.153
34.66000 283.155
34.67000 291.030
34.68000 294.064
34.69000 294.624
34.70000 295.160
34.71000 292.633
34.72000 289.287
34.73000 286.397
34.74000 287.581
34.75000 289.729
34.76000 291.143
34.77000 288.483
34.78000 285.195
34.79000 282.561
34.80000 278.617
34.81000 275.328
34.82000 274.550
34.83000 280.069
34.84000 285.890
34.85000 287.655
34.86000 282.478
34.87000 277.182
34.88000 274.357
34.89000 271.625
34.90000 269.766
34.91000 268.157
34.92000 266.735
34.93000 265.414
34.94000 267.791
34.95000 272.031
34.96000 276.079
34.97000 280.975
34.98000 285.795
34.99000 289.935
35.00000 288.117
35.01000 284.913
35.02000 281.188
35.03000 274.617
35.04000 267.615
35.05000 262.026
35.06000 268.775
35.07000 275.130
35.08000 280.175
35.09000 281.981
35.10000 283.637
35.11000 283.468
35.12000 280.223
35.13000 276.928
35.14000 275.183
35.15000 277.171
35.16000 278.503
35.17000 276.052
35.18000 270.825
35.19000 265.768
35.20000 266.665
35.21000 270.516
35.22000 274.188
35.23000 273.419
35.24000 271.308
35.25000 270.100
35.26000 276.643
35.27000 284.963
35.28000 291.140
35.29000 285.797
35.30000 278.741
35.31000 273.129
35.32000 272.121
35.33000 271.639
35.34000 270.347
35.35000 267.082
35.36000 263.729
35.37000 262.854
35.38000 266.096
35.39000 269.401
35.40000 271.137
35.41000 270.552
35.42000 270.157
35.43000 270.165
35.44000 270.463
35.45000 270.732
35.46000 270.026
35.47000 268.842
35.48000 267.714
35.49000 267.535
35.50000 267.662
35.51000 268.063
35.52000 270.764
35.53000 273.984
35.54000 275.947
35.55000 271.258
35.56000 265.598
35.57000 261.111
35.58000 266.447
35.59000 271.426
35.60000 274.937
35.61000 274.925
35.62000 274.759
35.63000 274.475
35.64000 273.997
35.65000 273.516
35.66000 273.265
35.67000 269.210
35.68000 266.509
35.69000 269.741
35.70000 277.193
35.71000 284.402
35.72000 283.733
35.73000 279.265
35.74000 275.017
35.75000 272.868
35.76000 271.520
35.77000 270.072
35.78000 267.796
35.79000 265.337
35.80000 264.040
35.81000 268.786
35.82000 274.399
35.83000 278.833
35.84000 274.262
35.85000 269.977
35.86000 265.259
35.87000 259.516
35.88000 253.729
35.89000 251.088
35.90000 253.523
35.91000 256.026
35.92000 257.320
35.93000 259.830
35.94000 261.522
35.95000 263.224
35.96000 264.933
35.97000 266.541
35.98000 265.005
35.99000 261.975
36.00000 259.097
36.01000 254.695
36.02000 250.174
36.03000 246.993
36.04000 254.654
36.05000 264.687
36.06000 273.459
36.07000 275.779
36.08000 277.189
36.09000 278.299
36.10000 274.658
36.11000 271.424
36.12000 267.919
36.13000 263.780
36.14000 259.615
36.15000 255.243
36.16000 250.544
36.17000 245.840
36.18000 243.428
36.19000 251.022
36.20000 256.110
36.21000 258.809
36.22000 259.861
36.23000 260.914
36.24000 261.990
36.25000 263.078
36.26000 264.110
36.27000 261.298
36.28000 257.572
36.29000 254.214
36.30000 253.779
36.31000 253.974
36.32000 253.952
36.33000 252.832
36.34000 251.561
36.35000 250.564
36.36000 254.631
36.37000 258.213
36.38000 261.039
36.39000 262.128
36.40000 263.147
36.41000 264.342
36.42000 265.813
36.43000 267.287
36.44000 268.036
36.45000 255.139
36.46000 246.566
36.47000 246.448
36.48000 252.074
36.49000 257.564
36.50000 259.101
36.51000 258.812
36.52000 258.539
36.53000 254.731
36.54000 250.201
36.55000 245.922
36.56000 243.607
36.57000 241.707
36.58000 240.765
36.59000 244.570
36.60000 249.020
36.61000 252.498
36.62000 257.172
36.63000 260.978
36.64000 264.108
36.65000 265.706
36.66000 267.246
36.67000 266.697
36.68000 262.927
36.69000 259.121
36.70000 257.200
36.71000 266.080
36.72000 271.939
36.73000 269.713
36.74000 262.076
36.75000 254.738
36.76000 255.796
36.77000 260.674
36.78000 265.286
36.79000 266.222
36.80000 266.032
36.81000 266.229
36.82000 269.387
36.83000 273.163
36.84000 275.666
36.85000 271.963
36.86000 267.432
36.87000 263.903
36.88000 266.867
36.89000 269.630
36.90000 271.862
36.91000 272.912
36.92000 273.918
36.93000 274.478
36.94000 274.358
36.95000 274.232
36.96000 274.169
36.97000 279.067
36.98000 282.287
36.99000 281.061
37.00000 276.905
37.01000 272.992
37.02000 275.665
37.03000 281.291
37.04000 286.602
37.05000 285.245
37.06000 282.125
37.07000 279.927
37.08000 284.651
37.09000 290.795
37.10000 295.385
37.11000 292.511
37.12000 288.659
37.13000 285.670
37.14000 283.239
37.15000 281.339
37.16000 278.535
37.17000 273.739
37.18000 268.872
37.19000 266.681
37.20000 268.496
37.21000 270.350
37.22000 270.491
37.23000 268.947
37.24000 267.427
37.25000 267.965
37.26000 269.841
37.27000 271.606
37.28000 270.471
37.29000 268.055
37.30000 265.777
37.31000 265.561
37.32000 265.933
37.33000 265.751
37.34000 261.485
37.35000 256.395
37.36000 252.938
37.37000 257.203
37.38000 262.460
37.39000 266.525
37.40000 263.930
37.41000 261.480
37.42000 259.288
37.43000 257.653
37.44000 256.038
37.45000 254.272
37.46000 252.285
37.47000 250.296
37.48000 252.350
37.49000 258.315
37.50000 264.245
37.51000 267.163
37.52000 268.156
37.53000 268.933
37.54000 264.261
37.55000 257.216
37.56000 250.586
37.57000 254.169
37.58000 260.223
37.59000 265.250
37.60000 262.851
37.61000 258.976
37.62000 256.599
37.63000 261.189
37.64000 266.658
37.65000 270.871
37.66000 263.314
37.67000 256.656
37.68000 251.733
37.69000 250.515
37.70000 249.421
37.71000 248.327
37.72000 247.233
37.73000 246.140
37.74000 248.091
37.75000 252.936
37.76000 257.733
37.77000 258.714
37.78000 257.291
37.79000 255.901
37.80000 255.324
37.81000 255.096
37.82000 254.882
37.83000 258.211
37.84000 262.197
37.85000 265.201
37.86000 261.220
37.87000 255.872
37.88000 251.328
37.89000 250.458
37.90000 250.043
37.91000 249.724
37.92000 249.609
37.93000 249.529
37.94000 249.033
37.95000 247.657
37.96000 246.253
37.97000 247.187
37.98000 251.462
37.99000 255.762
38.00000 259.345
38.01000 262.258
38.02000 265.179
38.03000 268.756
38.04000 272.740
38.05000 276.669
38.06000 279.323
38.07000 281.436
38.08000 283.418
38.09000 278.701
38.10000 272.639
38.11000 267.306
38.12000 267.052
38.13000 267.776
38.14000 269.126
38.15000 273.296
38.16000 277.809
38.17000 281.259
38.18000 278.820
38.19000 276.578
38.20000 272.507
38.21000 264.637
38.22000 256.649
38.23000 255.131
38.24000 262.721
38.25000 270.373
38.26000 276.115
38.27000 280.097
38.28000 284.025
38.29000 284.160
38.30000 281.977
38.31000 280.038
38.32000 283.714
38.33000 289.731
38.34000 295.367
38.35000 297.179
38.36000 297.837
38.37000 299.557
38.38000 308.557
38.39000 318.935
38.40000 327.892
38.41000 330.546
38.42000 332.450
38.43000 333.899
38.44000 345.749
38.45000 355.625
38.46000 367.082
38.47000 381.779
38.48000 396.571
38.49000 413.201
38.50000 432.379
38.51000 451.567
38.52000 477.481
38.53000 509.454
38.54000 541.396
38.55000 571.327
38.56000 600.047
38.57000 628.511
38.58000 651.272
38.59000 671.688
38.60000 690.780
38.61000 734.919
38.62000 781.377
38.63000 824.960
38.64000 849.177
38.65000 869.786
38.66000 894.536
38.67000 937.368
38.68000 982.314
38.69000 1016.409
38.70000 1022.457
38.71000 1025.766
38.72000 1031.957
38.73000 1043.961
38.74000 1056.130
38.75000 1060.409
38.76000 1053.915
38.77000 1047.360
38.78000 1034.806
38.79000 1016.932
38.80000 998.940
38.81000 973.645
38.82000 944.015
38.83000 914.634
38.84000 890.599
38.85000 868.730
38.86000 848.313
38.87000 807.855
38.88000 766.160
38.89000 725.291
38.90000 689.892
38.91000 655.494
38.92000 621.335
38.93000 588.203
38.94000 555.188
38.95000 530.242
38.96000 501.826
38.97000 479.376
38.98000 458.094
38.99000 439.139
39.00000 420.248
39.01000 402.853
39.02000 387.468
39.03000 372.102
39.04000 357.132
39.05000 342.532
39.06000 328.066
39.07000 321.510
39.08000 319.581
39.09000 317.369
39.10000 309.237
39.11000 298.740
39.12000 288.956
39.13000 286.462
39.14000 286.000
39.15000 285.233
39.16000 282.490
39.17000 279.389
39.18000 276.623
39.19000 275.273
39.20000 274.081
39.21000 273.184
39.22000 276.200
39.23000 278.749
39.24000 275.972
39.25000 262.758
39.26000 249.269
39.27000 244.466
39.28000 251.156
39.29000 257.896
39.30000 261.056
39.31000 261.131
39.32000 261.087
39.33000 254.400
39.34000 243.886
39.35000 233.891
39.36000 234.441
39.37000 239.142
39.38000 243.517
39.39000 246.730
39.40000 249.352
39.41000 252.088
39.42000 255.545
39.43000 259.131
39.44000 261.185
39.45000 256.856
39.46000 251.823
39.47000 248.050
39.48000 250.022
39.49000 251.832
39.50000 252.435
39.51000 250.704
39.52000 248.915
39.53000 243.633
39.54000 233.800
39.55000 223.956
39.56000 222.111
39.57000 227.038
39.58000 231.926
39.59000 234.725
39.60000 236.337
39.61000 237.975
39.62000 240.132
39.63000 242.489
39.64000 244.679
39.65000 243.722
39.66000 242.110
39.67000 240.522
39.68000 239.086
39.69000 237.676
39.70000 236.388
39.71000 235.602
39.72000 234.871
39.73000 234.325
39.74000 240.543
39.75000 245.699
39.76000 248.781
39.77000 247.914
39.78000 246.952
39.79000 245.628
39.80000 243.839
39.81000 242.051
39.82000 239.497
39.83000 236.314
39.84000 233.184
39.85000 232.739
39.86000 233.796
39.87000 234.790
39.88000 234.579
39.89000 233.907
39.90000 233.284
39.91000 233.730
39.92000 234.383
39.93000 234.677
39.94000 232.751
39.95000 230.444
39.96000 229.147
39.97000 231.932
39.98000 235.148
39.99000 237.539
40.00000 235.647
40.01000 233.985
40.02000 232.467
40.03000 231.221
40.04000 229.980
40.05000 227.561
40.06000 223.654
40.07000 219.747
40.08000 219.816
40.09000 223.139
40.10000 226.411
40.11000 227.234
40.12000 226.707
40.13000 226.141
40.14000 224.876
40.15000 223.348
40.16000 221.933
40.17000 223.464
40.18000 225.518
40.19000 227.265
40.20000 227.139
40.21000 226.698
40.22000 226.821
40.23000 229.191
40.24000 231.793
40.25000 233.720
40.26000 233.281
40.27000 232.838
40.28000 229.576
40.29000 221.101
40.30000 212.511
40.31000 209.950
40.32000 214.884
40.33000 219.831
40.34000 223.473
40.35000 226.049
40.36000 228.619
40.37000 230.864
40.38000 232.934
40.39000 234.753
40.40000 232.047
40.41000 227.659
40.42000 223.605
40.43000 217.192
40.44000 210.904
40.45000 206.032
40.46000 209.601
40.47000 214.569
40.48000 217.836
40.49000 214.435
40.50000 210.356
40.51000 207.348
40.52000 216.711
40.53000 224.483
40.54000 228.914
40.55000 227.258
40.56000 225.475
40.57000 221.802
40.58000 215.819
40.59000 209.840
40.60000 209.204
40.61000 212.804
40.62000 216.324
40.63000 216.378
40.64000 214.574
40.65000 212.990
40.66000 215.260
40.67000 218.941
40.68000 222.336
40.69000 220.151
40.70000 216.951
40.71000 214.148
40.72000 213.671
40.73000 213.574
40.74000 213.675
40.75000 214.541
40.76000 215.484
40.77000 216.175
40.78000 218.840
40.79000 220.981
40.80000 221.161
40.81000 217.821
40.82000 214.411
40.83000 216.137
40.84000 224.046
40.85000 231.952
40.86000 229.370
40.87000 218.628
40.88000 208.079
40.89000 205.643
40.90000 207.487
40.91000 209.234
40.92000 209.308
40.93000 208.778
40.94000 208.290
40.95000 208.188
40.96000 208.180
40.97000 208.640
40.98000 211.793
40.99000 215.376
41.00000 218.777
41.01000 221.482
41.02000 224.121
41.03000 226.050
41.04000 219.983
41.05000 214.987
41.06000 214.212
41.07000 220.906
41.08000 227.742
41.09000 229.272
41.10000 224.515
41.11000 219.758
41.12000 217.054
41.13000 215.940
41.14000 214.791
41.15000 212.192
41.16000 208.841
41.17000 205.640
41.18000 204.943
41.19000 205.138
41.20000 205.317
41.21000 209.682
41.22000 214.480
41.23000 218.417
41.24000 217.473
41.25000 215.760
41.26000 215.127
41.27000 218.543
41.28000 222.345
41.29000 225.113
41.30000 221.761
41.31000 218.946
41.32000 218.774
41.33000 223.208
41.34000 227.726
41.35000 226.884
41.36000 219.794
41.37000 212.714
41.38000 211.421
41.39000 214.502
41.40000 217.540
41.41000 218.927
41.42000 219.469
41.43000 219.896
41.44000 218.453
41.45000 216.355
41.46000 214.431
41.47000 216.282
41.48000 218.730
41.49000 220.088
41.50000 215.369
41.51000 209.709
41.52000 205.900
41.53000 208.922
41.54000 212.581
41.55000 215.234
41.56000 210.868
41.57000 207.254
41.58000 205.931
41.59000 208.545
41.60000 211.227
41.61000 212.559
41.62000 212.342
41.63000 212.124
41.64000 214.110
41.65000 217.718
41.66000 221.160
41.67000 218.518
41.68000 212.801
41.69000 207.563
41.70000 209.889
41.71000 214.830
41.72000 219.352
41.73000 215.867
41.74000 211.101
41.75000 206.730
41.76000 204.524
41.77000 202.646
41.78000 201.347
41.79000 202.149
41.80000 203.143
41.81000 203.860
41.82000 209.912
41.83000 214.744
41.84000 217.472
41.85000 216.639
41.86000 215.749
41.87000 213.448
41.88000 209.556
41.89000 205.675
41.90000 205.899
41.91000 209.119
41.92000 212.335
41.93000 215.422
41.94000 218.445
41.95000 221.112
41.96000 218.287
41.97000 213.591
41.98000 209.301
41.99000 208.245
42.00000 207.968
42.01000 207.592
42.02000 206.689
42.03000 205.707
42.04000 204.799
42.05000 204.155
42.06000 203.534
42.07000 203.089
42.08000 203.381
42.09000 203.630
42.10000 204.650
42.11000 206.954
42.12000 209.278
42.13000 210.348
42.14000 210.026
42.15000 209.704
42.16000 206.933
42.17000 202.427
42.18000 198.005
42.19000 196.440
42.20000 196.278
42.21000 196.341
42.22000 199.800
42.23000 204.399
42.24000 208.592
42.25000 212.286
42.26000 215.461
42.27000 216.975
42.28000 209.676
42.29000 201.085
42.30000 195.344
42.31000 199.667
42.32000 204.870
42.33000 208.592
42.34000 207.403
42.35000 206.330
42.36000 202.795
42.37000 195.218
42.38000 187.581
42.39000 187.382
42.40000 195.304
42.41000 203.199
42.42000 206.004
42.43000 205.186
42.44000 204.500
42.45000 208.109
42.46000 213.795
42.47000 219.026
42.48000 217.589
42.49000 213.947
42.50000 210.632
42.51000 208.877
42.52000 207.631
42.53000 206.182
42.54000 203.665
42.55000 200.995
42.56000 199.359
42.57000 201.321
42.58000 203.590
42.59000 205.206
42.60000 205.302
42.61000 205.326
42.62000 205.348
42.63000 205.368
42.64000 205.387
42.65000 205.066
42.66000 204.379
42.67000 203.696
42.68000 203.812
42.69000 204.484
42.70000 205.117
42.71000 204.555
42.72000 203.423
42.73000 202.502
42.74000 204.599
42.75000 207.680
42.76000 210.479
42.77000 208.199
42.78000 205.200
42.79000 202.599
42.80000 202.040
42.81000 201.770
42.82000 200.871
42.83000 197.812
42.84000 194.573
42.85000 192.277
42.86000 198.471
42.87000 203.448
42.88000 207.402
42.89000 209.724
42.90000 212.026
42.91000 210.166
42.92000 203.908
42.93000 197.679
42.94000 195.716
42.95000 196.693
42.96000 197.741
42.97000 200.932
42.98000 205.130
42.99000 208.607
43.00000 202.033
43.01000 192.231
43.02000 183.345
43.03000 188.715
43.04000 196.167
43.05000 202.500
43.06000 203.176
43.07000 203.067
43.08000 203.418
43.09000 205.326
43.10000 207.361
43.11000 208.797
43.12000 203.352
43.13000 199.011
43.14000 197.457
43.15000 200.280
43.16000 203.157
43.17000 204.679
43.18000 204.795
43.19000 204.910
43.20000 203.524
43.21000 201.145
43.22000 198.761
43.23000 196.258
43.24000 193.699
43.25000 191.300
43.26000 191.062
43.27000 191.509
43.28000 191.913
43.29000 196.709
43.30000 201.752
43.31000 205.440
43.32000 202.383
43.33000 198.407
43.34000 195.811
43.35000 197.810
43.36000 200.175
43.37000 201.837
43.38000 192.907
43.39000 185.836
43.40000 184.856
43.41000 193.302
43.42000 201.856
43.43000 206.546
43.44000 207.291
43.45000 208.032
43.46000 206.272
43.47000 202.877
43.48000 199.524
43.49000 197.373
43.50000 195.770
43.51000 194.366
43.52000 195.619
43.53000 197.701
43.54000 199.580
43.55000 197.234
43.56000 194.395
43.57000 192.465
43.58000 194.985
43.59000 198.100
43.60000 201.454
43.61000 205.587
43.62000 209.781
43.63000 212.713
43.64000 201.869
43.65000 193.286
43.66000 188.313
43.67000 188.843
43.68000 189.431
43.69000 191.357
43.70000 194.629
43.71000 197.880
43.72000 198.530
43.73000 197.473
43.74000 196.391
43.75000 194.591
43.76000 192.469
43.77000 190.751
43.78000 194.282
43.79000 199.426
43.80000 204.060
43.81000 205.542
43.82000 206.272
43.83000 206.283
43.84000 202.828
43.85000 198.918
43.86000 194.917
43.87000 190.623
43.88000 186.307
43.89000 183.304
43.90000 191.190
43.91000 197.432
43.92000 201.533
43.93000 202.419
43.94000 203.273
43.95000 202.203
43.96000 199.234
43.97000 196.284
43.98000 196.969
43.99000 199.977
44.00000 202.860
44.01000 202.443
44.02000 200.564
44.03000 198.646
44.04000 196.238
44.05000 193.681
44.06000 191.383
44.07000 195.417
44.08000 200.073
44.09000 203.591
44.10000 201.707
44.11000 199.125
44.12000 197.332
44.13000 198.046
44.14000 198.947
44.15000 199.571
44.16000 195.880
44.17000 192.990
44.18000 191.831
44.19000 193.231
44.20000 194.655
44.21000 197.983
44.22000 203.158
44.23000 208.297
44.24000 203.238
44.25000 191.819
44.26000 180.811
44.27000 180.234
44.28000 184.216
44.29000 187.886
44.30000 187.680
44.31000 186.317
44.32000 185.095
44.33000 190.091
44.34000 195.543
44.35000 201.156
44.36000 207.517
44.37000 213.973
44.38000 217.788
44.39000 213.319
44.40000 208.248
44.41000 204.753
44.42000 192.096
44.43000 182.361
44.44000 180.316
44.45000 189.468
44.46000 198.715
44.47000 200.747
44.48000 195.891
44.49000 191.072
44.50000 189.890
44.51000 190.990
44.52000 192.122
44.53000 194.074
44.54000 196.379
44.55000 198.527
44.56000 198.766
44.57000 198.445
44.58000 198.157
44.59000 203.614
44.60000 209.360
44.61000 213.717
44.62000 211.692
44.63000 208.874
44.64000 206.484
44.65000 205.422
44.66000 204.454
44.67000 203.790
44.68000 207.116
44.69000 209.705
44.70000 211.401
44.71000 211.816
44.72000 212.220
44.73000 212.400
44.74000 212.367
44.75000 212.334
44.76000 216.227
44.77000 222.450
44.78000 228.418
44.79000 228.308
44.80000 225.616
44.81000 223.240
44.82000 224.600
44.83000 227.042
44.84000 229.223
44.85000 233.546
44.86000 237.671
44.87000 242.004
44.88000 247.278
44.89000 252.667
44.90000 255.907
44.91000 252.598
44.92000 248.837
44.93000 246.271
44.94000 252.038
44.95000 256.544
44.96000 259.772
44.97000 261.194
44.98000 262.604
44.99000 264.616
45.00000 267.185
45.01000 269.732
45.02000 270.345
45.03000 269.782
45.04000 269.353
45.05000 272.007
45.06000 275.952
45.07000 279.897
45.08000 283.839
45.09000 287.781
45.10000 291.294
45.11000 293.794
45.12000 295.802
45.13000 297.836
45.14000 299.989
45.15000 302.157
45.16000 303.304
45.17000 301.387
45.18000 299.263
45.19000 297.821
45.20000 299.407
45.21000 300.658
45.22000 300.727
45.23000 299.152
45.24000 297.567
45.25000 297.963
45.26000 300.156
45.27000 302.330
45.28000 301.114
45.29000 297.916
45.30000 294.791
45.31000 293.317
45.32000 292.522
45.33000 291.589
45.34000 289.086
45.35000 286.142
45.36000 283.525
45.37000 281.121
45.38000 279.071
45.39000 276.875
45.40000 274.045
45.41000 271.140
45.42000 268.040
45.43000 264.358
45.44000 260.639
45.45000 258.127
45.46000 264.600
45.47000 269.612
45.48000 271.251
45.49000 268.268
45.50000 265.259
45.51000 262.895
45.52000 261.108
45.53000 259.338
45.54000 256.544
45.55000 253.213
45.56000 249.898
45.57000 246.943
45.58000 244.134
45.59000 241.284
45.60000 237.977
45.61000 234.544
45.62000 231.499
45.63000 230.679
45.64000 230.323
45.65000 230.018
45.66000 229.936
45.67000 229.879
45.68000 229.247
45.69000 226.939
45.70000 224.523
45.71000 222.900
45.72000 225.706
45.73000 227.882
45.74000 228.035
45.75000 225.460
45.76000 222.873
45.77000 221.741
45.78000 221.890
45.79000 222.037
45.80000 220.509
45.81000 218.055
45.82000 215.597
45.83000 213.077
45.84000 210.532
45.85000 208.285
45.86000 209.275
45.87000 211.148
45.88000 212.806
45.89000 208.558
45.90000 203.962
45.91000 200.083
45.92000 199.253
45.93000 198.768
45.94000 198.466
45.95000 198.691
45.96000 198.949
45.97000 199.122
45.98000 198.764
45.99000 198.489
46.00000 198.265
46.01000 198.110
46.02000 197.956
46.03000 198.146
46.04000 198.636
46.05000 199.121
46.06000 198.228
46.07000 196.579
46.08000 194.824
46.09000 190.902
46.10000 186.124
46.11000 182.091
46.12000 185.964
46.13000 191.962
46.14000 197.259
46.15000 193.909
46.16000 189.690
46.17000 186.140
46.18000 185.389
46.19000 184.948
46.20000 184.677
46.21000 184.884
46.22000 185.121
46.23000 185.278
46.24000 184.943
46.25000 184.686
46.26000 184.113
46.27000 183.125
46.28000 182.140
46.29000 183.271
46.30000 186.205
46.31000 189.105
46.32000 190.548
46.33000 191.146
46.34000 191.525
46.35000 187.535
46.36000 181.845
46.37000 176.405
46.38000 173.554
46.39000 171.389
46.40000 169.482
46.41000 170.778
46.42000 172.377
46.43000 173.671
46.44000 173.709
46.45000 173.610
46.46000 174.092
46.47000 176.197
46.48000 178.397
46.49000 179.853
46.50000 187.008
46.51000 192.391
46.52000 193.435
46.53000 188.892
46.54000 184.331
46.55000 181.354
46.56000 179.703
46.57000 178.073
46.58000 181.684
46.59000 188.070
46.60000 194.081
46.61000 192.868
46.62000 188.883
46.63000 185.007
46.64000 182.238
46.65000 179.759
46.66000 177.580
46.67000 178.722
46.68000 180.196
46.69000 181.835
46.70000 184.143
46.71000 186.522
46.72000 186.827
46.73000 181.426
46.74000 175.697
46.75000 171.925
46.76000 182.221
46.77000 190.046
46.78000 190.732
46.79000 182.374
46.80000 173.997
46.81000 170.962
46.82000 172.331
46.83000 173.682
46.84000 173.829
46.85000 173.324
46.86000 173.000
46.87000 176.069
46.88000 180.421
46.89000 184.344
46.90000 184.000
46.91000 182.560
46.92000 181.297
46.93000 179.147
46.94000 177.173
46.95000 175.078
46.96000 172.501
46.97000 169.873
46.98000 168.684
46.99000 171.398
47.00000 174.330
47.01000 176.250
47.02000 182.212
47.03000 186.660
47.04000 186.113
47.05000 179.338
47.06000 172.554
47.07000 169.470
47.08000 169.388
47.09000 169.308
47.10000 171.728
47.11000 175.404
47.12000 178.882
47.13000 178.742
47.14000 177.254
47.15000 175.602
47.16000 172.348
47.17000 168.689
47.18000 165.489
47.19000 169.471
47.20000 173.907
47.21000 178.015
47.22000 180.828
47.23000 183.510
47.24000 184.205
47.25000 179.594
47.26000 174.694
47.27000 171.503
47.28000 171.084
47.29000 170.820
47.30000 170.900
47.31000 171.404
47.32000 171.901
47.33000 169.773
47.34000 165.547
47.35000 161.383
47.36000 160.392
47.37000 161.085
47.38000 161.892
47.39000 164.700
47.40000 168.244
47.41000 171.741
47.42000 174.787
47.43000 177.720
47.44000 180.280
47.45000 177.514
47.46000 174.404
47.47000 171.728
47.48000 170.738
47.49000 169.916
47.50000 169.899
47.51000 172.002
47.52000 174.218
47.53000 175.652
47.54000 168.565
47.55000 163.253
47.56000 159.435
47.57000 157.423
47.58000 155.429
47.59000 157.331
47.60000 162.295
47.61000 167.183
47.62000 167.066
47.63000 164.383
47.64000 161.741
47.65000 159.806
47.66000 158.126
47.67000 156.856
47.68000 159.419
47.69000 162.924
47.70000 165.974
47.71000 165.642
47.72000 164.894
47.73000 164.370
47.74000 164.695
47.75000 165.104
47.76000 163.810
47.77000 158.095
47.78000 152.152
47.79000 148.325
47.80000 158.734
47.81000 166.534
47.82000 169.596
47.83000 167.025
47.84000 164.443
47.85000 161.708
47.86000 158.854
47.87000 156.046
47.88000 156.548
47.89000 158.706
47.90000 160.683
47.91000 159.612
47.92000 157.453
47.93000 155.406
47.94000 154.389
47.95000 153.622
47.96000 152.955
47.97000 158.414
47.98000 163.890
47.99000 167.756
48.00000 165.565
48.01000 162.794
48.02000 161.003
48.03000 161.721
48.04000 162.564
48.05000 163.104
48.06000 167.616
48.07000 170.956
48.08000 170.475
48.09000 165.526
48.10000 160.581
48.11000 158.130
48.12000 157.579
48.13000 157.038
48.14000 158.081
48.15000 159.879
48.16000 161.597
48.17000 162.015
48.18000 161.977
48.19000 161.874
48.20000 161.185
48.21000 160.355
48.22000 159.637
48.23000 162.080
48.24000 164.575
48.25000 166.105
48.26000 164.059
48.27000 161.677
48.28000 159.249
48.29000 156.702
48.30000 154.149
48.31000 152.524
48.32000 154.311
48.33000 155.654
48.34000 156.378
48.35000 156.391
48.36000 156.405
48.37000 156.777
48.38000 157.418
48.39000 158.048
48.40000 157.741
48.41000 156.986
48.42000 156.341
48.43000 157.429
48.44000 159.119
48.45000 160.688
48.46000 161.198
48.47000 161.460
48.48000 161.686
48.49000 160.721
48.50000 159.747
48.51000 159.316
48.52000 160.861
48.53000 162.587
48.54000 163.399
48.55000 161.938
48.56000 160.370
48.57000 159.378
48.58000 158.731
48.59000 158.267
48.60000 160.017
48.61000 164.274
48.62000 168.513
48.63000 168.894
48.64000 166.426
48.65000 164.003
48.66000 167.753
48.67000 174.345
48.68000 180.423
48.69000 178.548
48.70000 173.956
48.71000 169.128
48.72000 162.260
48.73000 154.923
48.74000 148.600
48.75000 151.087
48.76000 154.313
48.77000 157.261
48.78000 159.203
48.79000 161.055
48.80000 162.554
48.81000 163.187
48.82000 163.781
48.83000 164.154
48.84000 166.250
48.85000 167.786
48.86000 166.288
48.87000 161.409
48.88000 156.549
48.89000 155.033
48.90000 155.949
48.91000 156.847
48.92000 162.680
48.93000 170.639
48.94000 177.738
48.95000 171.831
48.96000 161.545
48.97000 152.348
48.98000 152.376
48.99000 154.500
49.00000 156.325
49.01000 157.416
49.02000 158.247
49.03000 158.397
49.04000 156.131
49.05000 153.653
49.06000 152.997
49.07000 156.741
49.08000 160.680
49.09000 163.145
49.10000 161.882
49.11000 160.931
49.12000 161.398
49.13000 163.419
49.14000 165.407
49.15000 162.371
49.16000 155.737
49.17000 149.235
49.18000 151.061
49.19000 156.705
49.20000 162.204
49.21000 165.583
49.22000 168.258
49.23000 170.545
49.24000 169.603
49.25000 167.939
49.26000 166.514
49.27000 158.927
49.28000 151.768
49.29000 146.452
49.30000 147.566
49.31000 149.233
49.32000 150.904
49.33000 152.587
49.34000 154.270
49.35000 155.317
49.36000 156.281
49.37000 156.975
49.38000 156.421
49.39000 154.524
49.40000 152.643
49.41000 152.928
49.42000 154.741
49.43000 156.516
49.44000 156.420
49.45000 155.469
49.46000 154.512
49.47000 153.489
49.48000 152.443
49.49000 151.949
49.50000 155.952
49.51000 160.946
49.52000 165.214
49.53000 162.598
49.54000 159.568
49.55000 157.409
49.56000 158.240
49.57000 159.323
49.58000 159.845
49.59000 159.053
49.60000 158.206
49.61000 157.682
49.62000 158.976
49.63000 159.924
49.64000 159.921
49.65000 158.911
49.66000 157.911
49.67000 158.231
49.68000 159.467
49.69000 160.676
49.70000 162.995
49.71000 165.722
49.72000 168.285
49.73000 168.558
49.74000 168.094
49.75000 166.529
49.76000 156.149
49.77000 143.858
49.78000 133.380
49.79000 140.061
49.80000 147.696
49.81000 153.382
49.82000 152.471
49.83000 151.018
49.84000 151.163
49.85000 155.003
49.86000 158.991
49.87000 161.443
49.88000 157.126
49.89000 153.971
49.90000 150.357
49.91000 146.264
49.92000 142.228
49.93000 144.724
49.94000 151.688
49.95000 158.495
49.96000 158.779
49.97000 156.149
49.98000 153.762
49.99000 154.713
50.00000 156.723
50.01000 158.364
50.02000 157.100
50.03000 155.216
50.04000 153.614
50.05000 150.360
50.06000 147.437
50.07000 145.780
50.08000 148.345
50.09000 151.250
50.10000 152.234
50.11000 148.839
50.12000 145.274
50.13000 143.096
50.14000 143.909
50.15000 144.515
50.16000 145.860
50.17000 147.961
50.18000 150.045
50.19000 150.320
50.20000 149.375
50.21000 148.452
50.22000 148.222
50.23000 148.305
50.24000 148.379
50.25000 148.321
50.26000 148.223
50.27000 148.608
50.28000 152.722
50.29000 157.618
50.30000 161.770
50.31000 161.365
50.32000 160.511
50.33000 160.743
50.34000 164.547
50.35000 168.631
50.36000 170.899
50.37000 169.085
50.38000 167.117
50.39000 165.923
50.40000 161.037
50.41000 157.522
50.42000 161.137
50.43000 171.941
50.44000 182.626
50.45000 181.570
50.46000 172.723
50.47000 164.093
50.48000 164.274
50.49000 168.244
50.50000 172.247
50.51000 176.673
50.52000 181.230
50.53000 185.213
50.54000 184.858
50.55000 183.605
50.56000 182.546
50.57000 188.836
50.58000 194.910
50.59000 199.352
50.60000 198.508
50.61000 197.259
50.62000 199.630
50.63000 210.020
50.64000 220.702
50.65000 227.146
50.66000 222.640
50.67000 219.353
50.68000 218.392
50.69000 219.737
50.70000 221.124
50.71000 226.315
50.72000 233.992
50.73000 241.474
50.74000 242.803
50.75000 241.461
50.76000 240.171
50.77000 239.555
50.78000 239.145
50.79000 238.614
50.80000 237.190
50.81000 235.584
50.82000 234.230
50.83000 231.681
50.84000 229.423
50.85000 226.837
50.86000 223.204
50.87000 219.493
50.88000 215.478
50.89000 210.798
50.90000 206.095
50.91000 203.275
50.92000 205.274
50.93000 206.725
50.94000 205.552
50.95000 201.820
50.96000 198.100
50.97000 195.337
50.98000 193.190
50.99000 191.100
51.00000 188.624
51.01000 186.103
51.02000 183.740
51.03000 183.339
51.04000 183.525
51.05000 183.462
51.06000 181.572
51.07000 179.316
51.08000 177.420
51.09000 177.235
51.10000 177.263
51.11000 176.808
51.12000 174.833
51.13000 172.748
51.14000 169.217
51.15000 162.574
51.16000 155.826
51.17000 151.806
51.18000 153.694
51.19000 155.067
51.20000 156.342
51.21000 157.521
51.22000 158.716
51.23000 161.229
51.24000 164.577
51.25000 167.833
51.26000 168.148
51.27000 167.238
51.28000 166.194
51.29000 163.508
51.30000 160.338
51.31000 157.516
51.32000 157.183
51.33000 157.340
51.34000 157.471
51.35000 158.245
51.36000 158.955
51.37000 158.700
51.38000 155.452
51.39000 151.991
51.40000 151.535
51.41000 157.451
51.42000 163.575
51.43000 167.200
51.44000 159.706
51.45000 154.346
51.46000 150.329
51.47000 147.577
51.48000 144.860
51.49000 144.720
51.50000 146.190
51.51000 147.619
51.52000 148.317
51.53000 148.686
51.54000 149.177
51.55000 151.128
51.56000 153.504
51.57000 155.665
51.58000 156.321
51.59000 156.686
51.60000 156.990
51.61000 151.589
51.62000 146.524
51.63000 144.120
51.64000 149.846
51.65000 156.137
51.66000 157.546
51.67000 148.750
51.68000 139.633
51.69000 134.272
51.70000 139.942
51.71000 143.996
51.72000 144.753
51.73000 142.454
51.74000 140.185
51.75000 140.083
51.76000 141.314
51.77000 142.509
51.78000 143.838
51.79000 145.153
51.80000 146.279
51.81000 145.223
51.82000 143.543
51.83000 141.668
51.84000 138.455
51.85000 134.986
51.86000 132.095
51.87000 136.340
51.88000 140.569
51.89000 143.047
51.90000 140.250
51.91000 137.095
51.92000 135.685
51.93000 137.866
51.94000 140.156
51.95000 141.494
51.96000 148.583
51.97000 153.595
51.98000 153.191
51.99000 147.849
52.00000 142.577
52.01000 142.035
52.02000 144.361
52.03000 146.616
52.04000 146.460
52.05000 145.367
52.06000 144.131
52.07000 141.268
52.08000 137.946
52.09000 135.692
52.10000 140.688
52.11000 147.044
52.12000 152.325
52.13000 143.752
52.14000 135.310
52.15000 129.855
52.16000 133.266
52.17000 137.262
52.18000 139.961
52.19000 140.026
52.20000 140.014
52.21000 140.007
52.22000 142.534
52.23000 144.318
52.24000 145.523
52.25000 146.208
52.26000 146.847
52.27000 144.529
52.28000 140.444
52.29000 136.487
52.30000 137.600
52.31000 140.609
52.32000 143.449
52.33000 144.422
52.34000 144.876
52.35000 145.250
52.36000 145.088
52.37000 144.829
52.38000 144.613
52.39000 140.662
52.40000 137.044
52.41000 134.850
52.42000 136.825
52.43000 139.068
52.44000 141.041
52.45000 142.475
52.46000 143.893
52.47000 144.710
52.48000 147.034
52.49000 148.665
52.50000 147.986
52.51000 145.270
52.52000 142.610
52.53000 143.397
52.54000 146.211
52.55000 148.934
52.56000 147.098
52.57000 143.632
52.58000 140.550
52.59000 141.643
52.60000 143.878
52.61000 145.487
52.62000 142.990
52.63000 139.747
52.64000 137.069
52.65000 138.321
52.66000 139.720
52.67000 140.398
52.68000 139.002
52.69000 137.475
52.70000 135.359
52.71000 132.081
52.72000 128.773
52.73000 126.879
52.74000 141.508
52.75000 151.773
52.76000 153.339
52.77000 147.356
52.78000 141.449
52.79000 139.881
52.80000 140.831
52.81000 141.748
52.82000 142.136
52.83000 142.305
52.84000 142.434
52.85000 142.145
52.86000 141.743
52.87000 141.368
52.88000 141.169
52.89000 141.000
52.90000 140.862
52.91000 140.981
52.92000 141.103
52.93000 140.730
52.94000 138.952
52.95000 137.088
52.96000 136.503
52.97000 138.404
52.98000 140.370
52.99000 141.487
53.00000 145.876
53.01000 148.940
53.02000 149.406
53.03000 147.653
53.04000 145.928
53.05000 145.698
53.06000 146.321
53.07000 146.923
53.08000 142.267
53.09000 135.950
53.10000 130.619
53.11000 135.586
53.12000 143.289
53.13000 149.802
53.14000 148.786
53.15000 146.449
53.16000 144.530
53.17000 138.146
53.18000 132.506
53.19000 128.835
53.20000 130.676
53.21000 132.846
53.22000 134.478
53.23000 135.081
53.24000 135.659
53.25000 135.985
53.26000 138.934
53.27000 140.992
53.28000 143.737
53.29000 147.060
53.30000 150.275
53.31000 147.900
53.32000 142.376
53.33000 137.051
53.34000 136.748
53.35000 138.281
53.36000 139.996
53.37000 143.568
53.38000 147.627
53.39000 151.477
53.40000 154.032
53.41000 156.363
53.42000 158.271
53.43000 161.025
53.44000 163.355
53.45000 164.218
53.46000 161.032
53.47000 157.612
53.48000 154.485
53.49000 151.914
53.50000 149.356
53.51000 147.922
53.52000 152.431
53.53000 155.566
53.54000 156.191
53.55000 154.740
53.56000 153.311
53.57000 152.940
53.58000 153.156
53.59000 153.364
53.60000 153.351
53.61000 153.262
53.62000 153.149
53.63000 152.806
53.64000 152.405
53.65000 152.120
53.66000 152.547
53.67000 153.096
53.68000 153.543
53.69000 151.289
53.70000 149.215
53.71000 146.815
53.72000 143.526
53.73000 140.187
53.74000 138.667
53.75000 140.533
53.76000 142.474
53.77000 143.555
53.78000 141.884
53.79000 140.728
53.80000 141.489
53.81000 143.812
53.82000 146.088
53.83000 146.202
53.84000 145.134
53.85000 144.106
53.86000 141.783
53.87000 139.150
53.88000 136.819
53.89000 137.442
53.90000 138.816
53.91000 139.858
53.92000 138.913
53.93000 137.636
53.94000 136.598
53.95000 136.735
53.96000 136.946
53.97000 136.448
53.98000 134.049
53.99000 131.547
54.00000 131.156
54.01000 134.637
54.02000 138.201
54.03000 140.170
54.04000 137.475
54.05000 135.608
54.06000 133.889
54.07000 132.289
54.08000 130.778
54.09000 133.246
54.10000 137.858
54.11000 142.288
54.12000 143.596
54.13000 143.744
54.14000 143.841
54.15000 143.456
54.16000 142.950
54.17000 142.868
54.18000 145.286
54.19000 148.115
54.20000 150.408
54.21000 146.156
54.22000 142.157
54.23000 139.718
54.24000 141.404
54.25000 143.309
54.26000 143.445
54.27000 140.382
54.28000 137.254
54.29000 135.538
54.30000 134.317
54.31000 133.485
54.32000 134.830
54.33000 137.891
54.34000 140.855
54.35000 139.633
54.36000 136.188
54.37000 132.883
54.38000 132.689
54.39000 133.563
54.40000 134.441
54.41000 135.351
54.42000 136.268
54.43000 136.852
54.44000 135.502
54.45000 133.841
54.46000 132.498
54.47000 137.999
54.48000 143.020
54.49000 145.490
54.50000 141.317
54.51000 136.800
54.52000 134.446
54.53000 135.943
54.54000 137.514
54.55000 138.370
54.56000 134.047
54.57000 131.088
54.58000 131.851
54.59000 135.504
54.60000 139.154
54.61000 142.688
54.62000 146.162
54.63000 149.491
54.64000 147.855
54.65000 144.672
54.66000 141.583
54.67000 139.362
54.68000 137.352
54.69000 135.580
54.70000 135.169
54.71000 134.973
54.72000 134.816
54.73000 133.151
54.74000 131.682
54.75000 131.922
54.76000 136.549
54.77000 141.396
54.78000 144.374
54.79000 144.074
54.80000 143.713
54.81000 143.518
54.82000 145.439
54.83000 146.746
54.84000 145.798
54.85000 143.126
54.86000 140.547
54.87000 141.622
54.88000 144.581
54.89000 147.412
54.90000 146.988
54.91000 145.523
54.92000 144.086
54.93000 142.911
54.94000 141.797
54.95000 140.582
54.96000 138.796
54.97000 136.920
54.98000 135.414
54.99000 140.285
55.00000 144.717
55.01000 147.759
55.02000 147.284
55.03000 146.637
55.04000 145.150
55.05000 142.209
55.06000 139.243
55.07000 137.652
55.08000 137.452
55.09000 137.324
55.10000 138.655
55.11000 141.083
55.12000 143.531
55.13000 146.760
55.14000 150.384
55.15000 153.848
55.16000 152.420
55.17000 149.508
55.18000 147.035
55.19000 148.435
55.20000 150.746
55.21000 152.268
55.22000 149.431
55.23000 145.927
55.24000 143.125
55.25000 141.568
55.26000 140.402
55.27000 141.035
55.28000 146.155
55.29000 151.487
55.30000 153.285
55.31000 149.066
55.32000 144.746
55.33000 142.447
55.34000 145.262
55.35000 147.182
55.36000 148.894
55.37000 150.452
55.38000 151.992
55.39000 152.903
55.40000 153.498
55.41000 154.065
55.42000 156.443
55.43000 159.227
55.44000 161.554
55.45000 159.911
55.46000 157.350
55.47000 155.761
55.48000 159.458
55.49000 163.950
55.50000 167.532
55.51000 170.752
55.52000 173.325
55.53000 176.374
55.54000 180.597
55.55000 184.875
55.56000 186.979
55.57000 185.436
55.58000 183.836
55.59000 182.991
55.60000 187.795
55.61000 191.054
55.62000 193.226
55.63000 194.606
55.64000 196.117
55.65000 202.174
55.66000 210.476
55.67000 218.389
55.68000 224.854
55.69000 230.395
55.70000 235.900
55.71000 241.099
55.72000 246.229
55.73000 252.133
55.74000 262.176
55.75000 272.831
55.76000 281.296
55.77000 295.635
55.78000 307.599
55.79000 317.970
55.80000 324.479
55.81000 330.815
55.82000 342.945
55.83000 364.653
55.84000 386.504
55.85000 397.953
55.86000 415.922
55.87000 428.133
55.88000 446.333
55.89000 468.837
55.90000 491.096
55.91000 505.207
55.92000 515.353
55.93000 525.009
55.94000 526.302
55.95000 524.922
55.96000 524.555
55.97000 532.648
55.98000 542.639
55.99000 551.232
56.00000 552.473
56.01000 552.647
56.02000 552.785
56.03000 548.348
56.04000 544.465
56.05000 541.228
56.06000 539.538
56.07000 537.914
56.08000 533.503
56.09000 524.552
56.10000 515.537
56.11000 510.852
56.12000 476.919
56.13000 454.057
56.14000 440.115
56.15000 432.483
56.16000 424.667
56.17000 410.945
56.18000 394.391
56.19000 378.658
56.20000 370.532
56.21000 365.329
56.22000 359.408
56.23000 347.608
56.24000 334.509
56.25000 322.219
56.26000 314.111
56.27000 306.600
56.28000 300.673
56.29000 289.684
56.30000 280.526
56.31000 270.604
56.32000 258.884
56.33000 247.089
56.34000 237.566
56.35000 231.687
56.36000 225.856
56.37000 222.850
56.38000 220.439
56.39000 218.799
56.40000 215.109
56.41000 209.990
56.42000 204.897
56.43000 200.563
56.44000 196.588
56.45000 192.815
56.46000 186.318
56.47000 179.511
56.48000 173.243
56.49000 171.312
56.50000 170.325
56.51000 170.280
56.52000 175.034
56.53000 180.460
56.54000 184.726
56.55000 174.699
56.56000 165.725
56.57000 159.874
56.58000 161.266
56.59000 162.950
56.60000 162.608
56.61000 159.060
56.62000 155.473
56.63000 153.638
56.64000 158.051
56.65000 161.005
56.66000 162.675
56.67000 163.465
56.68000 164.054
56.69000 158.642
56.70000 150.434
56.71000 142.655
56.72000 145.197
56.73000 150.567
56.74000 155.334
56.75000 155.340
56.76000 154.326
56.77000 153.100
56.78000 150.815
56.79000 148.383
56.80000 146.478
56.81000 141.359
56.82000 137.061
56.83000 134.281
56.84000 134.972
56.85000 135.799
56.86000 137.072
56.87000 139.040
56.88000 141.017
56.89000 142.019
56.90000 145.561
56.91000 147.882
56.92000 144.582
56.93000 137.483
56.94000 130.604
56.95000 130.025
56.96000 132.339
56.97000 134.529
56.98000 133.842
56.99000 132.379
57.00000 130.647
57.01000 126.833
57.02000 122.580
57.03000 119.741
57.04000 123.873
57.05000 128.947
57.06000 132.908
57.07000 127.905
57.08000 123.351
57.09000 122.149
57.10000 128.503
57.11000 135.143
57.12000 136.289
57.13000 129.007
57.14000 121.634
57.15000 117.925
57.16000 123.573
57.17000 127.328
57.18000 129.335
57.19000 130.178
57.20000 130.963
57.21000 130.142
57.22000 128.593
57.23000 127.129
57.24000 128.443
57.25000 130.438
57.26000 132.221
57.27000 132.388
57.28000 132.220
57.29000 132.253
57.30000 133.261
57.31000 134.399
57.32000 135.284
57.33000 129.121
57.34000 123.784
57.35000 120.926
57.36000 123.578
57.37000 126.432
57.38000 128.404
57.39000 129.042
57.40000 129.667
57.41000 129.944
57.42000 129.875
57.43000 129.788
57.44000 128.111
57.45000 125.391
57.46000 122.764
57.47000 122.625
57.48000 123.597
57.49000 124.513
57.50000 127.080
57.51000 129.895
57.52000 132.271
57.53000 131.385
57.54000 129.832
57.55000 128.007
57.56000 124.886
57.57000 121.597
57.58000 119.047
57.59000 121.895
57.60000 124.479
57.61000 125.916
57.62000 124.845
57.63000 123.684
57.64000 124.183
57.65000 127.151
57.66000 130.142
57.67000 130.291
57.68000 127.659
57.69000 125.054
57.70000 124.799
57.71000 126.061
57.72000 127.276
57.73000 127.287
57.74000 126.767
57.75000 126.278
57.76000 127.079
57.77000 128.167
57.78000 129.478
57.79000 132.421
57.80000 135.693
57.81000 137.718
57.82000 133.888
57.83000 129.310
57.84000 125.775
57.85000 127.384
57.86000 128.958
57.87000 129.246
57.88000 126.756
57.89000 124.171
57.90000 123.041
57.91000 124.045
57.92000 125.067
57.93000 124.346
57.94000 121.949
57.95000 119.582
57.96000 119.706
57.97000 121.414
57.98000 123.088
57.99000 123.893
58.00000 124.321
58.01000 124.724
58.02000 123.790
58.03000 122.575
58.04000 121.454
58.05000 121.018
58.06000 120.716
58.07000 121.233
58.08000 125.533
58.09000 130.307
58.10000 133.979
58.11000 129.753
58.12000 125.961
58.13000 122.650
58.14000 120.363
58.15000 118.110
58.16000 117.012
58.17000 117.584
58.18000 118.170
58.19000 119.555
58.20000 121.696
58.21000 123.836
58.22000 125.892
58.23000 127.896
58.24000 129.746
58.25000 127.868
58.26000 124.397
58.27000 121.138
58.28000 119.969
58.29000 119.458
58.30000 119.056
58.31000 119.417
58.32000 119.926
58.33000 120.867
58.34000 123.772
58.35000 126.919
58.36000 129.331
58.37000 130.312
58.38000 131.008
58.39000 129.713
58.40000 124.243
58.41000 118.641
58.42000 116.322
58.43000 118.670
58.44000 121.053
58.45000 120.260
58.46000 116.513
58.47000 112.830
58.48000 113.805
58.49000 117.655
58.50000 121.453
58.51000 124.018
58.52000 126.065
58.53000 127.984
58.54000 129.461
58.55000 130.691
58.56000 131.859
58.57000 132.596
58.58000 133.251
58.59000 133.287
58.60000 130.543
58.61000 127.463
58.62000 125.112
58.63000 125.835
58.64000 126.569
58.65000 126.013
58.66000 122.792
58.67000 119.489
58.68000 119.085
58.69000 122.740
58.70000 126.421
58.71000 126.155
58.72000 122.281
58.73000 118.482
58.74000 119.869
58.75000 124.411
58.76000 128.816
58.77000 130.084
58.78000 130.051
58.79000 130.020
58.80000 126.978
58.81000 123.438
58.82000 119.650
58.83000 114.171
58.84000 108.373
58.85000 104.078
58.86000 106.414
58.87000 109.534
58.88000 111.907
58.89000 117.136
58.90000 121.398
58.91000 124.235
58.92000 124.167
58.93000 124.015
58.94000 123.167
58.95000 121.362
58.96000 119.551
58.97000 118.711
58.98000 118.744
58.99000 118.787
59.00000 119.414
59.01000 120.390
59.02000 121.377
59.03000 122.572
59.04000 123.853
59.05000 125.050
59.06000 124.718
59.07000 124.029
59.08000 122.929
59.09000 119.081
59.10000 114.724
59.11000 110.782
59.12000 108.644
59.13000 106.716
59.14000 105.255
59.15000 112.961
59.16000 119.476
59.17000 123.799
59.18000 123.722
59.19000 123.521
59.20000 124.832
59.21000 128.198
59.22000 131.574
59.23000 130.580
59.24000 125.723
59.25000 120.905
59.26000 118.421
59.27000 117.317
59.28000 116.233
59.29000 115.596
59.30000 115.139
59.31000 114.713
59.32000 118.451
59.33000 122.875
59.34000 126.520
59.35000 125.050
59.36000 122.648
59.37000 120.804
59.38000 121.344
59.39000 122.157
59.40000 122.770
59.41000 123.383
59.42000 123.864
59.43000 124.675
59.44000 126.137
59.45000 127.616
59.46000 126.830
59.47000 123.013
59.48000 119.184
59.49000 118.082
59.50000 119.354
59.51000 120.608
59.52000 120.839
59.53000 120.473
59.54000 120.116
59.55000 119.930
59.56000 119.812
59.57000 119.702
59.58000 121.719
59.59000 124.064
59.60000 126.417
59.61000 128.821
59.62000 131.233
59.63000 132.060
59.64000 126.213
59.65000 119.620
59.66000 114.665
59.67000 117.694
59.68000 120.446
59.69000 122.070
59.70000 121.494
59.71000 120.860
59.72000 119.264
59.73000 116.401
59.74000 113.535
59.75000 110.440
59.76000 107.158
59.77000 103.993
59.78000 107.329
59.79000 114.390
59.80000 121.313
59.81000 125.456
59.82000 128.510
59.83000 131.350
59.84000 126.669
59.85000 120.632
59.86000 115.560
59.87000 116.612
59.88000 118.743
59.89000 120.186
59.90000 118.773
59.91000 117.047
59.92000 115.755
59.93000 120.386
59.94000 124.276
59.95000 126.301
59.96000 124.743
59.97000 123.096
59.98000 122.146
59.99000 122.098
60.00000 122.054
60.01000 119.481
60.02000 114.786
60.03000 110.133
60.04000 107.645
60.05000 106.380
60.06000 105.158
60.07000 104.775
60.08000 104.716
60.09000 104.661
60.10000 106.440
60.11000 108.477
60.12000 110.339
60.13000 111.102
60.14000 111.675
60.15000 112.880
60.16000 116.665
60.17000 120.727
60.18000 123.755
60.19000 121.511
60.20000 119.524
60.21000 119.107
60.22000 121.665
60.23000 124.293
60.24000 124.403
60.25000 121.303
60.26000 118.194
60.27000 115.829
60.28000 114.086
60.29000 112.414
60.30000 114.274
60.31000 118.099
60.32000 121.657
60.33000 120.142
60.34000 116.698
60.35000 113.506
60.36000 111.924
60.37000 110.875
60.38000 109.886
60.39000 109.267
60.40000 108.710
60.41000 107.960
60.42000 106.433
60.43000 104.824
60.44000 103.629
60.45000 109.342
60.46000 114.086
60.47000 118.234
60.48000 121.268
60.49000 124.277
60.50000 123.784
60.51000 118.896
60.52000 114.000
60.53000 112.199
60.54000 112.924
60.55000 113.687
60.56000 116.241
60.57000 119.777
60.58000 123.124
60.59000 122.971
60.60000 121.505
60.61000 120.150
60.62000 121.194
60.63000 122.682
60.64000 123.519
60.65000 120.427
60.66000 116.678
60.67000 114.757
60.68000 120.085
60.69000 126.158
60.70000 130.648
60.71000 127.873
60.72000 125.410
60.73000 124.063
60.74000 124.769
60.75000 125.519
60.76000 125.584
60.77000 124.802
60.78000 124.018
60.79000 123.495
60.80000 123.181
60.81000 122.844
60.82000 121.446
60.83000 119.474
60.84000 117.642
60.85000 118.305
60.86000 119.892
60.87000 121.356
60.88000 119.149
60.89000 116.344
60.90000 114.633
60.91000 119.411
60.92000 125.259
60.93000 128.551
60.94000 121.871
60.95000 114.187
60.96000 108.529
60.97000 111.290
60.98000 113.778
60.99000 114.533
61.00000 112.148
61.01000 109.698
61.02000 109.453
61.03000 111.890
61.04000 114.329
61.05000 115.200
61.06000 114.832
61.07000 114.513
61.08000 116.348
61.09000 119.331
61.10000 122.058
61.11000 120.326
61.12000 116.969
61.13000 113.875
61.14000 117.089
61.15000 121.362
61.16000 125.007
61.17000 124.987
61.18000 124.374
61.19000 123.681
61.20000 122.681
61.21000 121.652
61.22000 120.897
61.23000 124.556
61.24000 127.560
61.25000 128.015
61.26000 123.916
61.27000 119.728
61.28000 119.188
61.29000 123.017
61.30000 126.846
61.31000 125.885
61.32000 121.218
61.33000 116.678
61.34000 117.406
61.35000 120.900
61.36000 124.262
61.37000 125.393
61.38000 125.722
61.39000 126.026
61.40000 123.735
61.41000 121.124
61.42000 119.617
61.43000 124.444
61.44000 130.279
61.45000 135.356
61.46000 137.564
61.47000 139.494
61.48000 140.903
61.49000 153.115
61.50000 162.951
61.51000 171.664
61.52000 178.399
61.53000 185.097
61.54000 196.199
61.55000 212.489
61.56000 228.748
61.57000 243.078
61.58000 255.849
61.59000 268.620
61.60000 281.366
61.61000 294.099
61.62000 306.625
61.63000 315.706
61.64000 323.568
61.65000 330.788
61.66000 333.239
61.67000 334.406
61.68000 335.640
61.69000 337.248
61.70000 338.914
61.71000 339.421
61.72000 335.605
61.73000 331.380
61.74000 328.308
61.75000 316.319
61.76000 306.758
61.77000 294.926
61.78000 279.156
61.79000 263.315
61.80000 243.371
61.81000 218.669
61.82000 194.027
61.83000 179.086
61.84000 171.521
61.85000 164.083
61.86000 161.442
61.87000 161.247
61.88000 160.713
61.89000 154.719
61.90000 146.822
61.91000 139.583
61.92000 138.731
61.93000 139.315
61.94000 139.523
61.95000 137.642
61.96000 135.441
61.97000 133.708
61.98000 133.698
61.99000 133.848
62.00000 133.956
62.01000 136.247
62.02000 138.086
62.03000 137.109
62.04000 131.322
62.05000 125.453
62.06000 122.950
62.07000 124.285
62.08000 125.621
62.09000 129.116
62.10000 134.179
62.11000 139.123
62.12000 139.776
62.13000 138.271
62.14000 136.588
62.15000 132.096
62.16000 126.639
62.17000 121.646
62.18000 123.868
62.19000 127.334
62.20000 130.426
62.21000 131.474
62.22000 132.214
62.23000 132.592
62.24000 131.662
62.25000 130.612
62.26000 129.856
62.27000 131.646
62.28000 133.107
62.29000 135.632
62.30000 139.949
62.31000 144.294
62.32000 144.342
62.33000 139.567
62.34000 134.805
62.35000 132.135
62.36000 131.006
62.37000 129.917
62.38000 130.217
62.39000 131.205
62.40000 132.213
62.41000 133.534
62.42000 134.961
62.43000 136.263
62.44000 135.145
62.45000 133.661
62.46000 132.214
62.47000 130.965
62.48000 129.744
62.49000 129.698
62.50000 133.839
62.51000 138.350
62.52000 141.588
62.53000 140.075
62.54000 138.755
62.55000 136.650
62.56000 133.241
62.57000 129.814
62.58000 129.405
62.59000 132.328
62.60000 135.243
62.61000 134.676
62.62000 131.627
62.63000 128.706
62.64000 130.076
62.65000 133.541
62.66000 136.586
62.67000 133.369
62.68000 128.062
62.69000 123.225
62.70000 125.817
62.71000 129.595
62.72000 132.992
62.73000 134.382
62.74000 135.479
62.75000 136.925
62.76000 139.596
62.77000 142.373
62.78000 144.357
62.79000 139.098
62.80000 134.845
62.81000 131.115
62.82000 128.241
62.83000 125.379
62.84000 125.259
62.85000 128.116
62.86000 130.963
62.87000 133.797
62.88000 136.596
62.89000 139.233
62.90000 136.646
62.91000 131.544
62.92000 126.941
62.93000 129.568
62.94000 134.575
62.95000 139.128
62.96000 139.988
62.97000 140.024
62.98000 140.157
62.99000 140.788
63.00000 141.490
63.01000 141.902
63.02000 141.312
63.03000 140.637
63.04000 140.157
63.05000 141.826
63.06000 143.167
63.07000 142.976
63.08000 140.321
63.09000 137.633
63.10000 137.013
63.11000 138.601
63.12000 140.183
63.13000 140.368
63.14000 139.587
63.15000 138.771
63.16000 136.900
63.17000 134.528
63.18000 132.354
63.19000 132.987
63.20000 134.530
63.21000 135.931
63.22000 136.681
63.23000 137.217
63.24000 137.841
63.25000 138.912
63.26000 140.047
63.27000 140.664
63.28000 139.518
63.29000 138.225
63.30000 137.310
63.31000 141.971
63.32000 145.686
63.33000 146.204
63.34000 141.650
63.35000 137.031
63.36000 135.583
63.37000 137.464
63.38000 139.336
63.39000 137.170
63.40000 132.281
63.41000 127.631
63.42000 130.120
63.43000 135.946
63.44000 141.311
63.45000 140.298
63.46000 137.246
63.47000 134.482
63.48000 137.504
63.49000 141.263
63.50000 143.919
63.51000 141.028
63.52000 137.372
63.53000 135.463
63.54000 139.423
63.55000 143.857
63.56000 146.982
63.57000 140.884
63.58000 135.984
63.59000 135.400
63.60000 141.560
63.61000 147.800
63.62000 151.071
63.63000 151.275
63.64000 151.479
63.65000 150.670
63.66000 149.193
63.67000 147.747
63.68000 147.215
63.69000 147.104
63.70000 146.991
63.71000 146.870
63.72000 146.745
63.73000 146.632
63.74000 145.432
63.75000 144.174
63.76000 143.220
63.77000 143.774
63.78000 144.533
63.79000 144.931
63.80000 144.134
63.81000 143.243
63.82000 142.618
63.83000 142.871
63.84000 143.088
63.85000 143.679
63.86000 144.849
63.87000 146.024
63.88000 147.608
63.89000 149.605
63.90000 151.591
63.91000 152.718
63.92000 153.264
63.93000 153.738
63.94000 152.215
63.95000 149.783
63.96000 147.572
63.97000 148.247
63.98000 149.819
63.99000 151.237
64.00000 153.882
64.01000 156.430
64.02000 158.842
64.03000 160.596
64.04000 162.263
64.05000 161.852
64.06000 154.665
64.07000 146.955
64.08000 141.573
64.09000 148.866
64.10000 154.727
64.11000 157.326
64.12000 154.982
64.13000 152.587
64.14000 153.525
64.15000 157.790
64.16000 162.028
64.17000 162.375
64.18000 160.194
64.19000 158.048
64.20000 156.826
64.21000 156.017
64.22000 155.339
64.23000 156.345
64.24000 157.866
64.25000 159.234
64.26000 157.413
64.27000 155.243
64.28000 153.767
64.29000 155.613
64.30000 157.893
64.31000 160.104
64.32000 162.094
64.33000 164.068
64.34000 165.439
64.35000 163.242
64.36000 161.491
64.37000 160.584
64.38000 160.938
64.39000 161.304
64.40000 161.539
64.41000 161.646
64.42000 161.752
64.43000 161.854
64.44000 161.951
64.45000 162.020
64.46000 161.353
64.47000 160.362
64.48000 159.497
64.49000 160.216
64.50000 161.412
64.51000 162.487
64.52000 167.079
64.53000 171.717
64.54000 174.687
64.55000 169.788
64.56000 163.881
64.57000 161.043
64.58000 167.928
64.59000 175.531
64.60000 180.787
64.61000 175.252
64.62000 170.811
64.63000 168.909
64.64000 170.740
64.65000 172.604
64.66000 173.601
64.67000 173.759
64.68000 173.915
64.69000 174.140
64.70000 174.402
64.71000 174.569
64.72000 172.330
64.73000 169.045
64.74000 166.361
64.75000 171.064
64.76000 177.961
64.77000 184.143
64.78000 181.824
64.79000 178.326
64.80000 175.546
64.81000 176.104
64.82000 177.081
64.83000 179.081
64.84000 184.267
64.85000 189.684
64.86000 193.410
64.87000 183.067
64.88000 174.956
64.89000 171.289
64.90000 174.058
64.91000 176.880
64.92000 179.547
64.93000 182.066
64.94000 184.566
64.95000 187.510
64.96000 190.678
64.97000 193.839
64.98000 196.836
64.99000 199.762
65.00000 202.367
65.01000 201.098
65.02000 198.697
65.03000 196.549
65.04000 204.190
65.05000 212.520
65.06000 219.735
65.07000 221.853
65.08000 223.342
65.09000 222.956
65.10000 216.806
65.11000 210.251
65.12000 205.763
65.13000 207.495
65.14000 208.941
65.15000 212.404
65.16000 218.745
65.17000 225.108
65.18000 230.783
65.19000 235.817
65.20000 240.809
65.21000 239.567
65.22000 234.558
65.23000 229.875
65.24000 232.898
65.25000 239.174
65.26000 245.594
65.27000 253.695
65.28000 262.281
65.29000 269.943
65.30000 272.430
65.31000 273.729
65.32000 275.701
65.33000 280.700
65.34000 286.066
65.35000 293.301
65.36000 306.201
65.37000 319.489
65.38000 328.540
65.39000 329.754
65.40000 330.481
65.41000 335.375
65.42000 346.126
65.43000 356.915
65.44000 363.834
65.45000 367.202
65.46000 370.539
65.47000 377.813
65.48000 387.302
65.49000 396.823
65.50000 407.085
65.51000 417.654
65.52000 428.538
65.53000 443.022
65.54000 458.529
65.55000 472.338
65.56000 476.965
65.57000 479.478
65.58000 484.463
65.59000 500.396
65.60000 517.629
65.61000 536.980
65.62000 562.657
65.63000 588.758
65.64000 606.449
65.65000 659.593
65.66000 699.998
65.67000 750.909
65.68000 816.359
65.69000 881.921
65.70000 981.041
65.71000 1110.468
65.72000 1238.672
65.73000 1364.865
65.74000 1487.301
65.75000 1610.723
65.76000 1755.994
65.77000 1910.231
65.78000 2057.761
65.79000 2129.959
65.80000 2181.084
65.81000 2226.508
65.82000 2269.736
65.83000 2306.875
65.84000 2338.611
65.85000 2346.793
65.86000 2352.231
65.87000 2354.678
65.88000 2348.326
65.89000 2341.400
65.90000 2336.729
65.91000 2253.937
65.92000 2190.691
65.93000 2113.517
65.94000 2017.370
65.95000 1921.072
65.96000 1776.995
65.97000 1590.466
65.98000 1405.812
65.99000 1247.747
66.00000 1108.492
66.01000 971.354
66.02000 879.678
66.03000 806.389
66.04000 733.462
66.05000 664.503
66.06000 596.638
66.07000 536.479
66.08000 509.938
66.09000 492.281
66.10000 476.114
66.11000 466.343
66.12000 457.303
66.13000 449.996
66.14000 447.715
66.15000 445.754
66.16000 444.439
66.17000 424.784
66.18000 409.822
66.19000 404.524
66.20000 412.190
66.21000 419.926
66.22000 430.536
66.23000 443.659
66.24000 456.642
66.25000 473.493
66.26000 492.170
66.27000 510.727
66.28000 526.769
66.29000 541.809
66.30000 557.884
66.31000 585.077
66.32000 615.290
66.33000 642.010
66.34000 655.673
66.35000 665.451
66.36000 676.629
66.37000 693.724
66.38000 711.482
66.39000 726.212
66.40000 732.281
66.41000 737.815
66.42000 741.509
66.43000 722.732
66.44000 708.387
66.45000 695.345
66.46000 684.023
66.47000 672.704
66.48000 657.933
66.49000 640.191
66.50000 622.650
66.51000 600.660
66.52000 576.694
66.53000 552.623
66.54000 526.420
66.55000 499.379
66.56000 473.609
66.57000 461.218
66.58000 452.406
66.59000 444.630
66.60000 429.090
66.61000 414.500
66.62000 402.331
66.63000 400.234
66.64000 399.244
66.65000 397.149
66.66000 391.944
66.67000 386.552
66.68000 382.972
66.69000 382.574
66.70000 382.339
66.71000 383.348
66.72000 385.976
66.73000 388.603
66.74000 387.120
66.75000 382.157
66.76000 377.253
66.77000 375.563
66.78000 375.692
66.79000 376.369
66.80000 387.825
66.81000 403.456
66.82000 417.473
66.83000 414.855
66.84000 407.855
66.85000 401.692
66.86000 392.503
66.87000 384.137
66.88000 378.064
66.89000 381.388
66.90000 385.724
66.91000 388.769
66.92000 388.228
66.93000 387.477
66.94000 386.981
66.95000 393.657
66.96000 398.708
66.97000 403.021
66.98000 406.387
66.99000 409.741
67.00000 409.245
67.01000 405.541
67.02000 401.884
67.03000 404.601
67.04000 410.715
67.05000 416.480
67.06000 415.615
67.07000 412.218
67.08000 409.025
67.09000 407.886
67.10000 407.281
67.11000 406.750
67.12000 410.423
67.13000 414.199
67.14000 417.619
67.15000 419.603
67.16000 421.435
67.17000 422.019
67.18000 419.183
67.19000 416.153
67.20000 414.162
67.21000 429.869
67.22000 441.727
67.23000 443.383
67.24000 432.185
67.25000 420.957
67.26000 414.772
67.27000 412.721
67.28000 410.698
67.29000 414.620
67.30000 421.619
67.31000 428.442
67.32000 432.003
67.33000 434.336
67.34000 436.470
67.35000 436.628
67.36000 436.281
67.37000 435.977
67.38000 438.238
67.39000 440.547
67.40000 441.923
67.41000 439.586
67.42000 436.866
67.43000 435.323
67.44000 436.960
67.45000 438.774
67.46000 439.959
67.47000 452.139
67.48000 461.260
67.49000 464.148
67.50000 459.307
67.51000 454.451
67.52000 452.349
67.53000 452.469
67.54000 452.587
67.55000 454.122
67.56000 456.360
67.57000 458.774
67.58000 464.354
67.59000 471.110
67.60000 477.724
67.61000 482.982
67.62000 487.897
67.63000 492.193
67.64000 483.974
67.65000 475.164
67.66000 468.768
67.67000 471.822
67.68000 475.833
67.69000 480.358
67.70000 486.249
67.71000 492.214
67.72000 496.090
67.73000 495.059
67.74000 494.229
67.75000 492.717
67.76000 490.373
67.77000 488.050
67.78000 492.992
67.79000 503.703
67.80000 514.257
67.81000 514.837
67.82000 510.228
67.83000 505.728
67.84000 503.151
67.85000 501.275
67.86000 500.033
67.87000 504.797
67.88000 511.050
67.89000 516.501
67.90000 514.107
67.91000 510.972
67.92000 508.847
67.93000 510.619
67.94000 512.778
67.95000 516.866
67.96000 526.014
67.97000 535.426
67.98000 541.510
67.99000 543.435
68.00000 544.781
68.01000 542.211
68.02000 534.934
68.03000 527.675
68.04000 527.960
68.05000 534.140
68.06000 540.225
68.07000 549.816
68.08000 560.901
68.09000 571.271
68.10000 569.432
68.11000 563.196
68.12000 557.745
68.13000 559.589
68.14000 563.214
68.15000 566.367
68.16000 581.491
68.17000 596.027
68.18000 609.124
68.19000 616.755
68.20000 623.855
68.21000 625.722
68.22000 614.071
68.23000 601.731
68.24000 593.799
68.25000 614.000
68.26000 629.125
68.27000 634.224
68.28000 627.471
68.29000 620.730
68.30000 621.991
68.31000 629.411
68.32000 636.711
68.33000 644.564
68.34000 652.445
68.35000 660.079
68.36000 663.605
68.37000 665.673
68.38000 668.592
68.39000 679.255
68.40000 691.780
68.41000 702.645
68.42000 708.031
68.43000 711.886
68.44000 717.601
68.45000 730.272
68.46000 743.605
68.47000 751.626
68.48000 746.121
68.49000 739.946
68.50000 736.000
68.51000 759.350
68.52000 776.704
68.53000 793.927
68.54000 810.998
68.55000 828.097
68.56000 851.027
68.57000 878.376
68.58000 905.260
68.59000 941.847
68.60000 982.017
68.61000 1021.993
68.62000 1058.831
68.63000 1094.572
68.64000 1130.803
68.65000 1171.413
68.66000 1213.060
68.67000 1249.096
68.68000 1313.403
68.69000 1371.781
68.70000 1428.928
68.71000 1481.540
68.72000 1533.730
68.73000 1589.743
68.74000 1655.348
68.75000 1721.414
68.76000 1763.398
68.77000 1826.710
68.78000 1872.954
68.79000 1927.324
68.80000 1990.996
68.81000 2054.782
68.82000 2138.715
68.83000 2237.676
68.84000 2334.876
68.85000 2476.383
68.86000 2634.577
68.87000 2798.286
68.88000 3048.937
68.89000 3329.572
68.90000 3660.611
68.91000 4432.965
68.92000 5308.195
68.93000 6063.571
68.94000 8423.504
68.95000 10632.459
68.96000 13175.892
68.97000 16933.691
68.98000 20802.080
68.99000 24826.246
69.00000 29235.752
69.01000 33663.223
69.02000 36460.684
69.03000 41025.211
69.04000 44353.379
69.05000 46947.398
69.06000 48714.715
69.07000 50477.766
69.08000 51623.707
69.09000 52316.422
69.10000 52996.254
69.11000 53783.969
69.12000 54595.211
69.13000 55411.098
69.14000 56298.309
69.15000 57209.762
69.16000 58041.707
69.17000 58191.023
69.18000 58183.660
69.19000 58177.324
69.20000 56006.492
69.21000 53894.750
69.22000 51436.508
69.23000 47738.934
69.24000 43930.938
69.25000 40386.445
69.26000 37484.398
69.27000 34611.395
69.28000 32806.629
69.29000 30687.982
69.30000 29152.816
69.31000 28083.230
69.32000 27529.414
69.33000 26976.375
69.34000 26493.693
69.35000 26061.893
69.36000 25638.479
69.37000 24745.205
69.38000 23663.443
69.39000 22533.527
69.40000 20682.563
69.41000 18590.072
69.42000 16473.676
69.43000 14155.971
69.44000 11792.772
69.45000 9763.806
69.46000 7947.857
69.47000 6438.932
69.48000 5077.710
69.49000 4236.965
69.50000 3441.580
69.51000 2773.598
69.52000 2411.792
69.53000 2063.398
69.54000 1845.826
69.55000 1659.930
69.56000 1526.169
69.57000 1421.085
69.58000 1347.249
69.59000 1273.504
69.60000 1210.924
69.61000 1156.294
69.62000 1102.771
69.63000 1060.022
69.64000 1023.911
69.65000 988.208
69.66000 958.481
69.67000 930.725
69.68000 903.991
69.69000 885.697
69.70000 869.280
69.71000 855.222
69.72000 818.593
69.73000 784.946
69.74000 756.783
69.75000 747.656
69.76000 740.151
69.77000 727.184
69.78000 701.277
69.79000 674.821
69.80000 658.398
69.81000 658.845
69.82000 659.332
69.83000 657.810
69.84000 654.135
69.85000 650.409
69.86000 640.055
69.87000 625.053
69.88000 610.368
69.89000 596.136
69.90000 582.674
69.91000 569.721
69.92000 564.018
69.93000 560.673
69.94000 556.966
69.95000 550.329
69.96000 543.050
69.97000 536.833
69.98000 541.661
69.99000 547.042
70.00000 549.586
