20.00000 486.066
20.01000 480.232
20.02000 473.564
20.03000 469.400
20.04000 475.113
20.05000 481.835
20.06000 486.800
20.07000 485.890
20.08000 484.936
20.09000 484.368
20.10000 484.509
20.11000 484.664
20.12000 479.641
20.13000 468.249
20.14000 456.859
20.15000 454.862
20.16000 460.358
20.17000 465.747
20.18000 466.374
20.19000 464.439
20.20000 462.860
20.21000 467.605
20.22000 474.678
20.23000 481.205
20.24000 485.123
20.25000 488.051
20.26000 490.033
20.27000 486.435
20.28000 481.922
20.29000 478.676
20.30000 480.348
20.31000 482.514
20.32000 484.106
20.33000 477.486
20.34000 472.028
20.35000 470.150
20.36000 474.733
20.37000 479.447
20.38000 484.403
20.39000 489.651
20.40000 494.890
20.41000 493.966
20.42000 488.218
20.43000 482.467
20.44000 476.656
20.45000 470.811
20.46000 465.374
20.47000 466.980
20.48000 471.141
20.49000 474.973
20.50000 477.365
20.51000 479.189
20.52000 481.559
20.53000 487.099
20.54000 493.150
20.55000 497.446
20.56000 495.029
20.57000 491.955
20.58000 489.703
20.59000 485.104
20.60000 481.461
20.61000 480.973
20.62000 486.096
20.63000 491.328
20.64000 493.793
20.65000 492.963
20.66000 492.128
20.67000 485.865
20.68000 475.450
20.69000 465.394
20.70000 469.977
20.71000 482.212
20.72000 493.726
20.73000 493.114
20.74000 488.165
20.75000 483.615
20.76000 482.975
20.77000 483.250
20.78000 482.716
20.79000 477.562
20.80000 471.678
20.81000 468.402
20.82000 474.960
20.83000 482.462
20.84000 487.932
20.85000 481.476
20.86000 476.041
20.87000 474.670
20.88000 480.420
20.89000 486.302
20.90000 490.600
20.91000 493.042
20.92000 495.475
20.93000 496.254
20.94000 495.773
20.95000 495.287
20.96000 494.572
20.97000 493.739
20.98000 493.180
20.99000 497.109
21.00000 502.620
21.01000 507.677
21.02000 502.940
21.03000 496.632
21.04000 491.101
21.05000 489.925
21.06000 489.426
21.07000 489.299
21.08000 490.553
21.09000 491.938
21.10000 492.943
21.11000 475.848
21.12000 462.026
21.13000 456.325
21.14000 464.642
21.15000 473.205
21.16000 481.014
21.17000 487.955
21.18000 494.875
21.19000 492.734
21.20000 483.846
21.21000 475.088
21.22000 471.194
21.23000 469.771
21.24000 468.469
21.25000 469.115
21.26000 470.438
21.27000 471.649
21.28000 474.246
21.29000 476.847
21.30000 479.064
21.31000 479.165
21.32000 478.941
21.33000 480.221
21.34000 486.999
21.35000 494.282
21.36000 499.547
21.37000 492.205
21.38000 486.114
21.39000 481.686
21.40000 480.085
21.41000 478.532
21.42000 476.080
21.43000 472.608
21.44000 469.146
21.45000 469.097
21.46000 471.553
21.47000 474.005
21.48000 476.267
21.49000 478.434
21.50000 480.543
21.51000 481.757
21.52000 482.664
21.53000 483.493
21.54000 488.757
21.55000 494.347
21.56000 498.399
21.57000 494.105
21.58000 488.557
21.59000 485.489
21.60000 491.355
21.61000 498.024
21.62000 502.824
21.63000 492.824
21.64000 484.646
21.65000 480.284
21.66000 482.314
21.67000 484.445
21.68000 485.754
21.69000 486.146
21.70000 486.537
21.71000 489.993
21.72000 495.635
21.73000 501.195
21.74000 503.917
21.75000 505.240
21.76000 506.890
21.77000 513.501
21.78000 521.785
21.79000 529.344
21.80000 537.941
21.81000 545.777
21.82000 553.786
21.83000 562.725
21.84000 571.801
21.85000 578.774
21.86000 578.284
21.87000 577.136
21.88000 576.314
21.89000 591.808
21.90000 604.202
21.91000 614.354
21.92000 620.803
21.93000 627.197
21.94000 631.464
21.95000 633.394
21.96000 635.316
21.97000 631.644
21.98000 624.032
21.99000 617.046
22.00000 630.895
22.01000 654.869
22.02000 677.551
22.03000 681.133
22.04000 678.365
22.05000 675.844
22.06000 683.696
22.07000 692.708
22.08000 699.120
22.09000 691.876
22.10000 682.653
22.11000 674.457
22.12000 669.849
22.13000 665.551
22.14000 662.485
22.15000 664.456
22.16000 666.124
22.17000 658.599
22.18000 636.118
22.19000 613.427
22.20000 600.540
22.21000 598.245
22.22000 595.964
22.23000 593.435
22.24000 590.760
22.25000 587.957
22.26000 581.055
22.27000 572.189
22.28000 563.670
22.29000 560.154
22.30000 558.277
22.31000 556.571
22.32000 560.184
22.33000 564.416
22.34000 564.916
22.35000 546.140
22.36000 524.619
22.37000 507.908
22.38000 507.768
22.39000 509.025
22.40000 509.917
22.41000 502.847
22.42000 497.213
22.43000 495.302
22.44000 499.356
22.45000 503.488
22.46000 502.349
22.47000 495.607
22.48000 488.895
22.49000 484.057
22.50000 480.561
22.51000 477.107
22.52000 474.909
22.53000 473.305
22.54000 471.630
22.55000 468.951
22.56000 465.947
22.57000 463.222
22.58000 467.701
22.59000 473.033
22.60000 477.194
22.61000 475.396
22.62000 472.765
22.63000 470.854
22.64000 471.389
22.65000 472.126
22.66000 472.646
22.67000 461.534
22.68000 452.739
22.69000 447.032
22.70000 446.200
22.71000 445.428
22.72000 443.147
22.73000 439.286
22.74000 435.446
22.75000 443.372
22.76000 459.173
22.77000 474.299
22.78000 469.427
22.79000 455.249
22.80000 441.828
22.81000 438.790
22.82000 439.055
22.83000 439.294
22.84000 452.424
22.85000 466.418
22.86000 476.327
22.87000 465.804
22.88000 452.476
22.89000 442.503
22.90000 443.751
22.91000 445.903
22.92000 447.417
22.93000 442.471
22.94000 438.532
22.95000 437.171
22.96000 439.818
22.97000 442.513
22.98000 442.183
22.99000 438.746
23.00000 435.328
23.01000 432.362
23.02000 429.733
23.03000 427.386
23.04000 433.106
23.05000 442.525
23.06000 451.260
23.07000 450.834
23.08000 447.536
23.09000 444.556
23.10000 440.460
23.11000 436.652
23.12000 434.023
23.13000 437.196
23.14000 441.151
23.15000 442.406
23.16000 434.766
23.17000 426.427
23.18000 420.587
23.19000 429.732
23.20000 437.075
23.21000 440.512
23.22000 437.962
23.23000 435.348
23.24000 435.411
23.25000 438.180
23.26000 440.932
23.27000 438.653
23.28000 433.105
23.29000 427.831
23.30000 430.108
23.31000 435.797
23.32000 441.386
23.33000 445.658
23.34000 449.522
23.35000 453.006
23.36000 446.306
23.37000 438.573
23.38000 432.575
23.39000 434.974
23.40000 438.485
23.41000 440.939
23.42000 439.958
23.43000 438.714
23.44000 437.847
23.45000 433.918
23.46000 430.869
23.47000 429.174
23.48000 429.523
23.49000 429.893
23.50000 429.717
23.51000 428.999
23.52000 428.286
23.53000 428.228
23.54000 428.595
23.55000 429.111
23.56000 433.620
23.57000 439.908
23.58000 445.779
23.59000 446.323
23.60000 445.244
23.61000 444.274
23.62000 444.591
23.63000 445.099
23.64000 444.130
23.65000 436.121
23.66000 427.197
23.67000 421.729
23.68000 427.318
23.69000 433.736
23.70000 438.188
23.71000 430.543
23.72000 424.465
23.73000 419.936
23.74000 417.709
23.75000 415.504
23.76000 417.535
23.77000 423.705
23.78000 429.832
23.79000 430.866
23.80000 428.651
23.81000 426.513
23.82000 426.349
23.83000 427.052
23.84000 427.681
23.85000 427.391
23.86000 426.824
23.87000 426.316
23.88000 429.501
23.89000 432.936
23.90000 434.188
23.91000 425.201
23.92000 414.908
23.93000 408.867
23.94000 416.233
23.95000 424.581
23.96000 430.344
23.97000 431.781
23.98000 432.750
23.99000 430.375
24.00000 423.105
24.01000 415.793
24.02000 419.030
24.03000 432.398
24.04000 445.666
24.05000 443.676
24.06000 432.184
24.07000 421.092
24.08000 419.967
24.09000 423.158
24.10000 426.578
24.11000 432.797
24.12000 439.844
24.13000 446.156
24.14000 439.985
24.15000 432.446
24.16000 427.436
24.17000 434.107
24.18000 442.240
24.19000 445.509
24.20000 433.666
24.21000 420.742
24.22000 411.864
24.23000 421.019
24.24000 428.326
24.25000 429.786
24.26000 422.812
24.27000 415.773
24.28000 416.486
24.29000 424.520
24.30000 432.491
24.31000 435.258
24.32000 434.776
24.33000 434.368
24.34000 435.731
24.35000 437.851
24.36000 439.517
24.37000 435.769
24.38000 430.444
24.39000 425.685
24.40000 428.824
24.41000 432.897
24.42000 435.399
24.43000 430.760
24.44000 425.244
24.45000 420.701
24.46000 419.139
24.47000 417.784
24.48000 416.858
24.49000 413.502
24.50000 410.934
24.51000 411.595
24.52000 416.842
24.53000 422.121
24.54000 420.289
24.55000 411.852
24.56000 403.487
24.57000 408.590
24.58000 421.749
24.59000 434.364
24.60000 434.256
24.61000 428.798
24.62000 423.873
24.63000 425.160
24.64000 428.230
24.65000 430.968
24.66000 416.875
24.67000 401.816
24.68000 389.794
24.69000 391.366
24.70000 394.575
24.71000 400.587
24.72000 415.056
24.73000 430.100
24.74000 440.333
24.75000 432.611
24.76000 426.438
24.77000 422.064
24.78000 420.205
24.79000 418.363
24.80000 415.399
24.81000 411.410
24.82000 407.457
24.83000 407.814
24.84000 410.731
24.85000 413.470
24.86000 412.202
24.87000 409.272
24.88000 406.400
24.89000 404.185
24.90000 402.156
24.91000 400.351
24.92000 410.820
24.93000 421.915
24.94000 429.050
24.95000 418.726
24.96000 406.339
24.97000 397.603
24.98000 399.720
24.99000 402.558
25.00000 404.478
25.01000 400.909
25.02000 398.130
25.03000 398.381
25.04000 402.805
25.05000 407.251
25.06000 407.364
25.07000 403.582
25.08000 399.837
25.09000 405.462
25.10000 416.463
25.11000 426.944
25.12000 426.021
25.13000 420.439
25.14000 414.781
25.15000 408.286
25.16000 401.558
25.17000 395.584
25.18000 402.105
25.19000 409.762
25.20000 416.099
25.21000 416.709
25.22000 416.656
25.23000 416.394
25.24000 415.520
25.25000 414.607
25.26000 413.992
25.27000 403.607
25.28000 395.682
25.29000 392.694
25.30000 396.403
25.31000 400.145
25.32000 400.615
25.33000 398.190
25.34000 395.790
25.35000 396.807
25.36000 399.772
25.37000 402.482
25.38000 399.746
25.39000 394.816
25.40000 390.334
25.41000 390.729
25.42000 392.461
25.43000 393.996
25.44000 397.260
25.45000 400.356
25.46000 403.476
25.47000 406.702
25.48000 409.940
25.49000 411.486
25.50000 408.145
25.51000 404.496
25.52000 402.052
25.53000 411.834
25.54000 419.335
25.55000 419.700
25.56000 410.538
25.57000 401.336
25.58000 398.712
25.59000 401.811
25.60000 404.876
25.61000 404.755
25.62000 402.828
25.63000 401.022
25.64000 401.718
25.65000 403.406
25.66000 405.172
25.67000 407.761
25.68000 410.574
25.69000 413.059
25.70000 410.958
25.71000 408.434
25.72000 405.840
25.73000 402.951
25.74000 400.029
25.75000 397.415
25.76000 395.676
25.77000 393.991
25.78000 392.868
25.79000 390.916
25.80000 389.456
25.81000 389.247
25.82000 390.685
25.83000 392.127
25.84000 391.924
25.85000 390.313
25.86000 388.720
25.87000 396.677
25.88000 409.780
25.89000 422.178
25.90000 420.446
25.91000 413.186
25.92000 406.517
25.93000 406.026
25.94000 407.180
25.95000 408.197
25.96000 399.910
25.97000 391.353
25.98000 385.863
25.99000 393.074
26.00000 401.673
26.01000 406.467
26.02000 400.587
26.03000 394.070
26.04000 389.749
26.05000 390.666
26.06000 391.439
26.07000 393.790
26.08000 398.181
26.09000 402.575
26.10000 404.311
26.11000 403.808
26.12000 403.310
26.13000 397.761
26.14000 389.572
26.15000 382.006
26.16000 386.537
26.17000 395.733
26.18000 403.993
26.19000 402.669
26.20000 398.832
26.21000 395.457
26.22000 392.973
26.23000 390.968
26.24000 389.906
26.25000 392.693
26.26000 395.891
26.27000 397.872
26.28000 396.489
26.29000 394.910
26.30000 393.869
26.31000 401.620
26.32000 407.488
26.33000 408.656
26.34000 403.839
26.35000 399.011
26.36000 398.664
26.37000 402.033
26.38000 405.359
26.39000 404.674
26.40000 401.836
26.41000 399.175
26.42000 399.868
26.43000 401.835
26.44000 403.360
26.45000 400.449
26.46000 396.393
26.47000 392.833
26.48000 389.983
26.49000 387.638
26.50000 384.953
26.51000 380.898
26.52000 376.700
26.53000 375.701
26.54000 383.424
26.55000 391.641
26.56000 397.030
26.57000 400.366
26.58000 402.785
26.59000 401.738
26.60000 396.343
26.61000 390.941
26.62000 387.955
26.63000 386.939
26.64000 385.937
26.65000 387.974
26.66000 391.574
26.67000 395.234
26.68000 400.003
26.69000 405.187
26.70000 409.542
26.71000 405.767
26.72000 399.923
26.73000 394.807
26.74000 399.080
26.75000 404.092
26.76000 406.142
26.77000 396.477
26.78000 385.607
26.79000 377.942
26.80000 378.882
26.81000 380.296
26.82000 381.219
26.83000 373.745
26.84000 368.127
26.85000 369.487
26.86000 379.458
26.87000 389.435
26.88000 393.281
26.89000 392.203
26.90000 391.140
26.91000 386.339
26.92000 379.716
26.93000 373.737
26.94000 379.280
26.95000 389.079
26.96000 398.185
26.97000 400.632
26.98000 401.410
26.99000 402.089
27.00000 397.012
27.01000 391.856
27.02000 388.373
27.03000 391.411
27.04000 395.106
27.05000 397.567
27.06000 396.758
27.07000 395.775
27.08000 395.137
27.09000 374.362
27.10000 358.846
27.11000 355.719
27.12000 367.644
27.13000 379.586
27.14000 386.149
27.15000 388.460
27.16000 390.737
27.17000 392.565
27.18000 394.106
27.19000 395.346
27.20000 391.355
27.21000 385.460
27.22000 380.268
27.23000 381.709
27.24000 384.786
27.25000 387.467
27.26000 388.138
27.27000 388.433
27.28000 388.733
27.29000 389.050
27.30000 389.368
27.31000 387.619
27.32000 380.474
27.33000 373.048
27.34000 368.256
27.35000 384.200
27.36000 396.147
27.37000 399.372
27.38000 392.171
27.39000 384.966
27.40000 382.110
27.41000 382.637
27.42000 383.155
27.43000 375.417
27.44000 363.726
27.45000 352.999
27.46000 358.603
27.47000 370.064
27.48000 380.077
27.49000 376.717
27.50000 370.107
27.51000 364.363
27.52000 366.601
27.53000 369.591
27.54000 372.509
27.55000 375.158
27.56000 377.780
27.57000 380.296
27.58000 382.537
27.59000 384.764
27.60000 386.193
27.61000 384.687
27.62000 383.550
27.63000 381.185
27.64000 377.377
27.65000 373.587
27.66000 374.509
27.67000 379.040
27.68000 383.497
27.69000 381.645
27.70000 376.699
27.71000 372.113
27.72000 373.452
27.73000 376.887
27.74000 380.140
27.75000 381.757
27.76000 382.983
27.77000 384.046
27.78000 379.867
27.79000 375.613
27.80000 371.660
27.81000 368.829
27.82000 366.103
27.83000 365.821
27.84000 371.732
27.85000 377.948
27.86000 381.913
27.87000 372.940
27.88000 366.246
27.89000 366.119
27.90000 373.592
27.91000 381.036
27.92000 380.221
27.93000 373.177
27.94000 366.255
27.95000 366.007
27.96000 369.052
27.97000 371.706
27.98000 368.079
27.99000 362.264
28.00000 357.719
28.01000 364.442
28.02000 373.819
28.03000 381.927
28.04000 385.674
28.05000 388.289
28.06000 390.615
28.07000 391.884
28.08000 393.055
28.09000 389.914
28.10000 376.002
28.11000 361.576
28.12000 352.424
28.13000 363.666
28.14000 372.073
28.15000 377.085
28.16000 378.228
28.17000 379.386
28.18000 384.043
28.19000 391.296
28.20000 398.419
28.21000 396.964
28.22000 391.405
28.23000 386.078
28.24000 384.386
28.25000 383.943
28.26000 383.314
28.27000 381.078
28.28000 378.469
28.29000 376.218
28.30000 374.307
28.31000 372.728
28.32000 373.402
28.33000 382.216
28.34000 391.766
28.35000 396.161
28.36000 387.859
28.37000 378.970
28.38000 373.364
28.39000 375.351
28.40000 376.877
28.41000 380.734
28.42000 387.201
28.43000 393.647
28.44000 396.158
28.45000 395.791
28.46000 395.431
28.47000 393.163
28.48000 390.067
28.49000 386.816
28.50000 381.201
28.51000 374.785
28.52000 369.229
28.53000 371.016
28.54000 374.481
28.55000 377.462
28.56000 375.483
28.57000 373.185
28.58000 372.189
28.59000 375.823
28.60000 379.867
28.61000 379.641
28.62000 369.047
28.63000 357.989
28.64000 351.054
28.65000 357.010
28.66000 361.453
28.67000 365.156
28.68000 368.044
28.69000 370.877
28.70000 365.407
28.71000 353.961
28.72000 342.740
28.73000 342.650
28.74000 347.786
28.75000 352.956
28.76000 358.621
28.77000 364.451
28.78000 369.465
28.79000 367.646
28.80000 364.291
28.81000 361.412
28.82000 363.091
28.83000 365.069
28.84000 366.051
28.85000 363.536
28.86000 360.718
28.87000 358.380
28.88000 357.191
28.89000 356.051
28.90000 355.341
28.91000 351.485
28.92000 348.672
28.93000 348.732
28.94000 351.905
28.95000 355.112
28.96000 362.906
28.97000 373.951
28.98000 384.770
28.99000 380.896
29.00000 370.385
29.01000 360.232
29.02000 355.252
29.03000 351.974
29.04000 348.997
29.05000 348.497
29.06000 348.545
29.07000 348.586
29.08000 353.417
29.09000 358.069
29.10000 361.379
29.11000 360.052
29.12000 358.331
29.13000 358.387
29.14000 362.631
29.15000 367.052
29.16000 369.791
29.17000 369.938
29.18000 370.019
29.19000 370.316
29.20000 370.844
29.21000 371.337
29.22000 367.280
29.23000 360.046
29.24000 352.967
29.25000 353.217
29.26000 356.790
29.27000 360.349
29.28000 363.702
29.29000 366.990
29.30000 369.626
29.31000 367.014
29.32000 363.259
29.33000 360.054
29.34000 361.512
29.35000 363.291
29.36000 365.347
29.37000 368.346
29.38000 371.424
29.39000 373.629
29.40000 373.808
29.41000 373.905
29.42000 373.964
29.43000 359.501
29.44000 348.993
29.45000 345.315
29.46000 348.799
29.47000 352.291
29.48000 356.451
29.49000 361.072
29.50000 365.589
29.51000 367.549
29.52000 368.282
29.53000 368.907
29.54000 368.031
29.55000 366.676
29.56000 364.709
29.57000 357.906
29.58000 350.065
29.59000 343.392
29.60000 351.930
29.61000 360.867
29.62000 367.848
29.63000 368.269
29.64000 368.160
29.65000 365.881
29.66000 358.631
29.67000 351.185
29.68000 346.626
29.69000 361.464
29.70000 372.250
29.71000 379.051
29.72000 381.742
29.73000 384.423
29.74000 385.965
29.75000 386.736
29.76000 387.490
29.77000 388.231
29.78000 388.936
29.79000 389.584
29.80000 389.485
29.81000 389.150
29.82000 389.482
29.83000 394.984
29.84000 401.578
29.85000 407.174
29.86000 410.601
29.87000 413.230
29.88000 414.314
29.89000 410.294
29.90000 405.871
29.91000 407.223
29.92000 421.617
29.93000 436.507
29.94000 445.567
29.95000 434.740
29.96000 426.851
29.97000 427.044
29.98000 435.433
29.99000 443.804
30.00000 450.303
30.01000 455.554
30.02000 460.679
30.03000 462.161
30.04000 461.998
30.05000 461.579
30.06000 457.787
30.07000 452.949
30.08000 448.449
30.09000 446.522
30.10000 445.130
30.11000 443.953
30.12000 445.644
30.13000 447.379
30.14000 447.529
30.15000 442.513
30.16000 437.099
30.17000 433.619
30.18000 434.443
30.19000 435.426
30.20000 436.020
30.21000 421.243
30.22000 410.601
30.23000 406.703
30.24000 409.530
30.25000 412.307
30.26000 410.422
30.27000 405.475
30.28000 400.651
30.29000 399.383
30.30000 399.690
30.31000 400.168
30.32000 402.849
30.33000 406.203
30.34000 409.315
30.35000 410.608
30.36000 411.530
30.37000 412.308
30.38000 417.852
30.39000 423.004
30.40000 425.171
30.41000 417.752
30.42000 409.611
30.43000 402.529
30.44000 397.767
30.45000 393.088
30.46000 390.276
30.47000 391.790
30.48000 392.896
30.49000 390.858
30.50000 385.738
30.51000 380.712
30.52000 383.904
30.53000 392.416
30.54000 400.707
30.55000 401.706
30.56000 399.596
30.57000 397.442
30.58000 394.749
30.59000 391.893
30.60000 390.055
30.61000 395.691
30.62000 402.831
30.63000 408.841
30.64000 408.846
30.65000 408.210
30.66000 407.348
30.67000 405.772
30.68000 404.143
30.69000 402.828
30.70000 402.193
30.71000 401.580
30.72000 401.214
30.73000 416.685
30.74000 427.755
30.75000 430.239
30.76000 424.446
30.77000 418.730
30.78000 419.377
30.79000 424.082
30.80000 428.659
30.81000 429.838
30.82000 429.555
30.83000 429.698
30.84000 435.069
30.85000 441.990
30.86000 448.278
30.87000 450.004
30.88000 450.826
30.89000 451.516
30.90000 449.758
30.91000 448.038
30.92000 451.249
30.93000 469.833
30.94000 489.521
30.95000 503.498
30.96000 505.300
30.97000 506.701
30.98000 507.532
30.99000 526.860
31.00000 540.642
31.01000 551.373
31.02000 559.213
31.03000 567.229
31.04000 588.979
31.05000 619.355
31.06000 648.881
31.07000 668.120
31.08000 682.223
31.09000 697.887
31.10000 732.253
31.11000 772.082
31.12000 813.448
31.13000 865.691
31.14000 920.054
31.15000 965.541
31.16000 1057.400
31.17000 1138.476
31.18000 1216.202
31.19000 1283.640
31.20000 1350.357
31.21000 1425.895
31.22000 1519.967
31.23000 1614.628
31.24000 1670.422
31.25000 1836.378
31.26000 1954.096
31.27000 2055.806
31.28000 2142.593
31.29000 2229.628
31.30000 2334.799
31.31000 2451.189
31.32000 2564.202
31.33000 2653.112
31.34000 2727.855
31.35000 2800.169
31.36000 2844.014
31.37000 2879.665
31.38000 2913.624
31.39000 2935.824
31.40000 2955.768
31.41000 2972.408
31.42000 2969.993
31.43000 2966.079
31.44000 2944.622
31.45000 2870.064
31.46000 2791.873
31.47000 2707.199
31.48000 2609.100
31.49000 2510.590
31.50000 2452.907
31.51000 2300.170
31.52000 2192.161
31.53000 2086.079
31.54000 1981.765
31.55000 1877.677
31.56000 1789.173
31.57000 1710.168
31.58000 1633.538
31.59000 1534.038
31.60000 1430.717
31.61000 1330.738
31.62000 1269.067
31.63000 1218.259
31.64000 1163.922
31.65000 1085.489
31.66000 1002.509
31.67000 933.484
31.68000 881.752
31.69000 840.628
31.70000 803.220
31.71000 776.901
31.72000 751.320
31.73000 721.023
31.74000 681.099
31.75000 640.892
31.76000 617.505
31.77000 609.028
31.78000 603.135
31.79000 589.285
31.80000 568.261
31.81000 547.261
31.82000 527.874
31.83000 509.455
31.84000 491.610
31.85000 479.770
31.86000 470.894
31.87000 462.370
31.88000 457.795
31.89000 454.323
31.90000 450.257
31.91000 442.205
31.92000 433.414
31.93000 426.123
31.94000 422.681
31.95000 420.207
31.96000 416.521
31.97000 409.270
31.98000 401.788
31.99000 395.289
32.00000 390.770
32.01000 386.306
32.02000 383.727
32.03000 383.310
32.04000 383.027
32.05000 383.090
32.06000 383.459
32.07000 383.755
32.08000 379.483
32.09000 372.510
32.10000 365.761
32.11000 365.067
32.12000 366.722
32.13000 368.099
32.14000 366.413
32.15000 363.884
32.16000 361.687
32.17000 361.681
32.18000 362.075
32.19000 362.400
32.20000 353.242
32.21000 344.797
32.22000 339.534
32.23000 343.490
32.24000 348.030
32.25000 351.219
32.26000 351.731
32.27000 352.169
32.28000 352.421
32.29000 344.105
32.30000 338.273
32.31000 342.560
32.32000 355.683
32.33000 368.508
32.34000 364.012
32.35000 349.417
32.36000 335.307
32.37000 337.240
32.38000 345.090
32.39000 352.205
32.40000 351.426
32.41000 348.507
32.42000 346.201
32.43000 347.869
32.44000 350.250
32.45000 352.214
32.46000 354.482
32.47000 356.377
32.48000 355.820
32.49000 348.260
32.50000 340.268
32.51000 335.857
32.52000 338.441
32.53000 341.208
32.54000 342.785
32.55000 342.876
32.56000 342.933
32.57000 341.872
32.58000 339.850
32.59000 337.847
32.60000 336.894
32.61000 336.544
32.62000 336.206
32.63000 337.483
32.64000 339.283
32.65000 340.808
32.66000 339.456
32.67000 337.334
32.68000 335.178
32.69000 332.808
32.70000 330.400
32.71000 328.421
32.72000 324.952
32.73000 321.968
32.74000 319.675
32.75000 319.326
32.76000 319.094
32.77000 319.398
32.78000 320.735
32.79000 322.099
32.80000 322.870
32.81000 325.349
32.82000 327.076
32.83000 327.768
32.84000 327.584
32.85000 327.408
32.86000 327.639
32.87000 328.100
32.88000 328.545
32.89000 324.586
32.90000 319.257
32.91000 314.588
32.92000 316.694
32.93000 320.582
32.94000 323.297
32.95000 318.670
32.96000 312.767
32.97000 307.932
32.98000 314.248
32.99000 320.410
33.00000 324.886
33.01000 324.685
33.02000 324.210
33.03000 326.098
33.04000 332.468
33.05000 338.945
33.06000 342.586
33.07000 333.531
33.08000 327.225
33.09000 325.108
33.10000 326.475
33.11000 327.820
33.12000 328.029
33.13000 327.604
33.14000 327.195
33.15000 317.795
33.16000 305.746
33.17000 294.508
33.18000 291.448
33.19000 290.507
33.20000 290.221
33.21000 293.962
33.22000 298.391
33.23000 302.009
33.24000 303.084
33.25000 303.745
33.26000 304.567
33.27000 305.828
33.28000 307.115
33.29000 307.760
33.30000 307.205
33.31000 306.624
33.32000 306.299
33.33000 302.194
33.34000 299.345
33.35000 297.075
33.36000 295.279
33.37000 293.529
33.38000 293.957
33.39000 295.583
33.40000 297.147
33.41000 297.964
33.42000 298.468
33.43000 299.009
33.44000 299.925
33.45000 300.937
33.46000 301.475
33.47000 299.148
33.48000 296.340
33.49000 294.054
33.50000 296.484
33.51000 298.868
33.52000 301.599
33.53000 305.270
33.54000 308.993
33.55000 308.380
33.56000 299.777
33.57000 291.000
33.58000 286.138
33.59000 292.658
33.60000 297.176
33.61000 299.807
33.62000 300.918
33.63000 302.003
33.64000 301.884
33.65000 301.111
33.66000 300.369
33.67000 297.216
33.68000 293.427
33.69000 290.194
33.70000 292.336
33.71000 295.829
33.72000 299.202
33.73000 301.864
33.74000 304.409
33.75000 306.474
33.76000 304.976
33.77000 303.462
33.78000 299.624
33.79000 289.615
33.80000 279.274
33.81000 274.845
33.82000 281.149
33.83000 287.678
33.84000 291.268
33.85000 291.540
33.86000 291.721
33.87000 291.607
33.88000 291.260
33.89000 290.897
33.90000 289.868
33.91000 288.483
33.92000 287.153
33.93000 294.674
33.94000 304.727
33.95000 313.243
33.96000 307.206
33.97000 297.566
33.98000 290.147
33.99000 295.711
34.00000 303.380
34.01000 309.584
34.02000 308.061
34.03000 306.200
34.04000 303.767
34.05000 299.837
34.06000 295.829
34.07000 293.828
34.08000 295.417
34.09000 297.077
34.10000 297.984
34.11000 292.695
34.12000 289.061
34.13000 287.427
34.14000 287.356
34.15000 287.258
34.16000 286.091
34.17000 284.360
34.18000 282.701
34.19000 284.373
34.20000 287.053
34.21000 289.488
34.22000 289.653
34.23000 289.266
34.24000 289.057
34.25000 289.879
34.26000 290.866
34.27000 291.661
34.28000 290.863
34.29000 290.088
34.30000 289.685
34.31000 290.239
34.32000 290.842
34.33000 289.646
34.34000 285.276
34.35000 280.847
34.36000 278.448
34.37000 283.502
34.38000 286.973
34.39000 290.489
34.40000 294.040
34.41000 297.497
34.42000 297.209
34.43000 294.981
34.44000 292.848
34.45000 285.060
34.46000 275.933
34.47000 267.977
34.48000 270.671
34.49000 275.923
34.50000 279.996
34.51000 277.409
34.52000 273.779
34.53000 270.862
34.54000 277.262
34.55000 283.166
34.56000 286.983
34.57000 285.490
34.58000 283.736
34.59000 282.686
34.60000 282.859
34.61000 283.054
34.62000 283.159
34.63000 281.204
34.64000 279.869
34.65000 278.933
34.66000 278.301
34.67000 277.702
34.68000 278.430
34.69000 279.835
34.70000 281.178
34.71000 279.776
34.72000 277.579
34.73000 275.397
34.74000 273.338
34.75000 271.309
34.76000 270.323
34.77000 275.135
34.78000 280.840
34.79000 285.409
34.80000 282.535
34.81000 279.651
34.82000 277.604
34.83000 277.653
34.84000 277.802
34.85000 278.342
34.86000 279.550
34.87000 280.768
34.88000 281.419
34.89000 286.206
34.90000 289.436
34.91000 285.992
34.92000 277.575
34.93000 269.292
34.94000 265.875
34.95000 264.909
34.96000 263.986
34.97000 270.448
34.98000 278.814
34.99000 286.230
35.00000 285.337
35.01000 282.509
35.02000 279.740
35.03000 277.291
35.04000 274.891
35.05000 272.975
35.06000 270.654
35.07000 268.750
35.08000 269.664
35.09000 277.540
35.10000 285.740
35.11000 289.987
35.12000 287.564
35.13000 285.033
35.14000 283.693
35.15000 281.064
35.16000 279.292
35.17000 280.256
35.18000 283.228
35.19000 286.069
35.20000 284.291
35.21000 280.221
35.22000 276.341
35.23000 272.888
35.24000 269.820
35.25000 267.339
35.26000 269.892
35.27000 273.599
35.28000 276.487
35.29000 274.976
35.30000 272.811
35.31000 271.088
35.32000 269.052
35.33000 267.387
35.34000 267.558
35.35000 272.197
35.36000 277.036
35.37000 279.398
35.38000 277.639
35.39000 275.817
35.40000 274.860
35.41000 282.999
35.42000 288.477
35.43000 287.213
35.44000 281.080
35.45000 275.188
35.46000 277.478
35.47000 283.769
35.48000 289.759
35.49000 286.577
35.50000 280.789
35.51000 275.749
35.52000 277.009
35.53000 279.691
35.54000 281.458
35.55000 278.392
35.56000 274.619
35.57000 271.628
35.58000 265.306
35.59000 259.987
35.60000 257.823
35.61000 263.227
35.62000 268.962
35.63000 269.741
35.64000 262.404
35.65000 254.950
35.66000 251.065
35.67000 254.465
35.68000 256.771
35.69000 259.938
35.70000 263.718
35.71000 267.344
35.72000 265.956
35.73000 262.152
35.74000 258.534
35.75000 260.033
35.76000 262.979
35.77000 265.891
35.78000 268.515
35.79000 271.076
35.80000 272.676
35.81000 269.277
35.82000 265.161
35.83000 261.909
35.84000 265.225
35.85000 268.335
35.86000 270.873
35.87000 272.058
35.88000 273.186
35.89000 272.927
35.90000 270.432
35.91000 267.907
35.92000 266.602
35.93000 268.668
35.94000 270.035
35.95000 267.924
35.96000 263.376
35.97000 258.935
35.98000 257.790
35.99000 258.211
36.00000 258.611
36.01000 261.681
36.02000 265.317
36.03000 268.658
36.04000 269.606
36.05000 270.032
36.06000 270.651
36.07000 272.257
36.08000 274.002
36.09000 275.376
36.10000 270.192
36.11000 265.601
36.12000 263.545
36.13000 267.398
36.14000 271.493
36.15000 273.785
36.16000 273.212
36.17000 272.603
36.18000 272.291
36.19000 267.649
36.20000 264.541
36.21000 263.184
36.22000 263.035
36.23000 262.925
36.24000 264.009
36.25000 265.653
36.26000 267.212
36.27000 266.549
36.28000 265.282
36.29000 263.826
36.30000 260.869
36.31000 257.588
36.32000 254.273
36.33000 250.785
36.34000 247.273
36.35000 244.518
36.36000 247.997
36.37000 251.184
36.38000 254.577
36.39000 258.443
36.40000 262.327
36.41000 264.767
36.42000 264.945
36.43000 265.095
36.44000 265.172
36.45000 266.146
36.46000 266.775
36.47000 264.680
36.48000 260.734
36.49000 256.908
36.50000 256.568
36.51000 257.837
36.52000 259.038
36.53000 256.167
36.54000 252.342
36.55000 249.469
36.56000 254.005
36.57000 260.111
36.58000 265.242
36.59000 265.544
36.60000 265.188
36.61000 264.911
36.62000 267.222
36.63000 269.230
36.64000 269.794
36.65000 267.085
36.66000 264.250
36.67000 263.959
36.68000 267.592
36.69000 271.269
36.70000 273.124
36.71000 273.424
36.72000 273.622
36.73000 273.494
36.74000 273.146
36.75000 272.912
36.76000 275.842
36.77000 280.213
36.78000 284.346
36.79000 282.545
36.80000 279.197
36.81000 275.585
36.82000 269.962
36.83000 263.919
36.84000 260.243
36.85000 268.113
36.86000 277.525
36.87000 284.854
36.88000 284.334
36.89000 283.435
36.90000 281.199
36.91000 275.981
36.92000 270.653
36.93000 268.380
36.94000 270.748
36.95000 273.164
36.96000 274.372
36.97000 282.937
36.98000 288.598
36.99000 289.451
37.00000 287.137
37.01000 284.998
37.02000 287.627
37.03000 292.394
37.04000 296.893
37.05000 295.957
37.06000 293.571
37.07000 291.456
37.08000 291.381
37.09000 291.724
37.10000 291.674
37.11000 289.739
37.12000 287.557
37.13000 285.864
37.14000 283.617
37.15000 281.799
37.16000 279.746
37.17000 277.180
37.18000 274.595
37.19000 271.891
37.20000 269.007
37.21000 266.121
37.22000 264.192
37.23000 263.203
37.24000 262.228
37.25000 262.586
37.26000 263.809
37.27000 265.094
37.28000 268.007
37.29000 271.640
37.30000 275.064
37.31000 274.696
37.32000 273.311
37.33000 272.371
37.34000 274.709
37.35000 277.710
37.36000 279.961
37.37000 278.674
37.38000 276.931
37.39000 275.583
37.40000 269.430
37.41000 264.266
37.42000 261.764
37.43000 265.035
37.44000 268.505
37.45000 270.581
37.46000 270.603
37.47000 270.606
37.48000 270.021
37.49000 268.868
37.50000 267.694
37.51000 264.782
37.52000 260.760
37.53000 257.000
37.54000 259.890
37.55000 265.676
37.56000 271.122
37.57000 265.830
37.58000 258.073
37.59000 251.532
37.60000 253.796
37.61000 257.810
37.62000 261.760
37.63000 265.417
37.64000 269.036
37.65000 271.824
37.66000 271.762
37.67000 271.549
37.68000 270.996
37.69000 269.714
37.70000 268.407
37.71000 265.554
37.72000 260.459
37.73000 255.346
37.74000 253.003
37.75000 253.296
37.76000 253.622
37.77000 256.497
37.78000 260.977
37.79000 265.314
37.80000 266.152
37.81000 265.487
37.82000 264.862
37.83000 264.449
37.84000 264.128
37.85000 263.959
37.86000 264.866
37.87000 265.983
37.88000 266.906
37.89000 266.936
37.90000 266.855
37.91000 266.793
37.92000 262.796
37.93000 259.418
37.94000 257.332
37.95000 257.967
37.96000 258.689
37.97000 260.074
37.98000 262.408
37.99000 264.748
38.00000 263.648
38.01000 259.331
38.02000 255.111
38.03000 257.999
38.04000 265.300
38.05000 272.467
38.06000 276.463
38.07000 279.118
38.08000 281.609
38.09000 280.740
38.10000 279.064
38.11000 276.854
38.12000 270.914
38.13000 264.257
38.14000 260.628
38.15000 270.644
38.16000 282.318
38.17000 291.241
38.18000 291.429
38.19000 291.104
38.20000 291.632
38.21000 293.934
38.22000 296.291
38.23000 294.259
38.24000 286.051
38.25000 277.801
38.26000 280.196
38.27000 292.379
38.28000 304.547
38.29000 315.642
38.30000 326.081
38.31000 336.104
38.32000 336.580
38.33000 333.074
38.34000 329.790
38.35000 329.015
38.36000 328.960
38.37000 330.194
38.38000 340.261
38.39000 352.001
38.40000 362.804
38.41000 369.451
38.42000 375.603
38.43000 380.288
38.44000 407.783
38.45000 430.629
38.46000 446.200
38.47000 446.876
38.48000 447.110
38.49000 457.270
38.50000 481.194
38.51000 505.197
38.52000 535.349
38.53000 571.034
38.54000 606.561
38.55000 631.700
38.56000 650.580
38.57000 670.057
38.58000 702.802
38.59000 741.001
38.60000 776.724
38.61000 800.250
38.62000 818.511
38.63000 838.205
38.64000 867.556
38.65000 898.705
38.66000 925.665
38.67000 934.329
38.68000 940.855
38.69000 945.805
38.70000 967.354
38.71000 985.135
38.72000 996.663
38.73000 995.576
38.74000 994.129
38.75000 978.484
38.76000 943.456
38.77000 908.330
38.78000 884.615
38.79000 871.078
38.80000 857.400
38.81000 834.991
38.82000 807.401
38.83000 779.459
38.84000 743.951
38.85000 705.378
38.86000 669.365
38.87000 639.311
38.88000 613.557
38.89000 587.937
38.90000 563.201
38.91000 538.627
38.92000 514.163
38.93000 490.170
38.94000 466.232
38.95000 448.143
38.96000 438.494
38.97000 431.352
38.98000 417.987
38.99000 392.251
39.00000 366.175
39.01000 347.018
39.02000 337.160
39.03000 327.357
39.04000 320.492
39.05000 316.207
39.06000 311.955
39.07000 309.633
39.08000 308.440
39.09000 307.211
39.10000 305.236
39.11000 302.963
39.12000 300.844
39.13000 294.548
39.14000 287.821
39.15000 281.318
39.16000 276.268
39.17000 271.480
39.18000 268.005
39.19000 270.088
39.20000 272.795
39.21000 274.833
39.22000 274.419
39.23000 273.976
39.24000 271.418
39.25000 264.716
39.26000 257.905
39.27000 256.454
39.28000 262.098
39.29000 267.771
39.30000 267.762
39.31000 262.863
39.32000 258.058
39.33000 258.465
39.34000 261.877
39.35000 265.144
39.36000 265.497
39.37000 264.702
39.38000 263.962
39.39000 256.296
39.40000 247.692
39.41000 241.166
39.42000 247.919
39.43000 257.025
39.44000 261.810
39.45000 248.579
39.46000 233.364
39.47000 221.958
39.48000 235.184
39.49000 246.674
39.50000 255.064
39.51000 257.468
39.52000 259.721
39.53000 257.903
39.54000 250.779
39.55000 243.640
39.56000 241.938
39.57000 244.839
39.58000 247.690
39.59000 247.817
39.60000 246.398
39.61000 245.041
39.62000 244.911
39.63000 245.256
39.64000 245.578
39.65000 247.235
39.66000 249.047
39.67000 250.124
39.68000 246.578
39.69000 242.227
39.70000 239.165
39.71000 241.397
39.72000 244.200
39.73000 246.293
39.74000 236.283
39.75000 227.927
39.76000 223.198
39.77000 225.372
39.78000 227.712
39.79000 231.926
39.80000 238.542
39.81000 245.160
39.82000 246.047
39.83000 242.161
39.84000 238.338
39.85000 237.728
39.86000 238.915
39.87000 239.906
39.88000 237.126
39.89000 232.904
39.90000 228.990
39.91000 233.118
39.92000 238.718
39.93000 243.373
39.94000 242.197
39.95000 240.022
39.96000 238.084
39.97000 237.105
39.98000 236.228
39.99000 235.576
40.00000 235.651
40.01000 235.741
40.02000 237.274
40.03000 241.512
40.04000 245.813
40.05000 245.433
40.06000 239.143
40.07000 232.842
40.08000 229.305
40.09000 228.043
40.10000 226.814
40.11000 227.203
40.12000 228.484
40.13000 229.583
40.14000 227.302
40.15000 223.745
40.16000 220.454
40.17000 220.389
40.18000 221.073
40.19000 222.186
40.20000 225.899
40.21000 230.050
40.22000 232.861
40.23000 230.338
40.24000 227.262
40.25000 224.984
40.26000 217.172
40.27000 210.870
40.28000 209.358
40.29000 216.703
40.30000 224.243
40.31000 227.735
40.32000 226.196
40.33000 224.644
40.34000 228.591
40.35000 236.951
40.36000 245.144
40.37000 245.705
40.38000 242.119
40.39000 238.536
40.40000 234.998
40.41000 231.478
40.42000 228.225
40.43000 229.843
40.44000 232.397
40.45000 234.095
40.46000 230.685
40.47000 226.430
40.48000 223.526
40.49000 225.924
40.50000 228.860
40.51000 231.026
40.52000 227.046
40.53000 223.704
40.54000 221.426
40.55000 221.083
40.56000 220.780
40.57000 217.172
40.58000 209.519
40.59000 201.870
40.60000 204.794
40.61000 216.080
40.62000 227.155
40.63000 228.981
40.64000 225.853
40.65000 222.808
40.66000 221.202
40.67000 220.123
40.68000 219.127
40.69000 219.283
40.70000 219.679
40.71000 220.299
40.72000 222.227
40.73000 224.368
40.74000 225.685
40.75000 223.817
40.76000 221.632
40.77000 220.027
40.78000 214.269
40.79000 209.650
40.80000 210.690
40.81000 221.891
40.82000 233.296
40.83000 235.445
40.84000 226.450
40.85000 217.450
40.86000 215.356
40.87000 218.652
40.88000 221.927
40.89000 224.262
40.90000 226.103
40.91000 227.670
40.92000 224.558
40.93000 219.757
40.94000 215.336
40.95000 220.659
40.96000 227.550
40.97000 233.150
40.98000 231.299
40.99000 228.257
41.00000 225.775
41.01000 225.427
41.02000 225.287
41.03000 225.185
41.04000 220.823
41.05000 217.290
41.06000 215.759
41.07000 217.772
41.08000 219.851
41.09000 221.126
41.10000 221.448
41.11000 221.768
41.12000 219.812
41.13000 216.124
41.14000 212.484
41.15000 210.794
41.16000 210.118
41.17000 209.564
41.18000 211.044
41.19000 213.249
41.20000 215.275
41.21000 216.778
41.22000 218.007
41.23000 218.971
41.24000 218.428
41.25000 217.648
41.26000 216.829
41.27000 215.865
41.28000 214.887
41.29000 214.174
41.30000 215.461
41.31000 216.527
41.32000 217.631
41.33000 218.798
41.34000 219.966
41.35000 220.334
41.36000 219.768
41.37000 219.203
41.38000 217.227
41.39000 214.200
41.40000 211.282
41.41000 212.528
41.42000 215.908
41.43000 219.044
41.44000 218.207
41.45000 215.976
41.46000 213.930
41.47000 215.004
41.48000 216.620
41.49000 217.488
41.50000 214.179
41.51000 210.225
41.52000 208.303
41.53000 213.885
41.54000 220.167
41.55000 224.721
41.56000 218.772
41.57000 213.812
41.58000 209.436
41.59000 206.062
41.60000 202.706
41.61000 202.921
41.62000 207.235
41.63000 211.540
41.64000 213.036
41.65000 212.437
41.66000 211.873
41.67000 212.600
41.68000 213.979
41.69000 215.079
41.70000 211.756
41.71000 206.905
41.72000 202.463
41.73000 208.972
41.74000 217.038
41.75000 224.287
41.76000 227.055
41.77000 229.142
41.78000 230.339
41.79000 228.294
41.80000 225.954
41.81000 224.264
41.82000 213.220
41.83000 204.416
41.84000 200.873
41.85000 206.231
41.86000 211.735
41.87000 214.768
41.88000 215.012
41.89000 215.252
41.90000 213.006
41.91000 208.963
41.92000 205.007
41.93000 204.160
41.94000 204.861
41.95000 205.597
41.96000 206.878
41.97000 208.343
41.98000 209.683
41.99000 207.916
42.00000 205.713
42.01000 203.257
42.02000 199.437
42.03000 195.413
42.04000 193.770
42.05000 200.662
42.06000 208.317
42.07000 213.817
42.08000 214.449
42.09000 214.763
42.10000 213.476
42.11000 209.518
42.12000 205.519
42.13000 203.381
42.14000 203.308
42.15000 203.236
42.16000 206.602
42.17000 212.408
42.18000 217.934
42.19000 213.954
42.20000 205.310
42.21000 197.318
42.22000 199.130
42.23000 204.232
42.24000 208.885
42.25000 204.799
42.26000 199.421
42.27000 195.963
42.28000 202.691
42.29000 210.911
42.30000 216.442
42.31000 212.472
42.32000 207.672
42.33000 204.238
42.34000 202.139
42.35000 200.582
42.36000 200.449
42.37000 202.656
42.38000 204.897
42.39000 206.502
42.40000 207.413
42.41000 208.320
42.42000 204.852
42.43000 198.326
42.44000 192.040
42.45000 193.643
42.46000 199.060
42.47000 204.217
42.48000 205.562
42.49000 205.646
42.50000 205.722
42.51000 201.557
42.52000 197.033
42.53000 193.750
42.54000 196.949
42.55000 201.081
42.56000 204.675
42.57000 206.398
42.58000 207.962
42.59000 209.075
42.60000 208.089
42.61000 207.270
42.62000 205.085
42.63000 200.691
42.64000 196.266
42.65000 196.689
42.66000 202.318
42.67000 207.924
42.68000 205.783
42.69000 198.278
42.70000 191.194
42.71000 197.388
42.72000 209.910
42.73000 221.479
42.74000 219.436
42.75000 212.956
42.76000 207.069
42.77000 211.923
42.78000 218.293
42.79000 222.839
42.80000 218.014
42.81000 211.864
42.82000 206.072
42.83000 201.504
42.84000 197.038
42.85000 193.872
42.86000 199.365
42.87000 203.813
42.88000 207.001
42.89000 208.180
42.90000 209.333
42.91000 209.289
42.92000 207.980
42.93000 206.676
42.94000 205.098
42.95000 203.350
42.96000 201.870
42.97000 208.566
42.98000 219.102
42.99000 228.514
43.00000 222.245
43.01000 210.941
43.02000 200.693
43.03000 201.540
43.04000 204.400
43.05000 206.834
43.06000 207.115
43.07000 207.097
43.08000 206.377
43.09000 203.287
43.10000 200.004
43.11000 197.688
43.12000 203.916
43.13000 208.902
43.14000 210.286
43.15000 206.016
43.16000 201.677
43.17000 202.099
43.18000 207.468
43.19000 212.809
43.20000 212.144
43.21000 207.444
43.22000 202.802
43.23000 199.849
43.24000 197.677
43.25000 196.326
43.26000 206.137
43.27000 219.482
43.28000 231.555
43.29000 221.280
43.30000 208.052
43.31000 196.844
43.32000 195.686
43.33000 195.899
43.34000 196.995
43.35000 201.028
43.36000 205.296
43.37000 208.294
43.38000 206.509
43.39000 205.018
43.40000 203.925
43.41000 203.447
43.42000 202.976
43.43000 201.408
43.44000 198.719
43.45000 196.046
43.46000 196.721
43.47000 199.607
43.48000 202.400
43.49000 202.613
43.50000 201.648
43.51000 200.704
43.52000 200.040
43.53000 199.464
43.54000 198.943
43.55000 197.964
43.56000 197.020
43.57000 196.204
43.58000 196.015
43.59000 195.911
43.60000 195.401
43.61000 193.563
43.62000 191.620
43.63000 190.262
43.64000 196.952
43.65000 202.235
43.66000 206.544
43.67000 209.368
43.68000 212.177
43.69000 210.853
43.70000 205.378
43.71000 199.936
43.72000 197.913
43.73000 198.146
43.74000 198.428
43.75000 200.046
43.76000 202.264
43.77000 204.080
43.78000 200.668
43.79000 195.650
43.80000 191.129
43.81000 192.928
43.82000 195.649
43.83000 198.337
43.84000 200.865
43.85000 203.372
43.86000 203.796
43.87000 197.490
43.88000 190.670
43.89000 185.925
43.90000 192.072
43.91000 197.003
43.92000 197.869
43.93000 192.633
43.94000 187.337
43.95000 185.763
43.96000 187.865
43.97000 189.954
43.98000 193.503
43.99000 197.937
44.00000 202.221
44.01000 202.534
44.02000 201.088
44.03000 199.466
44.04000 195.611
44.05000 191.080
44.06000 187.006
44.07000 187.279
44.08000 188.290
44.09000 190.464
44.10000 198.148
44.11000 206.544
44.12000 212.512
44.13000 210.751
44.14000 208.416
44.15000 206.798
44.16000 206.561
44.17000 206.419
44.18000 207.438
44.19000 210.174
44.20000 212.926
44.21000 212.573
44.22000 209.206
44.23000 205.863
44.24000 202.674
44.25000 199.632
44.26000 196.747
44.27000 197.848
44.28000 200.691
44.29000 203.464
44.30000 205.376
44.31000 207.030
44.32000 208.515
44.33000 208.590
44.34000 208.411
44.35000 208.743
44.36000 211.465
44.37000 214.489
44.38000 215.704
44.39000 211.242
44.40000 206.368
44.41000 203.009
44.42000 197.472
44.43000 193.260
44.44000 192.629
44.45000 197.213
44.46000 201.841
44.47000 205.968
44.48000 209.616
44.49000 213.236
44.50000 215.333
44.51000 216.447
44.52000 217.414
44.53000 214.743
44.54000 210.504
44.55000 206.961
44.56000 211.834
44.57000 219.181
44.58000 225.758
44.59000 224.284
44.60000 221.619
44.61000 219.886
44.62000 222.430
44.63000 225.506
44.64000 229.240
44.65000 235.009
44.66000 240.923
44.67000 244.978
44.68000 244.584
44.69000 244.181
44.70000 243.182
44.71000 241.328
44.72000 239.468
44.73000 239.569
44.74000 241.511
44.75000 243.436
44.76000 245.128
44.77000 246.646
44.78000 248.311
44.79000 253.474
44.80000 260.123
44.81000 266.484
44.82000 269.438
44.83000 271.404
44.84000 273.161
44.85000 278.372
44.86000 283.492
44.87000 288.980
44.88000 296.131
44.89000 303.483
44.90000 310.249
44.91000 315.225
44.92000 320.078
44.93000 323.389
44.94000 332.801
44.95000 339.980
44.96000 346.092
44.97000 350.697
44.98000 355.290
44.99000 360.075
45.00000 365.037
45.01000 369.955
45.02000 369.065
45.03000 364.695
45.04000 360.594
45.05000 362.685
45.06000 367.368
45.07000 372.311
45.08000 380.253
45.09000 389.052
45.10000 396.894
45.11000 385.427
45.12000 372.268
45.13000 363.325
45.14000 373.152
45.15000 385.225
45.16000 392.830
45.17000 387.022
45.18000 380.309
45.19000 375.751
45.20000 359.367
45.21000 346.878
45.22000 338.752
45.23000 336.693
45.24000 334.675
45.25000 334.769
45.26000 336.781
45.27000 338.774
45.28000 332.592
45.29000 321.692
45.30000 310.967
45.31000 304.149
45.32000 298.943
45.33000 294.160
45.34000 294.164
45.35000 295.515
45.36000 296.716
45.37000 290.153
45.38000 283.199
45.39000 276.849
45.40000 273.154
45.41000 269.770
45.42000 268.355
45.43000 272.764
45.44000 277.556
45.45000 280.793
45.46000 270.839
45.47000 263.146
45.48000 256.562
45.49000 251.500
45.50000 246.449
45.51000 243.541
45.52000 242.550
45.53000 241.569
45.54000 238.398
45.55000 234.018
45.56000 229.833
45.57000 229.890
45.58000 231.670
45.59000 233.229
45.60000 232.337
45.61000 230.767
45.62000 229.374
45.63000 225.631
45.64000 222.015
45.65000 219.175
45.66000 219.688
45.67000 220.586
45.68000 220.743
45.69000 218.740
45.70000 216.597
45.71000 215.157
45.72000 215.630
45.73000 216.021
45.74000 215.502
45.75000 213.754
45.76000 211.999
45.77000 208.838
45.78000 204.441
45.79000 200.090
45.80000 197.264
45.81000 195.375
45.82000 193.919
45.83000 201.565
45.84000 212.858
45.85000 222.661
45.86000 216.324
45.87000 205.582
45.88000 196.074
45.89000 188.493
45.90000 182.237
45.91000 178.270
45.92000 184.026
45.93000 190.879
45.94000 196.351
45.95000 197.852
45.96000 199.106
45.97000 199.944
45.98000 196.099
45.99000 193.156
46.00000 190.542
46.01000 188.367
46.02000 186.198
46.03000 187.160
46.04000 190.831
46.05000 194.462
46.06000 193.774
46.07000 190.664
46.08000 187.706
46.09000 187.861
46.10000 189.244
46.11000 190.380
46.12000 188.889
46.13000 186.691
46.14000 184.750
46.15000 182.281
46.16000 180.070
46.17000 178.500
46.18000 179.617
46.19000 181.030
46.20000 182.289
46.21000 183.110
46.22000 183.905
46.23000 184.434
46.24000 188.684
46.25000 191.899
46.26000 190.103
46.27000 181.758
46.28000 173.395
46.29000 171.453
46.30000 174.975
46.31000 178.456
46.32000 179.890
46.33000 180.151
46.34000 180.298
46.35000 178.170
46.36000 175.157
46.37000 172.319
46.38000 171.315
46.39000 170.797
46.40000 170.340
46.41000 169.629
46.42000 168.977
46.43000 168.811
46.44000 170.643
46.45000 172.691
46.46000 174.157
46.47000 173.997
46.48000 173.740
46.49000 173.570
46.50000 176.578
46.51000 178.856
46.52000 180.326
46.53000 180.757
46.54000 181.181
46.55000 179.890
46.56000 177.163
46.57000 174.470
46.58000 173.886
46.59000 174.472
46.60000 174.952
46.61000 173.401
46.62000 171.072
46.63000 169.174
46.64000 171.656
46.65000 175.280
46.66000 178.466
46.67000 178.548
46.68000 178.159
46.69000 177.624
46.70000 176.492
46.71000 175.297
46.72000 174.638
46.73000 175.452
46.74000 176.352
46.75000 176.944
46.76000 172.689
46.77000 169.472
46.78000 168.192
46.79000 169.368
46.80000 170.556
46.81000 173.244
46.82000 177.170
46.83000 181.045
46.84000 178.653
46.85000 172.952
46.86000 167.323
46.87000 163.054
46.88000 159.298
46.89000 156.018
46.90000 157.474
46.91000 160.146
46.92000 162.490
46.93000 165.996
46.94000 169.174
46.95000 171.318
46.96000 169.329
46.97000 166.910
46.98000 165.829
46.99000 168.376
47.00000 171.125
47.01000 172.926
47.02000 166.664
47.03000 161.930
47.04000 161.047
47.05000 164.965
47.06000 168.893
47.07000 170.820
47.08000 171.124
47.09000 171.425
47.10000 176.647
47.11000 184.332
47.12000 191.377
47.13000 186.770
47.14000 177.821
47.15000 169.438
47.16000 166.573
47.17000 165.104
47.18000 163.819
47.19000 163.635
47.20000 163.634
47.21000 163.858
47.22000 164.963
47.23000 166.158
47.24000 168.839
47.25000 175.493
47.26000 182.363
47.27000 186.837
47.28000 178.919
47.29000 172.919
47.30000 170.524
47.31000 172.552
47.32000 174.583
47.33000 173.522
47.34000 169.993
47.35000 166.514
47.36000 165.326
47.37000 165.367
47.38000 165.295
47.39000 163.236
47.40000 160.446
47.41000 158.196
47.42000 161.103
47.43000 165.295
47.44000 168.954
47.45000 171.431
47.46000 173.385
47.47000 174.425
47.48000 171.921
47.49000 169.062
47.50000 168.628
47.51000 174.579
47.52000 180.868
47.53000 184.941
47.54000 176.747
47.55000 170.569
47.56000 167.685
47.57000 168.781
47.58000 169.879
47.59000 169.173
47.60000 167.047
47.61000 164.954
47.62000 163.613
47.63000 162.699
47.64000 161.685
47.65000 158.966
47.66000 155.630
47.67000 153.045
47.68000 157.505
47.69000 163.695
47.70000 169.082
47.71000 170.706
47.72000 171.578
47.73000 171.554
47.74000 168.117
47.75000 164.345
47.76000 161.421
47.77000 160.697
47.78000 160.086
47.79000 159.693
47.80000 160.548
47.81000 161.191
47.82000 160.645
47.83000 158.686
47.84000 156.745
47.85000 159.923
47.86000 167.062
47.87000 174.087
47.88000 175.748
47.89000 174.646
47.90000 173.372
47.91000 169.192
47.92000 163.975
47.93000 159.280
47.94000 159.367
47.95000 160.611
47.96000 161.690
47.97000 164.470
47.98000 167.067
47.99000 168.835
48.00000 167.486
48.01000 165.839
48.02000 163.925
48.03000 161.328
48.04000 158.696
48.05000 157.011
48.06000 155.951
48.07000 155.188
48.08000 153.365
48.09000 150.302
48.10000 147.255
48.11000 148.239
48.12000 152.295
48.13000 156.283
48.14000 159.163
48.15000 161.396
48.16000 163.520
48.17000 163.867
48.18000 163.588
48.19000 163.403
48.20000 164.058
48.21000 164.914
48.22000 165.656
48.23000 170.922
48.24000 175.999
48.25000 179.102
48.26000 174.892
48.27000 169.997
48.28000 164.905
48.29000 159.320
48.30000 153.711
48.31000 150.140
48.32000 161.577
48.33000 170.080
48.34000 174.147
48.35000 173.108
48.36000 172.059
48.37000 170.254
48.38000 167.883
48.39000 165.553
48.40000 164.424
48.41000 163.920
48.42000 163.495
48.43000 164.327
48.44000 165.595
48.45000 166.695
48.46000 166.318
48.47000 165.594
48.48000 164.968
48.49000 161.852
48.50000 158.883
48.51000 156.502
48.52000 156.262
48.53000 156.219
48.54000 156.441
48.55000 157.321
48.56000 158.232
48.57000 158.808
48.58000 159.795
48.59000 160.515
48.60000 161.667
48.61000 163.310
48.62000 164.937
48.63000 163.741
48.64000 160.461
48.65000 157.240
48.66000 159.506
48.67000 164.335
48.68000 168.901
48.69000 169.400
48.70000 168.509
48.71000 167.540
48.72000 165.888
48.73000 164.079
48.74000 162.520
48.75000 160.246
48.76000 158.229
48.77000 157.560
48.78000 161.743
48.79000 166.361
48.80000 169.211
48.81000 167.731
48.82000 166.052
48.83000 164.995
48.84000 154.955
48.85000 147.588
48.86000 148.465
48.87000 158.527
48.88000 168.535
48.89000 168.602
48.90000 161.441
48.91000 154.417
48.92000 154.828
48.93000 158.751
48.94000 162.392
48.95000 161.779
48.96000 159.733
48.97000 157.792
48.98000 156.730
48.99000 155.867
49.00000 155.125
49.01000 154.216
49.02000 153.426
49.03000 153.720
49.04000 157.854
49.05000 162.326
49.06000 165.357
49.07000 164.907
49.08000 164.304
49.09000 163.926
49.10000 158.745
49.11000 154.955
49.12000 152.508
49.13000 151.535
49.14000 150.594
49.15000 154.525
49.16000 161.943
49.17000 169.213
49.18000 167.400
49.19000 161.418
49.20000 155.716
49.21000 154.144
49.22000 153.942
49.23000 153.759
49.24000 153.728
49.25000 153.732
49.26000 153.735
49.27000 152.848
49.28000 151.990
49.29000 151.340
49.30000 151.416
49.31000 151.554
49.32000 151.631
49.33000 151.566
49.34000 151.494
49.35000 151.449
49.36000 154.008
49.37000 155.878
49.38000 158.334
49.39000 161.424
49.40000 164.497
49.41000 165.353
49.42000 164.644
49.43000 163.950
49.44000 161.537
49.45000 158.430
49.46000 155.628
49.47000 157.221
49.48000 160.252
49.49000 163.149
49.50000 164.956
49.51000 166.523
49.52000 167.862
49.53000 164.196
49.54000 160.506
49.55000 157.696
49.56000 157.912
49.57000 158.383
49.58000 158.673
49.59000 158.541
49.60000 158.392
49.61000 158.300
49.62000 157.553
49.63000 157.010
49.64000 156.341
49.65000 155.536
49.66000 154.753
49.67000 156.555
49.68000 160.152
49.69000 163.671
49.70000 161.543
49.71000 156.949
49.72000 152.838
49.73000 155.505
49.74000 160.355
49.75000 164.279
49.76000 160.785
49.77000 155.684
49.78000 151.335
49.79000 147.493
49.80000 144.321
49.81000 142.419
49.82000 144.821
49.83000 147.577
49.84000 149.497
49.85000 149.484
49.86000 149.392
49.87000 149.336
49.88000 154.690
49.89000 158.577
49.90000 157.293
49.91000 150.620
49.92000 144.027
49.93000 146.843
49.94000 156.094
49.95000 165.136
49.96000 167.944
49.97000 167.860
49.98000 167.736
49.99000 167.064
50.00000 166.218
50.01000 165.087
50.02000 161.722
50.03000 157.880
50.04000 154.614
50.05000 161.699
50.06000 168.839
50.07000 174.138
50.08000 173.287
50.09000 171.942
50.10000 170.978
50.11000 170.880
50.12000 170.816
50.13000 170.776
50.14000 165.314
50.15000 161.363
50.16000 159.067
50.17000 158.469
50.18000 157.883
50.19000 158.476
50.20000 159.863
50.21000 161.218
50.22000 160.086
50.23000 157.913
50.24000 155.872
50.25000 155.600
50.26000 155.881
50.27000 156.361
50.28000 158.369
50.29000 160.697
50.30000 162.672
50.31000 168.686
50.32000 174.182
50.33000 177.637
50.34000 174.378
50.35000 170.593
50.36000 168.584
50.37000 170.564
50.38000 172.695
50.39000 173.989
50.40000 169.551
50.41000 166.340
50.42000 166.761
50.43000 170.844
50.44000 174.936
50.45000 179.970
50.46000 185.628
50.47000 191.148
50.48000 194.397
50.49000 196.523
50.50000 198.498
50.51000 198.491
50.52000 197.875
50.53000 197.365
50.54000 197.666
50.55000 198.135
50.56000 198.531
50.57000 207.342
50.58000 215.643
50.59000 222.051
50.60000 222.327
50.61000 222.132
50.62000 224.796
50.63000 233.789
50.64000 243.013
50.65000 248.578
50.66000 237.560
50.67000 229.597
50.68000 229.911
50.69000 238.428
50.70000 246.866
50.71000 247.944
50.72000 244.214
50.73000 240.577
50.74000 239.124
50.75000 238.664
50.76000 238.397
50.77000 240.597
50.78000 243.546
50.79000 245.805
50.80000 242.939
50.81000 239.030
50.82000 235.735
50.83000 232.820
50.84000 230.427
50.85000 227.314
50.86000 221.903
50.87000 216.319
50.88000 212.469
50.89000 212.404
50.90000 212.471
50.91000 212.511
50.92000 208.186
50.93000 205.086
50.94000 202.172
50.95000 199.439
50.96000 196.718
50.97000 195.023
50.98000 193.989
50.99000 192.981
51.00000 189.540
51.01000 185.244
51.02000 181.358
51.03000 182.576
51.04000 185.321
51.05000 187.495
51.06000 185.503
51.07000 182.678
51.08000 180.303
51.09000 178.242
51.10000 176.557
51.11000 175.034
51.12000 174.023
51.13000 173.049
51.14000 172.647
51.15000 173.476
51.16000 174.347
51.17000 174.866
51.18000 165.822
51.19000 159.356
51.20000 158.139
51.21000 161.953
51.22000 165.698
51.23000 163.913
51.24000 158.621
51.25000 153.473
51.26000 152.344
51.27000 152.921
51.28000 153.401
51.29000 152.693
51.30000 151.636
51.31000 151.341
51.32000 156.511
51.33000 162.758
51.34000 167.995
51.35000 160.216
51.36000 152.393
51.37000 146.660
51.38000 147.405
51.39000 148.611
51.40000 148.819
51.41000 146.906
51.42000 144.924
51.43000 143.751
51.44000 144.766
51.45000 145.496
51.46000 149.206
51.47000 155.724
51.48000 162.131
51.49000 160.072
51.50000 152.723
51.51000 145.584
51.52000 146.597
51.53000 150.859
51.54000 154.902
51.55000 156.342
51.56000 157.026
51.57000 157.505
51.58000 156.550
51.59000 155.316
51.60000 154.285
51.61000 151.359
51.62000 148.737
51.63000 146.505
51.64000 145.465
51.65000 144.507
51.66000 144.334
51.67000 145.800
51.68000 147.318
51.69000 148.211
51.70000 147.284
51.71000 146.622
51.72000 146.627
51.73000 147.252
51.74000 147.877
51.75000 148.472
51.76000 149.050
51.77000 149.611
51.78000 149.669
51.79000 149.523
51.80000 149.262
51.81000 147.653
51.82000 145.657
51.83000 143.714
51.84000 142.130
51.85000 140.615
51.86000 139.352
51.87000 142.851
51.88000 146.225
51.89000 148.607
51.90000 148.003
51.91000 147.196
51.92000 145.258
51.93000 140.991
51.94000 136.654
51.95000 134.120
51.96000 136.929
51.97000 138.931
51.98000 141.248
51.99000 143.853
52.00000 146.425
52.01000 146.741
52.02000 145.689
52.03000 144.670
52.04000 147.210
52.05000 151.013
52.06000 154.271
52.07000 151.351
52.08000 146.688
52.09000 142.431
52.10000 140.931
52.11000 139.949
52.12000 139.133
52.13000 141.253
52.14000 143.292
52.15000 144.383
52.16000 142.655
52.17000 140.742
52.18000 140.328
52.19000 142.959
52.20000 145.679
52.21000 147.258
52.22000 146.150
52.23000 145.362
52.24000 145.097
52.25000 145.302
52.26000 145.518
52.27000 146.419
52.28000 147.730
52.29000 148.999
52.30000 147.949
52.31000 146.061
52.32000 144.279
52.33000 143.674
52.34000 143.397
52.35000 143.509
52.36000 146.228
52.37000 149.427
52.38000 152.077
52.39000 151.231
52.40000 150.198
52.41000 148.175
52.42000 143.253
52.43000 138.145
52.44000 135.327
52.45000 137.091
52.46000 138.984
52.47000 140.075
52.48000 138.893
52.49000 138.058
52.50000 137.869
52.51000 138.249
52.52000 138.593
52.53000 136.745
52.54000 133.609
52.55000 130.574
52.56000 132.922
52.57000 137.183
52.58000 140.766
52.59000 136.974
52.60000 131.161
52.61000 126.067
52.62000 125.677
52.63000 126.140
52.64000 126.523
52.65000 130.131
52.66000 133.405
52.67000 136.115
52.68000 137.197
52.69000 138.177
52.70000 138.062
52.71000 135.788
52.72000 133.455
52.73000 132.120
52.74000 137.067
52.75000 140.539
52.76000 140.237
52.77000 136.659
52.78000 133.159
52.79000 134.119
52.80000 137.666
52.81000 141.094
52.82000 144.970
52.83000 148.792
52.84000 152.249
52.85000 151.808
52.86000 150.316
52.87000 148.512
52.88000 144.700
52.89000 140.529
52.90000 137.094
52.91000 139.878
52.92000 142.735
52.93000 143.915
52.94000 140.330
52.95000 136.454
52.96000 134.869
52.97000 137.738
52.98000 140.722
52.99000 142.419
53.00000 147.140
53.01000 150.433
53.02000 149.946
53.03000 146.230
53.04000 142.548
53.05000 140.725
53.06000 139.965
53.07000 139.231
53.08000 142.220
53.09000 146.404
53.10000 149.994
53.11000 147.395
53.12000 143.151
53.13000 140.013
53.14000 143.871
53.15000 148.956
53.16000 153.131
53.17000 154.749
53.18000 155.849
53.19000 155.826
53.20000 152.659
53.21000 149.305
53.22000 147.895
53.23000 150.210
53.24000 152.616
53.25000 153.975
53.26000 157.776
53.27000 160.418
53.28000 159.301
53.29000 155.024
53.30000 150.813
53.31000 149.952
53.32000 150.976
53.33000 151.964
53.34000 153.457
53.35000 155.043
53.36000 156.471
53.37000 156.291
53.38000 155.689
53.39000 155.052
53.40000 154.200
53.41000 153.311
53.42000 152.584
53.43000 152.697
53.44000 152.864
53.45000 153.050
53.46000 153.291
53.47000 153.535
53.48000 152.166
53.49000 147.753
53.50000 143.268
53.51000 140.754
53.52000 146.237
53.53000 150.045
53.54000 148.325
53.55000 142.032
53.56000 135.882
53.57000 136.745
53.58000 141.499
53.59000 146.076
53.60000 151.987
53.61000 158.010
53.62000 163.319
53.63000 161.479
53.64000 157.798
53.65000 154.073
53.66000 150.082
53.67000 146.046
53.68000 142.754
53.69000 144.701
53.70000 146.742
53.71000 148.327
53.72000 148.668
53.73000 148.940
53.74000 148.230
53.75000 145.695
53.76000 143.119
53.77000 141.685
53.78000 142.503
53.79000 143.082
53.80000 146.872
53.81000 153.277
53.82000 159.523
53.83000 158.324
53.84000 153.055
53.85000 147.986
53.86000 145.450
53.87000 143.960
53.88000 142.153
53.89000 137.249
53.90000 131.559
53.91000 127.410
53.92000 132.516
53.93000 139.168
53.94000 144.577
53.95000 138.221
53.96000 132.050
53.97000 129.728
53.98000 137.724
53.99000 146.287
54.00000 151.177
54.01000 149.335
54.02000 147.348
54.03000 146.250
54.04000 141.226
54.05000 137.766
54.06000 138.331
54.07000 142.121
54.08000 145.866
54.09000 147.615
54.10000 148.289
54.11000 148.936
54.12000 149.569
54.13000 150.157
54.14000 150.557
54.15000 149.152
54.16000 147.295
54.17000 145.320
54.18000 142.650
54.19000 139.867
54.20000 137.610
54.21000 140.861
54.22000 143.959
54.23000 146.775
54.24000 148.845
54.25000 150.875
54.26000 150.128
54.27000 144.367
54.28000 138.502
54.29000 135.285
54.30000 145.125
54.31000 151.886
54.32000 150.069
54.33000 141.488
54.34000 133.079
54.35000 132.090
54.36000 135.041
54.37000 137.872
54.38000 138.820
54.39000 139.067
54.40000 139.463
54.41000 141.259
54.42000 143.399
54.43000 145.332
54.44000 146.066
54.45000 146.606
54.46000 147.042
54.47000 142.754
54.48000 138.889
54.49000 136.482
54.50000 137.872
54.51000 139.459
54.52000 141.001
54.53000 142.466
54.54000 143.929
54.55000 144.725
54.56000 147.492
54.57000 149.386
54.58000 149.223
54.59000 147.463
54.60000 145.708
54.61000 144.121
54.62000 142.623
54.63000 141.187
54.64000 141.963
54.65000 143.426
54.66000 144.804
54.67000 145.409
54.68000 145.827
54.69000 145.914
54.70000 144.115
54.71000 142.016
54.72000 140.326
54.73000 135.835
54.74000 131.971
54.75000 132.265
54.76000 143.229
54.77000 154.730
54.78000 158.306
54.79000 147.983
54.80000 137.401
54.81000 131.682
54.82000 136.842
54.83000 140.376
54.84000 141.613
54.85000 141.094
54.86000 140.608
54.87000 141.386
54.88000 142.817
54.89000 144.186
54.90000 143.151
54.91000 141.397
54.92000 139.675
54.93000 138.242
54.94000 136.878
54.95000 135.604
54.96000 134.838
54.97000 134.151
54.98000 133.599
54.99000 137.109
55.00000 140.263
55.01000 142.978
55.02000 144.586
55.03000 146.140
55.04000 146.427
55.05000 144.524
55.06000 142.581
55.07000 141.540
55.08000 147.326
55.09000 151.270
55.10000 152.609
55.11000 151.989
55.12000 151.396
55.13000 151.860
55.14000 152.860
55.15000 153.816
55.16000 146.662
55.17000 137.386
55.18000 129.551
55.19000 134.474
55.20000 142.397
55.21000 148.751
55.22000 146.437
55.23000 142.795
55.24000 139.882
55.25000 138.453
55.26000 137.409
55.27000 137.858
55.28000 142.029
55.29000 146.376
55.30000 151.174
55.31000 156.738
55.32000 162.315
55.33000 165.283
55.34000 162.302
55.35000 160.293
55.36000 162.835
55.37000 168.750
55.38000 174.550
55.39000 176.214
55.40000 175.807
55.41000 175.418
55.42000 176.477
55.43000 177.921
55.44000 179.627
55.45000 183.608
55.46000 188.114
55.47000 191.761
55.48000 190.733
55.49000 189.001
55.50000 187.621
55.51000 190.843
55.52000 193.778
55.53000 196.897
55.54000 200.467
55.55000 204.058
55.56000 209.899
55.57000 219.514
55.58000 229.189
55.59000 234.298
55.60000 231.282
55.61000 229.260
55.62000 232.224
55.63000 238.824
55.64000 245.506
55.65000 254.994
55.66000 265.867
55.67000 276.231
55.68000 286.314
55.69000 295.576
55.70000 305.205
55.71000 317.968
55.72000 331.444
55.73000 345.219
55.74000 360.586
55.75000 376.189
55.76000 388.586
55.77000 399.922
55.78000 408.976
55.79000 417.405
55.80000 424.320
55.81000 431.167
55.82000 443.773
55.83000 465.897
55.84000 488.163
55.85000 499.829
55.86000 519.694
55.87000 533.146
55.88000 545.985
55.89000 558.382
55.90000 570.534
55.91000 574.511
55.92000 574.511
55.93000 574.510
55.94000 586.524
55.95000 601.345
55.96000 614.214
55.97000 610.780
55.98000 603.686
55.99000 596.910
56.00000 591.804
56.01000 586.940
56.02000 583.089
56.03000 572.200
56.04000 562.960
56.05000 553.265
56.06000 542.481
56.07000 531.650
56.08000 521.495
56.09000 512.443
56.10000 503.407
56.11000 498.710
56.12000 480.003
56.13000 467.370
56.14000 455.364
56.15000 443.802
56.16000 432.022
56.17000 413.262
56.18000 391.153
56.19000 370.140
56.20000 361.881
56.21000 358.115
56.22000 353.015
56.23000 336.983
56.24000 318.535
56.25000 301.959
56.26000 295.071
56.27000 289.564
56.28000 285.219
56.29000 280.831
56.30000 277.309
56.31000 271.414
56.32000 259.936
56.33000 248.224
56.34000 238.070
56.35000 230.417
56.36000 222.798
56.37000 218.869
56.38000 211.369
56.39000 206.325
56.40000 202.212
56.41000 198.748
56.42000 195.286
56.43000 191.907
56.44000 188.567
56.45000 185.397
56.46000 186.640
56.47000 189.103
56.48000 190.773
56.49000 186.074
56.50000 179.989
56.51000 174.829
56.52000 174.374
56.53000 174.577
56.54000 174.737
56.55000 173.196
56.56000 171.849
56.57000 170.613
56.58000 169.631
56.59000 168.660
56.60000 167.237
56.61000 165.100
56.62000 162.953
56.63000 161.855
56.64000 160.189
56.65000 159.074
56.66000 158.479
56.67000 158.241
56.68000 157.975
56.69000 156.902
56.70000 155.452
56.71000 154.078
56.72000 148.267
56.73000 141.612
56.74000 136.215
56.75000 140.736
56.76000 147.380
56.77000 153.066
56.78000 153.949
56.79000 154.172
56.80000 154.346
56.81000 152.083
56.82000 150.117
56.83000 149.152
56.84000 150.477
56.85000 151.892
56.86000 150.488
56.87000 144.694
56.88000 138.849
56.89000 135.885
56.90000 137.324
56.91000 138.270
56.92000 137.373
56.93000 135.230
56.94000 133.219
56.95000 134.979
56.96000 138.471
56.97000 141.776
56.98000 142.444
56.99000 142.298
57.00000 141.786
57.01000 138.448
57.02000 134.514
57.03000 131.942
57.04000 136.087
57.05000 141.138
57.06000 145.081
57.07000 143.938
57.08000 142.707
57.09000 140.585
57.10000 136.455
57.11000 132.249
57.12000 129.335
57.13000 128.400
57.14000 127.488
57.15000 127.029
57.16000 127.914
57.17000 128.531
57.18000 131.813
57.19000 136.867
57.20000 141.753
57.21000 141.953
57.22000 140.033
57.23000 138.218
57.24000 134.116
57.25000 129.701
57.26000 126.512
57.27000 132.642
57.28000 140.704
57.29000 147.305
57.30000 146.815
57.31000 145.385
57.32000 144.273
57.33000 144.851
57.34000 145.415
57.35000 144.038
57.36000 138.351
57.37000 132.505
57.38000 130.292
57.39000 133.566
57.40000 136.896
57.41000 134.754
57.42000 127.168
57.43000 119.649
57.44000 118.339
57.45000 121.102
57.46000 123.829
57.47000 125.616
57.48000 126.984
57.49000 128.275
57.50000 128.050
57.51000 127.420
57.52000 126.530
57.53000 123.700
57.54000 120.475
57.55000 117.955
57.56000 118.800
57.57000 120.084
57.58000 121.079
57.59000 122.063
57.60000 122.844
57.61000 124.672
57.62000 128.794
57.63000 132.997
57.64000 134.061
57.65000 130.451
57.66000 126.797
57.67000 125.154
57.68000 125.478
57.69000 125.795
57.70000 125.542
57.71000 124.921
57.72000 124.222
57.73000 121.529
57.74000 117.959
57.75000 114.596
57.76000 117.144
57.77000 121.101
57.78000 124.929
57.79000 127.818
57.80000 130.518
57.81000 132.048
57.82000 128.072
57.83000 123.393
57.84000 119.781
57.85000 126.154
57.86000 131.789
57.87000 134.183
57.88000 129.586
57.89000 124.750
57.90000 123.641
57.91000 127.994
57.92000 132.395
57.93000 133.307
57.94000 130.864
57.95000 128.447
57.96000 128.147
57.97000 129.195
57.98000 130.196
57.99000 130.007
58.00000 129.302
58.01000 128.640
58.02000 126.571
58.03000 124.301
58.04000 122.104
58.05000 120.433
58.06000 118.867
58.07000 117.567
58.08000 117.503
58.09000 117.594
58.10000 117.664
58.11000 124.192
58.12000 129.724
58.13000 133.436
58.14000 133.277
58.15000 132.991
58.16000 133.692
58.17000 135.816
58.18000 137.951
58.19000 137.121
58.20000 133.488
58.21000 129.847
58.22000 125.640
58.23000 121.078
58.24000 116.716
58.25000 117.169
58.26000 119.680
58.27000 122.038
58.28000 127.138
58.29000 132.519
58.30000 136.649
58.31000 131.945
58.32000 125.524
58.33000 119.961
58.34000 118.307
58.35000 117.135
58.36000 116.236
58.37000 119.831
58.38000 122.918
58.39000 124.942
58.40000 124.735
58.41000 124.458
58.42000 125.021
58.43000 126.780
58.44000 128.547
58.45000 129.241
58.46000 128.937
58.47000 128.644
58.48000 129.238
58.49000 130.379
58.50000 131.318
58.51000 127.534
58.52000 121.760
58.53000 116.346
58.54000 119.375
58.55000 124.340
58.56000 128.430
58.57000 126.446
58.58000 123.299
58.59000 121.103
58.60000 123.166
58.61000 125.743
58.62000 127.710
58.63000 127.920
58.64000 127.992
58.65000 128.176
58.66000 128.592
58.67000 129.015
58.68000 127.425
58.69000 123.017
58.70000 118.591
58.71000 118.134
58.72000 121.306
58.73000 124.426
58.74000 124.055
58.75000 121.561
58.76000 119.163
58.77000 118.960
58.78000 119.667
58.79000 120.329
58.80000 120.834
58.81000 121.253
58.82000 121.913
58.83000 124.216
58.84000 126.829
58.85000 128.130
58.86000 123.644
58.87000 118.472
58.88000 114.539
58.89000 116.269
58.90000 117.926
58.91000 120.312
58.92000 124.185
58.93000 128.101
58.94000 128.875
58.95000 125.316
58.96000 121.732
58.97000 117.871
58.98000 113.764
58.99000 109.761
59.00000 112.507
59.01000 119.297
59.02000 125.790
59.03000 125.761
59.04000 123.065
59.05000 120.544
59.06000 121.002
59.07000 122.171
59.08000 123.098
59.09000 122.400
59.10000 121.402
59.11000 120.811
59.12000 121.990
59.13000 123.374
59.14000 124.423
59.15000 117.182
59.16000 111.076
59.17000 108.570
59.18000 113.290
59.19000 118.212
59.20000 121.249
59.21000 121.723
59.22000 122.184
59.23000 119.825
59.24000 114.978
59.25000 110.268
59.26000 113.910
59.27000 122.486
59.28000 130.642
59.29000 129.845
59.30000 125.438
59.31000 121.327
59.32000 119.057
59.33000 117.459
59.34000 116.302
59.35000 118.050
59.36000 120.327
59.37000 121.545
59.38000 118.233
59.39000 114.406
59.40000 111.518
59.41000 111.282
59.42000 111.229
59.43000 112.755
59.44000 117.405
59.45000 122.141
59.46000 124.677
59.47000 124.274
59.48000 123.857
59.49000 124.908
59.50000 127.235
59.51000 129.513
59.52000 128.922
59.53000 126.662
59.54000 124.445
59.55000 123.120
59.56000 122.150
59.57000 121.247
59.58000 119.977
59.59000 118.738
59.60000 117.778
59.61000 118.620
59.62000 119.784
59.63000 120.750
59.64000 120.883
59.65000 120.923
59.66000 120.954
59.67000 119.880
59.68000 118.988
59.69000 118.361
59.70000 118.251
59.71000 118.155
59.72000 118.557
59.73000 119.616
59.74000 120.676
59.75000 122.165
59.76000 124.016
59.77000 125.795
59.78000 123.649
59.79000 119.252
59.80000 115.073
59.81000 115.266
59.82000 117.171
59.83000 118.944
59.84000 121.394
59.85000 123.769
59.86000 125.125
59.87000 120.009
59.88000 113.752
59.89000 110.091
59.90000 117.200
59.91000 125.487
59.92000 131.690
59.93000 128.345
59.94000 125.288
59.95000 123.488
59.96000 124.101
59.97000 124.774
59.98000 124.479
59.99000 122.930
60.00000 121.377
60.01000 121.029
60.02000 121.696
60.03000 122.326
60.04000 121.026
60.05000 118.635
60.06000 116.429
60.07000 117.836
60.08000 120.637
60.09000 123.238
60.10000 126.577
60.11000 129.763
60.12000 132.011
60.13000 128.409
60.14000 123.794
60.15000 120.258
60.16000 121.129
60.17000 122.474
60.18000 123.476
60.19000 123.600
60.20000 123.657
60.21000 122.446
60.22000 118.835
60.23000 115.166
60.24000 114.653
60.25000 118.164
60.26000 121.686
60.27000 122.624
60.28000 121.422
60.29000 120.208
60.30000 118.370
60.31000 116.185
60.32000 114.161
60.33000 115.198
60.34000 117.399
60.35000 119.439
60.36000 118.509
60.37000 116.981
60.38000 116.331
60.39000 121.065
60.40000 126.717
60.41000 129.952
60.42000 123.468
60.43000 115.963
60.44000 110.391
60.45000 111.331
60.46000 112.349
60.47000 113.740
60.48000 115.827
60.49000 117.929
60.50000 118.943
60.51000 118.591
60.52000 118.236
60.53000 118.353
60.54000 118.855
60.55000 119.343
60.56000 119.210
60.57000 118.736
60.58000 118.243
60.59000 117.406
60.60000 116.441
60.61000 115.548
60.62000 115.880
60.63000 116.458
60.64000 116.679
60.65000 114.747
60.66000 112.454
60.67000 111.001
60.68000 112.875
60.69000 115.091
60.70000 116.729
60.71000 116.480
60.72000 116.206
60.73000 114.302
60.74000 109.399
60.75000 104.432
60.76000 104.028
60.77000 109.264
60.78000 114.507
60.79000 116.799
60.80000 116.718
60.81000 116.603
60.82000 114.965
60.83000 112.504
60.84000 110.262
60.85000 111.934
60.86000 115.054
60.87000 117.935
60.88000 119.232
60.89000 120.038
60.90000 120.765
60.91000 121.017
60.92000 121.192
60.93000 121.439
60.94000 121.967
60.95000 122.524
60.96000 122.934
60.97000 117.599
60.98000 113.231
60.99000 111.845
61.00000 115.863
61.01000 119.992
61.02000 120.602
61.03000 116.932
61.04000 113.258
61.05000 111.750
61.06000 111.953
61.07000 112.275
61.08000 117.727
61.09000 125.911
61.10000 133.478
61.11000 130.277
61.12000 123.152
61.13000 116.585
61.14000 119.793
61.15000 124.827
61.16000 129.257
61.17000 130.161
61.18000 130.495
61.19000 130.695
61.20000 130.380
61.21000 130.014
61.22000 129.745
61.23000 125.444
61.24000 121.959
61.25000 120.672
61.26000 123.310
61.27000 126.025
61.28000 130.354
61.29000 136.615
61.30000 142.867
61.31000 142.312
61.32000 136.485
61.33000 130.705
61.34000 126.850
61.35000 124.005
61.36000 121.414
61.37000 123.144
61.38000 126.425
61.39000 129.443
61.40000 133.984
61.41000 138.374
61.42000 142.100
61.43000 142.024
61.44000 141.342
61.45000 141.657
61.46000 145.745
61.47000 150.197
61.48000 153.448
61.49000 160.218
61.50000 165.575
61.51000 174.147
61.52000 188.378
61.53000 202.714
61.54000 223.446
61.55000 251.711
61.56000 279.920
61.57000 301.270
61.58000 317.262
61.59000 333.339
61.60000 352.816
61.61000 374.052
61.62000 394.567
61.63000 403.164
61.64000 407.542
61.65000 411.563
61.66000 421.302
61.67000 431.214
61.68000 439.400
61.69000 437.853
61.70000 434.785
61.71000 432.099
61.72000 430.839
61.73000 429.714
61.74000 428.897
61.75000 399.510
61.76000 375.821
61.77000 353.443
61.78000 333.340
61.79000 313.277
61.80000 291.347
61.81000 267.252
61.82000 243.221
61.83000 223.011
61.84000 205.805
61.85000 188.767
61.86000 178.107
61.87000 170.698
61.88000 163.460
61.89000 158.960
61.90000 155.417
61.91000 152.169
61.92000 148.450
61.93000 145.039
61.94000 141.932
61.95000 140.508
61.96000 139.343
61.97000 138.435
61.98000 138.475
61.99000 138.602
62.00000 138.694
62.01000 139.563
62.02000 140.259
62.03000 140.547
62.04000 140.138
62.05000 139.716
62.06000 139.116
62.07000 138.312
62.08000 137.509
62.09000 134.160
62.10000 128.956
62.11000 123.875
62.12000 123.290
62.13000 124.963
62.14000 126.567
62.15000 127.098
62.16000 127.259
62.17000 127.406
62.18000 130.394
62.19000 133.637
62.20000 136.782
62.21000 139.389
62.22000 141.915
62.23000 143.936
62.24000 144.133
62.25000 144.164
62.26000 144.186
62.27000 136.961
62.28000 131.169
62.29000 128.659
62.30000 131.674
62.31000 134.779
62.32000 134.287
62.33000 129.761
62.34000 125.246
62.35000 127.449
62.36000 134.510
62.37000 141.404
62.38000 142.418
62.39000 140.520
62.40000 138.635
62.41000 136.941
62.42000 135.312
62.43000 133.825
62.44000 133.109
62.45000 132.629
62.46000 132.163
62.47000 131.768
62.48000 131.384
62.49000 131.683
62.50000 134.417
62.51000 137.368
62.52000 139.485
62.53000 140.171
62.54000 140.647
62.55000 141.089
62.56000 141.477
62.57000 141.863
62.58000 140.663
62.59000 137.712
62.60000 134.771
62.61000 133.041
62.62000 132.192
62.63000 131.393
62.64000 132.236
62.65000 133.882
62.66000 135.271
62.67000 132.843
62.68000 129.139
62.69000 125.764
62.70000 126.773
62.71000 128.542
62.72000 130.228
62.73000 131.476
62.74000 132.660
62.75000 134.227
62.76000 137.142
62.77000 140.173
62.78000 142.339
62.79000 139.277
62.80000 136.768
62.81000 135.014
62.82000 134.495
62.83000 133.993
62.84000 136.674
62.85000 142.809
62.86000 148.921
62.87000 146.994
62.88000 139.438
62.89000 132.042
62.90000 129.856
62.91000 130.176
62.92000 130.333
62.93000 128.121
62.94000 125.130
62.95000 122.409
62.96000 126.317
62.97000 131.073
62.98000 134.875
62.99000 133.728
63.00000 131.872
63.01000 131.843
63.02000 138.134
63.03000 144.962
63.04000 149.817
63.05000 140.382
63.06000 132.740
63.07000 130.407
63.08000 136.623
63.09000 142.954
63.10000 148.277
63.11000 152.524
63.12000 156.752
63.13000 155.252
63.14000 149.807
63.15000 144.437
63.16000 141.392
63.17000 139.450
63.18000 137.669
63.19000 138.173
63.20000 139.418
63.21000 140.547
63.22000 140.357
63.23000 139.934
63.24000 139.781
63.25000 141.004
63.26000 142.421
63.27000 143.638
63.28000 144.171
63.29000 144.648
63.30000 144.986
63.31000 143.506
63.32000 142.326
63.33000 140.935
63.34000 139.211
63.35000 137.482
63.36000 139.419
63.37000 145.207
63.38000 150.966
63.39000 151.200
63.40000 147.670
63.41000 144.227
63.42000 143.383
63.43000 143.752
63.44000 143.974
63.45000 142.153
63.46000 139.680
63.47000 137.439
63.48000 138.935
63.49000 140.962
63.50000 143.456
63.51000 148.306
63.52000 153.480
63.53000 156.160
63.54000 150.463
63.55000 144.086
63.56000 139.593
63.57000 139.911
63.58000 140.296
63.59000 141.947
63.60000 145.576
63.61000 149.229
63.62000 150.037
63.63000 147.906
63.64000 145.786
63.65000 145.292
63.66000 145.893
63.67000 146.497
63.68000 147.162
63.69000 147.857
63.70000 148.462
63.71000 147.874
63.72000 146.909
63.73000 146.037
63.74000 145.612
63.75000 145.320
63.76000 145.013
63.77000 144.624
63.78000 144.225
63.79000 144.817
63.80000 148.690
63.81000 152.822
63.82000 155.721
63.83000 151.649
63.84000 148.366
63.85000 146.221
63.86000 145.827
63.87000 145.452
63.88000 148.123
63.89000 153.887
63.90000 159.618
63.91000 162.516
63.92000 163.509
63.93000 164.413
63.94000 162.870
63.95000 160.216
63.96000 157.804
63.97000 158.590
63.98000 160.369
63.99000 161.973
64.00000 159.883
64.01000 157.371
64.02000 155.941
64.03000 159.773
64.04000 164.306
64.05000 167.667
64.06000 167.206
64.07000 166.450
64.08000 165.922
64.09000 163.800
64.10000 162.154
64.11000 159.221
64.12000 154.336
64.13000 149.431
64.14000 146.801
64.15000 146.441
64.16000 146.083
64.17000 148.576
64.18000 152.883
64.19000 157.104
64.20000 159.021
64.21000 159.908
64.22000 160.835
64.23000 162.298
64.24000 163.923
64.25000 165.387
64.26000 162.756
64.27000 159.714
64.28000 157.511
64.29000 159.332
64.30000 161.678
64.31000 163.700
64.32000 164.678
64.33000 165.578
64.34000 166.202
64.35000 170.997
64.36000 174.721
64.37000 175.182
64.38000 170.771
64.39000 166.312
64.40000 164.309
64.41000 164.717
64.42000 165.122
64.43000 166.252
64.44000 167.827
64.45000 169.457
64.46000 172.491
64.47000 176.147
64.48000 179.420
64.49000 177.893
64.50000 174.919
64.51000 172.248
64.52000 171.596
64.53000 171.383
64.54000 171.509
64.55000 173.237
64.56000 175.170
64.57000 177.216
64.58000 179.620
64.59000 182.049
64.60000 183.729
64.61000 178.313
64.62000 174.058
64.63000 170.859
64.64000 169.213
64.65000 167.581
64.66000 168.230
64.67000 171.081
64.68000 173.911
64.69000 175.853
64.70000 177.207
64.71000 178.506
64.72000 178.440
64.73000 177.780
64.74000 177.182
64.75000 177.333
64.76000 177.708
64.77000 178.043
64.78000 186.558
64.79000 195.413
64.80000 202.395
64.81000 200.682
64.82000 197.875
64.83000 195.478
64.84000 194.363
64.85000 193.339
64.86000 192.635
64.87000 192.607
64.88000 192.602
64.89000 195.295
64.90000 201.896
64.91000 208.527
64.92000 207.336
64.93000 198.718
64.94000 190.168
64.95000 188.409
64.96000 190.876
64.97000 193.340
64.98000 195.731
64.99000 198.090
65.00000 200.877
65.01000 208.798
65.02000 218.222
65.03000 226.651
65.04000 227.696
65.05000 227.351
65.06000 227.097
65.07000 227.265
65.08000 227.485
65.09000 227.540
65.10000 227.088
65.11000 226.600
65.12000 226.265
65.13000 228.574
65.14000 230.365
65.15000 233.743
65.16000 239.384
65.17000 245.042
65.18000 250.404
65.19000 255.492
65.20000 260.537
65.21000 262.698
65.22000 263.066
65.23000 263.697
65.24000 270.557
65.25000 280.046
65.26000 288.739
65.27000 288.066
65.28000 284.695
65.29000 281.686
65.30000 288.063
65.31000 295.183
65.32000 301.473
65.33000 304.029
65.34000 306.133
65.35000 310.800
65.36000 323.235
65.37000 336.202
65.38000 345.035
65.39000 355.680
65.40000 363.675
65.41000 367.967
65.42000 367.057
65.43000 366.116
65.44000 377.006
65.45000 398.759
65.46000 420.319
65.47000 430.627
65.48000 434.002
65.49000 437.751
65.50000 450.061
65.51000 465.934
65.52000 481.435
65.53000 492.663
65.54000 502.677
65.55000 511.595
65.56000 521.165
65.57000 529.588
65.58000 540.536
65.59000 562.660
65.60000 586.113
65.61000 613.376
65.62000 652.019
65.63000 691.422
65.64000 718.129
65.65000 779.018
65.66000 825.167
65.67000 892.144
65.68000 987.935
65.69000 1083.936
65.70000 1222.610
65.71000 1399.825
65.72000 1575.365
65.73000 1765.794
65.74000 1961.107
65.75000 2156.015
65.76000 2341.960
65.77000 2524.227
65.78000 2703.162
65.79000 2844.672
65.80000 2975.712
65.81000 3092.140
65.82000 3135.476
65.83000 3161.280
65.84000 3182.821
65.85000 3185.779
65.86000 3186.571
65.87000 3184.208
65.88000 3172.556
65.89000 3160.300
65.90000 3152.035
65.91000 3059.319
65.92000 2988.557
65.93000 2893.154
65.94000 2764.181
65.95000 2634.968
65.96000 2450.450
65.97000 2216.795
65.98000 1985.487
65.99000 1769.650
66.00000 1567.418
66.01000 1367.264
66.02000 1211.728
66.03000 1074.239
66.04000 941.427
66.05000 860.007
66.06000 792.750
66.07000 733.128
66.08000 679.253
66.09000 633.519
66.10000 591.682
66.11000 566.571
66.12000 543.372
66.13000 525.002
66.14000 520.643
66.15000 517.174
66.16000 514.847
66.17000 509.957
66.18000 506.274
66.19000 501.281
66.20000 494.528
66.21000 487.781
66.22000 494.507
66.23000 513.011
66.24000 531.318
66.25000 558.240
66.26000 589.469
66.27000 620.896
66.28000 656.448
66.29000 693.643
66.30000 730.137
66.31000 759.084
66.32000 785.982
66.33000 809.772
66.34000 842.066
66.35000 871.296
66.36000 895.861
66.37000 900.713
66.38000 903.355
66.39000 903.846
66.40000 898.186
66.41000 892.146
66.42000 888.114
66.43000 901.910
66.44000 912.475
66.45000 911.796
66.46000 896.267
66.47000 880.669
66.48000 864.822
66.49000 848.762
66.50000 832.884
66.51000 796.136
66.52000 748.540
66.53000 701.597
66.54000 667.866
66.55000 639.326
66.56000 610.982
66.57000 584.704
66.58000 558.978
66.59000 536.279
66.60000 511.052
66.61000 488.906
66.62000 471.714
66.63000 475.140
66.64000 480.831
66.65000 481.407
66.66000 467.569
66.67000 452.863
66.68000 443.098
66.69000 441.697
66.70000 440.816
66.71000 443.607
66.72000 451.172
66.73000 458.747
66.74000 461.154
66.75000 459.188
66.76000 457.244
66.77000 455.291
66.78000 453.380
66.79000 451.504
66.80000 450.302
66.81000 449.361
66.82000 448.121
66.83000 443.796
66.84000 438.658
66.85000 434.135
66.86000 443.397
66.87000 453.436
66.88000 460.487
66.89000 455.292
66.90000 448.777
66.91000 445.181
66.92000 449.687
66.93000 454.668
66.94000 457.958
66.95000 449.083
66.96000 442.322
66.97000 439.503
66.98000 441.731
66.99000 443.990
67.00000 452.451
67.01000 466.078
67.02000 479.534
67.03000 485.299
67.04000 486.733
67.05000 488.047
67.06000 487.092
67.07000 485.271
67.08000 483.104
67.09000 477.454
67.10000 470.900
67.11000 465.145
67.12000 475.431
67.13000 486.630
67.14000 495.047
67.15000 492.238
67.16000 488.245
67.17000 487.841
67.18000 497.261
67.19000 507.243
67.20000 513.800
67.21000 506.076
67.22000 500.150
67.23000 495.139
67.24000 491.280
67.25000 487.440
67.26000 489.385
67.27000 496.073
67.28000 502.672
67.29000 507.323
67.30000 510.805
67.31000 514.107
67.32000 514.072
67.33000 512.781
67.34000 512.070
67.35000 517.088
67.36000 523.571
67.37000 529.250
67.38000 530.552
67.39000 531.039
67.40000 529.962
67.41000 522.667
67.42000 514.730
67.43000 510.891
67.44000 518.108
67.45000 525.939
67.46000 531.056
67.47000 531.678
67.48000 532.062
67.49000 534.647
67.50000 539.963
67.51000 545.277
67.52000 547.424
67.53000 547.016
67.54000 546.614
67.55000 548.988
67.56000 552.759
67.57000 555.914
67.58000 547.958
67.59000 535.882
67.60000 525.853
67.61000 535.638
67.62000 550.411
67.63000 563.323
67.64000 564.903
67.65000 564.652
67.66000 565.912
67.67000 573.084
67.68000 580.855
67.69000 584.969
67.70000 579.357
67.71000 573.221
67.72000 569.234
67.73000 580.579
67.74000 589.127
67.75000 593.904
67.76000 594.076
67.77000 594.228
67.78000 591.654
67.79000 586.915
67.80000 582.246
67.81000 586.069
67.82000 594.183
67.83000 602.057
67.84000 605.698
67.85000 607.794
67.86000 609.718
67.87000 610.020
67.88000 609.921
67.89000 609.833
67.90000 609.042
67.91000 608.268
67.92000 608.945
67.93000 615.216
67.94000 622.043
67.95000 627.501
67.96000 629.374
67.97000 631.058
67.98000 632.147
67.99000 627.217
68.00000 623.525
68.01000 626.536
68.02000 637.601
68.03000 648.654
68.04000 651.910
68.05000 649.073
68.06000 646.280
68.07000 643.793
68.08000 641.539
68.09000 640.042
68.10000 651.452
68.11000 667.513
68.12000 682.292
68.13000 685.156
68.14000 685.111
68.15000 685.073
68.16000 682.009
68.17000 678.982
68.18000 676.657
68.19000 676.997
68.20000 677.595
68.21000 682.131
68.22000 696.840
68.23000 712.067
68.24000 721.854
68.25000 708.244
68.26000 697.992
68.27000 701.226
68.28000 720.403
68.29000 739.595
68.30000 755.727
68.31000 769.503
68.32000 783.056
68.33000 787.715
68.34000 787.758
68.35000 787.965
68.36000 790.904
68.37000 794.813
68.38000 799.670
68.39000 813.169
68.40000 828.745
68.41000 842.257
68.42000 845.805
68.43000 847.494
68.44000 848.772
68.45000 848.509
68.46000 848.100
68.47000 854.426
68.48000 877.904
68.49000 902.231
68.50000 917.778
68.51000 925.953
68.52000 931.806
68.53000 948.526
68.54000 977.889
68.55000 1007.286
68.56000 1040.473
68.57000 1076.529
68.58000 1111.973
68.59000 1154.981
68.60000 1200.299
68.61000 1246.173
68.62000 1301.023
68.63000 1359.015
68.64000 1417.217
68.65000 1477.299
68.66000 1537.827
68.67000 1590.200
68.68000 1673.151
68.69000 1747.680
68.70000 1822.789
68.71000 1900.034
68.72000 1977.479
68.73000 2058.733
68.74000 2149.547
68.75000 2240.821
68.76000 2298.824
68.77000 2375.310
68.78000 2431.085
68.79000 2516.420
68.80000 2635.588
68.81000 2754.794
68.82000 2873.997
68.83000 2993.196
68.84000 3110.275
68.85000 3333.334
68.86000 3600.287
68.87000 3877.416
68.88000 4314.947
68.89000 4807.796
68.90000 5366.286
68.91000 6499.504
68.92000 7766.697
68.93000 8860.360
68.94000 12077.567
68.95000 15080.732
68.96000 18489.604
68.97000 23371.436
68.98000 28387.404
68.99000 33693.723
69.00000 39718.258
69.01000 45776.273
69.02000 49603.984
69.03000 56247.746
69.04000 61094.828
69.05000 64947.430
69.06000 67680.180
69.07000 70406.695
69.08000 72218.352
69.09000 73358.117
69.10000 74476.688
69.11000 75678.969
69.12000 76878.375
69.13000 78069.055
69.14000 79125.664
69.15000 80136.703
69.16000 81055.336
69.17000 81180.516
69.18000 81123.594
69.19000 81074.586
69.20000 78024.977
69.21000 75063.438
69.22000 71756.813
69.23000 67215.875
69.24000 62564.961
69.25000 58147.445
69.26000 54298.984
69.27000 50476.246
69.28000 48074.875
69.29000 44565.219
69.30000 42015.613
69.31000 40163.039
69.32000 39082.629
69.33000 38004.180
69.34000 37156.551
69.35000 36475.848
69.36000 35808.371
69.37000 34562.227
69.38000 33089.355
69.39000 31546.402
69.40000 28954.092
69.41000 26010.285
69.42000 23060.059
69.43000 20055.795
69.44000 17039.318
69.45000 14449.468
69.46000 11890.462
69.47000 9730.793
69.48000 7754.814
69.49000 6426.113
69.50000 5153.822
69.51000 4078.600
69.52000 3476.967
69.53000 2896.082
69.54000 2533.318
69.55000 2231.732
69.56000 2014.831
69.57000 1848.371
69.58000 1736.876
69.59000 1625.545
69.60000 1534.131
69.61000 1456.902
69.62000 1381.238
69.63000 1319.574
69.64000 1266.769
69.65000 1214.582
69.66000 1171.406
69.67000 1131.205
69.68000 1091.249
69.69000 1053.312
69.70000 1015.824
69.71000 983.723
69.72000 961.663
69.73000 944.265
69.74000 925.738
69.75000 903.290
69.76000 880.509
69.77000 858.794
69.78000 839.605
69.79000 820.522
69.80000 808.676
69.81000 782.087
69.82000 762.808
69.83000 745.915
69.84000 731.579
69.85000 717.277
69.86000 707.275
69.87000 700.289
69.88000 693.450
69.89000 681.969
69.90000 668.821
69.91000 655.946
69.92000 646.954
69.93000 639.225
69.94000 631.529
69.95000 624.097
69.96000 616.721
69.97000 610.423
69.98000 610.616
69.99000 611.551
70.00000 611.899
