20.00000 473.093
20.01000 479.011
20.02000 485.774
20.03000 490.703
20.04000 488.400
20.05000 485.357
20.06000 483.110
20.07000 474.898
20.08000 468.280
20.09000 468.316
20.10000 480.536
20.11000 493.017
20.12000 500.025
20.13000 500.300
20.14000 500.558
20.15000 501.696
20.16000 503.533
20.17000 505.057
20.18000 492.660
20.19000 472.769
20.20000 454.228
20.21000 459.671
20.22000 473.941
20.23000 487.111
20.24000 485.983
20.25000 481.770
20.26000 478.695
20.27000 482.328
20.28000 487.059
20.29000 490.149
20.30000 486.863
20.31000 482.938
20.32000 480.052
20.33000 470.739
20.34000 463.271
20.35000 462.281
20.36000 472.982
20.37000 483.922
20.38000 483.701
20.39000 469.968
20.40000 456.231
20.41000 456.864
20.42000 468.756
20.43000 480.530
20.44000 487.305
20.45000 491.428
20.46000 495.214
20.47000 493.167
20.48000 489.004
20.49000 485.169
20.50000 478.644
20.51000 472.214
20.52000 467.439
20.53000 472.270
20.54000 478.648
20.55000 483.815
20.56000 484.351
20.57000 484.432
20.58000 484.491
20.59000 481.456
20.60000 478.990
20.61000 477.547
20.62000 477.926
20.63000 478.339
20.64000 475.850
20.65000 469.902
20.66000 463.961
20.67000 461.463
20.68000 461.634
20.69000 461.813
20.70000 462.293
20.71000 462.930
20.72000 463.698
20.73000 466.665
20.74000 470.418
20.75000 473.869
20.76000 478.267
20.77000 482.402
20.78000 484.703
20.79000 476.544
20.80000 466.731
20.81000 458.693
20.82000 457.347
20.83000 456.644
20.84000 456.131
20.85000 451.565
20.86000 447.891
20.87000 447.673
20.88000 453.512
20.89000 459.463
20.90000 466.699
20.91000 475.441
20.92000 484.164
20.93000 486.288
20.94000 483.391
20.95000 480.438
20.96000 475.257
20.97000 468.930
20.98000 462.976
20.99000 463.152
21.00000 465.488
21.01000 467.632
21.02000 464.508
21.03000 460.601
21.04000 457.624
21.05000 459.868
21.06000 462.923
21.07000 465.474
21.08000 466.149
21.09000 466.647
21.10000 467.009
21.11000 464.923
21.12000 463.226
21.13000 462.674
21.14000 464.095
21.15000 465.552
21.16000 466.386
21.17000 466.502
21.18000 466.616
21.19000 464.787
21.20000 461.518
21.21000 458.432
21.22000 462.180
21.23000 469.398
21.24000 476.102
21.25000 474.586
21.26000 470.215
21.27000 466.212
21.28000 465.625
21.29000 465.816
21.30000 467.111
21.31000 474.499
21.32000 482.817
21.33000 489.134
21.34000 488.135
21.35000 486.463
21.36000 485.254
21.37000 479.759
21.38000 475.387
21.39000 474.427
21.40000 479.270
21.41000 484.209
21.42000 482.535
21.43000 473.355
21.44000 464.197
21.45000 459.310
21.46000 457.596
21.47000 455.928
21.48000 455.874
21.49000 456.629
21.50000 457.713
21.51000 463.936
21.52000 471.918
21.53000 479.215
21.54000 480.346
21.55000 480.083
21.56000 480.009
21.57000 480.956
21.58000 482.056
21.59000 484.634
21.60000 492.537
21.61000 500.919
21.62000 506.952
21.63000 495.378
21.64000 485.898
21.65000 477.723
21.66000 471.735
21.67000 465.782
21.68000 463.869
21.69000 466.466
21.70000 469.057
21.71000 471.089
21.72000 472.699
21.73000 474.264
21.74000 474.235
21.75000 473.421
21.76000 472.823
21.77000 475.495
21.78000 479.271
21.79000 482.716
21.80000 486.469
21.81000 489.862
21.82000 492.818
21.83000 493.445
21.84000 493.729
21.85000 495.622
21.86000 503.228
21.87000 511.337
21.88000 517.148
21.89000 516.128
21.90000 515.116
21.91000 512.865
21.92000 508.564
21.93000 504.234
21.94000 502.942
21.95000 504.990
21.96000 507.031
21.97000 518.681
21.98000 537.052
21.99000 555.172
22.00000 564.949
22.01000 570.672
22.02000 576.153
22.03000 578.063
22.04000 578.785
22.05000 579.443
22.06000 580.669
22.07000 581.868
22.08000 582.121
22.09000 577.411
22.10000 571.981
22.11000 568.511
22.12000 571.896
22.13000 575.870
22.14000 578.706
22.15000 584.490
22.16000 588.997
22.17000 588.839
22.18000 581.089
22.19000 573.233
22.20000 572.343
22.21000 578.977
22.22000 585.586
22.23000 583.596
22.24000 575.612
22.25000 567.834
22.26000 566.616
22.27000 568.542
22.28000 569.925
22.29000 563.489
22.30000 554.491
22.31000 546.312
22.32000 544.021
22.33000 543.144
22.34000 541.317
22.35000 534.583
22.36000 527.151
22.37000 521.641
22.38000 522.753
22.39000 524.423
22.40000 525.609
22.41000 508.078
22.42000 494.143
22.43000 489.458
22.44000 499.600
22.45000 509.938
22.46000 513.109
22.47000 508.666
22.48000 504.241
22.49000 500.933
22.50000 498.430
22.51000 495.890
22.52000 492.208
22.53000 487.986
22.54000 484.019
22.55000 483.632
22.56000 484.400
22.57000 485.096
22.58000 478.237
22.59000 470.735
22.60000 464.657
22.61000 465.818
22.62000 467.992
22.63000 469.132
22.64000 466.760
22.65000 464.100
22.66000 462.219
22.67000 456.756
22.68000 452.497
22.69000 450.591
22.70000 452.402
22.71000 454.258
22.72000 457.479
22.73000 462.126
22.74000 466.749
22.75000 461.740
22.76000 450.266
22.77000 439.031
22.78000 434.836
22.79000 433.918
22.80000 433.550
22.81000 440.727
22.82000 450.304
22.83000 458.974
22.84000 461.193
22.85000 461.933
22.86000 460.870
22.87000 450.790
22.88000 439.473
22.89000 431.762
22.90000 436.113
22.91000 441.434
22.92000 445.178
22.93000 452.671
22.94000 458.459
22.95000 460.179
22.96000 455.570
22.97000 450.888
22.98000 449.066
22.99000 450.183
23.00000 451.294
23.01000 448.873
23.02000 444.128
23.03000 439.468
23.04000 437.234
23.05000 436.114
23.06000 434.969
23.07000 433.483
23.08000 431.891
23.09000 430.453
23.10000 433.685
23.11000 437.392
23.12000 439.409
23.13000 433.116
23.14000 425.703
23.15000 421.471
23.16000 427.725
23.17000 434.804
23.18000 439.761
23.19000 449.829
23.20000 457.590
23.21000 458.791
23.22000 449.944
23.23000 440.988
23.24000 436.612
23.25000 436.864
23.26000 437.114
23.27000 435.432
23.28000 432.506
23.29000 429.642
23.30000 428.508
23.31000 428.156
23.32000 428.017
23.33000 430.672
23.34000 434.191
23.35000 437.363
23.36000 440.855
23.37000 443.977
23.38000 445.170
23.39000 437.016
23.40000 427.625
23.41000 420.986
23.42000 423.287
23.43000 426.275
23.44000 428.358
23.45000 435.030
23.46000 440.191
23.47000 440.612
23.48000 433.876
23.49000 427.069
23.50000 426.871
23.51000 433.241
23.52000 439.569
23.53000 437.827
23.54000 430.902
23.55000 424.132
23.56000 421.486
23.57000 420.677
23.58000 420.504
23.59000 428.450
23.60000 438.868
23.61000 448.240
23.62000 442.045
23.63000 433.835
23.64000 427.600
23.65000 430.779
23.66000 435.182
23.67000 438.855
23.68000 440.193
23.69000 441.355
23.70000 442.162
23.71000 444.638
23.72000 446.546
23.73000 446.895
23.74000 444.924
23.75000 442.931
23.76000 440.435
23.77000 437.449
23.78000 434.484
23.79000 432.876
23.80000 432.155
23.81000 431.698
23.82000 438.049
23.83000 447.392
23.84000 456.085
23.85000 456.672
23.86000 454.826
23.87000 453.170
23.88000 460.745
23.89000 468.990
23.90000 475.061
23.91000 470.927
23.92000 465.493
23.93000 461.123
23.94000 460.111
23.95000 459.345
23.96000 458.816
23.97000 463.262
23.98000 466.730
23.99000 467.610
24.00000 464.700
24.01000 461.757
24.02000 462.161
24.03000 465.779
24.04000 469.371
24.05000 464.746
24.06000 455.063
24.07000 445.751
24.08000 445.668
24.09000 449.582
24.10000 453.047
24.11000 451.034
24.12000 447.402
24.13000 444.148
24.14000 447.730
24.15000 452.036
24.16000 456.579
24.17000 462.213
24.18000 467.984
24.19000 469.961
24.20000 460.149
24.21000 449.494
24.22000 442.175
24.23000 438.298
24.24000 435.475
24.25000 433.388
24.26000 432.360
24.27000 431.341
24.28000 431.169
24.29000 431.797
24.30000 432.420
24.31000 431.615
24.32000 429.945
24.33000 428.449
24.34000 431.145
24.35000 435.630
24.36000 439.562
24.37000 436.898
24.38000 432.314
24.39000 428.217
24.40000 432.935
24.41000 438.540
24.42000 442.995
24.43000 442.217
24.44000 440.797
24.45000 438.019
24.46000 431.084
24.47000 423.860
24.48000 418.921
24.49000 418.811
24.50000 418.842
24.51000 421.541
24.52000 428.028
24.53000 434.542
24.54000 435.786
24.55000 432.136
24.56000 428.517
24.57000 428.210
24.58000 429.912
24.59000 431.231
24.60000 423.596
24.61000 412.194
24.62000 401.669
24.63000 401.374
24.64000 404.015
24.65000 406.369
24.66000 406.137
24.67000 405.506
24.68000 404.920
24.69000 404.537
24.70000 404.179
24.71000 404.323
24.72000 405.983
24.73000 407.746
24.74000 408.945
24.75000 397.823
24.76000 389.239
24.77000 386.639
24.78000 392.405
24.79000 398.225
24.80000 399.765
24.81000 397.394
24.82000 395.045
24.83000 400.982
24.84000 411.738
24.85000 421.955
24.86000 419.952
24.87000 412.884
24.88000 406.685
24.89000 410.387
24.90000 416.888
24.91000 422.673
24.92000 418.538
24.93000 413.328
24.94000 408.721
24.95000 406.769
24.96000 405.130
24.97000 405.339
24.98000 411.044
24.99000 417.113
25.00000 421.220
25.01000 424.033
25.02000 426.101
25.03000 425.131
25.04000 419.975
25.05000 414.796
25.06000 412.946
25.07000 414.087
25.08000 415.217
25.09000 417.019
25.10000 419.177
25.11000 420.979
25.12000 414.972
25.13000 405.774
25.14000 397.442
25.15000 398.764
25.16000 402.775
25.17000 406.336
25.18000 406.706
25.19000 406.516
25.20000 405.420
25.21000 400.392
25.22000 394.909
25.23000 392.404
25.24000 398.628
25.25000 405.416
25.26000 409.987
25.27000 399.313
25.28000 391.060
25.29000 390.918
25.30000 401.777
25.31000 412.688
25.32000 412.646
25.33000 402.920
25.34000 393.294
25.35000 398.573
25.36000 412.336
25.37000 425.284
25.38000 420.877
25.39000 409.482
25.40000 398.522
25.41000 392.318
25.42000 387.418
25.43000 383.078
25.44000 391.444
25.45000 400.684
25.46000 408.193
25.47000 408.308
25.48000 407.584
25.49000 406.324
25.50000 403.516
25.51000 400.611
25.52000 398.664
25.53000 396.502
25.54000 394.894
25.55000 392.809
25.56000 390.089
25.57000 387.371
25.58000 389.145
25.59000 394.827
25.60000 400.448
25.61000 402.333
25.62000 402.055
25.63000 401.927
25.64000 404.920
25.65000 409.151
25.66000 412.869
25.67000 411.096
25.68000 407.839
25.69000 404.960
25.70000 409.641
25.71000 414.852
25.72000 418.893
25.73000 418.007
25.74000 416.572
25.75000 414.490
25.76000 410.565
25.77000 406.526
25.78000 403.835
25.79000 397.153
25.80000 392.130
25.81000 393.822
25.82000 404.341
25.83000 414.875
25.84000 407.887
25.85000 385.901
25.86000 364.168
25.87000 364.012
25.88000 375.918
25.89000 387.915
25.90000 401.752
25.91000 416.309
25.92000 428.713
25.93000 418.596
25.94000 402.483
25.95000 388.276
25.96000 388.250
25.97000 390.379
25.98000 392.242
25.99000 393.005
26.00000 393.647
26.01000 391.957
26.02000 383.725
26.03000 375.101
26.04000 369.385
26.05000 383.277
26.06000 393.898
26.07000 396.806
26.08000 389.733
26.09000 382.632
26.10000 382.262
26.11000 387.560
26.12000 392.795
26.13000 389.136
26.14000 380.677
26.15000 372.964
26.16000 379.740
26.17000 392.103
26.18000 402.940
26.19000 398.148
26.20000 389.257
26.21000 381.436
26.22000 385.369
26.23000 390.505
26.24000 394.330
26.25000 392.809
26.26000 390.716
26.27000 389.070
26.28000 388.665
26.29000 388.331
26.30000 388.111
26.31000 391.797
26.32000 394.583
26.33000 395.143
26.34000 392.869
26.35000 390.582
26.36000 387.255
26.37000 383.067
26.38000 378.933
26.39000 377.541
26.40000 377.670
26.41000 377.847
26.42000 378.922
26.43000 380.339
26.44000 381.424
26.45000 379.190
26.46000 376.098
26.47000 373.385
26.48000 376.051
26.49000 379.126
26.50000 381.854
26.51000 383.179
26.52000 384.357
26.53000 386.402
26.54000 390.807
26.55000 395.346
26.56000 398.323
26.57000 390.555
26.58000 384.662
26.59000 383.987
26.60000 389.853
26.61000 395.720
26.62000 393.389
26.63000 384.372
26.64000 375.477
26.65000 377.749
26.66000 385.909
26.67000 393.745
26.68000 395.616
26.69000 395.251
26.70000 394.819
26.71000 393.714
26.72000 392.439
26.73000 391.322
26.74000 383.827
26.75000 376.486
26.76000 371.136
26.77000 373.664
26.78000 377.001
26.79000 379.201
26.80000 378.341
26.81000 377.314
26.82000 376.644
26.83000 375.703
26.84000 375.009
26.85000 374.528
26.86000 374.309
26.87000 374.091
26.88000 373.680
26.89000 373.113
26.90000 372.554
26.91000 371.704
26.92000 370.725
26.93000 370.078
26.94000 375.374
26.95000 382.864
26.96000 389.698
26.97000 390.231
26.98000 389.185
26.99000 388.271
27.00000 383.162
27.01000 378.200
27.02000 374.499
27.03000 375.713
27.04000 377.422
27.05000 380.582
27.06000 387.584
27.07000 394.791
27.08000 399.467
27.09000 382.291
27.10000 369.384
27.11000 364.167
27.12000 368.292
27.13000 372.430
27.14000 374.249
27.15000 374.233
27.16000 374.217
27.17000 378.191
27.18000 384.104
27.19000 389.768
27.20000 391.082
27.21000 390.814
27.22000 390.208
27.23000 386.419
27.24000 381.845
27.25000 377.861
27.26000 374.144
27.27000 371.005
27.28000 369.561
27.29000 374.618
27.30000 380.316
27.31000 382.422
27.32000 375.154
27.33000 367.398
27.34000 362.393
27.35000 367.079
27.36000 370.642
27.37000 372.831
27.38000 373.377
27.39000 373.928
27.40000 376.677
27.41000 381.136
27.42000 385.524
27.43000 383.440
27.44000 378.133
27.45000 373.039
27.46000 371.564
27.47000 371.387
27.48000 370.952
27.49000 368.135
27.50000 364.740
27.51000 361.790
27.52000 358.493
27.53000 355.636
27.54000 354.232
27.55000 358.329
27.56000 362.957
27.57000 368.083
27.58000 374.489
27.59000 380.959
27.60000 385.110
27.61000 385.138
27.62000 385.103
27.63000 381.527
27.64000 373.788
27.65000 366.075
27.66000 366.306
27.67000 372.621
27.68000 378.831
27.69000 380.196
27.70000 379.092
27.71000 378.265
27.72000 381.981
27.73000 387.303
27.74000 391.185
27.75000 382.030
27.76000 369.754
27.77000 359.113
27.78000 355.627
27.79000 353.610
27.80000 352.636
27.81000 355.541
27.82000 358.814
27.83000 362.016
27.84000 365.043
27.85000 368.062
27.86000 369.988
27.87000 361.029
27.88000 354.373
27.89000 355.314
27.90000 365.051
27.91000 374.772
27.92000 378.673
27.93000 378.188
27.94000 377.710
27.95000 373.558
27.96000 367.736
27.97000 362.462
27.98000 365.976
27.99000 372.551
28.00000 378.120
28.01000 374.763
28.02000 369.302
28.03000 364.580
28.04000 369.005
28.05000 373.957
28.06000 377.133
28.07000 373.798
28.08000 369.860
28.09000 366.333
28.10000 363.833
28.11000 361.382
28.12000 359.827
28.13000 371.124
28.14000 379.480
28.15000 381.197
28.16000 375.352
28.17000 369.525
28.18000 368.657
28.19000 371.471
28.20000 374.233
28.21000 372.202
28.22000 367.920
28.23000 364.010
28.24000 365.920
28.25000 369.828
28.26000 373.676
28.27000 377.010
28.28000 380.224
28.29000 382.997
28.30000 372.121
28.31000 361.152
28.32000 353.373
28.33000 357.122
28.34000 361.913
28.35000 365.158
28.36000 364.591
28.37000 363.848
28.38000 363.380
28.39000 361.410
28.40000 359.966
28.41000 362.209
28.42000 368.584
28.43000 374.924
28.44000 374.849
28.45000 370.085
28.46000 365.411
28.47000 365.844
28.48000 368.696
28.49000 371.247
28.50000 369.212
28.51000 365.624
28.52000 362.844
28.53000 366.961
28.54000 372.653
28.55000 377.549
28.56000 367.138
28.57000 356.405
28.58000 348.828
28.59000 352.485
28.60000 357.137
28.61000 360.258
28.62000 359.662
28.63000 358.900
28.64000 358.422
28.65000 351.819
28.66000 346.982
28.67000 348.929
28.68000 358.357
28.69000 367.721
28.70000 366.833
28.71000 358.564
28.72000 350.458
28.73000 349.038
28.74000 350.809
28.75000 352.780
28.76000 357.713
28.77000 363.634
28.78000 368.874
28.79000 368.412
28.80000 366.667
28.81000 365.171
28.82000 366.729
28.83000 368.421
28.84000 368.216
28.85000 361.359
28.86000 353.925
28.87000 348.232
28.88000 346.703
28.89000 345.355
28.90000 344.515
28.91000 348.649
28.92000 351.679
28.93000 353.682
28.94000 354.570
28.95000 355.445
28.96000 354.462
28.97000 352.164
28.98000 349.912
28.99000 350.985
29.00000 353.552
29.01000 355.753
29.02000 352.641
29.03000 347.782
29.04000 344.095
29.05000 350.037
29.06000 358.112
29.07000 365.021
29.08000 363.314
29.09000 360.836
29.10000 359.276
29.11000 360.892
29.12000 362.777
29.13000 364.364
29.14000 365.245
29.15000 366.096
29.16000 366.624
29.17000 365.837
29.18000 365.258
29.19000 360.605
29.20000 351.607
29.21000 342.674
29.22000 342.318
29.23000 347.950
29.24000 353.461
29.25000 360.039
29.26000 366.840
29.27000 373.152
29.28000 372.550
29.29000 369.710
29.30000 367.053
29.31000 365.873
29.32000 365.016
29.33000 364.284
29.34000 355.445
29.35000 347.046
29.36000 341.628
29.37000 346.361
29.38000 351.933
29.39000 355.258
29.40000 353.359
29.41000 351.246
29.42000 349.945
29.43000 339.692
29.44000 332.255
29.45000 331.355
29.46000 337.312
29.47000 343.276
29.48000 350.025
29.49000 357.313
29.50000 364.438
29.51000 362.556
29.52000 356.721
29.53000 350.950
29.54000 346.059
29.55000 341.449
29.56000 337.710
29.57000 340.858
29.58000 345.484
29.59000 349.421
29.60000 347.835
29.61000 345.862
29.62000 343.486
29.63000 339.753
29.64000 335.911
29.65000 335.013
29.66000 340.860
29.67000 346.973
29.68000 350.715
29.69000 358.210
29.70000 363.607
29.71000 368.471
29.72000 372.784
29.73000 377.040
29.74000 374.960
29.75000 368.591
29.76000 362.369
29.77000 362.436
29.78000 365.271
29.79000 367.566
29.80000 362.580
29.81000 355.304
29.82000 349.524
29.83000 355.357
29.84000 363.641
29.85000 370.672
29.86000 367.055
29.87000 362.812
29.88000 361.151
29.89000 368.024
29.90000 375.572
29.91000 381.091
29.92000 382.026
29.93000 382.787
29.94000 383.249
29.95000 392.952
29.96000 399.955
29.97000 402.571
29.98000 400.740
29.99000 398.921
30.00000 398.375
30.01000 398.678
30.02000 398.973
30.03000 397.445
30.04000 395.193
30.05000 392.916
30.06000 390.305
30.07000 387.590
30.08000 385.777
30.09000 390.828
30.10000 397.306
30.11000 402.789
30.12000 402.608
30.13000 401.826
30.14000 400.226
30.15000 395.963
30.16000 391.494
30.17000 389.176
30.18000 391.645
30.19000 394.290
30.20000 395.890
30.21000 398.095
30.22000 399.670
30.23000 402.304
30.24000 405.992
30.25000 409.644
30.26000 409.774
30.27000 407.589
30.28000 405.460
30.29000 401.005
30.30000 395.760
30.31000 390.586
30.32000 386.328
30.33000 382.351
30.34000 378.959
30.35000 379.944
30.36000 381.823
30.37000 383.409
30.38000 381.020
30.39000 378.590
30.40000 374.877
30.41000 367.046
30.42000 358.905
30.43000 356.901
30.44000 368.363
30.45000 380.302
30.46000 387.476
30.47000 375.501
30.48000 366.858
30.49000 365.866
30.50000 372.375
30.51000 378.787
30.52000 376.618
30.53000 368.895
30.54000 361.374
30.55000 365.396
30.56000 374.079
30.57000 381.868
30.58000 378.434
30.59000 371.622
30.60000 366.037
30.61000 369.454
30.62000 374.682
30.63000 379.083
30.64000 377.327
30.65000 375.205
30.66000 373.618
30.67000 373.724
30.68000 373.954
30.69000 373.591
30.70000 371.944
30.71000 370.253
30.72000 369.243
30.73000 375.319
30.74000 379.673
30.75000 381.813
30.76000 381.819
30.77000 381.838
30.78000 382.896
30.79000 384.616
30.80000 386.289
30.81000 388.471
30.82000 390.758
30.83000 392.825
30.84000 392.197
30.85000 390.770
30.86000 389.489
30.87000 389.259
30.88000 389.237
30.89000 389.219
30.90000 393.721
30.91000 397.943
30.92000 400.633
30.93000 398.554
30.94000 396.131
30.95000 398.544
30.96000 411.263
30.97000 424.323
30.98000 432.071
30.99000 424.575
31.00000 419.184
31.01000 419.615
31.02000 425.565
31.03000 431.594
31.04000 443.802
31.05000 459.891
31.06000 475.530
31.07000 478.944
31.08000 477.217
31.09000 476.009
31.10000 481.033
31.11000 487.878
31.12000 497.877
31.13000 530.197
31.14000 566.870
31.15000 597.554
31.16000 625.467
31.17000 648.375
31.18000 670.882
31.19000 692.156
31.20000 713.343
31.21000 740.872
31.22000 781.723
31.23000 822.998
31.24000 847.326
31.25000 926.094
31.26000 981.981
31.27000 1036.464
31.28000 1089.640
31.29000 1142.875
31.30000 1200.356
31.31000 1260.465
31.32000 1318.830
31.33000 1393.573
31.34000 1471.078
31.35000 1546.476
31.36000 1597.178
31.37000 1640.772
31.38000 1684.595
31.39000 1730.012
31.40000 1775.734
31.41000 1813.880
31.42000 1830.571
31.43000 1842.261
31.44000 1853.414
31.45000 1862.939
31.46000 1872.353
31.47000 1873.051
31.48000 1855.701
31.49000 1837.798
31.50000 1827.315
31.51000 1781.898
31.52000 1749.743
31.53000 1708.186
31.54000 1658.007
31.55000 1607.839
31.56000 1558.479
31.57000 1509.611
31.58000 1462.212
31.59000 1397.644
31.60000 1329.680
31.61000 1262.429
31.62000 1203.355
31.63000 1146.599
31.64000 1089.591
31.65000 1030.854
31.66000 971.791
31.67000 922.660
31.68000 879.124
31.69000 843.635
31.70000 809.160
31.71000 777.712
31.72000 746.466
31.73000 718.543
31.74000 697.400
31.75000 676.458
31.76000 664.276
31.77000 622.605
31.78000 593.208
31.79000 571.159
31.80000 555.738
31.81000 540.247
31.82000 520.125
31.83000 497.223
31.84000 475.033
31.85000 468.811
31.86000 469.116
31.87000 468.620
31.88000 459.132
31.89000 447.133
31.90000 435.283
31.91000 424.437
31.92000 413.777
31.93000 404.937
31.94000 406.975
31.95000 409.705
31.96000 410.943
31.97000 407.794
31.98000 404.361
31.99000 400.877
32.00000 397.294
32.01000 393.708
32.02000 391.636
32.03000 382.597
32.04000 376.237
32.05000 372.848
32.06000 372.094
32.07000 371.347
32.08000 370.973
32.09000 370.820
32.10000 370.671
32.11000 365.923
32.12000 359.680
32.13000 353.755
32.14000 351.320
32.15000 349.846
32.16000 348.554
32.17000 348.467
32.18000 348.599
32.19000 348.709
32.20000 352.213
32.21000 355.423
32.22000 355.739
32.23000 347.673
32.24000 339.076
32.25000 332.403
32.26000 329.544
32.27000 326.790
32.28000 325.209
32.29000 329.769
32.30000 332.978
32.31000 335.899
32.32000 338.568
32.33000 341.209
32.34000 342.144
32.35000 342.086
32.36000 342.029
32.37000 347.167
32.38000 353.967
32.39000 359.854
32.40000 355.952
32.41000 349.396
32.42000 343.444
32.43000 341.411
32.44000 340.082
32.45000 338.986
32.46000 336.182
32.47000 333.716
32.48000 332.119
32.49000 333.003
32.50000 334.041
32.51000 335.967
32.52000 339.628
32.53000 343.334
32.54000 345.446
32.55000 327.761
32.56000 315.385
32.57000 316.908
32.58000 330.372
32.59000 343.605
32.60000 344.062
32.61000 337.181
32.62000 330.536
32.63000 334.111
32.64000 341.258
32.65000 347.487
32.66000 344.068
32.67000 338.071
32.68000 332.343
32.69000 328.324
32.70000 324.607
32.71000 321.552
32.72000 320.294
32.73000 319.422
32.74000 318.883
32.75000 319.282
32.76000 319.736
32.77000 316.844
32.78000 307.507
32.79000 298.010
32.80000 292.634
32.81000 301.906
32.82000 308.390
32.83000 311.238
32.84000 311.012
32.85000 310.843
32.86000 313.672
32.87000 318.197
32.88000 322.562
32.89000 319.786
32.90000 314.576
32.91000 309.816
32.92000 309.679
32.93000 310.759
32.94000 311.558
32.95000 310.600
32.96000 309.336
32.97000 308.302
32.98000 311.809
32.99000 315.085
33.00000 316.688
33.01000 313.650
33.02000 310.340
33.03000 307.487
33.04000 305.500
33.05000 303.533
33.06000 302.428
33.07000 302.168
33.08000 301.987
33.09000 300.393
33.10000 297.626
33.11000 294.909
33.12000 294.763
33.13000 296.050
33.14000 297.290
33.15000 300.606
33.16000 304.464
33.17000 307.650
33.18000 304.059
33.19000 298.711
33.20000 293.610
33.21000 290.019
33.22000 286.687
33.23000 283.966
33.24000 294.011
33.25000 303.332
33.26000 309.626
33.27000 307.642
33.28000 305.187
33.29000 303.592
33.30000 303.607
33.31000 303.659
33.32000 303.688
33.33000 299.645
33.34000 296.843
33.35000 295.610
33.36000 295.662
33.37000 295.677
33.38000 293.917
33.39000 291.183
33.40000 288.551
33.41000 293.689
33.42000 301.246
33.43000 308.169
33.44000 308.837
33.45000 307.909
33.46000 306.600
33.47000 302.988
33.48000 298.988
33.49000 295.732
33.50000 298.156
33.51000 300.616
33.52000 301.128
33.53000 296.391
33.54000 291.364
33.55000 288.750
33.56000 290.582
33.57000 292.510
33.58000 293.579
33.59000 287.482
33.60000 283.272
33.61000 283.622
33.62000 287.644
33.63000 291.636
33.64000 294.233
33.65000 296.073
33.66000 297.842
33.67000 293.407
33.68000 287.103
33.69000 281.504
33.70000 282.716
33.71000 285.640
33.72000 288.548
33.73000 291.356
33.74000 294.148
33.75000 296.414
33.76000 291.934
33.77000 287.725
33.78000 287.876
33.79000 299.609
33.80000 311.965
33.81000 315.138
33.82000 301.633
33.83000 287.781
33.84000 280.163
33.85000 286.131
33.86000 290.263
33.87000 294.302
33.88000 298.269
33.89000 302.070
33.90000 298.714
33.91000 291.537
33.92000 284.648
33.93000 277.354
33.94000 270.396
33.95000 264.450
33.96000 268.093
33.97000 274.110
33.98000 279.711
33.99000 282.883
34.00000 285.661
34.01000 287.909
34.02000 294.898
34.03000 300.968
34.04000 305.753
34.05000 307.177
34.06000 308.424
34.07000 306.506
34.08000 298.924
34.09000 291.230
34.10000 287.030
34.11000 284.211
34.12000 282.279
34.13000 280.797
34.14000 279.668
34.15000 278.738
34.16000 286.123
34.17000 297.881
34.18000 309.152
34.19000 305.962
34.20000 298.126
34.21000 291.072
34.22000 291.259
34.23000 293.212
34.24000 294.448
34.25000 291.558
34.26000 288.010
34.27000 285.150
34.28000 283.293
34.29000 281.864
34.30000 280.595
34.31000 279.743
34.32000 278.911
34.33000 279.129
34.34000 281.196
34.35000 283.299
34.36000 284.438
34.37000 279.947
34.38000 276.886
34.39000 278.900
34.40000 284.814
34.41000 290.665
34.42000 294.020
34.43000 296.079
34.44000 298.051
34.45000 297.896
34.46000 297.049
34.47000 295.772
34.48000 290.591
34.49000 284.472
34.50000 279.408
34.51000 280.309
34.52000 282.146
34.53000 283.621
34.54000 286.262
34.55000 288.493
34.56000 291.290
34.57000 295.526
34.58000 299.834
34.59000 300.307
34.60000 294.120
34.61000 287.814
34.62000 284.423
34.63000 281.586
34.64000 279.651
34.65000 278.352
34.66000 277.535
34.67000 276.715
34.68000 275.776
34.69000 274.777
34.70000 273.821
34.71000 273.565
34.72000 273.553
34.73000 273.938
34.74000 277.855
34.75000 282.606
34.76000 286.863
34.77000 288.369
34.78000 289.452
34.79000 290.319
34.80000 291.373
34.81000 292.241
34.82000 290.989
34.83000 284.426
34.84000 277.609
34.85000 274.552
34.86000 277.932
34.87000 281.422
34.88000 283.285
34.89000 282.760
34.90000 282.411
34.91000 284.067
34.92000 287.218
34.93000 290.173
34.94000 285.988
34.95000 278.207
34.96000 270.777
34.97000 269.881
34.98000 271.139
34.99000 272.402
35.00000 273.701
35.01000 275.008
35.02000 276.133
35.03000 276.258
35.04000 276.231
35.05000 276.210
35.06000 273.787
35.07000 271.654
35.08000 270.910
35.09000 273.600
35.10000 276.450
35.11000 277.001
35.12000 273.674
35.13000 270.284
35.14000 268.490
35.15000 272.926
35.16000 275.924
35.17000 275.195
35.18000 271.734
35.19000 268.320
35.20000 266.552
35.21000 265.600
35.22000 264.692
35.23000 264.748
35.24000 265.103
35.25000 265.839
35.26000 269.833
35.27000 274.574
35.28000 278.589
35.29000 278.701
35.30000 278.232
35.31000 277.860
35.32000 270.034
35.33000 263.193
35.34000 259.237
35.35000 262.307
35.36000 265.694
35.37000 267.895
35.38000 268.123
35.39000 268.322
35.40000 268.426
35.41000 261.476
35.42000 256.793
35.43000 256.970
35.44000 260.656
35.45000 264.199
35.46000 262.919
35.47000 259.280
35.48000 255.815
35.49000 257.341
35.50000 260.301
35.51000 263.473
35.52000 268.426
35.53000 273.780
35.54000 278.411
35.55000 279.215
35.56000 279.460
35.57000 279.654
35.58000 270.675
35.59000 262.810
35.60000 259.314
35.61000 266.304
35.62000 273.752
35.63000 278.179
35.64000 277.659
35.65000 277.068
35.66000 276.760
35.67000 273.423
35.68000 271.142
35.69000 265.400
35.70000 257.198
35.71000 249.344
35.72000 252.819
35.73000 261.757
35.74000 270.255
35.75000 273.238
35.76000 274.314
35.77000 275.048
35.78000 272.965
35.79000 270.255
35.80000 267.788
35.81000 266.585
35.82000 265.564
35.83000 264.757
35.84000 263.251
35.85000 261.995
35.86000 259.881
35.87000 255.739
35.88000 251.511
35.89000 251.956
35.90000 259.939
35.91000 268.023
35.92000 272.204
35.93000 266.479
35.94000 262.654
35.95000 263.708
35.96000 268.180
35.97000 272.420
35.98000 269.420
35.99000 262.981
36.00000 256.867
36.01000 255.310
36.02000 255.241
36.03000 255.915
36.04000 262.602
36.05000 270.603
36.06000 275.298
36.07000 263.066
36.08000 248.447
36.09000 236.939
36.10000 249.810
36.11000 261.746
36.12000 269.801
36.13000 268.807
36.14000 267.443
36.15000 267.467
36.16000 269.698
36.17000 271.958
36.18000 273.117
36.19000 270.944
36.20000 269.475
36.21000 267.023
36.22000 263.894
36.23000 260.705
36.24000 255.725
36.25000 249.906
36.26000 244.388
36.27000 247.840
36.28000 253.669
36.29000 259.390
36.30000 264.255
36.31000 268.936
36.32000 271.496
36.33000 263.372
36.34000 253.768
36.35000 246.235
36.36000 248.873
36.37000 251.644
36.38000 254.353
36.39000 256.920
36.40000 259.481
36.41000 259.161
36.42000 254.332
36.43000 249.448
36.44000 246.964
36.45000 249.548
36.46000 251.250
36.47000 249.518
36.48000 245.454
36.49000 241.580
36.50000 243.252
36.51000 247.482
36.52000 251.488
36.53000 252.778
36.54000 253.176
36.55000 253.379
36.56000 252.054
36.57000 250.405
36.58000 248.738
36.59000 246.979
36.60000 245.208
36.61000 243.824
36.62000 246.954
36.63000 249.738
36.64000 252.193
36.65000 253.904
36.66000 255.585
36.67000 258.653
36.68000 263.858
36.69000 269.087
36.70000 271.724
36.71000 270.688
36.72000 269.970
36.73000 266.631
36.74000 261.539
36.75000 256.519
36.76000 253.519
36.77000 251.439
36.78000 249.472
36.79000 251.482
36.80000 254.464
36.81000 257.326
36.82000 259.261
36.83000 261.004
36.84000 262.450
36.85000 262.452
36.86000 262.262
36.87000 262.114
36.88000 268.710
36.89000 274.381
36.90000 279.515
36.91000 283.451
36.92000 287.342
36.93000 286.124
36.94000 277.143
36.95000 268.081
36.96000 263.548
36.97000 264.607
36.98000 265.321
36.99000 266.853
37.00000 268.924
37.01000 270.988
37.02000 272.872
37.03000 274.675
37.04000 276.378
37.05000 279.436
37.06000 282.622
37.07000 284.945
37.08000 280.789
37.09000 275.303
37.10000 271.295
37.11000 274.377
37.12000 278.387
37.13000 281.500
37.14000 283.809
37.15000 285.596
37.16000 285.288
37.17000 280.370
37.18000 275.286
37.19000 274.943
37.20000 281.693
37.21000 288.511
37.22000 289.136
37.23000 283.668
37.24000 278.194
37.25000 272.278
37.26000 266.074
37.27000 260.041
37.28000 258.483
37.29000 258.903
37.30000 259.298
37.31000 260.092
37.32000 260.929
37.33000 261.269
37.34000 257.942
37.35000 253.874
37.36000 250.844
37.37000 252.714
37.38000 255.213
37.39000 257.146
37.40000 254.215
37.41000 251.605
37.42000 251.203
37.43000 255.592
37.44000 260.146
37.45000 261.544
37.46000 258.291
37.47000 254.995
37.48000 255.017
37.49000 258.246
37.50000 261.462
37.51000 263.488
37.52000 264.754
37.53000 265.841
37.54000 262.394
37.55000 256.972
37.56000 251.869
37.57000 251.991
37.58000 253.523
37.59000 254.890
37.60000 255.060
37.61000 254.992
37.62000 254.866
37.63000 254.469
37.64000 254.038
37.65000 253.706
37.66000 262.299
37.67000 269.613
37.68000 271.123
37.69000 260.222
37.70000 248.908
37.71000 243.189
37.72000 245.590
37.73000 248.059
37.74000 248.398
37.75000 246.710
37.76000 245.040
37.77000 244.821
37.78000 245.516
37.79000 246.312
37.80000 249.584
37.81000 253.921
37.82000 257.995
37.83000 255.703
37.84000 251.907
37.85000 248.695
37.86000 249.628
37.87000 251.373
37.88000 253.147
37.89000 255.057
37.90000 256.985
37.91000 258.464
37.92000 255.686
37.93000 253.253
37.94000 251.217
37.95000 250.014
37.96000 248.838
37.97000 248.550
37.98000 249.530
37.99000 250.519
38.00000 252.255
38.01000 254.689
38.02000 257.075
38.03000 255.967
38.04000 252.689
38.05000 249.603
38.06000 251.038
38.07000 254.387
38.08000 257.530
38.09000 264.834
38.10000 272.584
38.11000 279.214
38.12000 278.029
38.13000 275.339
38.14000 272.760
38.15000 270.683
38.16000 268.666
38.17000 267.125
38.18000 269.889
38.19000 272.302
38.20000 272.259
38.21000 267.111
38.22000 261.806
38.23000 259.595
38.24000 261.741
38.25000 263.917
38.26000 262.680
38.27000 258.304
38.28000 254.069
38.29000 259.663
38.30000 271.268
38.31000 282.586
38.32000 287.323
38.33000 289.315
38.34000 291.181
38.35000 284.973
38.36000 277.237
38.37000 271.031
38.38000 275.310
38.39000 281.574
38.40000 287.860
38.41000 294.244
38.42000 300.640
38.43000 305.511
38.44000 309.361
38.45000 312.337
38.46000 317.145
38.47000 325.701
38.48000 334.369
38.49000 344.861
38.50000 357.881
38.51000 370.914
38.52000 384.429
38.53000 398.370
38.54000 412.290
38.55000 424.820
38.56000 436.515
38.57000 449.101
38.58000 481.538
38.59000 522.137
38.60000 560.103
38.61000 581.799
38.62000 597.360
38.63000 616.745
38.64000 661.877
38.65000 711.806
38.66000 757.088
38.67000 782.067
38.68000 804.674
38.69000 821.823
38.70000 872.490
38.71000 914.014
38.72000 953.068
38.73000 987.142
38.74000 1021.073
38.75000 1044.646
38.76000 1054.076
38.77000 1063.421
38.78000 1071.854
38.79000 1079.467
38.80000 1086.941
38.81000 1085.798
38.82000 1079.539
38.83000 1072.603
38.84000 1051.055
38.85000 1023.587
38.86000 997.942
38.87000 967.700
38.88000 939.131
38.89000 908.377
38.90000 863.162
38.91000 815.297
38.92000 771.715
38.93000 746.555
38.94000 723.506
38.95000 706.089
38.96000 664.455
38.97000 630.605
38.98000 596.682
38.99000 562.613
39.00000 528.541
39.01000 495.575
39.02000 464.099
39.03000 432.648
39.04000 413.913
39.05000 406.330
39.06000 398.643
39.07000 384.799
39.08000 367.353
39.09000 350.019
39.10000 335.033
39.11000 320.985
39.12000 307.892
39.13000 303.995
39.14000 302.733
39.15000 300.676
39.16000 293.458
39.17000 285.309
39.18000 279.219
39.19000 281.847
39.20000 285.455
39.21000 288.171
39.22000 278.984
39.23000 271.218
39.24000 264.076
39.25000 258.160
39.26000 252.276
39.27000 251.251
39.28000 256.656
39.29000 262.089
39.30000 263.902
39.31000 262.598
39.32000 261.234
39.33000 256.514
39.34000 249.861
39.35000 243.604
39.36000 245.416
39.37000 250.403
39.38000 255.044
39.39000 251.882
39.40000 247.137
39.41000 243.455
39.42000 246.562
39.43000 250.872
39.44000 254.114
39.45000 252.900
39.46000 251.197
39.47000 249.919
39.48000 243.053
39.49000 237.427
39.50000 233.917
39.51000 234.495
39.52000 235.176
39.53000 235.204
39.54000 234.379
39.55000 233.552
39.56000 231.981
39.57000 229.785
39.58000 227.662
39.59000 229.410
39.60000 233.358
39.61000 237.063
39.62000 236.007
39.63000 233.102
39.64000 230.403
39.65000 233.135
39.66000 236.891
39.67000 240.216
39.68000 240.831
39.69000 240.974
39.70000 241.260
39.71000 242.130
39.72000 243.063
39.73000 243.759
39.74000 233.710
39.75000 225.386
39.76000 222.749
39.77000 230.934
39.78000 239.381
39.79000 242.158
39.80000 237.662
39.81000 233.144
39.82000 232.952
39.83000 236.362
39.84000 239.584
39.85000 233.242
39.86000 221.551
39.87000 210.483
39.88000 211.373
39.89000 216.837
39.90000 221.903
39.91000 226.832
39.92000 231.237
39.93000 234.161
39.94000 227.940
39.95000 220.151
39.96000 214.422
39.97000 217.025
39.98000 220.508
39.99000 223.099
40.00000 233.518
40.01000 241.969
40.02000 246.569
40.03000 243.945
40.04000 241.154
40.05000 238.080
40.06000 234.646
40.07000 231.217
40.08000 229.286
40.09000 228.591
40.10000 227.921
40.11000 228.506
40.12000 229.782
40.13000 230.926
40.14000 229.596
40.15000 227.332
40.16000 225.237
40.17000 225.288
40.18000 225.828
40.19000 226.354
40.20000 226.792
40.21000 227.214
40.22000 227.168
40.23000 225.254
40.24000 223.146
40.25000 221.586
40.26000 227.905
40.27000 233.151
40.28000 235.518
40.29000 232.567
40.30000 229.498
40.31000 227.159
40.32000 225.727
40.33000 224.300
40.34000 225.259
40.35000 228.137
40.36000 230.933
40.37000 229.953
40.38000 226.920
40.39000 223.815
40.40000 219.408
40.41000 214.516
40.42000 209.996
40.43000 208.577
40.44000 208.005
40.45000 208.453
40.46000 214.982
40.47000 222.518
40.48000 228.031
40.49000 225.609
40.50000 222.381
40.51000 220.000
40.52000 221.282
40.53000 222.429
40.54000 222.309
40.55000 219.881
40.56000 217.404
40.57000 214.315
40.58000 210.476
40.59000 206.641
40.60000 206.731
40.61000 209.927
40.62000 213.128
40.63000 216.518
40.64000 220.009
40.65000 223.175
40.66000 220.633
40.67000 216.000
40.68000 211.727
40.69000 215.107
40.70000 219.837
40.71000 223.490
40.72000 220.827
40.73000 217.136
40.74000 215.136
40.75000 219.675
40.76000 224.864
40.77000 228.675
40.78000 215.896
40.79000 205.343
40.80000 199.639
40.81000 202.640
40.82000 205.817
40.83000 209.612
40.84000 214.152
40.85000 218.685
40.86000 216.798
40.87000 209.919
40.88000 203.236
40.89000 204.798
40.90000 210.711
40.91000 216.339
40.92000 217.082
40.93000 216.062
40.94000 215.123
40.95000 215.385
40.96000 215.883
40.97000 216.904
40.98000 220.946
40.99000 225.471
41.00000 228.131
41.01000 223.693
41.02000 218.564
41.03000 214.813
41.04000 218.382
41.05000 221.424
41.06000 220.434
41.07000 212.310
41.08000 204.049
41.09000 199.103
41.10000 198.082
41.11000 197.071
41.12000 200.526
41.13000 207.385
41.14000 214.180
41.15000 218.434
41.16000 221.367
41.17000 224.195
41.18000 225.275
41.19000 225.734
41.20000 226.155
41.21000 223.866
41.22000 221.238
41.23000 218.433
41.24000 214.618
41.25000 210.645
41.26000 207.780
41.27000 209.071
41.28000 210.758
41.29000 211.986
41.30000 212.026
41.31000 212.012
41.32000 209.867
41.33000 204.011
41.34000 198.086
41.35000 196.936
41.36000 201.349
41.37000 205.760
41.38000 208.020
41.39000 208.643
41.40000 209.316
41.41000 211.872
41.42000 215.394
41.43000 218.684
41.44000 218.205
41.45000 216.404
41.46000 214.752
41.47000 212.880
41.48000 211.166
41.49000 209.247
41.50000 206.188
41.51000 202.953
41.52000 200.937
41.53000 203.420
41.54000 206.322
41.55000 208.426
41.56000 201.294
41.57000 195.472
41.58000 193.365
41.59000 197.639
41.60000 202.022
41.61000 203.708
41.62000 202.301
41.63000 200.894
41.64000 202.409
41.65000 206.082
41.66000 209.667
41.67000 210.009
41.68000 208.712
41.69000 207.501
41.70000 207.632
41.71000 208.227
41.72000 208.773
41.73000 210.344
41.74000 211.955
41.75000 212.702
41.76000 208.708
41.77000 203.993
41.78000 200.761
41.79000 202.920
41.80000 205.571
41.81000 207.485
41.82000 203.054
41.83000 199.428
41.84000 197.363
41.85000 197.937
41.86000 198.555
41.87000 200.112
41.88000 202.730
41.89000 205.341
41.90000 207.330
41.91000 208.850
41.92000 210.343
41.93000 210.912
41.94000 211.020
41.95000 211.084
41.96000 210.465
41.97000 209.614
41.98000 208.836
41.99000 203.652
42.00000 198.147
42.01000 194.291
42.02000 199.328
42.03000 205.692
42.04000 209.667
42.05000 205.078
42.06000 199.724
42.07000 195.877
42.08000 203.047
42.09000 208.916
42.10000 211.112
42.11000 207.185
42.12000 203.164
42.13000 200.563
42.14000 199.540
42.15000 198.522
42.16000 198.787
42.17000 199.972
42.18000 201.150
42.19000 202.112
42.20000 202.967
42.21000 203.903
42.22000 206.047
42.23000 208.598
42.24000 210.923
42.25000 207.542
42.26000 203.397
42.27000 201.105
42.28000 208.643
42.29000 217.622
42.30000 223.433
42.31000 218.060
42.32000 211.710
42.33000 207.167
42.34000 205.915
42.35000 205.071
42.36000 204.271
42.37000 203.546
42.38000 202.822
42.39000 203.148
42.40000 204.620
42.41000 206.087
42.42000 205.920
42.43000 204.600
42.44000 203.294
42.45000 202.438
42.46000 201.800
42.47000 201.394
42.48000 204.389
42.49000 208.509
42.50000 212.259
42.51000 209.188
42.52000 205.125
42.53000 201.480
42.54000 200.014
42.55000 198.861
42.56000 198.379
42.57000 200.227
42.58000 202.275
42.59000 203.733
42.60000 208.942
42.61000 213.033
42.62000 212.838
42.63000 205.708
42.64000 198.483
42.65000 196.753
42.66000 200.924
42.67000 205.078
42.68000 205.761
42.69000 204.021
42.70000 202.392
42.71000 204.264
42.72000 207.806
42.73000 210.918
42.74000 207.899
42.75000 202.881
42.76000 198.323
42.77000 197.983
42.78000 198.501
42.79000 199.157
42.80000 200.522
42.81000 201.988
42.82000 203.269
42.83000 203.916
42.84000 204.511
42.85000 204.933
42.86000 205.827
42.87000 206.523
42.88000 205.268
42.89000 200.905
42.90000 196.502
42.91000 195.151
42.92000 197.024
42.93000 198.890
42.94000 201.605
42.95000 204.873
42.96000 207.883
42.97000 203.053
42.98000 194.541
42.99000 186.795
43.00000 189.735
43.01000 196.108
43.02000 201.884
43.03000 203.156
43.04000 203.419
43.05000 203.881
43.06000 205.352
43.07000 206.962
43.08000 208.594
43.09000 210.302
43.10000 212.016
43.11000 213.225
43.12000 210.372
43.13000 208.084
43.14000 206.899
43.15000 207.445
43.16000 208.013
43.17000 207.538
43.18000 205.979
43.19000 204.428
43.20000 205.140
43.21000 207.368
43.22000 209.467
43.23000 207.758
43.24000 204.288
43.25000 200.928
43.26000 199.076
43.27000 197.701
43.28000 196.458
43.29000 196.538
43.30000 196.856
43.31000 197.466
43.32000 199.528
43.33000 201.788
43.34000 203.734
43.35000 204.635
43.36000 205.453
43.37000 206.028
43.38000 202.558
43.39000 199.812
43.40000 199.748
43.41000 203.835
43.42000 207.969
43.43000 206.512
43.44000 199.342
43.45000 192.212
43.46000 192.739
43.47000 198.333
43.48000 203.788
43.49000 205.328
43.50000 205.082
43.51000 204.694
43.52000 202.413
43.53000 199.542
43.54000 196.950
43.55000 193.448
43.56000 190.202
43.57000 187.780
43.58000 189.394
43.59000 191.547
43.60000 191.865
43.61000 186.160
43.62000 179.986
43.63000 175.670
43.64000 188.875
43.65000 199.347
43.66000 205.331
43.67000 204.473
43.68000 203.542
43.69000 201.243
43.70000 197.569
43.71000 193.917
43.72000 195.231
43.73000 199.763
43.74000 204.088
43.75000 202.773
43.76000 198.922
43.77000 195.408
43.78000 196.269
43.79000 198.475
43.80000 200.463
43.81000 198.320
43.82000 195.695
43.83000 193.865
43.84000 195.870
43.85000 198.380
43.86000 199.905
43.87000 198.250
43.88000 196.353
43.89000 195.033
43.90000 192.585
43.91000 190.709
43.92000 189.519
43.93000 189.359
43.94000 189.209
43.95000 190.189
43.96000 192.284
43.97000 194.366
43.98000 192.858
43.99000 189.070
44.00000 185.502
44.01000 187.727
44.02000 192.520
44.03000 196.929
44.04000 196.472
44.05000 194.542
44.06000 192.806
44.07000 197.403
44.08000 202.552
44.09000 205.299
44.10000 196.657
44.11000 186.546
44.12000 179.218
44.13000 180.752
44.14000 182.945
44.15000 184.463
44.16000 186.176
44.17000 187.470
44.18000 186.326
44.19000 181.579
44.20000 176.799
44.21000 180.664
44.22000 192.923
44.23000 205.095
44.24000 206.224
44.25000 200.362
44.26000 194.650
44.27000 192.780
44.28000 192.587
44.29000 192.174
44.30000 189.016
44.31000 185.039
44.32000 181.472
44.33000 188.029
44.34000 195.527
44.35000 201.730
44.36000 201.889
44.37000 201.284
44.38000 200.677
44.39000 200.068
44.40000 199.459
44.41000 199.039
44.42000 202.090
44.43000 204.469
44.44000 205.833
44.45000 205.719
44.46000 205.593
44.47000 204.377
44.48000 202.121
44.49000 199.882
44.50000 198.577
44.51000 197.873
44.52000 197.186
44.53000 196.892
44.54000 196.768
44.55000 196.545
44.56000 195.116
44.57000 193.333
44.58000 191.737
44.59000 192.632
44.60000 193.841
44.61000 194.958
44.62000 195.661
44.63000 196.312
44.64000 197.590
44.65000 200.803
44.66000 204.154
44.67000 206.452
44.68000 205.980
44.69000 205.560
44.70000 205.245
44.71000 205.081
44.72000 204.919
44.73000 205.340
44.74000 206.309
44.75000 207.270
44.76000 208.560
44.77000 210.028
44.78000 211.557
44.79000 214.525
44.80000 218.103
44.81000 221.309
44.82000 220.095
44.83000 217.602
44.84000 215.375
44.85000 217.262
44.86000 219.598
44.87000 221.881
44.88000 223.925
44.89000 225.939
44.90000 228.331
44.91000 231.874
44.92000 235.496
44.93000 237.968
44.94000 230.613
44.95000 224.885
44.96000 224.794
44.97000 232.665
44.98000 240.591
44.99000 243.683
45.00000 242.313
45.01000 240.954
45.02000 244.204
45.03000 250.166
45.04000 255.786
45.05000 253.493
45.06000 247.889
45.07000 243.089
45.08000 247.585
45.09000 254.735
45.10000 261.107
45.11000 260.201
45.12000 258.210
45.13000 257.159
45.14000 260.291
45.15000 263.924
45.16000 266.354
45.17000 265.173
45.18000 263.750
45.19000 262.783
45.20000 260.873
45.21000 259.426
45.22000 260.778
45.23000 266.023
45.24000 271.291
45.25000 272.834
45.26000 270.993
45.27000 269.168
45.28000 270.679
45.29000 274.134
45.30000 277.319
45.31000 274.444
45.32000 269.070
45.33000 263.828
45.34000 260.081
45.35000 256.755
45.36000 253.798
45.37000 253.168
45.38000 252.999
45.39000 252.427
45.40000 250.089
45.41000 247.544
45.42000 244.821
45.43000 241.571
45.44000 238.287
45.45000 236.069
45.46000 238.418
45.47000 240.265
45.48000 243.317
45.49000 248.018
45.50000 252.723
45.51000 251.374
45.52000 244.614
45.53000 237.920
45.54000 236.386
45.55000 237.892
45.56000 239.236
45.57000 237.047
45.58000 233.421
45.59000 230.186
45.60000 231.268
45.61000 233.547
45.62000 235.569
45.63000 233.150
45.64000 230.347
45.65000 228.088
45.66000 228.172
45.67000 228.526
45.68000 228.590
45.69000 227.808
45.70000 226.971
45.71000 226.408
45.72000 215.998
45.73000 208.061
45.74000 206.220
45.75000 212.600
45.76000 219.017
45.77000 218.657
45.78000 212.336
45.79000 206.082
45.80000 202.223
45.81000 199.824
45.82000 197.568
45.83000 198.324
45.84000 200.287
45.85000 202.193
45.86000 203.478
45.87000 204.594
45.88000 205.582
45.89000 201.732
45.90000 197.647
45.91000 194.672
45.92000 196.418
45.93000 198.697
45.94000 199.851
45.95000 197.774
45.96000 195.495
45.97000 193.972
45.98000 191.160
45.99000 189.050
46.00000 187.857
46.01000 187.882
46.02000 187.913
46.03000 187.569
46.04000 186.900
46.05000 186.239
46.06000 185.599
46.07000 184.985
46.08000 184.207
46.09000 180.086
46.10000 174.643
46.11000 169.988
46.12000 173.675
46.13000 179.604
46.14000 184.840
46.15000 189.433
46.16000 193.299
46.17000 195.390
46.18000 190.050
46.19000 183.888
46.20000 178.751
46.21000 176.515
46.22000 174.454
46.23000 173.084
46.24000 173.161
46.25000 173.246
46.26000 174.454
46.27000 177.132
46.28000 179.816
46.29000 182.196
46.30000 184.316
46.31000 186.412
46.32000 185.197
46.33000 182.170
46.34000 179.237
46.35000 178.146
46.36000 177.773
46.37000 177.797
46.38000 181.947
46.39000 187.190
46.40000 191.808
46.41000 185.426
46.42000 178.268
46.43000 172.644
46.44000 173.338
46.45000 174.718
46.46000 176.189
46.47000 177.917
46.48000 179.660
46.49000 180.813
46.50000 179.249
46.51000 178.046
46.52000 178.673
46.53000 181.656
46.54000 184.642
46.55000 184.493
46.56000 181.719
46.57000 178.978
46.58000 176.109
46.59000 173.244
46.60000 170.726
46.61000 174.924
46.62000 181.699
46.63000 187.539
46.64000 183.874
46.65000 177.730
46.66000 172.330
46.67000 171.670
46.68000 171.802
46.69000 171.830
46.70000 171.430
46.71000 170.985
46.72000 171.286
46.73000 173.641
46.74000 176.114
46.75000 177.742
46.76000 168.027
46.77000 160.676
46.78000 160.399
46.79000 169.083
46.80000 177.782
46.81000 179.581
46.82000 175.693
46.83000 171.856
46.84000 168.566
46.85000 165.659
46.86000 162.838
46.87000 161.639
46.88000 161.053
46.89000 160.694
46.90000 162.584
46.91000 165.053
46.92000 167.217
46.93000 171.693
46.94000 175.871
46.95000 178.427
46.96000 174.496
46.97000 169.890
46.98000 167.353
46.99000 170.426
47.00000 173.814
47.01000 176.031
47.02000 178.094
47.03000 179.607
47.04000 178.333
47.05000 173.581
47.06000 168.831
47.07000 168.490
47.08000 171.726
47.09000 174.918
47.10000 172.402
47.11000 166.931
47.12000 161.804
47.13000 162.925
47.14000 166.376
47.15000 169.320
47.16000 167.325
47.17000 164.080
47.18000 161.242
47.19000 165.691
47.20000 170.541
47.21000 174.435
47.22000 174.563
47.23000 174.308
47.24000 174.179
47.25000 174.387
47.26000 174.613
47.27000 174.760
47.28000 173.411
47.29000 172.398
47.30000 172.500
47.31000 173.969
47.32000 175.434
47.33000 174.085
47.34000 170.489
47.35000 166.945
47.36000 163.567
47.37000 160.374
47.38000 157.430
47.39000 158.879
47.40000 161.942
47.41000 164.613
47.42000 163.539
47.43000 161.530
47.44000 159.778
47.45000 160.507
47.46000 161.477
47.47000 162.198
47.48000 161.954
47.49000 161.613
47.50000 160.949
47.51000 159.434
47.52000 157.873
47.53000 156.863
47.54000 158.986
47.55000 160.586
47.56000 162.651
47.57000 165.278
47.58000 167.898
47.59000 168.308
47.60000 166.983
47.61000 165.677
47.62000 166.244
47.63000 167.753
47.64000 169.136
47.65000 168.315
47.66000 166.698
47.67000 165.353
47.68000 166.561
47.69000 168.395
47.70000 169.991
47.71000 163.211
47.72000 156.273
47.73000 151.578
47.74000 155.447
47.75000 160.154
47.76000 163.642
47.77000 163.967
47.78000 164.129
47.79000 164.234
47.80000 162.686
47.81000 161.532
47.82000 161.492
47.83000 162.776
47.84000 164.055
47.85000 163.764
47.86000 162.257
47.87000 160.775
47.88000 162.599
47.89000 166.036
47.90000 169.135
47.91000 166.553
47.92000 161.943
47.93000 157.731
47.94000 157.171
47.95000 157.493
47.96000 157.772
47.97000 155.667
47.98000 153.552
47.99000 153.314
48.00000 160.138
48.01000 167.638
48.02000 171.761
48.03000 167.244
48.04000 162.294
48.05000 159.124
48.06000 163.979
48.07000 167.623
48.08000 166.617
48.09000 160.174
48.10000 153.743
48.11000 151.858
48.12000 153.438
48.13000 154.991
48.14000 157.432
48.15000 160.235
48.16000 162.920
48.17000 163.708
48.18000 163.828
48.19000 163.800
48.20000 162.441
48.21000 160.766
48.22000 159.316
48.23000 161.474
48.24000 163.786
48.25000 164.612
48.26000 159.931
48.27000 154.734
48.28000 152.559
48.29000 158.008
48.30000 163.827
48.31000 167.533
48.32000 159.388
48.33000 153.318
48.34000 152.435
48.35000 157.522
48.36000 162.594
48.37000 163.080
48.38000 160.128
48.39000 157.227
48.40000 158.932
48.41000 162.833
48.42000 166.194
48.43000 160.971
48.44000 152.773
48.45000 145.098
48.46000 142.041
48.47000 140.066
48.48000 138.360
48.49000 144.950
48.50000 151.621
48.51000 157.117
48.52000 158.327
48.53000 159.143
48.54000 160.425
48.55000 162.865
48.56000 165.359
48.57000 166.938
48.58000 159.725
48.59000 154.389
48.60000 153.106
48.61000 156.413
48.62000 159.712
48.63000 160.816
48.64000 160.299
48.65000 159.792
48.66000 159.132
48.67000 158.422
48.68000 157.811
48.69000 158.751
48.70000 160.219
48.71000 161.545
48.72000 161.633
48.73000 161.436
48.74000 161.266
48.75000 159.843
48.76000 158.477
48.77000 157.368
48.78000 157.177
48.79000 157.068
48.80000 155.596
48.81000 150.781
48.82000 145.813
48.83000 142.685
48.84000 150.781
48.85000 156.765
48.86000 159.996
48.87000 160.159
48.88000 160.314
48.89000 159.477
48.90000 157.919
48.91000 156.391
48.92000 159.059
48.93000 163.619
48.94000 167.739
48.95000 165.213
48.96000 160.450
48.97000 156.072
48.98000 154.953
48.99000 154.574
49.00000 154.249
49.01000 154.865
49.02000 155.504
49.03000 155.214
49.04000 151.636
49.05000 147.768
49.06000 146.847
49.07000 153.041
49.08000 159.551
49.09000 163.624
49.10000 153.236
49.11000 145.583
49.12000 143.054
49.13000 146.140
49.14000 149.207
49.15000 148.938
49.16000 146.281
49.17000 143.678
49.18000 145.079
49.19000 148.297
49.20000 151.485
49.21000 154.228
49.22000 156.824
49.23000 158.719
49.24000 154.779
49.25000 149.535
49.26000 145.040
49.27000 143.988
49.28000 143.520
49.29000 143.640
49.30000 145.813
49.31000 148.162
49.32000 150.794
49.33000 154.097
49.34000 157.429
49.35000 159.502
49.36000 158.220
49.37000 157.263
49.38000 156.082
49.39000 154.657
49.40000 153.260
49.41000 155.627
49.42000 160.648
49.43000 165.564
49.44000 164.256
49.45000 160.139
49.46000 155.842
49.47000 148.944
49.48000 141.195
49.49000 134.587
49.50000 137.277
49.51000 142.015
49.52000 146.065
49.53000 147.777
49.54000 148.940
49.55000 149.966
49.56000 150.522
49.57000 151.039
49.58000 151.184
49.59000 150.459
49.60000 149.697
49.61000 149.226
49.62000 142.981
49.63000 138.439
49.64000 138.717
49.65000 144.107
49.66000 149.490
49.67000 153.903
49.68000 157.643
49.69000 161.301
49.70000 158.967
49.71000 154.019
49.72000 149.327
49.73000 148.230
49.74000 148.291
49.75000 148.386
49.76000 148.749
49.77000 149.171
49.78000 149.530
49.79000 151.586
49.80000 153.515
49.81000 154.640
49.82000 153.039
49.83000 151.214
49.84000 151.332
49.85000 155.942
49.86000 160.732
49.87000 163.677
49.88000 152.549
49.89000 144.447
49.90000 141.907
49.91000 145.165
49.92000 148.394
49.93000 148.235
49.94000 145.760
49.95000 143.341
49.96000 147.341
49.97000 154.030
49.98000 160.208
49.99000 159.389
50.00000 156.347
50.01000 153.462
50.02000 151.807
50.03000 150.414
50.04000 149.231
50.05000 154.058
50.06000 158.803
50.07000 161.314
50.08000 156.368
50.09000 150.824
50.10000 147.609
50.11000 149.703
50.12000 152.003
50.13000 153.408
50.14000 156.600
50.15000 158.899
50.16000 159.174
50.17000 157.376
50.18000 155.570
50.19000 152.986
50.20000 149.878
50.21000 146.843
50.22000 149.562
50.23000 154.683
50.24000 159.483
50.25000 159.982
50.26000 159.136
50.27000 157.938
50.28000 154.026
50.29000 149.545
50.30000 145.746
50.31000 149.809
50.32000 154.101
50.33000 157.827
50.34000 159.691
50.35000 161.410
50.36000 163.005
50.37000 164.323
50.38000 165.631
50.39000 166.425
50.40000 164.555
50.41000 163.200
50.42000 162.658
50.43000 162.936
50.44000 163.216
50.45000 163.649
50.46000 164.183
50.47000 164.704
50.48000 166.527
50.49000 168.830
50.50000 170.793
50.51000 168.331
50.52000 164.503
50.53000 160.839
50.54000 158.416
50.55000 156.250
50.56000 154.418
50.57000 166.022
50.58000 177.214
50.59000 185.767
50.60000 185.765
50.61000 185.109
50.62000 184.950
50.63000 185.892
50.64000 186.874
50.65000 187.466
50.66000 189.807
50.67000 191.486
50.68000 193.517
50.69000 195.897
50.70000 198.277
50.71000 200.609
50.72000 202.910
50.73000 205.154
50.74000 207.267
50.75000 209.229
50.76000 211.057
50.77000 211.183
50.78000 210.791
50.79000 210.959
50.80000 215.285
50.81000 220.457
50.82000 224.818
50.83000 221.171
50.84000 217.260
50.85000 213.515
50.86000 210.302
50.87000 207.129
50.88000 205.172
50.89000 205.867
50.90000 206.656
50.91000 207.129
50.92000 204.178
50.93000 202.060
50.94000 200.443
50.95000 199.315
50.96000 198.210
50.97000 199.178
50.98000 201.479
50.99000 203.720
51.00000 196.828
51.01000 186.446
51.02000 176.526
51.03000 172.346
51.04000 169.884
51.05000 167.839
51.06000 168.827
51.07000 170.423
51.08000 171.764
51.09000 172.904
51.10000 173.833
51.11000 174.313
51.12000 173.381
51.13000 172.345
51.14000 171.193
51.15000 169.791
51.16000 168.381
51.17000 167.541
51.18000 164.782
51.19000 162.815
51.20000 160.980
51.21000 159.272
51.22000 157.594
51.23000 158.402
51.24000 160.786
51.25000 163.104
51.26000 164.006
51.27000 164.280
51.28000 164.159
51.29000 159.214
51.30000 152.846
51.31000 147.844
51.32000 152.625
51.33000 159.333
51.34000 164.956
51.35000 161.667
51.36000 158.004
51.37000 155.358
51.38000 155.863
51.39000 156.592
51.40000 156.049
51.41000 152.807
51.42000 149.477
51.43000 147.506
51.44000 150.692
51.45000 152.973
51.46000 152.603
51.47000 149.734
51.48000 146.904
51.49000 146.970
51.50000 148.847
51.51000 150.671
51.52000 147.719
51.53000 142.983
51.54000 138.610
51.55000 138.562
51.56000 139.771
51.57000 141.022
51.58000 142.567
51.59000 144.168
51.60000 145.507
51.61000 145.773
51.62000 145.885
51.63000 145.822
51.64000 145.222
51.65000 144.584
51.66000 142.512
51.67000 137.441
51.68000 132.276
51.69000 129.239
51.70000 138.138
51.71000 144.475
51.72000 148.815
51.73000 151.306
51.74000 153.741
51.75000 152.099
51.76000 147.948
51.77000 143.919
51.78000 143.524
51.79000 144.597
51.80000 145.530
51.81000 144.846
51.82000 143.699
51.83000 142.636
51.84000 142.148
51.85000 141.771
51.86000 141.456
51.87000 143.451
51.88000 145.333
51.89000 145.385
51.90000 139.923
51.91000 134.087
51.92000 132.477
51.93000 139.571
51.94000 146.927
51.95000 151.225
51.96000 148.954
51.97000 147.327
51.98000 146.993
51.99000 147.839
52.00000 148.691
52.01000 149.948
52.02000 151.451
52.03000 152.909
52.04000 150.890
52.05000 147.616
52.06000 144.467
52.07000 142.745
52.08000 141.426
52.09000 140.691
52.10000 143.925
52.11000 147.904
52.12000 151.210
52.13000 143.912
52.14000 136.842
52.15000 132.090
52.16000 134.218
52.17000 136.801
52.18000 138.088
52.19000 136.745
52.20000 135.326
52.21000 134.503
52.22000 134.599
52.23000 134.670
52.24000 134.205
52.25000 133.259
52.26000 132.353
52.27000 133.977
52.28000 137.114
52.29000 140.152
52.30000 140.774
52.31000 140.429
52.32000 140.164
52.33000 140.783
52.34000 141.648
52.35000 141.903
52.36000 138.092
52.37000 133.531
52.38000 129.752
52.39000 131.804
52.40000 134.055
52.41000 136.030
52.42000 137.195
52.43000 138.309
52.44000 140.082
52.45000 143.172
52.46000 146.299
52.47000 148.101
52.48000 137.211
52.49000 129.542
52.50000 126.247
52.51000 126.812
52.52000 127.382
52.53000 128.302
52.54000 129.427
52.55000 130.516
52.56000 135.068
52.57000 140.684
52.58000 145.598
52.59000 142.880
52.60000 138.073
52.61000 134.161
52.62000 136.117
52.63000 139.138
52.64000 141.633
52.65000 143.695
52.66000 145.353
52.67000 146.515
52.68000 146.246
52.69000 145.888
52.70000 144.987
52.71000 143.014
52.72000 141.012
52.73000 139.866
52.74000 141.079
52.75000 141.934
52.76000 142.973
52.77000 144.171
52.78000 145.368
52.79000 146.490
52.80000 147.569
52.81000 148.611
52.82000 146.223
52.83000 142.690
52.84000 139.478
52.85000 139.698
52.86000 140.844
52.87000 141.919
52.88000 142.532
52.89000 143.064
52.90000 143.501
52.91000 136.927
52.92000 130.879
52.93000 127.062
52.94000 129.584
52.95000 132.493
52.96000 135.387
52.97000 138.251
52.98000 141.115
52.99000 142.742
53.00000 137.563
53.01000 133.937
53.02000 132.449
53.03000 132.788
53.04000 133.155
53.05000 135.021
53.06000 137.744
53.07000 140.372
53.08000 138.975
53.09000 136.179
53.10000 133.679
53.11000 134.257
53.12000 135.653
53.13000 137.113
53.14000 138.972
53.15000 140.900
53.16000 142.484
53.17000 137.413
53.18000 132.655
53.19000 130.511
53.20000 135.687
53.21000 141.299
53.22000 146.164
53.23000 149.597
53.24000 152.995
53.25000 154.914
53.26000 151.101
53.27000 148.436
53.28000 145.969
53.29000 143.670
53.30000 141.479
53.31000 144.888
53.32000 151.451
53.33000 157.779
53.34000 156.597
53.35000 152.767
53.36000 149.646
53.37000 153.755
53.38000 159.756
53.39000 164.471
53.40000 161.194
53.41000 156.536
53.42000 152.725
53.43000 151.200
53.44000 150.150
53.45000 149.676
53.46000 150.790
53.47000 151.996
53.48000 151.709
53.49000 148.604
53.50000 145.432
53.51000 143.654
53.52000 150.448
53.53000 155.173
53.54000 157.577
53.55000 158.062
53.56000 158.495
53.57000 156.422
53.58000 152.957
53.59000 149.621
53.60000 150.229
53.61000 152.204
53.62000 153.659
53.63000 149.919
53.64000 144.840
53.65000 140.729
53.66000 142.535
53.67000 145.347
53.68000 147.640
53.69000 146.173
53.70000 144.651
53.71000 143.942
53.72000 145.443
53.73000 147.068
53.74000 147.493
53.75000 145.684
53.76000 143.825
53.77000 142.790
53.78000 137.505
53.79000 133.849
53.80000 132.948
53.81000 134.292
53.82000 135.666
53.83000 138.478
53.84000 142.077
53.85000 145.538
53.86000 144.805
53.87000 142.647
53.88000 140.853
53.89000 142.617
53.90000 145.285
53.91000 147.476
53.92000 146.803
53.93000 145.652
53.94000 144.716
53.95000 142.946
53.96000 141.432
53.97000 139.949
53.98000 138.551
53.99000 137.158
54.00000 135.326
54.01000 132.691
54.02000 130.038
54.03000 128.573
54.04000 141.031
54.05000 149.626
54.06000 150.427
54.07000 144.983
54.08000 139.656
54.09000 139.577
54.10000 142.327
54.11000 144.968
54.12000 143.970
54.13000 141.781
54.14000 139.935
54.15000 141.376
54.16000 143.639
54.17000 144.914
54.18000 140.349
54.19000 134.826
54.20000 130.349
54.21000 130.783
54.22000 131.538
54.23000 133.330
54.24000 137.859
54.25000 142.535
54.26000 144.819
54.27000 142.784
54.28000 140.660
54.29000 139.496
54.30000 138.113
54.31000 137.161
54.32000 136.266
54.33000 135.415
54.34000 134.588
54.35000 134.744
54.36000 135.422
54.37000 136.073
54.38000 135.436
54.39000 134.404
54.40000 133.426
54.41000 132.960
54.42000 132.621
54.43000 132.343
54.44000 132.418
54.45000 132.550
54.46000 132.656
54.47000 136.961
54.48000 140.796
54.49000 143.608
54.50000 143.753
54.51000 143.760
54.52000 142.137
54.53000 137.611
54.54000 133.028
54.55000 130.533
54.56000 135.645
54.57000 139.156
54.58000 140.618
54.59000 140.489
54.60000 140.303
54.61000 137.778
54.62000 134.029
54.63000 130.437
54.64000 131.859
54.65000 134.861
54.66000 137.614
54.67000 138.075
54.68000 137.980
54.69000 138.325
54.70000 141.183
54.71000 144.440
54.72000 147.063
54.73000 146.309
54.74000 145.432
54.75000 144.712
54.76000 144.394
54.77000 144.096
54.78000 144.430
54.79000 145.874
54.80000 147.338
54.81000 148.129
54.82000 149.217
54.83000 149.954
54.84000 148.774
54.85000 146.130
54.86000 143.540
54.87000 143.083
54.88000 143.725
54.89000 144.339
54.90000 144.305
54.91000 144.060
54.92000 143.731
54.93000 142.646
54.94000 141.380
54.95000 140.277
54.96000 140.087
54.97000 140.040
54.98000 140.003
54.99000 139.820
55.00000 139.661
55.01000 139.516
55.02000 139.404
55.03000 139.295
55.04000 138.887
55.05000 137.965
55.06000 137.034
55.07000 136.535
55.08000 136.955
55.09000 137.253
55.10000 139.769
55.11000 143.954
55.12000 147.977
55.13000 145.913
55.14000 140.754
55.15000 135.825
55.16000 135.547
55.17000 136.793
55.18000 137.684
55.19000 135.426
55.20000 132.427
55.21000 130.860
55.22000 137.211
55.23000 144.774
55.24000 150.823
55.25000 149.843
55.26000 148.527
55.27000 147.252
55.28000 146.080
55.29000 144.913
55.30000 144.197
55.31000 144.249
55.32000 144.315
55.33000 144.350
55.34000 144.309
55.35000 144.279
55.36000 143.693
55.37000 142.696
55.38000 141.898
55.39000 148.314
55.40000 158.342
55.41000 167.913
55.42000 163.916
55.43000 155.887
55.44000 148.710
55.45000 148.937
55.46000 150.877
55.47000 153.209
55.48000 157.665
55.49000 162.440
55.50000 166.247
55.51000 161.900
55.52000 157.799
55.53000 156.379
55.54000 161.547
55.55000 167.019
55.56000 169.950
55.57000 168.618
55.58000 167.217
55.59000 166.478
55.60000 163.076
55.61000 160.800
55.62000 164.433
55.63000 172.377
55.64000 180.293
55.65000 187.241
55.66000 193.711
55.67000 199.878
55.68000 201.243
55.69000 201.006
55.70000 201.451
55.71000 207.707
55.72000 215.287
55.73000 222.669
55.74000 228.992
55.75000 235.158
55.76000 240.058
55.77000 246.163
55.78000 251.166
55.79000 258.038
55.80000 269.440
55.81000 281.044
55.82000 292.116
55.83000 302.310
55.84000 312.490
55.85000 317.824
55.86000 344.562
55.87000 362.668
55.88000 379.302
55.89000 394.879
55.90000 410.549
55.91000 429.312
55.92000 449.580
55.93000 468.871
55.94000 478.381
55.95000 484.171
55.96000 489.427
55.97000 490.230
55.98000 490.032
55.99000 492.631
56.00000 509.931
56.01000 529.365
56.02000 544.753
56.03000 552.927
56.04000 558.997
56.05000 563.473
56.06000 564.141
56.07000 564.645
56.08000 567.756
56.09000 575.112
56.10000 582.529
56.11000 586.384
56.12000 561.768
56.13000 545.178
56.14000 534.701
56.15000 528.546
56.16000 522.213
56.17000 510.129
56.18000 495.288
56.19000 481.182
56.20000 466.285
56.21000 452.278
56.22000 438.712
56.23000 428.763
56.24000 419.612
56.25000 410.459
56.26000 401.290
56.27000 392.120
56.28000 384.884
56.29000 362.950
56.30000 344.360
56.31000 329.797
56.32000 324.711
56.33000 320.021
56.34000 312.250
56.35000 299.532
56.36000 286.749
56.37000 280.158
56.38000 270.889
56.39000 264.620
56.40000 255.080
56.41000 243.260
56.42000 231.616
56.43000 225.378
56.44000 221.696
56.45000 218.201
56.46000 211.283
56.47000 203.878
56.48000 196.760
56.49000 191.947
56.50000 187.634
56.51000 184.364
56.52000 186.393
56.53000 189.164
56.54000 191.343
56.55000 189.797
56.56000 188.313
56.57000 185.242
56.58000 178.487
56.59000 171.584
56.60000 166.265
56.61000 163.451
56.62000 160.669
56.63000 159.246
56.64000 158.765
56.65000 158.438
56.66000 157.749
56.67000 156.811
56.68000 155.914
56.69000 156.214
56.70000 157.072
56.71000 157.885
56.72000 154.680
56.73000 150.550
56.74000 146.884
56.75000 146.884
56.76000 147.668
56.77000 148.190
56.78000 147.393
56.79000 146.415
56.80000 145.649
56.81000 146.048
56.82000 146.443
56.83000 147.202
56.84000 148.793
56.85000 150.417
56.86000 148.651
56.87000 141.606
56.88000 134.499
56.89000 130.895
56.90000 134.801
56.91000 137.396
56.92000 137.683
56.93000 136.409
56.94000 135.240
56.95000 137.046
56.96000 140.218
56.97000 143.220
56.98000 137.896
56.99000 130.596
57.00000 124.432
57.01000 127.062
57.02000 131.546
57.03000 135.015
57.04000 133.480
57.05000 131.270
57.06000 129.544
57.07000 126.945
57.08000 124.817
57.09000 123.984
57.10000 126.072
57.11000 128.270
57.12000 129.512
57.13000 129.286
57.14000 129.045
57.15000 128.923
57.16000 129.396
57.17000 129.732
57.18000 132.000
57.19000 135.554
57.20000 138.912
57.21000 136.815
57.22000 132.250
57.23000 127.936
57.24000 125.622
57.25000 124.064
57.26000 123.180
57.27000 127.407
57.28000 132.695
57.29000 136.575
57.30000 133.631
57.31000 129.782
57.32000 126.788
57.33000 129.898
57.34000 132.747
57.35000 134.635
57.36000 134.389
57.37000 134.065
57.38000 132.162
57.39000 127.873
57.40000 123.559
57.41000 121.297
57.42000 121.076
57.43000 120.893
57.44000 124.360
57.45000 130.219
57.46000 135.900
57.47000 136.809
57.48000 135.589
57.49000 134.438
57.50000 129.009
57.51000 122.836
57.52000 117.606
57.53000 119.398
57.54000 122.625
57.55000 125.438
57.56000 126.281
57.57000 126.868
57.58000 127.323
57.59000 132.314
57.60000 136.550
57.61000 138.058
57.62000 133.592
57.63000 128.915
57.64000 125.123
57.65000 122.649
57.66000 120.187
57.67000 119.514
57.68000 120.590
57.69000 121.679
57.70000 123.863
57.71000 126.755
57.72000 129.532
57.73000 129.338
57.74000 127.837
57.75000 126.423
57.76000 125.994
57.77000 125.872
57.78000 125.951
57.79000 127.502
57.80000 129.348
57.81000 130.251
57.82000 126.721
57.83000 122.626
57.84000 119.463
57.85000 122.510
57.86000 125.286
57.87000 126.585
57.88000 124.693
57.89000 122.693
57.90000 121.332
57.91000 120.908
57.92000 120.492
57.93000 121.957
57.94000 125.230
57.95000 128.472
57.96000 129.147
57.97000 128.190
57.98000 127.326
57.99000 128.793
58.00000 131.271
58.01000 133.602
58.02000 135.802
58.03000 137.776
58.04000 138.874
58.05000 133.672
58.06000 127.225
58.07000 122.058
58.08000 122.814
58.09000 124.311
58.10000 125.463
58.11000 119.384
58.12000 114.164
58.13000 112.634
58.14000 118.955
58.15000 125.533
58.16000 128.430
58.17000 126.011
58.18000 123.549
58.19000 121.727
58.20000 120.509
58.21000 119.299
58.22000 118.677
58.23000 118.424
58.24000 118.185
58.25000 118.288
58.26000 118.537
58.27000 118.771
58.28000 117.485
58.29000 115.907
58.30000 114.638
58.31000 115.537
58.32000 116.859
58.33000 118.128
58.34000 119.153
58.35000 120.148
58.36000 120.911
58.37000 120.403
58.38000 119.932
58.39000 119.278
58.40000 118.244
58.41000 117.197
58.42000 117.874
58.43000 121.004
58.44000 124.152
58.45000 123.574
58.46000 119.533
58.47000 115.527
58.48000 114.094
58.49000 114.250
58.50000 114.489
58.51000 116.661
58.52000 119.646
58.53000 122.445
58.54000 124.067
58.55000 125.235
58.56000 125.969
58.57000 123.696
58.58000 120.848
58.59000 118.845
58.60000 120.632
58.61000 122.876
58.62000 124.589
58.63000 124.910
58.64000 125.089
58.65000 125.471
58.66000 126.276
58.67000 127.093
58.68000 127.372
58.69000 126.895
58.70000 126.413
58.71000 122.949
58.72000 116.761
58.73000 110.662
58.74000 110.623
58.75000 114.271
58.76000 117.800
58.77000 118.637
58.78000 118.356
58.79000 118.094
58.80000 118.894
58.81000 119.895
58.82000 120.965
58.83000 122.510
58.84000 124.143
58.85000 125.057
58.86000 122.795
58.87000 120.158
58.88000 118.152
58.89000 117.282
58.90000 116.657
58.91000 116.857
58.92000 118.737
58.93000 120.665
58.94000 120.779
58.95000 118.389
58.96000 115.984
58.97000 116.153
58.98000 118.634
58.99000 121.081
59.00000 121.367
59.01000 120.359
59.02000 119.309
59.03000 117.352
59.04000 115.025
59.05000 112.850
59.06000 112.271
59.07000 112.149
59.08000 112.171
59.09000 113.155
59.10000 114.317
59.11000 115.580
59.12000 117.281
59.13000 119.034
59.14000 120.362
59.15000 119.251
59.16000 118.254
59.17000 117.177
59.18000 115.936
59.19000 114.690
59.20000 114.612
59.21000 116.119
59.22000 117.633
59.23000 117.299
59.24000 115.331
59.25000 113.386
59.26000 112.877
59.27000 113.215
59.28000 113.666
59.29000 116.522
59.30000 120.349
59.31000 123.919
59.32000 121.799
59.33000 118.463
59.34000 115.619
59.35000 116.017
59.36000 117.005
59.37000 117.657
59.38000 116.871
59.39000 115.922
59.40000 115.205
59.41000 116.328
59.42000 117.299
59.43000 117.545
59.44000 116.357
59.45000 115.131
59.46000 114.304
59.47000 114.012
59.48000 113.723
59.49000 114.612
59.50000 116.526
59.51000 118.396
59.52000 117.809
59.53000 115.793
59.54000 113.843
59.55000 113.288
59.56000 113.288
59.57000 113.287
59.58000 112.204
59.59000 110.958
59.60000 110.418
59.61000 114.428
59.62000 119.255
59.63000 122.627
59.64000 119.874
59.65000 116.438
59.66000 113.855
59.67000 110.966
59.68000 108.692
59.69000 108.777
59.70000 113.458
59.71000 118.259
59.72000 120.484
59.73000 119.321
59.74000 118.144
59.75000 116.337
59.76000 113.997
59.77000 111.718
59.78000 112.861
59.79000 115.964
59.80000 119.073
59.81000 122.289
59.82000 125.547
59.83000 128.576
59.84000 126.292
59.85000 122.950
59.86000 120.001
59.87000 119.549
59.88000 119.538
59.89000 119.626
59.90000 120.128
59.91000 120.674
59.92000 121.083
59.93000 121.467
59.94000 121.765
59.95000 121.463
59.96000 120.006
59.97000 118.520
59.98000 117.208
59.99000 116.121
60.00000 115.035
60.01000 114.960
60.02000 115.734
60.03000 116.555
60.04000 119.820
60.05000 124.466
60.06000 128.828
60.07000 127.670
60.08000 124.381
60.09000 121.327
60.10000 120.435
60.11000 120.142
60.12000 119.795
60.13000 119.107
60.14000 118.360
60.15000 118.071
60.16000 119.650
60.17000 121.430
60.18000 122.756
60.19000 123.312
60.20000 123.710
60.21000 123.130
60.22000 120.698
60.23000 118.221
60.24000 118.236
60.25000 121.427
60.26000 124.626
60.27000 125.194
60.28000 123.584
60.29000 122.004
60.30000 121.987
60.31000 122.840
60.32000 123.411
60.33000 118.654
60.34000 111.869
60.35000 105.581
60.36000 105.837
60.37000 107.590
60.38000 109.402
60.39000 111.571
60.40000 113.801
60.41000 116.467
60.42000 120.887
60.43000 125.491
60.44000 128.910
60.45000 123.885
60.46000 119.608
60.47000 117.102
60.48000 117.901
60.49000 118.774
60.50000 118.806
60.51000 117.780
60.52000 116.752
60.53000 117.010
60.54000 118.313
60.55000 119.585
60.56000 119.374
60.57000 118.350
60.58000 117.359
60.59000 116.979
60.60000 116.828
60.61000 116.688
60.62000 120.365
60.63000 124.541
60.64000 127.791
60.65000 125.459
60.66000 122.191
60.67000 119.111
60.68000 116.776
60.69000 114.518
60.70000 112.848
60.71000 115.958
60.72000 118.576
60.73000 119.181
60.74000 116.088
60.75000 112.914
60.76000 111.238
60.77000 111.413
60.78000 111.592
60.79000 112.758
60.80000 114.708
60.81000 116.681
60.82000 119.695
60.83000 123.271
60.84000 126.547
60.85000 124.442
60.86000 120.348
60.87000 116.567
60.88000 117.957
60.89000 120.366
60.90000 122.100
60.91000 119.824
60.92000 116.888
60.93000 115.321
60.94000 119.095
60.95000 123.407
60.96000 126.582
60.97000 122.822
60.98000 119.624
60.99000 116.994
61.00000 115.395
61.01000 113.818
61.02000 114.631
61.03000 118.351
61.04000 122.070
61.05000 122.815
61.06000 121.212
61.07000 119.662
61.08000 120.363
61.09000 122.264
61.10000 124.118
61.11000 125.169
61.12000 125.928
61.13000 126.627
61.14000 126.696
61.15000 126.618
61.16000 126.523
61.17000 126.327
61.18000 126.114
61.19000 125.964
61.20000 126.056
61.21000 126.172
61.22000 126.257
61.23000 123.795
61.24000 121.789
61.25000 120.792
61.26000 121.593
61.27000 122.431
61.28000 121.822
61.29000 119.484
61.30000 117.147
61.31000 117.190
61.32000 119.077
61.33000 120.967
61.34000 122.932
61.35000 124.936
61.36000 126.888
61.37000 127.969
61.38000 128.736
61.39000 129.443
61.40000 127.875
61.41000 125.979
61.42000 124.272
61.43000 123.647
61.44000 123.195
61.45000 123.500
61.46000 126.668
61.47000 130.113
61.48000 132.629
61.49000 141.228
61.50000 148.094
61.51000 153.543
61.52000 156.498
61.53000 159.405
61.54000 170.767
61.55000 192.089
61.56000 213.375
61.57000 228.386
61.58000 238.523
61.59000 248.692
61.60000 260.157
61.61000 272.293
61.62000 284.165
61.63000 291.699
61.64000 297.696
61.65000 303.204
61.66000 308.940
61.67000 314.107
61.68000 318.630
61.69000 319.529
61.70000 319.861
61.71000 320.151
61.72000 320.288
61.73000 320.410
61.74000 320.499
61.75000 307.109
61.76000 296.299
61.77000 283.709
61.78000 268.036
61.79000 252.307
61.80000 235.848
61.81000 218.543
61.82000 201.283
61.83000 189.158
61.84000 180.965
61.85000 172.748
61.86000 163.608
61.87000 153.998
61.88000 145.036
61.89000 146.510
61.90000 151.626
61.91000 156.314
61.92000 149.951
61.93000 141.960
61.94000 134.971
61.95000 133.529
61.96000 132.940
61.97000 131.771
61.98000 128.473
61.99000 124.978
62.00000 122.448
62.01000 126.572
62.02000 129.983
62.03000 130.415
62.04000 125.759
62.05000 121.016
62.06000 118.657
62.07000 119.016
62.08000 119.377
62.09000 122.645
62.10000 128.033
62.11000 133.301
62.12000 134.236
62.13000 132.993
62.14000 131.739
62.15000 130.314
62.16000 128.830
62.17000 127.472
62.18000 126.951
62.19000 126.661
62.20000 126.420
62.21000 126.450
62.22000 126.521
62.23000 126.114
62.24000 123.979
62.25000 121.688
62.26000 120.036
62.27000 123.500
62.28000 126.336
62.29000 128.778
62.30000 130.557
62.31000 132.326
62.32000 133.807
62.33000 134.966
62.34000 136.121
62.35000 134.684
62.36000 131.377
62.37000 128.158
62.38000 127.978
62.39000 129.305
62.40000 130.547
62.41000 130.501
62.42000 130.020
62.43000 129.580
62.44000 127.119
62.45000 124.525
62.46000 122.526
62.47000 123.723
62.48000 125.393
62.49000 127.176
62.50000 129.355
62.51000 131.569
62.52000 133.158
62.53000 130.367
62.54000 128.083
62.55000 127.046
62.56000 128.077
62.57000 129.139
62.58000 129.606
62.59000 129.416
62.60000 129.226
62.61000 129.313
62.62000 129.597
62.63000 129.889
62.64000 130.443
62.65000 131.125
62.66000 131.759
62.67000 131.685
62.68000 131.375
62.69000 131.093
62.70000 131.622
62.71000 132.254
62.72000 132.891
62.73000 133.561
62.74000 134.236
62.75000 133.833
62.76000 129.643
62.77000 125.124
62.78000 121.896
62.79000 128.699
62.80000 134.222
62.81000 137.720
62.82000 137.908
62.83000 138.048
62.84000 135.970
62.85000 131.482
62.86000 127.012
62.87000 130.312
62.88000 139.040
62.89000 147.466
62.90000 146.129
62.91000 140.094
62.92000 134.457
62.93000 134.603
62.94000 136.652
62.95000 138.516
62.96000 143.191
62.97000 147.876
62.98000 150.664
62.99000 143.599
63.00000 135.122
63.01000 129.060
63.02000 131.352
63.03000 134.352
63.04000 136.485
63.05000 132.558
63.06000 129.374
63.07000 127.062
63.08000 126.154
63.09000 125.265
63.10000 128.384
63.11000 135.783
63.12000 143.151
63.13000 146.844
63.14000 147.957
63.15000 148.915
63.16000 145.035
63.17000 138.862
63.18000 133.128
63.19000 133.623
63.20000 136.139
63.21000 138.422
63.22000 137.360
63.23000 135.777
63.24000 134.793
63.25000 136.866
63.26000 139.368
63.27000 139.717
63.28000 132.723
63.29000 125.120
63.30000 119.739
63.31000 125.900
63.32000 130.939
63.33000 135.419
63.34000 139.012
63.35000 142.594
63.36000 142.054
63.37000 137.183
63.38000 132.336
63.39000 130.981
63.40000 132.018
63.41000 133.066
63.42000 134.461
63.43000 136.016
63.44000 137.609
63.45000 139.709
63.46000 141.972
63.47000 144.021
63.48000 143.816
63.49000 143.208
63.50000 142.235
63.51000 139.428
63.52000 136.368
63.53000 134.769
63.54000 138.078
63.55000 141.786
63.56000 144.398
63.57000 143.881
63.58000 143.396
63.59000 143.616
63.60000 144.937
63.61000 146.271
63.62000 142.812
63.63000 134.400
63.64000 126.033
63.65000 125.597
63.66000 130.476
63.67000 135.286
63.68000 138.096
63.69000 139.984
63.70000 141.642
63.71000 140.194
63.72000 137.768
63.73000 135.575
63.74000 138.145
63.75000 141.293
63.76000 143.657
63.77000 142.145
63.78000 140.108
63.79000 138.640
63.80000 139.056
63.81000 139.620
63.82000 140.016
63.83000 140.645
63.84000 141.127
63.85000 141.557
63.86000 141.907
63.87000 142.256
63.88000 143.610
63.89000 145.984
63.90000 148.343
63.91000 148.178
63.92000 146.351
63.93000 144.634
63.94000 145.995
63.95000 148.754
63.96000 151.001
63.97000 146.515
63.98000 139.938
63.99000 134.006
64.00000 142.533
64.01000 152.666
64.02000 160.311
64.03000 155.847
64.04000 149.771
64.05000 145.138
64.06000 145.207
64.07000 145.641
64.08000 145.943
64.09000 150.872
64.10000 154.723
64.11000 157.411
64.12000 158.337
64.13000 159.244
64.14000 158.782
64.15000 156.953
64.16000 155.134
64.17000 154.971
64.18000 155.884
64.19000 156.742
64.20000 156.128
64.21000 154.855
64.22000 153.459
64.23000 150.477
64.24000 147.010
64.25000 143.889
64.26000 145.234
64.27000 147.215
64.28000 149.359
64.29000 152.281
64.30000 155.304
64.31000 157.846
64.32000 158.838
64.33000 159.714
64.34000 160.322
64.35000 160.136
64.36000 159.974
64.37000 159.228
64.38000 157.608
64.39000 155.979
64.40000 153.146
64.41000 149.131
64.42000 145.142
64.43000 147.682
64.44000 154.349
64.45000 160.835
64.46000 162.607
64.47000 162.301
64.48000 161.907
64.49000 160.398
64.50000 158.553
64.51000 156.895
64.52000 153.366
64.53000 149.946
64.54000 148.534
64.55000 156.585
64.56000 165.850
64.57000 173.164
64.58000 174.302
64.59000 174.985
64.60000 175.457
64.61000 176.927
64.62000 178.058
64.63000 177.296
64.64000 173.752
64.65000 170.183
64.66000 170.769
64.67000 175.364
64.68000 179.926
64.69000 177.713
64.70000 171.282
64.71000 165.282
64.72000 170.138
64.73000 179.712
64.74000 188.425
64.75000 186.543
64.76000 181.515
64.77000 177.009
64.78000 175.008
64.79000 173.694
64.80000 172.670
64.81000 172.995
64.82000 173.489
64.83000 173.399
64.84000 171.488
64.85000 169.446
64.86000 168.040
64.87000 168.420
64.88000 168.750
64.89000 171.705
64.90000 178.463
64.91000 185.253
64.92000 189.299
64.93000 190.742
64.94000 192.174
64.95000 191.769
64.96000 190.236
64.97000 188.718
64.98000 187.548
64.99000 186.527
65.00000 185.949
65.01000 190.699
65.02000 197.007
65.03000 202.650
65.04000 200.351
65.05000 196.995
65.06000 194.825
65.07000 198.079
65.08000 202.002
65.09000 203.591
65.10000 198.001
65.11000 191.907
65.12000 187.735
65.13000 200.935
65.14000 211.234
65.15000 217.158
65.16000 216.839
65.17000 216.473
65.18000 216.056
65.19000 215.591
65.20000 215.131
65.21000 214.639
65.22000 214.138
65.23000 213.733
65.24000 215.604
65.25000 218.435
65.26000 220.908
65.27000 219.156
65.28000 216.188
65.29000 213.538
65.30000 220.135
65.31000 227.423
65.32000 234.597
65.33000 241.262
65.34000 247.865
65.35000 253.653
65.36000 256.972
65.37000 260.122
65.38000 262.268
65.39000 263.470
65.40000 264.347
65.41000 265.661
65.42000 267.588
65.43000 269.520
65.44000 272.876
65.45000 277.540
65.46000 282.162
65.47000 286.945
65.48000 291.732
65.49000 296.618
65.50000 303.774
65.51000 311.874
65.52000 320.073
65.53000 329.414
65.54000 339.079
65.55000 347.685
65.56000 363.640
65.57000 378.708
65.58000 392.812
65.59000 402.646
65.60000 411.971
65.61000 422.996
65.62000 439.095
65.63000 455.533
65.64000 466.675
65.65000 518.833
65.66000 558.625
65.67000 607.365
65.68000 668.486
65.69000 729.698
65.70000 809.368
65.71000 905.711
65.72000 1001.143
65.73000 1111.799
65.74000 1229.165
65.75000 1346.959
65.76000 1474.209
65.77000 1605.339
65.78000 1733.449
65.79000 1827.623
65.80000 1912.305
65.81000 1987.543
65.82000 2046.203
65.83000 2094.407
65.84000 2135.790
65.85000 2147.438
65.86000 2155.620
65.87000 2156.627
65.88000 2136.517
65.89000 2115.031
65.90000 2100.541
65.91000 2062.078
65.92000 2032.955
65.93000 1984.832
65.94000 1910.824
65.95000 1836.638
65.96000 1728.754
65.97000 1590.929
65.98000 1454.489
65.99000 1314.820
66.00000 1176.281
66.01000 1038.823
66.02000 924.604
66.03000 819.783
66.04000 719.188
66.05000 665.027
66.06000 623.664
66.07000 586.996
66.08000 547.474
66.09000 512.806
66.10000 479.716
66.11000 453.397
66.12000 427.852
66.13000 408.608
66.14000 407.648
66.15000 407.849
66.16000 407.984
66.17000 410.622
66.18000 412.632
66.19000 412.352
66.20000 409.002
66.21000 405.639
66.22000 405.614
66.23000 408.507
66.24000 411.369
66.25000 425.699
66.26000 446.249
66.27000 466.879
66.28000 489.186
66.29000 512.160
66.30000 535.144
66.31000 558.228
66.32000 581.339
66.33000 601.779
66.34000 614.823
66.35000 624.945
66.36000 634.392
66.37000 640.981
66.38000 647.249
66.39000 656.527
66.40000 674.411
66.41000 692.827
66.42000 705.118
66.43000 679.664
66.44000 660.077
66.45000 647.044
66.46000 642.666
66.47000 638.325
66.48000 631.135
66.49000 621.495
66.50000 611.964
66.51000 592.725
66.52000 568.491
66.53000 544.038
66.54000 515.155
66.55000 484.533
66.56000 455.706
66.57000 445.787
66.58000 440.925
66.59000 436.635
66.60000 417.812
66.61000 399.358
66.62000 385.158
66.63000 388.665
66.64000 394.116
66.65000 395.547
66.66000 385.649
66.67000 375.068
66.68000 368.042
66.69000 371.124
66.70000 373.590
66.71000 375.529
66.72000 376.785
66.73000 378.031
66.74000 375.203
66.75000 368.927
66.76000 362.726
66.77000 361.910
66.78000 364.089
66.79000 366.358
66.80000 370.387
66.81000 375.098
66.82000 378.816
66.83000 372.308
66.84000 363.106
66.85000 355.006
66.86000 363.682
66.87000 373.665
66.88000 383.508
66.89000 392.775
66.90000 401.979
66.91000 406.721
66.92000 399.068
66.93000 390.689
66.94000 385.154
66.95000 391.631
66.96000 396.620
66.97000 396.574
66.98000 390.082
66.99000 383.572
67.00000 379.834
67.01000 378.406
67.02000 376.996
67.03000 383.078
67.04000 393.078
67.05000 402.729
67.06000 405.714
67.07000 406.155
67.08000 406.670
67.09000 407.938
67.10000 409.402
67.11000 410.687
67.12000 405.638
67.13000 400.368
67.14000 397.308
67.15000 403.167
67.16000 409.967
67.17000 413.639
67.18000 408.743
67.19000 403.359
67.20000 399.822
67.21000 408.984
67.22000 415.941
67.23000 418.223
67.24000 414.614
67.25000 411.000
67.26000 412.871
67.27000 419.239
67.28000 425.523
67.29000 424.846
67.30000 420.462
67.31000 416.396
67.32000 418.229
67.33000 422.281
67.34000 426.094
67.35000 427.536
67.36000 428.373
67.37000 429.106
67.38000 429.022
67.39000 428.833
67.40000 429.347
67.41000 432.660
67.42000 436.262
67.43000 438.591
67.44000 437.487
67.45000 436.192
67.46000 435.346
67.47000 450.425
67.48000 461.755
67.49000 464.932
67.50000 457.999
67.51000 451.050
67.52000 448.729
67.53000 450.143
67.54000 451.536
67.55000 449.701
67.56000 446.217
67.57000 443.216
67.58000 448.943
67.59000 457.906
67.60000 465.851
67.61000 463.936
67.62000 459.540
67.63000 455.698
67.64000 457.908
67.65000 460.659
67.66000 462.110
67.67000 458.475
67.68000 454.326
67.69000 454.886
67.70000 467.970
67.71000 481.730
67.72000 490.672
67.73000 501.374
67.74000 509.243
67.75000 510.883
67.76000 504.919
67.77000 498.940
67.78000 493.870
67.79000 489.522
67.80000 485.239
67.81000 488.241
67.82000 494.932
67.83000 501.165
67.84000 499.344
67.85000 494.580
67.86000 490.182
67.87000 489.250
67.88000 489.178
67.89000 489.116
67.90000 496.349
67.91000 503.545
67.92000 509.069
67.93000 508.146
67.94000 506.584
67.95000 506.931
67.96000 512.282
67.97000 517.896
67.98000 521.524
67.99000 517.957
68.00000 515.245
68.01000 517.968
68.02000 527.221
68.03000 536.476
68.04000 542.763
68.05000 546.730
68.06000 550.636
68.07000 551.369
68.08000 550.459
68.09000 550.000
68.10000 557.235
68.11000 567.241
68.12000 575.854
68.13000 571.520
68.14000 564.024
68.15000 557.505
68.16000 567.804
68.17000 578.883
68.18000 588.021
68.19000 589.779
68.20000 590.821
68.21000 592.682
68.22000 596.661
68.23000 600.747
68.24000 603.373
68.25000 594.279
68.26000 587.483
68.27000 588.759
68.28000 599.578
68.29000 610.398
68.30000 617.745
68.31000 622.419
68.32000 627.017
68.33000 628.299
68.34000 627.874
68.35000 627.742
68.36000 632.488
68.37000 638.966
68.38000 645.544
68.39000 653.037
68.40000 660.750
68.41000 667.440
68.42000 683.512
68.43000 698.455
68.44000 710.581
68.45000 712.171
68.46000 712.760
68.47000 715.024
68.48000 721.559
68.49000 728.304
68.50000 732.615
68.51000 739.784
68.52000 745.039
68.53000 753.300
68.54000 765.056
68.55000 776.869
68.56000 799.744
68.57000 831.000
68.58000 861.725
68.59000 893.153
68.60000 923.885
68.61000 954.865
68.62000 989.879
68.63000 1026.304
68.64000 1061.601
68.65000 1086.822
68.66000 1109.657
68.67000 1129.416
68.68000 1210.460
68.69000 1287.396
68.70000 1354.733
68.71000 1386.698
68.72000 1415.372
68.73000 1453.995
68.74000 1517.589
68.75000 1582.382
68.76000 1623.557
68.77000 1695.239
68.78000 1747.675
68.79000 1811.064
68.80000 1886.989
68.81000 1962.926
68.82000 2038.276
68.83000 2113.189
68.84000 2186.770
68.85000 2302.500
68.86000 2434.754
68.87000 2571.350
68.88000 2776.363
68.89000 3004.971
68.90000 3265.080
68.91000 3800.999
68.92000 4401.212
68.93000 4919.231
68.94000 6626.733
68.95000 8228.664
68.96000 10147.543
68.97000 13217.138
68.98000 16391.523
68.99000 19807.166
69.00000 23819.582
69.01000 27859.818
69.02000 30412.609
69.03000 35139.703
69.04000 38590.445
69.05000 41389.277
69.06000 43454.000
69.07000 45513.727
69.08000 46815.211
69.09000 47559.816
69.10000 48290.574
69.11000 49069.953
69.12000 49844.762
69.13000 50620.402
69.14000 51408.770
69.15000 52201.465
69.16000 52952.848
69.17000 53349.547
69.18000 53664.840
69.19000 53936.250
69.20000 52556.188
69.21000 51178.945
69.22000 49428.430
69.23000 46342.824
69.24000 43138.270
69.25000 39974.320
69.26000 36909.375
69.27000 33848.902
69.28000 31926.373
69.29000 29724.320
69.30000 28129.236
69.31000 26943.668
69.32000 26211.758
69.33000 25481.346
69.34000 24940.943
69.35000 24537.953
69.36000 24142.791
69.37000 23498.479
69.38000 22760.535
69.39000 21975.459
69.40000 20484.637
69.41000 18757.416
69.42000 16990.146
69.43000 14885.657
69.44000 12704.963
69.45000 10832.688
69.46000 8853.349
69.47000 7166.694
69.48000 5646.282
69.49000 4711.666
69.50000 3828.103
69.51000 3085.262
69.52000 2680.605
69.53000 2290.764
69.54000 2047.307
69.55000 1788.487
69.56000 1601.636
69.57000 1461.685
69.58000 1372.841
69.59000 1284.124
69.60000 1210.262
69.61000 1146.980
69.62000 1084.980
69.63000 1052.357
69.64000 1034.618
69.65000 1015.691
69.66000 979.420
69.67000 937.423
69.68000 896.559
69.69000 865.045
69.70000 835.611
69.71000 810.407
69.72000 804.439
69.73000 801.736
69.74000 796.354
69.75000 781.673
69.76000 766.200
69.77000 750.210
69.78000 732.995
69.79000 715.729
69.80000 705.010
69.81000 676.929
69.82000 656.550
69.83000 643.781
69.84000 639.168
69.85000 634.521
69.86000 625.096
69.87000 612.321
69.88000 599.816
69.89000 579.812
69.90000 557.174
69.91000 535.824
69.92000 532.820
69.93000 535.785
69.94000 538.699
69.95000 541.208
69.96000 543.629
69.97000 545.696
69.98000 529.358
69.99000 513.407
70.00000 501.324
