20.00000 484.247
20.01000 488.595
20.02000 493.563
20.03000 496.335
20.04000 490.444
20.05000 483.668
20.06000 478.663
20.07000 498.501
20.08000 514.932
20.09000 522.410
20.10000 513.495
20.11000 504.230
20.12000 497.857
20.13000 495.043
20.14000 492.242
20.15000 484.370
20.16000 472.491
20.17000 460.880
20.18000 461.226
20.19000 468.007
20.20000 474.681
20.21000 479.456
20.22000 483.532
20.23000 487.294
20.24000 490.008
20.25000 492.205
20.26000 492.573
20.27000 482.150
20.28000 469.958
20.29000 462.979
20.30000 476.251
20.31000 491.552
20.32000 502.804
20.33000 492.205
20.34000 483.106
20.35000 480.699
20.36000 490.366
20.37000 500.279
20.38000 501.794
20.39000 493.142
20.40000 484.484
20.41000 482.331
20.42000 485.289
20.43000 488.007
20.44000 480.547
20.45000 467.688
20.46000 455.734
20.47000 459.418
20.48000 468.774
20.49000 477.393
20.50000 477.539
20.51000 475.804
20.52000 473.784
20.53000 470.112
20.54000 466.174
20.55000 465.428
20.56000 476.897
20.57000 489.564
20.58000 498.840
20.59000 494.418
20.60000 490.458
20.61000 486.710
20.62000 483.340
20.63000 479.978
20.64000 476.181
20.65000 471.866
20.66000 467.560
20.67000 470.254
20.68000 478.330
20.69000 486.234
20.70000 487.123
20.71000 484.345
20.72000 481.597
20.73000 479.363
20.74000 477.313
20.75000 475.429
20.76000 476.469
20.77000 478.031
20.78000 479.105
20.79000 477.401
20.80000 475.256
20.81000 472.967
20.82000 470.131
20.83000 467.243
20.84000 465.137
20.85000 466.144
20.86000 467.041
20.87000 469.935
20.88000 476.329
20.89000 482.788
20.90000 483.556
20.91000 477.652
20.92000 471.753
20.93000 468.179
20.94000 466.392
20.95000 464.608
20.96000 462.927
20.97000 461.300
20.98000 460.192
20.99000 467.594
21.00000 477.996
21.01000 487.543
21.02000 481.721
21.03000 473.261
21.04000 466.401
21.05000 468.519
21.06000 472.033
21.07000 475.812
21.08000 480.573
21.09000 485.426
21.10000 488.950
21.11000 485.259
21.12000 482.150
21.13000 479.408
21.14000 477.297
21.15000 475.197
21.16000 474.560
21.17000 475.612
21.18000 476.662
21.19000 480.792
21.20000 487.190
21.21000 493.375
21.22000 491.595
21.23000 485.771
21.24000 480.319
21.25000 480.800
21.26000 483.341
21.27000 485.668
21.28000 485.955
21.29000 485.783
21.30000 485.721
21.31000 486.265
21.32000 486.901
21.33000 488.017
21.34000 490.883
21.35000 493.911
21.36000 496.100
21.37000 492.984
21.38000 490.401
21.39000 487.814
21.40000 485.220
21.41000 482.625
21.42000 478.340
21.43000 472.135
21.44000 465.948
21.45000 464.703
21.46000 467.098
21.47000 469.526
21.48000 473.154
21.49000 477.382
21.50000 481.295
21.51000 480.314
21.52000 477.658
21.53000 475.229
21.54000 483.817
21.55000 493.712
21.56000 500.413
21.57000 489.787
21.58000 476.558
21.59000 467.945
21.60000 475.965
21.61000 485.482
21.62000 492.331
21.63000 481.110
21.64000 471.883
21.65000 469.212
21.66000 477.526
21.67000 486.013
21.68000 489.120
21.69000 486.220
21.70000 483.325
21.71000 486.704
21.72000 494.588
21.73000 502.308
21.74000 504.393
21.75000 503.699
21.76000 502.920
21.77000 500.852
21.78000 498.349
21.79000 496.064
21.80000 496.035
21.81000 496.464
21.82000 497.775
21.83000 503.793
21.84000 510.506
21.85000 515.815
21.86000 516.140
21.87000 516.025
21.88000 515.943
21.89000 510.108
21.90000 505.453
21.91000 508.301
21.92000 523.536
21.93000 538.955
21.94000 544.278
21.95000 538.512
21.96000 532.763
21.97000 534.813
21.98000 542.388
21.99000 549.772
22.00000 550.790
22.01000 548.714
22.02000 547.400
22.03000 557.343
22.04000 571.029
22.05000 583.493
22.06000 581.839
22.07000 577.572
22.08000 574.745
22.09000 579.474
22.10000 585.299
22.11000 589.786
22.12000 589.591
22.13000 588.992
22.14000 588.565
22.15000 588.850
22.16000 589.091
22.17000 587.176
22.18000 581.754
22.19000 576.282
22.20000 575.297
22.21000 579.158
22.22000 583.006
22.23000 580.895
22.24000 574.638
22.25000 568.428
22.26000 563.703
22.27000 559.691
22.28000 555.907
22.29000 555.420
22.30000 556.014
22.31000 556.553
22.32000 551.874
22.33000 546.720
22.34000 541.669
22.35000 537.145
22.36000 532.696
22.37000 529.529
22.38000 530.778
22.39000 532.399
22.40000 533.550
22.41000 527.675
22.42000 522.982
22.43000 514.511
22.44000 499.986
22.45000 485.381
22.46000 481.796
22.47000 489.921
22.48000 498.010
22.49000 499.819
22.50000 497.287
22.51000 494.557
22.52000 485.748
22.53000 474.069
22.54000 463.390
22.55000 466.782
22.56000 474.718
22.57000 481.916
22.58000 479.368
22.59000 475.252
22.60000 472.295
22.61000 475.228
22.62000 478.984
22.63000 481.419
22.64000 479.368
22.65000 476.947
22.66000 475.236
22.67000 472.490
22.68000 470.373
22.69000 463.283
22.70000 448.342
22.71000 433.303
22.72000 426.904
22.73000 429.533
22.74000 432.150
22.75000 436.264
22.76000 441.344
22.77000 446.446
22.78000 452.178
22.79000 458.204
22.80000 463.541
22.81000 459.421
22.82000 452.291
22.83000 445.836
22.84000 448.090
22.85000 451.716
22.86000 454.536
22.87000 453.323
22.88000 451.556
22.89000 451.408
22.90000 456.671
22.91000 462.371
22.92000 466.381
22.93000 450.704
22.94000 438.241
22.95000 431.269
22.96000 432.836
22.97000 434.502
22.98000 438.431
22.99000 444.685
23.00000 450.905
23.01000 454.803
23.02000 457.105
23.03000 459.282
23.04000 457.882
23.05000 454.840
23.06000 451.553
23.07000 444.983
23.08000 437.383
23.09000 430.518
23.10000 431.461
23.11000 433.735
23.12000 434.922
23.13000 430.750
23.14000 425.856
23.15000 423.666
23.16000 430.389
23.17000 437.812
23.18000 443.011
23.19000 440.120
23.20000 437.703
23.21000 433.338
23.22000 425.987
23.23000 418.603
23.24000 418.958
23.25000 427.130
23.26000 435.255
23.27000 435.540
23.28000 430.682
23.29000 426.191
23.30000 431.844
23.31000 442.082
23.32000 451.697
23.33000 453.155
23.34000 452.094
23.35000 451.137
23.36000 442.138
23.37000 432.777
23.38000 424.385
23.39000 420.692
23.40000 417.621
23.41000 417.639
23.42000 427.686
23.43000 438.504
23.44000 446.044
23.45000 452.426
23.46000 457.211
23.47000 457.607
23.48000 451.382
23.49000 445.090
23.50000 441.596
23.51000 440.882
23.52000 440.172
23.53000 440.380
23.54000 441.178
23.55000 441.798
23.56000 437.703
23.57000 431.507
23.58000 426.031
23.59000 429.766
23.60000 436.304
23.61000 442.187
23.62000 448.439
23.63000 453.984
23.64000 457.168
23.65000 449.099
23.66000 439.568
23.67000 433.134
23.68000 436.610
23.69000 440.829
23.70000 443.755
23.71000 442.767
23.72000 441.920
23.73000 442.919
23.74000 446.662
23.75000 450.430
23.76000 449.677
23.77000 444.506
23.78000 439.372
23.79000 439.648
23.80000 443.355
23.81000 446.686
23.82000 440.341
23.83000 429.745
23.84000 421.003
23.85000 435.415
23.86000 456.773
23.87000 475.947
23.88000 473.420
23.89000 467.402
23.90000 461.717
23.91000 457.594
23.92000 453.670
23.93000 450.149
23.94000 447.900
23.95000 445.744
23.96000 444.256
23.97000 449.902
23.98000 454.327
23.99000 457.986
24.00000 460.524
24.01000 463.051
24.02000 456.224
24.03000 440.412
24.04000 424.718
24.05000 418.204
24.06000 417.534
24.07000 417.136
24.08000 423.521
24.09000 432.842
24.10000 441.404
24.11000 440.699
24.12000 437.255
24.13000 434.169
24.14000 437.146
24.15000 440.790
24.16000 442.961
24.17000 438.331
24.18000 432.849
24.19000 430.999
24.20000 440.430
24.21000 450.668
24.22000 457.701
24.23000 447.220
24.24000 438.930
24.25000 434.015
24.26000 433.967
24.27000 433.959
24.28000 433.851
24.29000 433.648
24.30000 433.448
24.31000 427.063
24.32000 416.988
24.33000 407.638
24.34000 415.787
24.35000 431.404
24.36000 445.470
24.37000 441.047
24.38000 431.241
24.39000 422.475
24.40000 412.328
24.41000 403.250
24.42000 397.013
24.43000 403.691
24.44000 411.955
24.45000 418.563
24.46000 420.097
24.47000 421.278
24.48000 422.085
24.49000 424.336
24.50000 426.055
24.51000 427.480
24.52000 428.489
24.53000 429.493
24.54000 426.438
24.55000 419.611
24.56000 412.842
24.57000 410.252
24.58000 410.239
24.59000 410.164
24.60000 408.661
24.61000 406.557
24.62000 404.834
24.63000 407.563
24.64000 411.569
24.65000 415.141
24.66000 410.163
24.67000 404.409
24.68000 399.408
24.69000 397.774
24.70000 396.545
24.71000 397.429
24.72000 404.688
24.73000 412.381
24.74000 417.613
24.75000 431.726
24.76000 442.466
24.77000 440.989
24.78000 422.430
24.79000 403.762
24.80000 398.855
24.81000 406.522
24.82000 414.119
24.83000 416.707
24.84000 416.261
24.85000 415.987
24.86000 419.611
24.87000 424.851
24.88000 429.692
24.89000 429.979
24.90000 428.978
24.91000 428.088
24.92000 428.972
24.93000 430.029
24.94000 429.544
24.95000 422.266
24.96000 414.185
24.97000 409.013
24.98000 412.495
24.99000 416.550
25.00000 419.295
25.01000 414.970
25.02000 411.593
25.03000 407.446
25.04000 402.236
25.05000 397.023
25.06000 397.284
25.07000 402.465
25.08000 407.596
25.09000 412.973
25.10000 418.381
25.11000 423.508
25.12000 422.436
25.13000 418.832
25.14000 415.139
25.15000 410.456
25.16000 405.497
25.17000 401.095
25.18000 399.300
25.19000 398.162
25.20000 396.954
25.21000 395.444
25.22000 393.898
25.23000 393.941
25.24000 398.639
25.25000 403.637
25.26000 407.003
25.27000 409.234
25.28000 410.870
25.29000 411.759
25.30000 411.638
25.31000 411.514
25.32000 413.677
25.33000 417.864
25.34000 422.007
25.35000 416.247
25.36000 404.900
25.37000 394.201
25.38000 397.295
25.39000 405.943
25.40000 413.567
25.41000 410.006
25.42000 403.376
25.43000 397.503
25.44000 397.172
25.45000 397.757
25.46000 398.670
25.47000 400.980
25.48000 403.450
25.49000 405.380
25.50000 405.753
25.51000 406.028
25.52000 406.212
25.53000 405.679
25.54000 405.269
25.55000 406.218
25.56000 408.982
25.57000 411.752
25.58000 412.359
25.59000 411.083
25.60000 409.821
25.61000 407.623
25.62000 404.944
25.63000 402.307
25.64000 400.511
25.65000 399.050
25.66000 398.056
25.67000 402.054
25.68000 407.402
25.69000 412.128
25.70000 404.083
25.71000 395.162
25.72000 388.599
25.73000 391.957
25.74000 396.421
25.75000 400.678
25.76000 404.346
25.77000 407.979
25.78000 410.399
25.79000 410.210
25.80000 410.020
25.81000 409.136
25.82000 407.341
25.83000 405.540
25.84000 401.907
25.85000 396.709
25.86000 391.569
25.87000 395.493
25.88000 404.387
25.89000 412.893
25.90000 413.605
25.91000 411.269
25.92000 408.943
25.93000 406.726
25.94000 404.538
25.95000 402.609
25.96000 406.826
25.97000 411.394
25.98000 413.302
25.99000 404.191
26.00000 393.876
26.01000 387.791
26.02000 393.572
26.03000 400.063
26.04000 404.365
26.05000 399.423
26.06000 395.604
26.07000 394.690
26.08000 397.536
26.09000 400.392
26.10000 400.853
26.11000 399.297
26.12000 397.759
26.13000 396.241
26.14000 394.771
26.15000 393.663
26.16000 399.588
26.17000 408.225
26.18000 415.720
26.19000 411.529
26.20000 404.274
26.21000 397.891
26.22000 396.320
26.23000 395.683
26.24000 395.013
26.25000 394.203
26.26000 393.377
26.27000 394.086
26.28000 399.039
26.29000 404.238
26.30000 407.667
26.31000 404.562
26.32000 402.159
26.33000 399.888
26.34000 397.785
26.35000 395.692
26.36000 398.032
26.37000 404.047
26.38000 409.985
26.39000 405.494
26.40000 395.476
26.41000 385.939
26.42000 385.523
26.43000 388.573
26.44000 391.454
26.45000 392.648
26.46000 393.405
26.47000 394.069
26.48000 395.431
26.49000 396.703
26.50000 397.812
26.51000 398.268
26.52000 398.656
26.53000 396.673
26.54000 388.227
26.55000 379.416
26.56000 373.636
26.57000 382.583
26.58000 389.408
26.59000 394.762
26.60000 398.270
26.61000 401.761
26.62000 400.249
26.63000 394.656
26.64000 389.139
26.65000 380.436
26.66000 370.274
26.67000 360.680
26.68000 361.534
26.69000 366.301
26.70000 371.345
26.71000 379.107
26.72000 387.560
26.73000 394.960
26.74000 393.973
26.75000 391.923
26.76000 391.420
26.77000 397.035
26.78000 403.279
26.79000 406.885
26.80000 403.405
26.81000 399.534
26.82000 397.009
26.83000 395.962
26.84000 395.217
26.85000 392.011
26.86000 385.770
26.87000 379.536
26.88000 378.952
26.89000 382.904
26.90000 386.799
26.91000 384.538
26.92000 379.114
26.93000 374.291
26.94000 380.219
26.95000 390.116
26.96000 398.651
26.97000 394.087
26.98000 386.241
26.99000 379.388
27.00000 381.317
27.01000 384.203
27.02000 384.481
27.03000 374.593
27.04000 363.682
27.05000 356.944
27.06000 361.254
27.07000 366.156
27.08000 369.336
27.09000 368.735
27.10000 368.238
27.11000 371.586
27.12000 379.603
27.13000 387.609
27.14000 388.976
27.15000 385.094
27.16000 381.271
27.17000 375.486
27.18000 368.861
27.19000 362.717
27.20000 364.919
27.21000 370.159
27.22000 374.850
27.23000 374.357
27.24000 372.586
27.25000 371.042
27.26000 369.295
27.27000 367.774
27.28000 367.185
27.29000 370.173
27.30000 373.514
27.31000 377.737
27.32000 384.260
27.33000 390.903
27.34000 395.189
27.35000 385.639
27.36000 378.463
27.37000 377.371
27.38000 383.552
27.39000 389.707
27.40000 385.205
27.41000 372.411
27.42000 359.818
27.43000 365.746
27.44000 380.899
27.45000 395.020
27.46000 391.671
27.47000 382.056
27.48000 373.391
27.49000 373.495
27.50000 375.731
27.51000 377.674
27.52000 377.165
27.53000 376.400
27.54000 375.604
27.55000 374.690
27.56000 373.766
27.57000 372.735
27.58000 371.432
27.59000 370.114
27.60000 369.269
27.61000 374.694
27.62000 378.734
27.63000 382.568
27.64000 386.160
27.65000 389.736
27.66000 389.767
27.67000 387.083
27.68000 384.442
27.69000 381.135
27.70000 377.602
27.71000 374.494
27.72000 378.394
27.73000 384.771
27.74000 390.530
27.75000 390.692
27.76000 389.515
27.77000 388.494
27.78000 382.505
27.79000 376.746
27.80000 373.231
27.81000 378.073
27.82000 383.705
27.83000 388.089
27.84000 389.308
27.85000 390.371
27.86000 391.050
27.87000 385.722
27.88000 381.768
27.89000 380.330
27.90000 381.803
27.91000 383.261
27.92000 380.739
27.93000 375.214
27.94000 369.785
27.95000 368.072
27.96000 368.245
27.97000 368.288
27.98000 366.233
27.99000 363.447
28.00000 361.199
28.01000 363.735
28.02000 367.397
28.03000 370.563
28.04000 372.744
28.05000 374.469
28.06000 376.818
28.07000 381.461
28.08000 386.316
28.09000 386.988
28.10000 377.209
28.11000 366.933
28.12000 360.413
28.13000 368.228
28.14000 374.075
28.15000 378.690
28.16000 381.903
28.17000 385.086
28.18000 382.979
28.19000 376.945
28.20000 371.019
28.21000 369.741
28.22000 370.759
28.23000 371.343
28.24000 365.133
28.25000 356.592
28.26000 349.858
28.27000 358.860
28.28000 371.514
28.29000 382.426
28.30000 380.961
28.31000 378.135
28.32000 376.431
28.33000 378.781
28.34000 381.498
28.35000 383.934
28.36000 385.676
28.37000 387.387
28.38000 388.466
28.39000 367.530
28.40000 352.116
28.41000 346.159
28.42000 350.798
28.43000 355.443
28.44000 359.570
28.45000 363.320
28.46000 366.999
28.47000 372.247
28.48000 378.053
28.49000 383.411
28.50000 381.923
28.51000 378.118
28.52000 374.336
28.53000 370.738
28.54000 367.182
28.55000 364.124
28.56000 366.874
28.57000 369.930
28.58000 371.520
28.59000 367.891
28.60000 363.799
28.61000 360.764
28.62000 360.294
28.63000 359.938
28.64000 359.715
28.65000 361.765
28.66000 363.272
28.67000 364.776
28.68000 366.279
28.69000 367.761
28.70000 365.955
28.71000 361.783
28.72000 357.693
28.73000 354.541
28.74000 351.946
28.75000 349.541
28.76000 349.959
28.77000 351.319
28.78000 353.647
28.79000 364.074
28.80000 376.323
28.81000 386.831
28.82000 382.809
28.83000 377.624
28.84000 373.070
28.85000 370.732
28.86000 368.587
28.87000 366.189
28.88000 363.188
28.89000 360.161
28.90000 358.275
28.91000 364.497
28.92000 369.066
28.93000 368.854
28.94000 363.459
28.95000 358.122
28.96000 361.104
28.97000 369.986
28.98000 378.685
28.99000 374.817
29.00000 365.295
29.01000 356.320
29.02000 355.276
29.03000 356.838
29.04000 358.034
29.05000 356.221
29.06000 353.743
29.07000 351.622
29.08000 357.781
29.09000 363.973
29.10000 368.434
29.11000 366.908
29.12000 364.875
29.13000 363.860
29.14000 365.249
29.15000 366.738
29.16000 367.661
29.17000 358.097
29.18000 351.119
29.19000 349.706
29.20000 354.228
29.21000 358.714
29.22000 358.431
29.23000 354.820
29.24000 351.285
29.25000 349.909
29.26000 349.569
29.27000 349.285
29.28000 349.788
29.29000 350.547
29.30000 351.599
29.31000 355.021
29.32000 358.958
29.33000 362.318
29.34000 364.006
29.35000 365.230
29.36000 364.031
29.37000 354.582
29.38000 344.449
29.39000 339.149
29.40000 345.081
29.41000 351.470
29.42000 355.406
29.43000 351.825
29.44000 349.187
29.45000 350.370
29.46000 355.559
29.47000 360.685
29.48000 358.270
29.49000 350.670
29.50000 343.240
29.51000 345.313
29.52000 351.553
29.53000 357.555
29.54000 360.269
29.55000 361.935
29.56000 362.983
29.57000 359.151
29.58000 354.271
29.59000 350.118
29.60000 355.008
29.61000 360.165
29.62000 364.506
29.63000 366.109
29.64000 367.491
29.65000 366.932
29.66000 361.926
29.67000 356.745
29.68000 353.573
29.69000 352.576
29.70000 351.880
29.71000 356.679
29.72000 367.145
29.73000 377.517
29.74000 377.457
29.75000 370.332
29.76000 363.373
29.77000 363.957
29.78000 367.840
29.79000 371.706
29.80000 375.352
29.81000 378.928
29.82000 381.930
29.83000 380.474
29.84000 378.078
29.85000 376.043
29.86000 386.781
29.87000 397.237
29.88000 404.088
29.89000 399.022
29.90000 393.014
29.91000 390.908
29.92000 397.616
29.93000 404.659
29.94000 408.944
29.95000 424.216
29.96000 435.209
29.97000 435.230
29.98000 424.123
29.99000 413.123
30.00000 413.041
30.01000 420.239
30.02000 427.264
30.03000 429.211
30.04000 428.871
30.05000 428.521
30.06000 428.034
30.07000 427.504
30.08000 427.175
30.09000 428.378
30.10000 429.900
30.11000 431.188
30.12000 427.859
30.13000 424.559
30.14000 420.306
30.15000 412.953
30.16000 405.360
30.17000 399.292
30.18000 396.616
30.19000 394.066
30.20000 392.523
30.21000 404.001
30.22000 412.274
30.23000 412.913
30.24000 405.938
30.25000 398.993
30.26000 394.819
30.27000 392.466
30.28000 390.172
30.29000 386.883
30.30000 383.318
30.31000 379.937
30.32000 378.904
30.33000 378.588
30.34000 378.968
30.35000 384.549
30.36000 391.195
30.37000 396.804
30.38000 391.426
30.39000 385.735
30.40000 381.515
30.41000 382.021
30.42000 382.883
30.43000 384.263
30.44000 386.779
30.45000 389.335
30.46000 390.871
30.47000 375.459
30.48000 364.389
30.49000 363.048
30.50000 371.245
30.51000 379.394
30.52000 383.352
30.53000 384.599
30.54000 385.813
30.55000 384.085
30.56000 381.201
30.57000 379.060
30.58000 386.243
30.59000 396.232
30.60000 404.013
30.61000 395.595
30.62000 383.916
30.63000 374.087
30.64000 381.890
30.65000 390.280
30.66000 394.648
30.67000 386.293
30.68000 377.001
30.69000 374.415
30.70000 386.330
30.71000 398.741
30.72000 406.152
30.73000 402.495
30.74000 399.832
30.75000 394.472
30.76000 386.512
30.77000 378.638
30.78000 377.887
30.79000 381.675
30.80000 385.361
30.81000 389.980
30.82000 394.763
30.83000 399.534
30.84000 404.160
30.85000 408.742
30.86000 413.185
30.87000 416.622
30.88000 419.861
30.89000 422.578
30.90000 427.311
30.91000 431.463
30.92000 434.111
30.93000 432.076
30.94000 429.704
30.95000 431.197
30.96000 440.928
30.97000 450.931
30.98000 456.865
30.99000 470.006
31.00000 479.344
31.01000 484.652
31.02000 486.138
31.03000 487.692
31.04000 494.508
31.05000 504.629
31.06000 514.466
31.07000 524.889
31.08000 535.036
31.09000 546.578
31.10000 574.851
31.11000 608.011
31.12000 640.864
31.13000 671.541
31.14000 701.794
31.15000 727.107
31.16000 759.058
31.17000 786.286
31.18000 821.285
31.19000 880.158
31.20000 940.705
31.21000 1005.223
31.22000 1078.084
31.23000 1151.211
31.24000 1194.313
31.25000 1288.570
31.26000 1355.374
31.27000 1427.215
31.28000 1503.753
31.29000 1580.243
31.30000 1653.206
31.31000 1723.987
31.32000 1792.714
31.33000 1886.827
31.34000 1986.326
31.35000 2081.084
31.36000 2120.287
31.37000 2143.499
31.38000 2169.156
31.39000 2211.813
31.40000 2257.731
31.41000 2296.040
31.42000 2304.034
31.43000 2307.623
31.44000 2304.133
31.45000 2279.211
31.46000 2252.823
31.47000 2224.626
31.48000 2192.683
31.49000 2160.625
31.50000 2141.853
31.51000 2048.706
31.52000 1982.754
31.53000 1912.868
31.54000 1839.374
31.55000 1765.778
31.56000 1685.111
31.57000 1600.136
31.58000 1517.714
31.59000 1445.927
31.60000 1382.077
31.61000 1318.190
31.62000 1253.888
31.63000 1189.467
31.64000 1125.325
31.65000 1063.083
31.66000 1001.199
31.67000 949.722
31.68000 898.436
31.69000 856.002
31.70000 816.397
31.71000 785.229
31.72000 754.625
31.73000 724.178
31.74000 694.051
31.75000 663.933
31.76000 646.415
31.77000 606.802
31.78000 578.886
31.79000 563.224
31.80000 558.614
31.81000 553.872
31.82000 540.461
31.83000 521.845
31.84000 503.808
31.85000 488.520
31.86000 475.118
31.87000 462.472
31.88000 458.306
31.89000 456.509
31.90000 453.116
31.91000 439.023
31.92000 422.944
31.93000 409.609
31.94000 414.621
31.95000 420.526
31.96000 423.803
31.97000 419.356
31.98000 414.407
31.99000 408.494
32.00000 400.640
32.01000 392.731
32.02000 388.162
32.03000 379.032
32.04000 372.621
32.05000 372.836
32.06000 378.930
32.07000 384.926
32.08000 384.871
32.09000 381.235
32.10000 377.717
32.11000 372.426
32.12000 366.749
32.13000 361.531
32.14000 361.338
32.15000 362.529
32.16000 363.164
32.17000 360.139
32.18000 356.446
32.19000 353.392
32.20000 346.967
32.21000 341.351
32.22000 338.228
32.23000 342.328
32.24000 346.886
32.25000 350.476
32.26000 352.147
32.27000 353.767
32.28000 354.696
32.29000 353.716
32.30000 353.023
32.31000 351.753
32.32000 349.979
32.33000 348.272
32.34000 350.436
32.35000 354.857
32.36000 359.132
32.37000 354.120
32.38000 345.901
32.39000 338.750
32.40000 343.056
32.41000 350.469
32.42000 356.514
32.43000 353.707
32.44000 349.309
32.45000 345.684
32.46000 344.835
32.47000 344.393
32.48000 341.620
32.49000 332.193
32.50000 322.355
32.51000 317.352
32.52000 321.796
32.53000 326.486
32.54000 329.159
32.55000 326.985
32.56000 325.451
32.57000 322.531
32.58000 318.420
32.59000 314.338
32.60000 311.879
32.61000 310.353
32.62000 308.879
32.63000 312.674
32.64000 318.198
32.65000 323.172
32.66000 322.368
32.67000 320.021
32.68000 318.950
32.69000 326.010
32.70000 334.505
32.71000 341.486
32.72000 327.863
32.73000 314.815
32.74000 305.632
32.75000 307.329
32.76000 309.680
32.77000 312.894
32.78000 317.769
32.79000 322.687
32.80000 325.469
32.81000 320.248
32.82000 316.599
32.83000 316.655
32.84000 319.843
32.85000 322.891
32.86000 318.544
32.87000 310.013
32.88000 301.784
32.89000 309.462
32.90000 322.474
32.91000 333.529
32.92000 324.456
32.93000 310.088
32.94000 297.294
32.95000 294.350
32.96000 293.117
32.97000 292.106
32.98000 294.164
32.99000 296.122
33.00000 297.807
33.01000 298.734
33.02000 299.616
33.03000 303.049
33.04000 311.321
33.05000 319.709
33.06000 324.423
33.07000 321.990
33.08000 320.275
33.09000 314.116
33.10000 304.261
33.11000 294.538
33.12000 291.416
33.13000 291.977
33.14000 292.517
33.15000 296.682
33.16000 301.894
33.17000 306.950
33.18000 310.452
33.19000 313.550
33.20000 314.934
33.21000 305.772
33.22000 294.809
33.23000 285.855
33.24000 283.647
33.25000 282.422
33.26000 282.636
33.27000 286.786
33.28000 291.159
33.29000 295.622
33.30000 300.251
33.31000 304.884
33.32000 307.469
33.33000 308.226
33.34000 308.742
33.35000 307.300
33.36000 304.257
33.37000 301.277
33.38000 301.343
33.39000 303.083
33.40000 304.757
33.41000 303.456
33.42000 301.188
33.43000 298.886
33.44000 296.245
33.45000 293.518
33.46000 291.580
33.47000 294.408
33.48000 298.037
33.49000 300.992
33.50000 299.969
33.51000 298.797
33.52000 296.997
33.53000 293.499
33.54000 289.908
33.55000 288.277
33.56000 290.258
33.57000 292.319
33.58000 293.460
33.59000 287.283
33.60000 283.010
33.61000 280.785
33.62000 280.210
33.63000 279.672
33.64000 280.797
33.65000 282.824
33.66000 284.771
33.67000 294.849
33.68000 307.106
33.69000 317.275
33.70000 307.254
33.71000 292.157
33.72000 279.149
33.73000 278.558
33.74000 280.016
33.75000 281.199
33.76000 291.393
33.77000 300.446
33.78000 306.300
33.79000 303.657
33.80000 300.557
33.81000 297.888
33.82000 296.003
33.83000 294.134
33.84000 293.106
33.85000 296.858
33.86000 299.441
33.87000 299.400
33.88000 297.276
33.89000 295.183
33.90000 294.423
33.91000 294.374
33.92000 294.327
33.93000 291.209
33.94000 287.246
33.95000 283.820
33.96000 285.479
33.97000 288.397
33.98000 291.602
33.99000 296.485
34.00000 301.641
34.01000 305.811
34.02000 300.579
34.03000 295.564
34.04000 292.258
34.05000 293.423
34.06000 294.822
34.07000 296.014
34.08000 296.835
34.09000 297.649
34.10000 298.093
34.11000 296.317
34.12000 295.103
34.13000 296.417
34.14000 299.704
34.15000 302.842
34.16000 299.808
34.17000 293.526
34.18000 287.504
34.19000 283.668
34.20000 280.820
34.21000 278.602
34.22000 282.227
34.23000 287.277
34.24000 292.094
34.25000 295.575
34.26000 298.842
34.27000 301.477
34.28000 300.074
34.29000 298.618
34.30000 295.947
34.31000 290.144
34.32000 284.182
34.33000 282.335
34.34000 287.743
34.35000 293.287
34.36000 296.292
34.37000 289.365
34.38000 284.619
34.39000 282.634
34.40000 282.769
34.41000 282.951
34.42000 285.016
34.43000 288.056
34.44000 290.967
34.45000 292.961
34.46000 294.517
34.47000 295.210
34.48000 288.062
34.49000 279.031
34.50000 272.414
34.51000 279.438
34.52000 288.601
34.53000 295.964
34.54000 291.263
34.55000 286.526
34.56000 282.861
34.57000 281.924
34.58000 281.123
34.59000 281.712
34.60000 284.716
34.61000 287.764
34.62000 289.403
34.63000 290.085
34.64000 290.524
34.65000 285.644
34.66000 276.738
34.67000 268.091
34.68000 269.356
34.69000 275.683
34.70000 281.733
34.71000 290.813
34.72000 300.248
34.73000 307.707
34.74000 297.548
34.75000 283.225
34.76000 270.692
34.77000 268.114
34.78000 267.069
34.79000 266.232
34.80000 267.562
34.81000 268.801
34.82000 270.357
34.83000 272.705
34.84000 275.092
34.85000 277.749
34.86000 280.868
34.87000 283.995
34.88000 285.664
34.89000 285.140
34.90000 284.780
34.91000 284.000
34.92000 282.908
34.93000 281.802
34.94000 280.172
34.95000 278.278
34.96000 276.470
34.97000 279.016
34.98000 282.774
34.99000 286.212
35.00000 286.848
35.01000 286.832
35.02000 286.018
35.03000 280.845
35.04000 275.012
35.05000 270.357
35.06000 280.483
35.07000 289.744
35.08000 293.819
35.09000 285.079
35.10000 275.744
35.11000 271.405
35.12000 275.495
35.13000 279.720
35.14000 281.958
35.15000 276.262
35.16000 272.384
35.17000 268.292
35.18000 264.042
35.19000 259.995
35.20000 263.049
35.21000 269.628
35.22000 275.901
35.23000 279.482
35.24000 281.956
35.25000 283.924
35.26000 281.551
35.27000 278.183
35.28000 275.364
35.29000 275.494
35.30000 276.062
35.31000 276.514
35.32000 280.991
35.33000 284.887
35.34000 285.490
35.35000 278.072
35.36000 270.293
35.37000 266.375
35.38000 268.874
35.39000 271.470
35.40000 272.833
35.41000 278.435
35.42000 282.201
35.43000 280.836
35.44000 275.764
35.45000 270.810
35.46000 269.857
35.47000 270.859
35.48000 271.814
35.49000 270.016
35.50000 267.498
35.51000 265.264
35.52000 265.411
35.53000 266.096
35.54000 266.586
35.55000 266.041
35.56000 265.345
35.57000 264.793
35.58000 273.599
35.59000 281.337
35.60000 284.480
35.61000 276.597
35.62000 268.232
35.63000 262.169
35.64000 259.876
35.65000 257.636
35.66000 256.469
35.67000 269.570
35.68000 278.392
35.69000 281.561
35.70000 280.709
35.71000 279.712
35.72000 273.985
35.73000 265.978
35.74000 258.364
35.75000 267.797
35.76000 281.717
35.77000 293.386
35.78000 286.497
35.79000 275.485
35.80000 265.810
35.81000 263.092
35.82000 261.373
35.83000 260.014
35.84000 260.490
35.85000 260.998
35.86000 261.275
35.87000 261.009
35.88000 260.719
35.89000 261.447
35.90000 263.815
35.91000 266.206
35.92000 267.442
35.93000 261.728
35.94000 257.903
35.95000 257.869
35.96000 260.489
35.97000 263.034
35.98000 263.221
35.99000 262.288
36.00000 261.402
36.01000 261.502
36.02000 261.891
36.03000 262.412
36.04000 264.006
36.05000 265.834
36.06000 267.683
36.07000 269.635
36.08000 271.602
36.09000 273.150
36.10000 270.161
36.11000 267.464
36.12000 265.797
36.13000 266.533
36.14000 267.368
36.15000 268.866
36.16000 271.419
36.17000 273.986
36.18000 275.302
36.19000 265.755
36.20000 259.384
36.21000 259.073
36.22000 262.941
36.23000 266.632
36.24000 264.988
36.25000 260.845
36.26000 256.917
36.27000 257.788
36.28000 260.007
36.29000 262.184
36.30000 264.023
36.31000 265.789
36.32000 267.093
36.33000 266.066
36.34000 264.716
36.35000 263.657
36.36000 258.427
36.37000 253.974
36.38000 252.314
36.39000 257.073
36.40000 262.086
36.41000 264.384
36.42000 262.431
36.43000 260.427
36.44000 259.408
36.45000 260.656
36.46000 261.496
36.47000 262.694
36.48000 264.135
36.49000 265.393
36.50000 261.364
36.51000 254.894
36.52000 248.768
36.53000 251.321
36.54000 256.191
36.55000 261.189
36.56000 267.195
36.57000 273.413
36.58000 279.112
36.59000 282.235
36.60000 285.008
36.61000 287.176
36.62000 275.899
36.63000 266.047
36.64000 260.265
36.65000 263.704
36.66000 267.496
36.67000 269.871
36.68000 270.059
36.69000 270.222
36.70000 270.305
36.71000 261.412
36.72000 255.490
36.73000 252.020
36.74000 250.191
36.75000 248.388
36.76000 247.318
36.77000 246.581
36.78000 245.885
36.79000 254.180
36.80000 264.369
36.81000 273.283
36.82000 272.446
36.83000 269.576
36.84000 266.829
36.85000 264.686
36.86000 262.623
36.87000 261.016
36.88000 267.245
36.89000 272.691
36.90000 275.920
36.91000 274.197
36.92000 272.291
36.93000 270.112
36.94000 267.517
36.95000 264.917
36.96000 263.617
36.97000 265.370
36.98000 266.557
36.99000 269.487
37.00000 273.565
37.01000 277.554
37.02000 279.113
37.03000 279.583
37.04000 280.027
37.05000 280.825
37.06000 281.655
37.07000 282.492
37.08000 283.371
37.09000 284.260
37.10000 285.242
37.11000 286.674
37.12000 288.166
37.13000 289.323
37.14000 285.472
37.15000 282.108
37.16000 279.297
37.17000 277.700
37.18000 276.147
37.19000 273.509
37.20000 269.249
37.21000 264.972
37.22000 267.231
37.23000 275.918
37.24000 284.522
37.25000 285.592
37.26000 281.771
37.27000 277.939
37.28000 273.831
37.29000 269.600
37.30000 265.613
37.31000 262.913
37.32000 260.798
37.33000 258.864
37.34000 258.274
37.35000 257.955
37.36000 257.732
37.37000 257.961
37.38000 258.249
37.39000 258.472
37.40000 254.925
37.41000 251.891
37.42000 251.355
37.43000 256.239
37.44000 261.310
37.45000 264.826
37.46000 266.050
37.47000 267.253
37.48000 266.622
37.49000 264.216
37.50000 261.798
37.51000 258.295
37.52000 254.098
37.53000 250.024
37.54000 249.032
37.55000 249.383
37.56000 249.714
37.57000 253.793
37.58000 258.543
37.59000 262.602
37.60000 261.666
37.61000 259.737
37.62000 258.386
37.63000 259.724
37.64000 261.402
37.65000 262.694
37.66000 259.227
37.67000 256.209
37.68000 252.076
37.69000 245.558
37.70000 238.962
37.71000 237.630
37.72000 243.939
37.73000 250.312
37.74000 252.266
37.75000 250.017
37.76000 247.822
37.77000 249.920
37.78000 254.723
37.79000 259.602
37.80000 266.361
37.81000 273.928
37.82000 281.037
37.83000 277.928
37.84000 272.357
37.85000 266.921
37.86000 262.451
37.87000 258.170
37.88000 254.615
37.89000 254.385
37.90000 254.567
37.91000 254.706
37.92000 257.508
37.93000 259.870
37.94000 259.721
37.95000 254.279
37.96000 248.667
37.97000 247.405
37.98000 252.361
37.99000 257.364
38.00000 257.612
38.01000 253.414
38.02000 249.289
38.03000 250.551
38.04000 255.158
38.05000 259.710
38.06000 262.960
38.07000 265.659
38.08000 268.192
38.09000 265.243
38.10000 261.114
38.11000 257.826
38.12000 260.415
38.13000 264.134
38.14000 266.937
38.15000 265.610
38.16000 263.781
38.17000 262.383
38.18000 270.632
38.19000 277.661
38.20000 279.888
38.21000 272.141
38.22000 264.086
38.23000 262.081
38.24000 268.594
38.25000 275.165
38.26000 278.952
38.27000 280.177
38.28000 281.362
38.29000 279.789
38.30000 276.529
38.31000 273.627
38.32000 278.926
38.33000 287.646
38.34000 295.814
38.35000 295.408
38.36000 292.819
38.37000 291.006
38.38000 294.515
38.39000 299.032
38.40000 304.248
38.41000 312.565
38.42000 321.252
38.43000 327.867
38.44000 343.078
38.45000 355.504
38.46000 366.181
38.47000 373.278
38.48000 380.268
38.49000 389.926
38.50000 403.284
38.51000 416.661
38.52000 435.549
38.53000 459.405
38.54000 483.154
38.55000 499.844
38.56000 512.282
38.57000 525.560
38.58000 557.526
38.59000 597.175
38.60000 634.254
38.61000 664.155
38.62000 689.482
38.63000 716.264
38.64000 752.838
38.65000 791.236
38.66000 829.900
38.67000 869.726
38.68000 909.688
38.69000 940.002
38.70000 971.398
38.71000 996.116
38.72000 1020.760
38.73000 1045.255
38.74000 1069.746
38.75000 1088.246
38.76000 1098.569
38.77000 1108.840
38.78000 1111.012
38.79000 1105.979
38.80000 1100.749
38.81000 1083.304
38.82000 1058.609
38.83000 1033.979
38.84000 1010.750
38.85000 988.089
38.86000 966.932
38.87000 924.424
38.88000 880.542
38.89000 837.979
38.90000 804.140
38.91000 771.900
38.92000 738.456
38.93000 699.838
38.94000 660.626
38.95000 630.997
38.96000 593.393
38.97000 563.513
38.98000 534.571
38.99000 507.495
39.00000 480.469
39.01000 452.591
39.02000 423.567
39.03000 394.553
39.04000 377.374
39.05000 370.573
39.06000 363.725
39.07000 354.107
39.08000 342.869
39.09000 331.735
39.10000 322.764
39.11000 314.656
39.12000 307.099
39.13000 302.948
39.14000 300.030
39.15000 297.396
39.16000 296.605
39.17000 296.147
39.18000 293.149
39.19000 279.395
39.20000 264.432
39.21000 253.171
39.22000 255.425
39.23000 257.845
39.24000 258.316
39.25000 254.967
39.26000 251.518
39.27000 247.744
39.28000 243.541
39.29000 239.339
39.30000 241.314
39.31000 248.601
39.32000 255.797
39.33000 257.878
39.34000 257.011
39.35000 256.149
39.36000 255.363
39.37000 254.608
39.38000 253.905
39.39000 247.264
39.40000 239.827
39.41000 233.914
39.42000 237.745
39.43000 243.302
39.44000 247.967
39.45000 248.907
39.46000 249.437
39.47000 249.835
39.48000 246.623
39.49000 243.945
39.50000 241.991
39.51000 241.435
39.52000 240.915
39.53000 240.401
39.54000 239.894
39.55000 239.388
39.56000 239.820
39.57000 241.047
39.58000 242.221
39.59000 240.647
39.60000 237.512
39.61000 234.438
39.62000 232.561
39.63000 231.148
39.64000 229.836
39.65000 231.149
39.66000 232.959
39.67000 234.577
39.68000 234.995
39.69000 235.203
39.70000 235.536
39.71000 236.382
39.72000 237.283
39.73000 237.955
39.74000 232.595
39.75000 228.141
39.76000 228.112
39.77000 236.507
39.78000 245.105
39.79000 246.604
39.80000 238.995
39.81000 231.361
39.82000 232.548
39.83000 241.074
39.84000 249.431
39.85000 249.173
39.86000 244.095
39.87000 238.909
39.88000 231.646
39.89000 223.588
39.90000 216.116
39.91000 216.301
39.92000 218.260
39.93000 220.640
39.94000 225.610
39.95000 231.025
39.96000 234.334
39.97000 229.124
39.98000 223.013
39.99000 218.469
40.00000 229.425
40.01000 238.637
40.02000 243.409
40.03000 239.852
40.04000 236.104
40.05000 233.109
40.06000 231.066
40.07000 229.028
40.08000 226.405
40.09000 223.311
40.10000 220.276
40.11000 220.054
40.12000 221.382
40.13000 222.649
40.14000 222.774
40.15000 222.467
40.16000 222.184
40.17000 222.871
40.18000 223.711
40.19000 224.674
40.20000 226.377
40.21000 228.206
40.22000 229.284
40.23000 227.373
40.24000 225.152
40.25000 223.507
40.26000 222.275
40.27000 221.336
40.28000 221.742
40.29000 224.634
40.30000 227.581
40.31000 228.315
40.32000 226.301
40.33000 224.283
40.34000 222.296
40.35000 220.343
40.36000 218.485
40.37000 221.041
40.38000 225.995
40.39000 230.614
40.40000 229.194
40.41000 225.530
40.42000 222.144
40.43000 220.894
40.44000 220.257
40.45000 219.833
40.46000 220.687
40.47000 221.752
40.48000 223.297
40.49000 226.718
40.50000 230.331
40.51000 232.994
40.52000 226.969
40.53000 221.938
40.54000 219.850
40.55000 223.124
40.56000 226.511
40.57000 226.679
40.58000 222.910
40.59000 219.138
40.60000 218.258
40.61000 219.673
40.62000 221.152
40.63000 225.417
40.64000 231.174
40.65000 236.310
40.66000 230.518
40.67000 220.724
40.68000 211.691
40.69000 213.925
40.70000 218.434
40.71000 222.645
40.72000 225.114
40.73000 227.300
40.74000 229.462
40.75000 231.535
40.76000 233.599
40.77000 235.114
40.78000 227.115
40.79000 220.544
40.80000 216.080
40.81000 215.401
40.82000 214.797
40.83000 214.486
40.84000 214.526
40.85000 214.567
40.86000 214.839
40.87000 215.288
40.88000 215.727
40.89000 215.718
40.90000 215.472
40.91000 215.371
40.92000 217.744
40.93000 221.010
40.94000 224.017
40.95000 223.740
40.96000 222.775
40.97000 221.687
40.98000 219.890
40.99000 217.979
41.00000 215.308
41.01000 209.743
41.02000 203.896
41.03000 199.621
41.04000 204.712
41.05000 209.009
41.06000 212.489
41.07000 214.523
41.08000 216.529
41.09000 215.813
41.10000 211.873
41.11000 207.937
41.12000 208.559
41.13000 212.671
41.14000 216.658
41.15000 215.575
41.16000 211.856
41.17000 208.613
41.18000 213.310
41.19000 220.833
41.20000 227.745
41.21000 222.023
41.22000 214.196
41.23000 207.849
41.24000 209.885
41.25000 213.241
41.26000 215.954
41.27000 216.262
41.28000 216.340
41.29000 216.397
41.30000 216.884
41.31000 217.276
41.32000 217.569
41.33000 217.690
41.34000 217.809
41.35000 219.575
41.36000 223.263
41.37000 226.943
41.38000 225.760
41.39000 220.915
41.40000 216.260
41.41000 218.889
41.42000 225.251
41.43000 231.085
41.44000 228.340
41.45000 222.587
41.46000 217.311
41.47000 217.765
41.48000 219.382
41.49000 220.876
41.50000 221.688
41.51000 222.394
41.52000 221.771
41.53000 216.242
41.54000 210.255
41.55000 205.914
41.56000 213.035
41.57000 218.931
41.58000 220.704
41.59000 215.394
41.60000 209.962
41.61000 208.553
41.62000 211.758
41.63000 214.959
41.64000 217.031
41.65000 218.251
41.66000 219.372
41.67000 216.853
41.68000 212.495
41.69000 208.423
41.70000 208.880
41.71000 210.903
41.72000 212.755
41.73000 207.624
41.74000 201.608
41.75000 196.577
41.76000 196.955
41.77000 198.154
41.78000 199.378
41.79000 200.692
41.80000 202.014
41.81000 202.968
41.82000 208.560
41.83000 213.014
41.84000 214.043
41.85000 209.278
41.86000 204.417
41.87000 204.939
41.88000 211.535
41.89000 218.114
41.90000 218.380
41.91000 214.033
41.92000 209.768
41.93000 208.414
41.94000 208.508
41.95000 208.954
41.96000 214.812
41.97000 222.514
41.98000 229.550
41.99000 220.019
42.00000 208.170
42.01000 198.061
42.02000 197.337
42.03000 198.013
42.04000 198.845
42.05000 200.232
42.06000 201.669
42.07000 202.702
42.08000 207.892
42.09000 212.008
42.10000 213.293
42.11000 209.859
42.12000 206.351
42.13000 205.716
42.14000 208.269
42.15000 210.815
42.16000 209.154
42.17000 204.486
42.18000 200.005
42.19000 201.903
42.20000 206.930
42.21000 211.765
42.22000 213.705
42.23000 214.674
42.24000 215.558
42.25000 215.749
42.26000 215.778
42.27000 214.918
42.28000 209.333
42.29000 203.056
42.30000 197.248
42.31000 193.096
42.32000 189.089
42.33000 186.223
42.34000 190.177
42.35000 193.426
42.36000 195.774
42.37000 196.642
42.38000 197.489
42.39000 199.292
42.40000 202.141
42.41000 204.979
42.42000 206.735
42.43000 207.709
42.44000 208.647
42.45000 208.406
42.46000 207.594
42.47000 206.767
42.48000 205.723
42.49000 204.608
42.50000 203.594
42.51000 202.473
42.52000 201.461
42.53000 200.252
42.54000 198.014
42.55000 195.627
42.56000 194.765
42.57000 199.206
42.58000 204.101
42.59000 207.587
42.60000 203.106
42.61000 199.434
42.62000 197.241
42.63000 197.446
42.64000 197.683
42.65000 199.290
42.66000 202.370
42.67000 205.437
42.68000 205.945
42.69000 204.669
42.70000 203.504
42.71000 205.867
42.72000 209.910
42.73000 213.431
42.74000 209.500
42.75000 203.139
42.76000 197.361
42.77000 199.236
42.78000 202.377
42.79000 204.648
42.80000 202.455
42.81000 199.630
42.82000 197.113
42.83000 195.652
42.84000 194.280
42.85000 193.307
42.86000 193.982
42.87000 194.547
42.88000 193.619
42.89000 190.310
42.90000 186.971
42.91000 186.973
42.92000 190.506
42.93000 194.022
42.94000 197.587
42.95000 201.147
42.96000 204.656
42.97000 206.635
42.98000 207.896
42.99000 209.165
43.00000 210.556
43.01000 211.985
43.02000 213.281
43.03000 207.116
43.04000 200.256
43.05000 194.870
43.06000 196.930
43.07000 200.024
43.08000 202.650
43.09000 203.692
43.10000 204.605
43.11000 205.249
43.12000 206.400
43.13000 207.290
43.14000 207.537
43.15000 206.777
43.16000 206.005
43.17000 204.355
43.18000 201.792
43.19000 199.242
43.20000 198.482
43.21000 198.938
43.22000 199.385
43.23000 199.547
43.24000 199.578
43.25000 199.872
43.26000 203.753
43.27000 208.768
43.28000 213.305
43.29000 208.961
43.30000 203.474
43.31000 198.776
43.32000 197.999
43.33000 197.759
43.34000 197.902
43.35000 199.323
43.36000 200.847
43.37000 201.917
43.38000 202.302
43.39000 202.573
43.40000 200.704
43.41000 195.524
43.42000 190.307
43.43000 190.056
43.44000 194.878
43.45000 199.673
43.46000 200.717
43.47000 199.262
43.48000 197.732
43.49000 194.062
43.50000 189.417
43.51000 185.264
43.52000 187.654
43.53000 192.083
43.54000 196.083
43.55000 194.173
43.56000 191.408
43.57000 189.631
43.58000 192.689
43.59000 196.396
43.60000 198.749
43.61000 196.665
43.62000 194.235
43.63000 192.536
43.64000 201.898
43.65000 209.284
43.66000 212.059
43.67000 207.807
43.68000 203.480
43.69000 198.977
43.70000 194.297
43.71000 189.646
43.72000 187.866
43.73000 187.982
43.74000 188.136
43.75000 189.309
43.76000 190.942
43.77000 192.623
43.78000 194.940
43.79000 197.452
43.80000 199.715
43.81000 196.880
43.82000 193.472
43.83000 191.216
43.84000 194.510
43.85000 198.535
43.86000 201.108
43.87000 198.996
43.88000 196.527
43.89000 194.809
43.90000 197.667
43.91000 199.946
43.92000 200.908
43.93000 199.891
43.94000 198.855
43.95000 197.842
43.96000 196.852
43.97000 195.869
43.98000 192.417
43.99000 187.434
44.00000 182.725
44.01000 185.268
44.02000 191.026
44.03000 196.541
44.04000 198.988
44.05000 200.506
44.06000 201.871
44.07000 200.017
44.08000 197.823
44.09000 195.805
44.10000 194.623
44.11000 193.548
44.12000 193.490
44.13000 196.666
44.14000 200.083
44.15000 202.450
44.16000 196.309
44.17000 191.466
44.18000 188.343
44.19000 187.763
44.20000 187.206
44.21000 189.568
44.22000 194.763
44.23000 199.921
44.24000 197.840
44.25000 191.223
44.26000 184.860
44.27000 184.979
44.28000 187.931
44.29000 191.014
44.30000 195.722
44.31000 200.916
44.32000 205.574
44.33000 203.630
44.34000 200.779
44.35000 198.922
44.36000 201.701
44.37000 205.068
44.38000 206.719
44.39000 202.991
44.40000 198.871
44.41000 196.033
44.42000 192.267
44.43000 189.416
44.44000 186.348
44.45000 182.965
44.46000 179.580
44.47000 182.419
44.48000 191.199
44.49000 199.912
44.50000 205.010
44.51000 207.776
44.52000 210.291
44.53000 206.607
44.54000 200.252
44.55000 194.763
44.56000 199.751
44.57000 207.820
44.58000 215.042
44.59000 207.851
44.60000 199.108
44.61000 192.304
44.62000 194.409
44.63000 197.621
44.64000 199.709
44.65000 198.319
44.66000 196.684
44.67000 195.562
44.68000 200.916
44.69000 205.085
44.70000 207.905
44.71000 208.789
44.72000 209.659
44.73000 212.234
44.74000 216.412
44.75000 220.555
44.76000 216.836
44.77000 208.376
44.78000 200.530
44.79000 207.355
44.80000 220.408
44.81000 232.288
44.82000 230.289
44.83000 224.269
44.84000 218.893
44.85000 217.943
44.86000 217.860
44.87000 218.186
44.88000 220.359
44.89000 222.758
44.90000 225.185
44.91000 227.696
44.92000 230.213
44.93000 231.930
44.94000 229.415
44.95000 227.436
44.96000 227.117
44.97000 229.146
44.98000 231.191
44.99000 234.772
45.00000 239.770
45.01000 244.725
45.02000 247.385
45.03000 248.613
45.04000 249.925
45.05000 253.162
45.06000 257.206
45.07000 261.105
45.08000 263.325
45.09000 265.066
45.10000 266.617
45.11000 271.421
45.12000 276.136
45.13000 280.461
45.14000 283.052
45.15000 285.436
45.16000 286.147
45.17000 281.836
45.18000 277.187
45.19000 274.031
45.20000 274.779
45.21000 275.424
45.22000 277.957
45.23000 283.114
45.24000 288.283
45.25000 283.725
45.26000 270.331
45.27000 257.060
45.28000 254.857
45.29000 259.253
45.30000 263.643
45.31000 267.910
45.32000 272.127
45.33000 275.578
45.34000 270.354
45.35000 262.692
45.36000 255.878
45.37000 255.450
45.38000 256.114
45.39000 256.461
45.40000 255.415
45.41000 254.205
45.42000 254.902
45.43000 261.241
45.44000 267.950
45.45000 272.483
45.46000 265.895
45.47000 260.752
45.48000 254.679
45.49000 247.332
45.50000 239.981
45.51000 236.390
45.52000 236.160
45.53000 235.931
45.54000 232.771
45.55000 227.969
45.56000 223.365
45.57000 223.053
45.58000 224.485
45.59000 225.988
45.60000 228.267
45.61000 230.762
45.62000 232.975
45.63000 234.124
45.64000 234.949
45.65000 235.450
45.66000 234.554
45.67000 233.497
45.68000 230.782
45.69000 223.234
45.70000 215.376
45.71000 210.094
45.72000 220.766
45.73000 229.022
45.74000 231.392
45.75000 225.822
45.76000 220.211
45.77000 216.228
45.78000 213.674
45.79000 211.148
45.80000 210.079
45.81000 209.870
45.82000 209.794
45.83000 212.526
45.84000 216.381
45.85000 219.343
45.86000 212.610
45.87000 203.231
45.88000 194.930
45.89000 201.204
45.90000 208.910
45.91000 215.383
45.92000 216.620
45.93000 217.267
45.94000 216.878
45.95000 213.513
45.96000 209.962
45.97000 207.587
45.98000 202.285
45.99000 198.296
46.00000 196.096
46.01000 196.270
46.02000 196.455
46.03000 196.075
46.04000 195.206
46.05000 194.348
46.06000 191.832
46.07000 188.439
46.08000 185.289
46.09000 187.098
46.10000 190.864
46.11000 194.144
46.12000 192.265
46.13000 188.998
46.14000 186.114
46.15000 183.444
46.16000 181.173
46.17000 179.792
46.18000 182.137
46.19000 184.894
46.20000 187.783
46.21000 191.045
46.22000 194.329
46.23000 196.514
46.24000 191.855
46.25000 188.279
46.26000 188.223
46.27000 192.767
46.28000 197.323
46.29000 196.722
46.30000 191.733
46.31000 186.802
46.32000 180.190
46.33000 172.806
46.34000 165.940
46.35000 169.357
46.36000 176.777
46.37000 183.550
46.38000 183.602
46.39000 181.874
46.40000 180.352
46.41000 179.483
46.42000 178.833
46.43000 178.497
46.44000 179.454
46.45000 180.551
46.46000 181.416
46.47000 181.634
46.48000 181.814
46.49000 181.933
46.50000 174.734
46.51000 169.288
46.52000 168.262
46.53000 172.923
46.54000 177.603
46.55000 180.255
46.56000 181.209
46.57000 182.152
46.58000 179.943
46.59000 176.067
46.60000 172.388
46.61000 172.500
46.62000 174.066
46.63000 175.484
46.64000 175.397
46.65000 174.917
46.66000 174.496
46.67000 169.481
46.68000 164.489
46.69000 161.620
46.70000 167.367
46.71000 174.030
46.72000 178.956
46.73000 179.106
46.74000 178.981
46.75000 178.898
46.76000 178.540
46.77000 178.271
46.78000 176.597
46.79000 173.144
46.80000 169.691
46.81000 169.386
46.82000 171.674
46.83000 173.932
46.84000 174.822
46.85000 174.952
46.86000 174.923
46.87000 171.897
46.88000 167.739
46.89000 164.196
46.90000 166.776
46.91000 170.928
46.92000 174.570
46.93000 175.238
46.94000 175.381
46.95000 175.122
46.96000 173.262
46.97000 171.234
46.98000 169.746
46.99000 169.719
47.00000 169.773
47.01000 169.809
47.02000 171.604
47.03000 172.952
47.04000 174.084
47.05000 174.945
47.06000 175.797
47.07000 173.165
47.08000 167.708
47.09000 162.326
47.10000 164.538
47.11000 170.712
47.12000 176.492
47.13000 175.101
47.14000 171.037
47.15000 167.527
47.16000 169.418
47.17000 172.676
47.18000 175.526
47.19000 167.833
47.20000 159.739
47.21000 154.205
47.22000 158.747
47.23000 164.317
47.24000 169.602
47.25000 174.129
47.26000 178.614
47.27000 181.534
47.28000 168.190
47.29000 158.151
47.30000 155.299
47.31000 161.269
47.32000 167.245
47.33000 167.706
47.34000 163.764
47.35000 159.879
47.36000 159.995
47.37000 162.194
47.38000 164.488
47.39000 168.458
47.40000 173.045
47.41000 177.173
47.42000 176.926
47.43000 175.589
47.44000 174.422
47.45000 167.852
47.46000 161.478
47.47000 156.559
47.48000 157.283
47.49000 158.570
47.50000 161.312
47.51000 167.884
47.52000 174.659
47.53000 179.047
47.54000 178.962
47.55000 178.834
47.56000 175.520
47.57000 168.356
47.58000 161.205
47.59000 159.800
47.60000 162.913
47.61000 165.979
47.62000 163.430
47.63000 158.076
47.64000 153.067
47.65000 154.004
47.66000 157.094
47.67000 160.110
47.68000 162.438
47.69000 164.597
47.70000 166.476
47.71000 165.870
47.72000 165.012
47.73000 165.390
47.74000 170.491
47.75000 176.054
47.76000 178.158
47.77000 171.280
47.78000 163.941
47.79000 159.214
47.80000 157.841
47.81000 156.885
47.82000 157.269
47.83000 159.243
47.84000 161.221
47.85000 163.311
47.86000 165.488
47.87000 167.630
47.88000 168.756
47.89000 169.334
47.90000 169.854
47.91000 169.397
47.92000 168.592
47.93000 167.785
47.94000 166.961
47.95000 166.133
47.96000 165.414
47.97000 166.881
47.98000 168.426
47.99000 168.968
48.00000 165.739
48.01000 162.149
48.02000 159.060
48.03000 157.251
48.04000 155.507
48.05000 154.389
48.06000 158.589
48.07000 161.718
48.08000 161.535
48.09000 157.476
48.10000 153.428
48.11000 153.139
48.12000 155.713
48.13000 158.245
48.14000 162.425
48.15000 167.288
48.16000 171.929
48.17000 172.937
48.18000 172.667
48.19000 171.927
48.20000 166.963
48.21000 160.993
48.22000 155.823
48.23000 158.166
48.24000 161.152
48.25000 162.895
48.26000 160.030
48.27000 156.733
48.28000 155.368
48.29000 158.873
48.30000 162.616
48.31000 164.998
48.32000 167.551
48.33000 169.409
48.34000 169.434
48.35000 167.350
48.36000 165.265
48.37000 163.568
48.38000 162.163
48.39000 160.783
48.40000 165.020
48.41000 171.863
48.42000 178.210
48.43000 176.679
48.44000 172.418
48.45000 168.638
48.46000 169.102
48.47000 170.561
48.48000 171.822
48.49000 168.195
48.50000 164.482
48.51000 161.920
48.52000 163.558
48.53000 165.581
48.54000 166.454
48.55000 164.467
48.56000 162.345
48.57000 161.002
48.58000 158.085
48.59000 155.951
48.60000 155.762
48.61000 157.776
48.62000 159.770
48.63000 157.827
48.64000 152.978
48.65000 148.217
48.66000 149.219
48.67000 152.963
48.68000 156.765
48.69000 161.467
48.70000 166.476
48.71000 170.544
48.72000 166.475
48.73000 160.527
48.74000 155.403
48.75000 157.239
48.76000 159.680
48.77000 161.480
48.78000 160.977
48.79000 160.267
48.80000 158.956
48.81000 156.173
48.82000 153.322
48.83000 151.528
48.84000 161.871
48.85000 169.491
48.86000 172.305
48.87000 169.765
48.88000 167.227
48.89000 165.731
48.90000 164.993
48.91000 164.270
48.92000 160.823
48.93000 156.210
48.94000 152.025
48.95000 154.294
48.96000 158.736
48.97000 162.400
48.98000 159.471
48.99000 155.043
49.00000 151.239
49.01000 151.219
49.02000 151.673
49.03000 152.842
49.04000 156.541
49.05000 160.462
49.06000 161.437
49.07000 155.293
49.08000 148.834
49.09000 144.793
49.10000 150.886
49.11000 155.393
49.12000 157.073
49.13000 155.654
49.14000 154.258
49.15000 156.454
49.16000 161.221
49.17000 165.893
49.18000 167.073
49.19000 166.578
49.20000 165.863
49.21000 161.912
49.22000 156.886
49.23000 152.240
49.24000 150.756
49.25000 149.979
49.26000 149.314
49.27000 151.386
49.28000 153.470
49.29000 155.466
49.30000 157.157
49.31000 158.821
49.32000 159.371
49.33000 157.269
49.34000 155.053
49.35000 153.675
49.36000 154.817
49.37000 155.666
49.38000 156.702
49.39000 157.941
49.40000 159.175
49.41000 159.707
49.42000 159.743
49.43000 159.778
49.44000 159.234
49.45000 158.446
49.46000 157.658
49.47000 156.876
49.48000 156.095
49.49000 155.135
49.50000 152.717
49.51000 149.977
49.52000 147.636
49.53000 149.409
49.54000 151.396
49.55000 152.721
49.56000 151.766
49.57000 150.621
49.58000 150.714
49.59000 153.716
49.60000 156.839
49.61000 158.770
49.62000 154.317
49.63000 151.058
49.64000 150.380
49.65000 152.439
49.66000 154.486
49.67000 154.867
49.68000 154.093
49.69000 153.335
49.70000 154.536
49.71000 156.574
49.72000 158.193
49.73000 153.928
49.74000 147.767
49.75000 142.581
49.76000 145.202
49.77000 149.515
49.78000 153.192
49.79000 151.577
49.80000 149.597
49.81000 148.482
49.82000 150.293
49.83000 152.344
49.84000 153.837
49.85000 154.039
49.86000 154.189
49.87000 154.281
49.88000 161.066
49.89000 165.989
49.90000 166.155
49.91000 161.360
49.92000 156.611
49.93000 157.355
49.94000 161.854
49.95000 166.251
49.96000 163.281
49.97000 157.157
49.98000 151.427
49.99000 151.099
50.00000 152.487
50.01000 153.816
50.02000 154.689
50.03000 155.464
50.04000 156.123
50.05000 150.503
50.06000 145.062
50.07000 141.810
50.08000 145.869
50.09000 150.515
50.10000 153.890
50.11000 154.368
50.12000 154.734
50.13000 154.957
50.14000 156.198
50.15000 157.095
50.16000 156.937
50.17000 155.700
50.18000 154.488
50.19000 156.000
50.20000 159.346
50.21000 162.614
50.22000 165.190
50.23000 167.352
50.24000 169.126
50.25000 165.722
50.26000 160.699
50.27000 156.007
50.28000 153.866
50.29000 152.260
50.30000 150.899
50.31000 156.384
50.32000 161.754
50.33000 164.912
50.34000 160.802
50.35000 156.121
50.36000 153.490
50.37000 155.465
50.38000 157.613
50.39000 158.918
50.40000 164.426
50.41000 168.389
50.42000 169.945
50.43000 169.074
50.44000 168.176
50.45000 164.630
50.46000 159.329
50.47000 154.157
50.48000 159.073
50.49000 168.118
50.50000 176.632
50.51000 178.216
50.52000 177.663
50.53000 177.001
50.54000 175.516
50.55000 173.862
50.56000 172.462
50.57000 175.941
50.58000 179.389
50.59000 183.036
50.60000 187.325
50.61000 191.663
50.62000 196.892
50.63000 204.094
50.64000 211.369
50.65000 215.758
50.66000 209.139
50.67000 204.347
50.68000 204.309
50.69000 208.980
50.70000 213.640
50.71000 217.215
50.72000 220.081
50.73000 222.873
50.74000 223.317
50.75000 222.743
50.76000 222.149
50.77000 221.286
50.78000 220.341
50.79000 219.566
50.80000 220.043
50.81000 220.775
50.82000 221.392
50.83000 219.780
50.84000 218.192
50.85000 215.841
50.86000 211.056
50.87000 206.089
50.88000 202.407
50.89000 201.533
50.90000 200.756
50.91000 200.291
50.92000 200.581
50.93000 200.793
50.94000 200.965
50.95000 201.099
50.96000 201.190
50.97000 197.537
50.98000 191.474
50.99000 185.570
51.00000 185.530
51.01000 187.940
51.02000 189.781
51.03000 184.526
51.04000 177.147
51.05000 170.858
51.06000 172.520
51.07000 175.775
51.08000 178.511
51.09000 171.147
51.10000 163.939
51.11000 160.042
51.12000 166.564
51.13000 173.846
51.14000 177.305
51.15000 172.534
51.16000 167.485
51.17000 164.477
51.18000 165.312
51.19000 165.927
51.20000 165.789
51.21000 164.931
51.22000 164.031
51.23000 159.741
51.24000 153.302
51.25000 147.039
51.26000 147.165
51.27000 149.911
51.28000 152.742
51.29000 156.606
51.30000 160.775
51.31000 164.485
51.32000 164.909
51.33000 164.685
51.34000 164.498
51.35000 161.355
51.36000 158.433
51.37000 156.026
51.38000 155.217
51.39000 154.521
51.40000 154.555
51.41000 156.134
51.42000 157.764
51.43000 158.728
51.44000 145.656
51.45000 136.338
51.46000 135.351
51.47000 142.215
51.48000 149.009
51.49000 150.495
51.50000 148.665
51.51000 146.887
51.52000 148.319
51.53000 150.979
51.54000 153.163
51.55000 149.688
51.56000 144.569
51.57000 140.101
51.58000 140.211
51.59000 141.208
51.60000 142.041
51.61000 143.277
51.62000 144.345
51.63000 145.308
51.64000 145.950
51.65000 146.571
51.66000 146.296
51.67000 144.152
51.68000 141.948
51.69000 140.652
51.70000 138.943
51.71000 137.737
51.72000 138.891
51.73000 142.234
51.74000 145.534
51.75000 145.828
51.76000 144.271
51.77000 142.760
51.78000 140.335
51.79000 137.670
51.80000 135.497
51.81000 139.043
51.82000 144.227
51.83000 148.820
51.84000 149.330
51.85000 149.061
51.86000 148.837
51.87000 146.593
51.88000 144.531
51.89000 143.468
51.90000 145.410
51.91000 147.556
51.92000 149.167
51.93000 149.677
51.94000 150.154
51.95000 150.433
51.96000 144.549
51.97000 140.383
51.98000 139.467
51.99000 141.516
52.00000 143.572
52.01000 146.184
52.02000 149.133
52.03000 151.993
52.04000 151.865
52.05000 150.575
52.06000 149.285
52.07000 148.011
52.08000 146.742
52.09000 145.664
52.10000 145.888
52.11000 146.356
52.12000 146.745
52.13000 146.533
52.14000 146.300
52.15000 146.410
52.16000 147.541
52.17000 148.739
52.18000 148.706
52.19000 146.174
52.20000 143.569
52.21000 142.057
52.22000 143.740
52.23000 144.934
52.24000 144.989
52.25000 144.023
52.26000 143.028
52.27000 140.175
52.28000 136.212
52.29000 132.374
52.30000 133.767
52.31000 137.103
52.32000 140.385
52.33000 143.071
52.34000 145.591
52.35000 147.812
52.36000 148.046
52.37000 147.912
52.38000 147.802
52.39000 149.915
52.40000 151.871
52.41000 152.023
52.42000 146.898
52.43000 141.432
52.44000 138.155
52.45000 139.257
52.46000 140.481
52.47000 141.187
52.48000 143.664
52.49000 145.404
52.50000 146.255
52.51000 146.321
52.52000 146.403
52.53000 147.446
52.54000 149.056
52.55000 150.614
52.56000 149.738
52.57000 147.987
52.58000 146.341
52.59000 145.836
52.60000 145.642
52.61000 145.503
52.62000 145.723
52.63000 146.008
52.64000 146.243
52.65000 142.944
52.66000 139.896
52.67000 137.628
52.68000 137.609
52.69000 137.732
52.70000 137.325
52.71000 135.874
52.72000 134.395
52.73000 133.548
52.74000 131.325
52.75000 129.771
52.76000 131.392
52.77000 135.768
52.78000 140.116
52.79000 142.903
52.80000 144.783
52.81000 146.600
52.82000 145.776
52.83000 144.013
52.84000 142.300
52.85000 141.126
52.86000 140.098
52.87000 139.053
52.88000 137.903
52.89000 136.734
52.90000 135.771
52.91000 136.795
52.92000 137.819
52.93000 139.286
52.94000 142.016
52.95000 144.823
52.96000 145.863
52.97000 143.469
52.98000 140.986
52.99000 139.575
53.00000 136.029
53.01000 133.558
53.02000 134.907
53.03000 139.520
53.04000 144.042
53.05000 143.627
53.06000 140.392
53.07000 137.269
53.08000 138.622
53.09000 141.541
53.10000 144.438
53.11000 147.091
53.12000 149.679
53.13000 152.039
53.14000 152.960
53.15000 153.628
53.16000 154.177
53.17000 145.206
53.18000 136.989
53.19000 131.986
53.20000 135.982
53.21000 140.513
53.22000 144.164
53.23000 146.126
53.24000 148.047
53.25000 149.132
53.26000 145.515
53.27000 142.992
53.28000 142.309
53.29000 143.174
53.30000 144.060
53.31000 146.042
53.32000 148.641
53.33000 151.146
53.34000 152.088
53.35000 152.406
53.36000 152.741
53.37000 153.245
53.38000 153.792
53.39000 154.304
53.40000 154.598
53.41000 154.853
53.42000 155.062
53.43000 155.719
53.44000 156.296
53.45000 154.749
53.46000 147.341
53.47000 139.594
53.48000 136.121
53.49000 140.719
53.50000 145.506
53.51000 148.189
53.52000 151.330
53.53000 153.506
53.54000 154.895
53.55000 155.633
53.56000 156.346
53.57000 155.838
53.58000 154.651
53.59000 153.509
53.60000 152.475
53.61000 151.542
53.62000 150.573
53.63000 149.246
53.64000 147.826
53.65000 145.917
53.66000 141.022
53.67000 135.621
53.68000 131.214
53.69000 138.561
53.70000 145.574
53.71000 150.160
53.72000 148.142
53.73000 145.753
53.74000 144.495
53.75000 145.343
53.76000 146.239
53.77000 146.738
53.78000 138.959
53.79000 133.579
53.80000 134.318
53.81000 140.038
53.82000 145.602
53.83000 143.802
53.84000 137.975
53.85000 132.371
53.86000 133.706
53.87000 137.389
53.88000 140.964
53.89000 143.484
53.90000 145.735
53.91000 147.179
53.92000 143.768
53.93000 139.546
53.94000 136.113
53.95000 142.188
53.96000 147.942
53.97000 152.494
53.98000 153.825
53.99000 154.980
54.00000 152.102
54.01000 141.832
54.02000 131.404
54.03000 125.641
54.04000 139.716
54.05000 149.438
54.06000 151.224
54.07000 146.653
54.08000 142.117
54.09000 139.162
54.10000 137.059
54.11000 135.039
54.12000 134.165
54.13000 133.742
54.14000 133.407
54.15000 133.915
54.16000 134.635
54.17000 135.021
54.18000 133.439
54.19000 131.534
54.20000 129.990
54.21000 132.864
54.22000 135.567
54.23000 137.644
54.24000 138.067
54.25000 138.402
54.26000 136.538
54.27000 130.700
54.28000 124.782
54.29000 121.535
54.30000 129.602
54.31000 135.156
54.32000 136.621
54.33000 134.861
54.34000 133.157
54.35000 133.822
54.36000 135.744
54.37000 137.589
54.38000 138.448
54.39000 138.917
54.40000 139.137
54.41000 137.014
54.42000 134.315
54.43000 133.274
54.44000 141.871
54.45000 152.023
54.46000 160.225
54.47000 154.218
54.48000 148.198
54.49000 142.315
54.50000 136.785
54.51000 131.274
54.52000 128.326
54.53000 129.940
54.54000 131.643
54.55000 132.570
54.56000 132.030
54.57000 131.659
54.58000 131.653
54.59000 131.930
54.60000 132.223
54.61000 133.170
54.62000 134.459
54.63000 135.694
54.64000 135.138
54.65000 134.021
54.66000 132.856
54.67000 131.250
54.68000 129.539
54.69000 128.733
54.70000 133.105
54.71000 138.297
54.72000 142.479
54.73000 141.134
54.74000 139.610
54.75000 136.940
54.76000 131.325
54.77000 125.562
54.78000 122.758
54.79000 125.144
54.80000 127.625
54.81000 128.967
54.82000 128.891
54.83000 128.847
54.84000 130.841
54.85000 134.392
54.86000 137.860
54.87000 138.076
54.88000 136.615
54.89000 135.217
54.90000 134.493
54.91000 134.042
54.92000 133.792
54.93000 135.368
54.94000 137.380
54.95000 139.363
54.96000 141.184
54.97000 142.980
54.98000 144.422
54.99000 145.611
55.00000 146.554
55.01000 146.698
55.02000 144.819
55.03000 142.840
55.04000 143.733
55.05000 149.589
55.06000 155.532
55.07000 158.719
55.08000 156.021
55.09000 154.160
55.10000 149.532
55.11000 142.822
55.12000 136.316
55.13000 137.437
55.14000 142.437
55.15000 147.214
55.16000 146.793
55.17000 144.721
55.18000 142.985
55.19000 144.233
55.20000 146.183
55.21000 147.557
55.22000 145.749
55.23000 143.453
55.24000 141.617
55.25000 144.937
55.26000 148.006
55.27000 149.459
55.28000 146.883
55.29000 144.116
55.30000 143.156
55.31000 145.276
55.32000 147.447
55.33000 148.602
55.34000 145.264
55.35000 142.997
55.36000 142.203
55.37000 142.500
55.38000 142.839
55.39000 144.638
55.40000 147.170
55.41000 149.587
55.42000 152.763
55.43000 155.954
55.44000 159.000
55.45000 160.793
55.46000 162.296
55.47000 163.327
55.48000 161.795
55.49000 159.878
55.50000 158.350
55.51000 158.964
55.52000 159.616
55.53000 160.487
55.54000 161.901
55.55000 163.339
55.56000 166.257
55.57000 171.659
55.58000 177.099
55.59000 179.972
55.60000 182.296
55.61000 183.864
55.62000 183.700
55.63000 182.274
55.64000 181.048
55.65000 186.742
55.66000 195.853
55.67000 204.536
55.68000 209.243
55.69000 212.361
55.70000 215.188
55.71000 215.528
55.72000 215.301
55.73000 216.926
55.74000 228.452
55.75000 241.441
55.76000 251.761
55.77000 269.433
55.78000 284.187
55.79000 295.099
55.80000 296.701
55.81000 297.888
55.82000 306.462
55.83000 327.247
55.84000 348.214
55.85000 359.200
55.86000 388.100
55.87000 407.658
55.88000 424.122
55.89000 438.364
55.90000 452.417
55.91000 460.169
55.92000 464.855
55.93000 469.315
55.94000 487.172
55.95000 507.828
55.96000 527.100
55.97000 534.806
55.98000 539.916
55.99000 546.009
56.00000 557.266
56.01000 569.272
56.02000 578.779
56.03000 578.357
56.04000 577.328
56.05000 575.340
56.06000 571.062
56.07000 566.685
56.08000 560.030
56.09000 549.663
56.10000 539.243
56.11000 533.827
56.12000 521.415
56.13000 513.009
56.14000 501.839
56.15000 488.714
56.16000 475.581
56.17000 462.247
56.18000 448.815
56.19000 436.048
56.20000 419.783
56.21000 403.691
56.22000 388.242
56.23000 378.055
56.24000 369.030
56.25000 359.721
56.26000 348.937
56.27000 337.942
56.28000 329.267
56.29000 327.313
56.30000 326.200
56.31000 321.523
56.32000 308.458
56.33000 295.043
56.34000 284.210
56.35000 277.524
56.36000 270.892
56.37000 267.473
56.38000 248.326
56.39000 235.476
56.40000 229.014
56.41000 227.001
56.42000 224.857
56.43000 218.635
56.44000 210.487
56.45000 202.753
56.46000 201.092
56.47000 201.371
56.48000 201.028
56.49000 195.690
56.50000 189.266
56.51000 184.105
56.52000 185.376
56.53000 187.548
56.54000 189.255
56.55000 181.362
56.56000 174.408
56.57000 169.276
56.58000 168.369
56.59000 167.633
56.60000 165.972
56.61000 162.849
56.62000 159.707
56.63000 158.101
56.64000 153.357
56.65000 150.181
56.66000 148.305
56.67000 147.322
56.68000 146.300
56.69000 144.121
56.70000 141.404
56.71000 138.828
56.72000 141.512
56.73000 145.528
56.74000 148.989
56.75000 148.081
56.76000 146.236
56.77000 144.725
56.78000 144.879
56.79000 145.262
56.80000 145.563
56.81000 145.645
56.82000 145.697
56.83000 144.106
56.84000 138.758
56.85000 133.264
56.86000 132.195
56.87000 138.019
56.88000 143.923
56.89000 146.917
56.90000 136.403
56.91000 129.421
56.92000 129.108
56.93000 133.303
56.94000 137.374
56.95000 137.883
56.96000 136.756
56.97000 135.690
56.98000 131.224
56.99000 126.135
57.00000 121.881
57.01000 124.095
57.02000 127.672
57.03000 131.282
57.04000 135.058
57.05000 138.856
57.06000 141.821
57.07000 137.831
57.08000 134.212
57.09000 131.266
57.10000 129.835
57.11000 128.462
57.12000 126.962
57.13000 125.268
57.14000 123.571
57.15000 122.718
57.16000 127.959
57.17000 131.456
57.18000 134.477
57.19000 137.182
57.20000 139.807
57.21000 140.219
57.22000 139.631
57.23000 139.075
57.24000 131.874
57.25000 123.374
57.26000 116.606
57.27000 122.985
57.28000 132.091
57.29000 139.167
57.30000 136.393
57.31000 132.313
57.32000 129.139
57.33000 127.286
57.34000 125.893
57.35000 125.454
57.36000 127.139
57.37000 128.902
57.38000 129.475
57.39000 128.252
57.40000 127.011
57.41000 126.438
57.42000 126.531
57.43000 126.625
57.44000 126.768
57.45000 126.943
57.46000 127.116
57.47000 127.199
57.48000 127.244
57.49000 127.285
57.50000 127.724
57.51000 128.237
57.52000 128.725
57.53000 129.017
57.54000 129.269
57.55000 129.689
57.56000 130.909
57.57000 132.234
57.58000 133.261
57.59000 126.325
57.60000 120.340
57.61000 117.765
57.62000 122.656
57.63000 127.812
57.64000 130.279
57.65000 128.746
57.66000 127.176
57.67000 128.124
57.68000 131.535
57.69000 134.875
57.70000 131.867
57.71000 124.759
57.72000 117.937
57.73000 118.492
57.74000 122.291
57.75000 125.871
57.76000 128.778
57.77000 131.255
57.78000 132.872
57.79000 128.197
57.80000 122.258
57.81000 117.936
57.82000 121.216
57.83000 125.466
57.84000 128.748
57.85000 126.811
57.86000 124.971
57.87000 123.189
57.88000 121.532
57.89000 119.879
57.90000 120.869
57.91000 125.733
57.92000 130.631
57.93000 131.336
57.94000 128.008
57.95000 124.713
57.96000 124.092
57.97000 125.172
57.98000 126.283
57.99000 128.190
58.00000 130.441
58.01000 132.559
58.02000 130.013
58.03000 126.427
58.04000 122.999
58.05000 120.718
58.06000 118.662
58.07000 117.113
58.08000 117.904
58.09000 118.989
58.10000 119.823
58.11000 121.820
58.12000 123.466
58.13000 125.028
58.14000 126.410
58.15000 127.786
58.16000 128.048
58.17000 126.702
58.18000 125.343
58.19000 123.639
58.20000 121.610
58.21000 119.611
58.22000 119.851
58.23000 121.495
58.24000 123.053
58.25000 122.520
58.26000 121.092
58.27000 119.752
58.28000 121.207
58.29000 123.278
58.30000 125.127
58.31000 125.403
58.32000 125.374
58.33000 125.402
58.34000 125.687
58.35000 126.003
58.36000 126.246
58.37000 123.970
58.38000 122.034
58.39000 120.426
58.40000 119.504
58.41000 118.605
58.42000 119.249
58.43000 122.089
58.44000 124.945
58.45000 127.573
58.46000 129.988
58.47000 132.378
58.48000 132.929
58.49000 132.345
58.50000 131.525
58.51000 125.158
58.52000 116.456
58.53000 108.297
58.54000 109.496
58.55000 113.036
58.56000 116.300
58.57000 117.644
58.58000 118.620
58.59000 119.712
58.60000 121.319
58.61000 122.989
58.62000 124.263
58.63000 122.156
58.64000 120.314
58.65000 120.567
58.66000 125.151
58.67000 129.868
58.68000 129.892
58.69000 123.345
58.70000 116.756
58.71000 115.633
58.72000 119.509
58.73000 123.345
58.74000 124.493
58.75000 124.005
58.76000 123.519
58.77000 123.063
58.78000 122.621
58.79000 122.207
58.80000 121.275
58.81000 120.295
58.82000 119.316
58.83000 118.348
58.84000 117.381
58.85000 117.368
58.86000 121.560
58.87000 126.250
58.88000 129.817
58.89000 122.745
58.90000 116.626
58.91000 111.907
58.92000 110.036
58.93000 108.249
58.94000 108.871
58.95000 112.813
58.96000 116.775
58.97000 118.926
58.98000 119.448
58.99000 119.989
59.00000 121.756
59.01000 124.259
59.02000 126.585
59.03000 125.009
59.04000 121.838
59.05000 118.874
59.06000 120.755
59.07000 123.688
59.08000 125.994
59.09000 124.105
59.10000 121.439
59.11000 119.422
59.12000 120.227
59.13000 121.360
59.14000 122.218
59.15000 119.077
59.16000 116.409
59.17000 115.620
59.18000 118.606
59.19000 121.698
59.20000 121.484
59.21000 116.783
59.22000 112.058
59.23000 111.753
59.24000 115.356
59.25000 118.920
59.26000 120.141
59.27000 119.978
59.28000 119.870
59.29000 120.936
59.30000 122.476
59.31000 123.913
59.32000 121.213
59.33000 117.738
59.34000 115.450
59.35000 120.975
59.36000 127.924
59.37000 132.475
59.38000 126.776
59.39000 119.909
59.40000 114.728
59.41000 116.902
59.42000 118.969
59.43000 118.832
59.44000 114.336
59.45000 109.722
59.46000 109.403
59.47000 114.827
59.48000 120.277
59.49000 122.471
59.50000 121.831
59.51000 121.191
59.52000 120.551
59.53000 119.912
59.54000 119.325
59.55000 119.834
59.56000 120.778
59.57000 121.657
59.58000 123.731
59.59000 125.900
59.60000 127.846
59.61000 128.352
59.62000 128.601
59.63000 128.654
59.64000 127.883
59.65000 127.021
59.66000 126.372
59.67000 130.328
59.68000 133.642
59.69000 133.626
59.70000 127.113
59.71000 120.432
59.72000 115.865
59.73000 114.082
59.74000 112.313
59.75000 112.616
59.76000 114.691
59.77000 116.721
59.78000 116.249
59.79000 114.343
59.80000 112.701
59.81000 116.360
59.82000 122.095
59.83000 127.428
59.84000 123.706
59.85000 118.165
59.86000 113.435
59.87000 113.846
59.88000 115.164
59.89000 116.405
59.90000 117.329
59.91000 118.217
59.92000 118.883
59.93000 120.683
59.94000 122.141
59.95000 122.663
59.96000 121.388
59.97000 120.069
59.98000 118.389
59.99000 116.242
60.00000 114.096
60.01000 114.049
60.02000 115.768
60.03000 117.461
60.04000 117.815
60.05000 117.413
60.06000 117.085
60.07000 118.191
60.08000 119.851
60.09000 121.392
60.10000 121.898
60.11000 122.109
60.12000 122.587
60.13000 124.725
60.14000 127.151
60.15000 128.986
60.16000 128.404
60.17000 127.563
60.18000 126.936
60.19000 124.370
60.20000 122.283
60.21000 119.504
60.22000 115.413
60.23000 111.292
60.24000 110.696
60.25000 114.597
60.26000 118.510
60.27000 119.402
60.28000 117.792
60.29000 116.247
60.30000 117.908
60.31000 121.353
60.32000 124.567
60.33000 123.393
60.34000 120.548
60.35000 117.913
60.36000 114.113
60.37000 110.422
60.38000 108.171
60.39000 114.757
60.40000 122.848
60.41000 129.012
60.42000 127.424
60.43000 125.022
60.44000 123.238
60.45000 122.219
60.46000 121.461
60.47000 119.582
60.48000 115.612
60.49000 111.594
60.50000 111.538
60.51000 116.456
60.52000 121.383
60.53000 122.989
60.54000 121.888
60.55000 120.753
60.56000 118.046
60.57000 114.477
60.58000 111.000
60.59000 109.237
60.60000 108.117
60.61000 107.080
60.62000 108.265
60.63000 109.837
60.64000 111.551
60.65000 114.114
60.66000 116.819
60.67000 119.493
60.68000 122.038
60.69000 124.570
60.70000 126.442
60.71000 125.509
60.72000 124.665
60.73000 122.935
60.74000 119.572
60.75000 116.174
60.76000 115.105
60.77000 116.915
60.78000 118.730
60.79000 119.781
60.80000 120.215
60.81000 120.607
60.82000 119.090
60.83000 116.541
60.84000 114.151
60.85000 114.610
60.86000 116.122
60.87000 117.519
60.88000 121.596
60.89000 125.856
60.90000 129.177
60.91000 126.939
60.92000 123.785
60.93000 120.948
60.94000 119.354
60.95000 117.884
60.96000 116.801
60.97000 120.947
60.98000 124.373
60.99000 127.262
61.00000 129.176
61.01000 131.070
61.02000 130.568
61.03000 127.151
61.04000 123.735
61.05000 123.476
61.06000 125.705
61.07000 127.904
61.08000 128.779
61.09000 128.949
61.10000 128.934
61.11000 125.708
61.12000 121.311
61.13000 117.259
61.14000 121.599
61.15000 127.342
61.16000 132.120
61.17000 131.273
61.18000 129.515
61.19000 128.355
61.20000 129.492
61.21000 130.855
61.22000 131.855
61.23000 127.730
61.24000 124.337
61.25000 123.178
61.26000 126.006
61.27000 128.913
61.28000 128.405
61.29000 123.809
61.30000 119.214
61.31000 120.558
61.32000 126.496
61.33000 132.287
61.34000 132.005
61.35000 128.535
61.36000 125.176
61.37000 123.701
61.38000 122.902
61.39000 122.167
61.40000 123.480
61.41000 125.098
61.42000 126.616
61.43000 127.556
61.44000 128.404
61.45000 129.644
61.46000 132.368
61.47000 135.236
61.48000 137.330
61.49000 143.398
61.50000 148.231
61.51000 153.155
61.52000 158.238
61.53000 163.324
61.54000 174.775
61.55000 193.723
61.56000 212.637
61.57000 229.578
61.58000 244.912
61.59000 260.159
61.60000 271.982
61.61000 282.034
61.62000 291.839
61.63000 297.550
61.64000 301.813
61.65000 305.727
61.66000 308.848
61.67000 311.463
61.68000 314.033
61.69000 316.345
61.70000 318.617
61.71000 320.504
61.72000 320.954
61.73000 321.269
61.74000 321.497
61.75000 305.824
61.76000 293.164
61.77000 278.964
61.78000 262.093
61.79000 245.174
61.80000 231.412
61.81000 221.309
61.82000 211.239
61.83000 197.155
61.84000 180.156
61.85000 163.313
61.86000 152.398
61.87000 144.507
61.88000 137.053
61.89000 136.643
61.90000 138.691
61.91000 140.568
61.92000 136.223
61.93000 131.045
61.94000 126.754
61.95000 127.374
61.96000 128.750
61.97000 130.017
61.98000 130.886
61.99000 131.718
62.00000 132.320
62.01000 124.973
62.02000 119.042
62.03000 117.998
62.04000 125.305
62.05000 132.752
62.06000 135.928
62.07000 134.230
62.08000 132.531
62.09000 130.070
62.10000 127.063
62.11000 124.187
62.12000 126.063
62.13000 130.326
62.14000 134.200
62.15000 131.950
62.16000 127.595
62.17000 123.610
62.18000 123.727
62.19000 124.679
62.20000 125.799
62.21000 127.839
62.22000 130.018
62.23000 131.147
62.24000 128.471
62.25000 125.452
62.26000 123.275
62.27000 127.307
62.28000 130.616
62.29000 134.041
62.30000 137.660
62.31000 141.283
62.32000 140.535
62.33000 134.883
62.34000 129.245
62.35000 127.557
62.36000 128.751
62.37000 129.995
62.38000 132.972
62.39000 136.807
62.40000 140.321
62.41000 138.917
62.42000 135.846
62.43000 133.042
62.44000 131.343
62.45000 130.059
62.46000 129.176
62.47000 130.447
62.48000 132.037
62.49000 133.536
62.50000 134.706
62.51000 135.848
62.52000 136.667
62.53000 134.569
62.54000 132.864
62.55000 132.490
62.56000 134.320
62.57000 136.185
62.58000 135.601
62.59000 132.314
62.60000 129.037
62.61000 128.375
62.62000 129.585
62.63000 130.820
62.64000 132.911
62.65000 135.420
62.66000 138.028
62.67000 142.127
62.68000 146.723
62.69000 150.912
62.70000 146.150
62.71000 140.145
62.72000 135.084
62.73000 135.012
62.74000 135.666
62.75000 136.148
62.76000 136.023
62.77000 135.845
62.78000 135.718
62.79000 134.391
62.80000 133.338
62.81000 133.044
62.82000 133.990
62.83000 134.954
62.84000 132.840
62.85000 127.384
62.86000 121.950
62.87000 123.154
62.88000 129.012
62.89000 134.742
62.90000 136.374
62.91000 136.033
62.92000 135.772
62.93000 136.674
62.94000 137.959
62.95000 139.128
62.96000 138.547
62.97000 137.689
62.98000 136.921
62.99000 136.624
63.00000 136.393
63.01000 135.421
63.02000 131.883
63.03000 128.128
63.04000 125.457
63.05000 131.044
63.06000 135.562
63.07000 137.753
63.08000 136.194
63.09000 134.585
63.10000 133.536
63.11000 133.083
63.12000 132.632
63.13000 133.218
63.14000 134.514
63.15000 135.846
63.16000 138.311
63.17000 141.313
63.18000 144.140
63.19000 144.501
63.20000 144.062
63.21000 143.664
63.22000 139.380
63.23000 134.850
63.24000 131.299
63.25000 132.752
63.26000 134.908
63.27000 136.321
63.28000 135.201
63.29000 133.872
63.30000 132.931
63.31000 137.069
63.32000 140.371
63.33000 143.546
63.34000 146.519
63.35000 149.489
63.36000 149.763
63.37000 147.207
63.38000 144.662
63.39000 139.353
63.40000 132.224
63.41000 125.286
63.42000 124.059
63.43000 125.502
63.44000 127.318
63.45000 134.291
63.46000 142.913
63.47000 150.723
63.48000 146.431
63.49000 140.357
63.50000 135.266
63.51000 135.117
63.52000 135.650
63.53000 136.248
63.54000 137.067
63.55000 137.903
63.56000 138.492
63.57000 137.933
63.58000 137.476
63.59000 137.074
63.60000 136.762
63.61000 136.450
63.62000 134.494
63.63000 130.839
63.64000 127.204
63.65000 128.493
63.66000 133.064
63.67000 137.595
63.68000 140.948
63.69000 143.760
63.70000 146.502
63.71000 148.316
63.72000 149.839
63.73000 151.215
63.74000 152.341
63.75000 153.286
63.76000 153.590
63.77000 150.728
63.78000 147.437
63.79000 145.386
63.80000 147.443
63.81000 149.825
63.82000 151.496
63.83000 147.508
63.84000 144.328
63.85000 141.055
63.86000 137.639
63.87000 134.221
63.88000 134.990
63.89000 140.011
63.90000 145.003
63.91000 147.063
63.92000 147.163
63.93000 147.222
63.94000 146.116
63.95000 144.481
63.96000 142.874
63.97000 141.626
63.98000 140.490
63.99000 139.465
64.00000 144.763
64.01000 150.572
64.02000 154.721
64.03000 150.786
64.04000 145.776
64.05000 141.534
64.06000 139.800
64.07000 138.260
64.08000 137.185
64.09000 142.145
64.10000 146.059
64.11000 148.058
64.12000 147.156
64.13000 146.223
64.14000 150.249
64.15000 159.224
64.16000 168.144
64.17000 169.328
64.18000 165.479
64.19000 161.727
64.20000 160.543
64.21000 160.510
64.22000 160.521
64.23000 161.099
64.24000 161.850
64.25000 162.527
64.26000 161.592
64.27000 160.484
64.28000 159.425
64.29000 158.606
64.30000 157.818
64.31000 157.108
64.32000 156.649
64.33000 156.210
64.34000 155.905
64.35000 150.284
64.36000 145.906
64.37000 146.619
64.38000 154.933
64.39000 163.320
64.40000 166.727
64.41000 165.244
64.42000 163.772
64.43000 161.129
64.44000 157.779
64.45000 154.700
64.46000 158.704
64.47000 165.831
64.48000 172.315
64.49000 170.706
64.50000 166.658
64.51000 163.023
64.52000 163.271
64.53000 164.173
64.54000 164.983
64.55000 165.358
64.56000 165.676
64.57000 166.455
64.58000 168.691
64.59000 171.034
64.60000 172.654
64.61000 167.439
64.62000 163.341
64.63000 160.320
64.64000 158.882
64.65000 157.459
64.66000 157.414
64.67000 158.698
64.68000 159.973
64.69000 165.067
64.70000 172.477
64.71000 179.603
64.72000 179.611
64.73000 176.524
64.74000 173.679
64.75000 173.808
64.76000 174.819
64.77000 175.726
64.78000 175.539
64.79000 175.186
64.80000 175.634
64.81000 179.800
64.82000 184.434
64.83000 188.180
64.84000 189.151
64.85000 189.922
64.86000 190.453
64.87000 184.285
64.88000 179.491
64.89000 178.785
64.90000 184.003
64.91000 189.268
64.92000 189.767
64.93000 185.742
64.94000 181.749
64.95000 179.758
64.96000 179.040
64.97000 178.491
64.98000 182.071
64.99000 187.421
65.00000 192.553
65.01000 195.077
65.02000 196.838
65.03000 198.413
65.04000 199.234
65.05000 199.822
65.06000 199.689
65.07000 196.265
65.08000 192.434
65.09000 189.909
65.10000 191.399
65.11000 193.171
65.12000 194.384
65.13000 199.169
65.14000 202.837
65.15000 204.803
65.16000 204.343
65.17000 203.865
65.18000 203.926
65.19000 204.489
65.20000 205.047
65.21000 209.587
65.22000 216.463
65.23000 223.118
65.24000 224.539
65.25000 223.750
65.26000 223.287
65.27000 226.657
65.28000 231.130
65.29000 235.122
65.30000 243.013
65.31000 250.532
65.32000 256.905
65.33000 258.120
65.34000 258.709
65.35000 260.930
65.36000 268.097
65.37000 275.603
65.38000 280.715
65.39000 288.895
65.40000 295.077
65.41000 302.679
65.42000 312.277
65.43000 321.886
65.44000 325.253
65.45000 322.889
65.46000 320.546
65.47000 327.436
65.48000 339.718
65.49000 351.934
65.50000 362.636
65.51000 372.708
65.52000 382.550
65.53000 389.757
65.54000 396.216
65.55000 401.968
65.56000 414.545
65.57000 426.593
65.58000 440.112
65.59000 460.139
65.60000 480.940
65.61000 499.660
65.62000 512.164
65.63000 524.252
65.64000 532.445
65.65000 578.945
65.66000 614.458
65.67000 662.240
65.68000 726.999
65.69000 791.886
65.70000 889.567
65.71000 1016.868
65.72000 1142.964
65.73000 1265.687
65.74000 1383.919
65.75000 1502.870
65.76000 1637.745
65.77000 1779.153
65.78000 1916.428
65.79000 2007.273
65.80000 2085.130
65.81000 2154.304
65.82000 2209.283
65.83000 2254.678
65.84000 2289.313
65.85000 2277.038
65.86000 2259.296
65.87000 2238.484
65.88000 2208.633
65.89000 2178.192
65.90000 2157.665
65.91000 2153.230
65.92000 2150.271
65.93000 2104.556
65.94000 2000.594
65.95000 1896.267
65.96000 1756.845
65.97000 1586.242
65.98000 1417.353
65.99000 1272.263
66.00000 1144.086
66.01000 1016.839
66.02000 909.576
66.03000 810.396
66.04000 714.814
66.05000 658.776
66.06000 613.635
66.07000 573.620
66.08000 540.390
66.09000 512.694
66.10000 487.503
66.11000 473.060
66.12000 459.846
66.13000 447.551
66.14000 437.924
66.15000 428.467
66.16000 422.122
66.17000 426.978
66.18000 430.810
66.19000 426.834
66.20000 412.385
66.21000 397.904
66.22000 404.856
66.23000 430.542
66.24000 455.954
66.25000 470.931
66.26000 479.615
66.27000 489.362
66.28000 521.224
66.29000 561.902
66.30000 600.916
66.31000 622.028
66.32000 638.281
66.33000 652.655
66.34000 668.502
66.35000 682.425
66.36000 695.166
66.37000 702.909
66.38000 710.092
66.39000 713.057
66.40000 703.961
66.41000 694.120
66.42000 687.551
66.43000 691.745
66.44000 695.060
66.45000 700.062
66.46000 707.289
66.47000 714.501
66.48000 702.374
66.49000 673.616
66.50000 645.181
66.51000 620.175
66.52000 597.685
66.53000 574.729
66.54000 542.338
66.55000 506.239
66.56000 471.497
66.57000 451.042
66.58000 434.408
66.59000 419.730
66.60000 407.640
66.61000 397.606
66.62000 389.296
66.63000 388.164
66.64000 387.821
66.65000 386.903
66.66000 384.365
66.67000 381.730
66.68000 379.981
66.69000 383.027
66.70000 385.367
66.71000 388.307
66.72000 392.026
66.73000 395.740
66.74000 394.400
66.75000 388.781
66.76000 383.230
66.77000 378.569
66.78000 374.517
66.79000 370.676
66.80000 370.984
66.81000 372.899
66.82000 374.535
66.83000 373.286
66.84000 371.278
66.85000 369.511
66.86000 373.050
66.87000 376.892
66.88000 379.373
66.89000 376.277
66.90000 372.580
66.91000 371.104
66.92000 375.797
66.93000 380.853
66.94000 384.191
66.95000 390.571
66.96000 395.331
66.97000 396.667
66.98000 393.621
66.99000 390.561
67.00000 388.634
67.01000 387.650
67.02000 386.678
67.03000 384.351
67.04000 381.346
67.05000 378.660
67.06000 382.054
67.07000 387.770
67.08000 393.498
67.09000 399.347
67.10000 405.228
67.11000 410.392
67.12000 406.556
67.13000 401.936
67.14000 399.346
67.15000 404.954
67.16000 411.427
67.17000 416.935
67.18000 419.802
67.19000 422.518
67.20000 424.303
67.21000 429.392
67.22000 433.193
67.23000 433.763
67.24000 430.262
67.25000 426.742
67.26000 420.755
67.27000 412.745
67.28000 404.842
67.29000 412.721
67.30000 428.834
67.31000 444.221
67.32000 446.139
67.33000 442.989
67.34000 440.027
67.35000 438.928
67.36000 438.306
67.37000 437.760
67.38000 434.046
67.39000 430.403
67.40000 430.291
67.41000 444.218
67.42000 459.597
67.43000 470.341
67.44000 468.584
67.45000 466.133
67.46000 464.532
67.47000 459.672
67.48000 456.052
67.49000 455.239
67.50000 457.908
67.51000 460.575
67.52000 458.768
67.53000 453.352
67.54000 448.012
67.55000 447.828
67.56000 450.368
67.57000 452.979
67.58000 456.887
67.59000 461.276
67.60000 465.259
67.61000 465.307
67.62000 464.365
67.63000 463.541
67.64000 467.311
67.65000 471.189
67.66000 475.357
67.67000 480.654
67.68000 486.066
67.69000 491.293
67.70000 496.032
67.71000 500.744
67.72000 503.806
67.73000 496.075
67.74000 490.245
67.75000 487.784
67.76000 489.436
67.77000 491.096
67.78000 492.107
67.79000 492.604
67.80000 493.093
67.81000 494.770
67.82000 497.013
67.83000 499.281
67.84000 501.987
67.85000 504.853
67.86000 506.946
67.87000 501.713
67.88000 494.664
67.89000 488.518
67.90000 500.231
67.91000 512.723
67.92000 523.372
67.93000 526.913
67.94000 529.749
67.95000 531.762
67.96000 531.617
67.97000 531.358
67.98000 531.191
67.99000 528.790
68.00000 527.003
68.01000 527.487
68.02000 530.700
68.03000 533.934
68.04000 541.276
68.05000 551.828
68.06000 562.218
68.07000 565.898
68.08000 566.039
68.09000 565.842
68.10000 559.864
68.11000 551.802
68.12000 545.672
68.13000 557.486
68.14000 573.682
68.15000 587.766
68.16000 591.326
68.17000 592.928
68.18000 593.960
68.19000 592.824
68.20000 591.477
68.21000 590.343
68.22000 589.759
68.23000 589.203
68.24000 588.846
68.25000 594.819
68.26000 599.264
68.27000 608.991
68.28000 624.962
68.29000 640.882
68.30000 641.961
68.31000 631.618
68.32000 621.443
68.33000 626.953
68.34000 640.167
68.35000 653.084
68.36000 661.047
68.37000 667.253
68.38000 673.223
68.39000 677.058
68.40000 680.380
68.41000 683.261
68.42000 692.651
68.43000 701.519
68.44000 710.431
68.45000 719.507
68.46000 728.598
68.47000 738.989
68.48000 752.688
68.49000 766.550
68.50000 775.410
68.51000 785.420
68.52000 792.721
68.53000 801.010
68.54000 810.447
68.55000 819.914
68.56000 835.277
68.57000 855.108
68.58000 874.602
68.59000 908.618
68.60000 948.686
68.61000 988.602
68.62000 1026.071
68.63000 1062.684
68.64000 1100.013
68.65000 1143.732
68.66000 1188.964
68.67000 1228.103
68.68000 1289.515
68.69000 1344.644
68.70000 1398.939
68.71000 1450.161
68.72000 1501.097
68.73000 1552.163
68.74000 1603.558
68.75000 1654.968
68.76000 1687.638
68.77000 1756.025
68.78000 1806.133
68.79000 1871.884
68.80000 1955.540
68.81000 2039.219
68.82000 2123.324
68.83000 2207.748
68.84000 2290.671
68.85000 2401.111
68.86000 2521.138
68.87000 2648.094
68.88000 2884.287
68.89000 3158.152
68.90000 3473.725
68.91000 4154.474
68.92000 4920.350
68.93000 5581.346
68.94000 7705.268
68.95000 9695.733
68.96000 12005.975
68.97000 15477.202
68.98000 19054.156
68.99000 22838.332
69.00000 27135.102
69.01000 31455.768
69.02000 34185.746
69.03000 38686.480
69.04000 41968.469
69.05000 44585.035
69.06000 46452.285
69.07000 48315.336
69.08000 49560.574
69.09000 50352.070
69.10000 51128.848
69.11000 51807.113
69.12000 52413.934
69.13000 53038.508
69.14000 53935.699
69.15000 54925.555
69.16000 55838.367
69.17000 56089.750
69.18000 56189.320
69.19000 56275.031
69.20000 54419.543
69.21000 52603.066
69.22000 50443.785
69.23000 47058.383
69.24000 43563.738
69.25000 40196.680
69.26000 37140.699
69.27000 34098.781
69.28000 32187.908
69.29000 30115.191
69.30000 28614.914
69.31000 27524.219
69.32000 26887.254
69.33000 26251.531
69.34000 25765.746
69.35000 25388.396
69.36000 25018.375
69.37000 24176.756
69.38000 23143.918
69.39000 22067.887
69.40000 20345.086
69.41000 18405.643
69.42000 16438.840
69.43000 14241.639
69.44000 11992.372
69.45000 10061.224
69.46000 8182.557
69.47000 6600.750
69.48000 5177.237
69.49000 4311.511
69.50000 3494.396
69.51000 2816.298
69.52000 2472.280
69.53000 2142.898
69.54000 1937.199
69.55000 1736.195
69.56000 1591.256
69.57000 1471.095
69.58000 1377.934
69.59000 1284.976
69.60000 1219.639
69.61000 1173.972
69.62000 1129.230
69.63000 1083.875
69.64000 1039.973
69.65000 996.998
69.66000 967.549
69.67000 942.564
69.68000 917.508
69.69000 891.852
69.70000 866.062
69.71000 843.979
69.72000 825.360
69.73000 810.067
69.74000 792.021
69.75000 764.418
69.76000 736.000
69.77000 712.323
69.78000 699.876
69.79000 687.906
69.80000 680.475
69.81000 661.627
69.82000 647.950
69.83000 636.466
69.84000 627.330
69.85000 618.172
69.86000 606.034
69.87000 591.806
69.88000 577.879
69.89000 573.888
69.90000 574.593
69.91000 574.723
69.92000 566.662
69.93000 555.935
69.94000 546.383
69.95000 546.343
69.96000 548.385
69.97000 550.130
69.98000 544.743
69.99000 539.358
70.00000 533.138
