20.00000 494.995
20.01000 482.493
20.02000 468.204
20.03000 458.926
20.04000 469.406
20.05000 481.908
20.06000 491.140
20.07000 480.636
20.08000 471.657
20.09000 467.889
20.10000 473.662
20.11000 479.639
20.12000 484.610
20.13000 488.346
20.14000 492.072
20.15000 486.954
20.16000 474.812
20.17000 463.070
20.18000 469.149
20.19000 484.819
20.20000 499.454
20.21000 495.691
20.22000 485.155
20.23000 475.432
20.24000 484.841
20.25000 497.557
20.26000 507.427
20.27000 500.506
20.28000 490.834
20.29000 482.548
20.30000 479.651
20.31000 477.293
20.32000 475.559
20.33000 479.046
20.34000 481.958
20.35000 486.150
20.36000 492.652
20.37000 499.201
20.38000 498.400
20.39000 488.702
20.40000 479.002
20.41000 477.865
20.42000 483.443
20.43000 488.916
20.44000 489.901
20.45000 488.505
20.46000 487.301
20.47000 489.419
20.48000 492.742
20.49000 495.804
20.50000 492.687
20.51000 488.538
20.52000 485.251
20.53000 486.963
20.54000 489.480
20.55000 491.288
20.56000 490.383
20.57000 489.212
20.58000 488.354
20.59000 485.910
20.60000 483.960
20.61000 483.896
20.62000 487.188
20.63000 490.545
20.64000 491.106
20.65000 488.337
20.66000 485.567
20.67000 479.472
20.68000 470.847
20.69000 462.345
20.70000 458.872
20.71000 458.028
20.72000 457.686
20.73000 465.785
20.74000 476.902
20.75000 487.124
20.76000 483.289
20.77000 476.823
20.78000 470.789
20.79000 467.223
20.80000 464.046
20.81000 461.228
20.82000 459.760
20.83000 458.422
20.84000 457.447
20.85000 466.570
20.86000 473.989
20.87000 477.008
20.88000 472.318
20.89000 467.486
20.90000 466.677
20.91000 470.585
20.92000 474.490
20.93000 476.718
20.94000 477.661
20.95000 478.694
20.96000 483.226
20.97000 489.561
20.98000 495.303
20.99000 491.330
21.00000 483.934
21.01000 477.145
21.02000 469.431
21.03000 462.355
21.04000 457.198
21.05000 462.805
21.06000 470.086
21.07000 477.213
21.08000 483.766
21.09000 490.265
21.10000 494.983
21.11000 491.710
21.12000 488.894
21.13000 489.249
21.14000 495.076
21.15000 501.000
21.16000 499.455
21.17000 489.295
21.18000 479.152
21.19000 479.123
21.20000 486.641
21.21000 494.052
21.22000 497.442
21.23000 498.791
21.24000 499.452
21.25000 489.132
21.26000 474.998
21.27000 462.050
21.28000 460.050
21.29000 460.558
21.30000 462.147
21.31000 469.695
21.32000 478.153
21.33000 483.690
21.34000 478.539
21.35000 472.404
21.36000 467.969
21.37000 472.534
21.38000 476.362
21.39000 478.477
21.40000 477.674
21.41000 476.824
21.42000 476.832
21.43000 477.814
21.44000 478.795
21.45000 477.914
21.46000 475.673
21.47000 473.392
21.48000 469.632
21.49000 465.134
21.50000 461.420
21.51000 469.899
21.52000 482.552
21.53000 494.122
21.54000 485.190
21.55000 473.039
21.56000 462.565
21.57000 461.187
21.58000 461.174
21.59000 462.697
21.60000 469.753
21.61000 477.306
21.62000 482.743
21.63000 488.004
21.64000 492.026
21.65000 493.986
21.66000 492.488
21.67000 490.936
21.68000 492.928
21.69000 498.877
21.70000 504.808
21.71000 504.865
21.72000 500.678
21.73000 496.586
21.74000 495.776
21.75000 496.583
21.76000 497.475
21.77000 499.650
21.78000 502.258
21.79000 504.638
21.80000 514.440
21.81000 524.634
21.82000 533.137
21.83000 532.620
21.84000 530.772
21.85000 530.779
21.86000 537.374
21.87000 544.549
21.88000 549.689
21.89000 549.002
21.90000 548.278
21.91000 552.116
21.92000 563.487
21.93000 574.969
21.94000 581.923
21.95000 583.904
21.96000 585.874
21.97000 602.594
21.98000 629.643
21.99000 656.053
22.00000 661.252
22.01000 656.142
22.02000 651.269
22.03000 649.880
22.04000 649.649
22.05000 649.438
22.06000 657.159
22.07000 665.570
22.08000 672.071
22.09000 668.542
22.10000 663.558
22.11000 660.706
22.12000 665.309
22.13000 670.554
22.14000 674.295
22.15000 662.690
22.16000 653.337
22.17000 644.292
22.18000 635.747
22.19000 627.210
22.20000 621.708
22.21000 619.485
22.22000 617.273
22.23000 610.942
22.24000 601.796
22.25000 592.963
22.26000 594.173
22.27000 600.193
22.28000 604.802
22.29000 589.084
22.30000 566.706
22.31000 546.365
22.32000 548.705
22.33000 555.197
22.34000 560.121
22.35000 556.939
22.36000 552.602
22.37000 545.585
22.38000 529.334
22.39000 512.306
22.40000 500.214
22.41000 507.427
22.42000 513.529
22.43000 512.792
22.44000 501.093
22.45000 489.249
22.46000 481.056
22.47000 476.743
22.48000 472.452
22.49000 473.065
22.50000 477.046
22.51000 480.976
22.52000 483.332
22.53000 484.944
22.54000 486.237
22.55000 483.032
22.56000 478.376
22.57000 474.152
22.58000 467.439
22.59000 461.039
22.60000 455.979
22.61000 457.736
22.62000 460.445
22.63000 463.956
22.64000 470.184
22.65000 476.635
22.66000 481.195
22.67000 470.849
22.68000 462.536
22.69000 456.714
22.70000 454.826
22.71000 452.986
22.72000 453.163
22.73000 455.448
22.74000 457.721
22.75000 448.545
22.76000 431.726
22.77000 415.511
22.78000 417.234
22.79000 427.304
22.80000 436.961
22.81000 440.951
22.82000 443.138
22.83000 445.118
22.84000 445.953
22.85000 446.472
22.86000 447.361
22.87000 450.104
22.88000 453.102
22.89000 456.340
22.90000 460.381
22.91000 464.488
22.92000 467.377
22.93000 456.662
22.94000 448.139
22.95000 444.583
22.96000 448.752
22.97000 453.011
22.98000 451.810
22.99000 445.000
23.00000 438.227
23.01000 431.765
23.02000 425.592
23.03000 419.703
23.04000 421.935
23.05000 427.893
23.06000 434.059
23.07000 443.026
23.08000 452.871
23.09000 461.765
23.10000 454.852
23.11000 445.849
23.12000 438.363
23.13000 438.347
23.14000 439.337
23.15000 440.116
23.16000 440.196
23.17000 440.221
23.18000 440.238
23.19000 445.765
23.20000 450.101
23.21000 451.655
23.22000 448.946
23.23000 446.190
23.24000 445.547
23.25000 447.038
23.26000 448.520
23.27000 447.681
23.28000 445.331
23.29000 443.105
23.30000 444.278
23.31000 446.988
23.32000 449.098
23.33000 443.364
23.34000 435.206
23.35000 427.852
23.36000 423.862
23.37000 420.973
23.38000 418.181
23.39000 415.866
23.40000 413.613
23.41000 414.459
23.42000 425.368
23.43000 437.049
23.44000 445.191
23.45000 446.629
23.46000 447.530
23.47000 447.894
23.48000 447.447
23.49000 446.992
23.50000 439.777
23.51000 425.846
23.52000 412.005
23.53000 409.436
23.54000 414.177
23.55000 418.889
23.56000 422.808
23.57000 426.375
23.58000 429.668
23.59000 429.450
23.60000 428.164
23.61000 427.007
23.62000 425.179
23.63000 423.457
23.64000 422.712
23.65000 426.625
23.66000 431.143
23.67000 434.794
23.68000 435.669
23.69000 436.336
23.70000 436.799
23.71000 427.361
23.72000 419.991
23.73000 418.416
23.74000 425.458
23.75000 432.580
23.76000 435.380
23.77000 433.959
23.78000 432.547
23.79000 434.894
23.80000 439.591
23.81000 444.242
23.82000 447.699
23.83000 450.631
23.84000 452.897
23.85000 446.845
23.86000 438.298
23.87000 430.625
23.88000 433.274
23.89000 437.403
23.90000 439.338
23.91000 430.979
23.92000 421.307
23.93000 416.274
23.94000 425.868
23.95000 436.532
23.96000 443.893
23.97000 430.017
23.98000 419.047
23.99000 412.802
24.00000 413.473
24.01000 414.205
24.02000 419.576
24.03000 429.402
24.04000 439.155
24.05000 438.791
24.06000 432.111
24.07000 425.660
24.08000 424.928
24.09000 426.673
24.10000 428.265
24.11000 427.994
24.12000 427.173
24.13000 426.437
24.14000 430.746
24.15000 435.377
24.16000 438.886
24.17000 437.209
24.18000 434.883
24.19000 432.177
24.20000 428.292
24.21000 424.322
24.22000 421.594
24.23000 422.459
24.24000 423.195
24.25000 426.062
24.26000 432.004
24.27000 437.968
24.28000 436.433
24.29000 427.816
24.30000 419.268
24.31000 412.358
24.32000 406.577
24.33000 401.121
24.34000 403.508
24.35000 409.241
24.36000 414.931
24.37000 420.102
24.38000 425.122
24.39000 429.609
24.40000 426.686
24.41000 422.884
24.42000 420.115
24.43000 422.038
24.44000 424.537
24.45000 426.753
24.46000 428.102
24.47000 429.391
24.48000 430.271
24.49000 435.561
24.50000 439.624
24.51000 438.640
24.52000 430.490
24.53000 422.288
24.54000 417.762
24.55000 416.651
24.56000 415.550
24.57000 419.761
24.58000 427.109
24.59000 434.109
24.60000 432.981
24.61000 428.434
24.62000 423.554
24.63000 414.784
24.64000 404.898
24.65000 396.081
24.66000 395.126
24.67000 395.603
24.68000 397.175
24.69000 403.652
24.70000 410.719
24.71000 415.666
24.72000 414.212
24.73000 412.323
24.74000 411.038
24.75000 409.491
24.76000 408.331
24.77000 407.442
24.78000 406.933
24.79000 406.424
24.80000 402.110
24.81000 394.318
24.82000 386.596
24.83000 387.507
24.84000 393.541
24.85000 399.485
24.86000 403.361
24.87000 406.380
24.88000 409.120
24.89000 408.682
24.90000 407.346
24.91000 406.158
24.92000 407.995
24.93000 410.085
24.94000 411.846
24.95000 412.155
24.96000 412.293
24.97000 413.790
24.98000 419.328
24.99000 425.135
25.00000 429.064
25.01000 416.521
25.02000 406.817
25.03000 404.993
25.04000 414.020
25.05000 423.110
25.06000 425.563
25.07000 422.051
25.08000 418.573
25.09000 413.914
25.10000 408.659
25.11000 403.604
25.12000 402.951
25.13000 404.095
25.14000 404.930
25.15000 402.326
25.16000 398.763
25.17000 395.600
25.18000 398.671
25.19000 402.334
25.20000 405.391
25.21000 405.821
25.22000 405.948
25.23000 407.556
25.24000 413.507
25.25000 419.740
25.26000 423.936
25.27000 419.680
25.28000 416.340
25.29000 413.605
25.30000 411.689
25.31000 409.779
25.32000 409.424
25.33000 410.444
25.34000 411.454
25.35000 407.579
25.36000 400.971
25.37000 394.499
25.38000 390.917
25.39000 388.498
25.40000 386.109
25.41000 384.039
25.42000 382.058
25.43000 380.302
25.44000 390.601
25.45000 401.411
25.46000 409.093
25.47000 403.413
25.48000 396.216
25.49000 391.241
25.50000 392.690
25.51000 394.543
25.52000 395.785
25.53000 395.488
25.54000 395.238
25.55000 398.816
25.56000 407.505
25.57000 416.211
25.58000 417.108
25.59000 411.211
25.60000 405.379
25.61000 399.271
25.62000 393.147
25.63000 387.487
25.64000 391.399
25.65000 399.111
25.66000 406.463
25.67000 409.984
25.68000 412.469
25.69000 414.665
25.70000 405.996
25.71000 396.829
25.72000 389.885
25.73000 392.293
25.74000 395.742
25.75000 399.011
25.76000 401.767
25.77000 404.492
25.78000 406.308
25.79000 407.796
25.80000 408.891
25.81000 408.413
25.82000 405.864
25.83000 403.309
25.84000 402.350
25.85000 402.756
25.86000 403.158
25.87000 403.174
25.88000 402.974
25.89000 402.951
25.90000 406.502
25.91000 411.451
25.92000 415.759
25.93000 413.364
25.94000 409.185
25.95000 405.500
25.96000 404.635
25.97000 404.317
25.98000 402.287
25.99000 393.169
26.00000 383.276
26.01000 376.103
26.02000 376.561
26.03000 377.474
26.04000 378.080
26.05000 385.807
26.06000 391.644
26.07000 394.922
26.08000 394.885
26.09000 394.829
26.10000 391.543
26.11000 385.536
26.12000 379.602
26.13000 382.002
26.14000 388.927
26.15000 395.704
26.16000 399.616
26.17000 402.423
26.18000 405.059
26.19000 405.947
26.20000 406.377
26.21000 406.755
26.22000 405.067
26.23000 403.307
26.24000 401.394
26.25000 398.863
26.26000 396.264
26.27000 394.920
26.28000 397.045
26.29000 399.371
26.30000 400.905
26.31000 404.453
26.32000 407.104
26.33000 402.995
26.34000 390.274
26.35000 377.536
26.36000 370.514
26.37000 368.233
26.38000 365.980
26.39000 373.758
26.40000 386.761
26.41000 399.096
26.42000 398.792
26.43000 393.684
26.44000 388.671
26.45000 384.606
26.46000 380.787
26.47000 377.435
26.48000 384.666
26.49000 392.425
26.50000 399.449
26.51000 403.522
26.52000 407.284
26.53000 408.211
26.54000 401.407
26.55000 394.165
26.56000 389.416
26.57000 400.257
26.58000 408.490
26.59000 410.630
26.60000 405.129
26.61000 399.608
26.62000 395.072
26.63000 391.340
26.64000 387.659
26.65000 390.122
26.66000 395.792
26.67000 400.962
26.68000 396.943
26.69000 389.481
26.70000 382.463
26.71000 379.810
26.72000 378.267
26.73000 376.915
26.74000 380.052
26.75000 383.386
26.76000 385.691
26.77000 383.927
26.78000 381.745
26.79000 379.292
26.80000 376.112
26.81000 372.891
26.82000 370.790
26.83000 381.209
26.84000 389.054
26.85000 389.388
26.86000 380.449
26.87000 371.501
26.88000 367.872
26.89000 368.512
26.90000 369.143
26.91000 377.891
26.92000 390.646
26.93000 402.350
26.94000 395.289
26.95000 381.298
26.96000 368.183
26.97000 363.489
26.98000 360.907
26.99000 358.651
27.00000 364.672
27.01000 370.990
27.02000 376.293
27.03000 377.633
27.04000 378.576
27.05000 377.515
27.06000 371.154
27.07000 364.509
27.08000 360.197
27.09000 377.078
27.10000 389.759
27.11000 394.543
27.12000 389.734
27.13000 384.916
27.14000 384.198
27.15000 386.721
27.16000 389.206
27.17000 391.596
27.18000 393.864
27.19000 395.785
27.20000 391.643
27.21000 385.296
27.22000 379.714
27.23000 381.356
27.24000 384.780
27.25000 387.763
27.26000 383.873
27.27000 379.601
27.28000 376.728
27.29000 379.228
27.30000 382.258
27.31000 382.742
27.32000 376.584
27.33000 370.080
27.34000 365.884
27.35000 371.430
27.36000 375.621
27.37000 378.926
27.38000 381.170
27.39000 383.377
27.40000 376.260
27.41000 361.891
27.42000 347.747
27.43000 347.792
27.44000 355.045
27.45000 362.279
27.46000 369.217
27.47000 376.048
27.48000 382.470
27.49000 385.113
27.50000 386.839
27.51000 388.339
27.52000 381.775
27.53000 375.085
27.54000 369.569
27.55000 368.492
27.56000 367.843
27.57000 367.876
27.58000 369.659
27.59000 371.530
27.60000 372.731
27.61000 367.794
27.62000 364.111
27.63000 363.861
27.64000 367.649
27.65000 371.441
27.66000 374.483
27.67000 376.952
27.68000 379.380
27.69000 380.267
27.70000 380.355
27.71000 380.038
27.72000 373.054
27.73000 363.713
27.74000 355.553
27.75000 358.088
27.76000 363.181
27.77000 367.596
27.78000 373.083
27.79000 377.896
27.80000 380.855
27.81000 376.909
27.82000 372.310
27.83000 368.537
27.84000 366.855
27.85000 365.275
27.86000 364.268
27.87000 371.247
27.88000 376.427
27.89000 373.775
27.90000 362.056
27.91000 350.367
27.92000 347.249
27.93000 350.593
27.94000 353.880
27.95000 358.824
27.96000 364.417
27.97000 369.769
27.98000 371.251
27.99000 371.385
28.00000 371.109
28.01000 367.204
28.02000 362.443
28.03000 358.327
28.04000 360.807
28.05000 363.774
28.06000 365.394
28.07000 362.068
28.08000 358.285
28.09000 357.140
28.10000 362.589
28.11000 368.351
28.12000 372.006
28.13000 379.567
28.14000 385.102
28.15000 385.242
28.16000 379.236
28.17000 373.244
28.18000 370.799
28.19000 370.988
28.20000 371.174
28.21000 371.068
28.22000 370.823
28.23000 370.795
28.24000 374.148
28.25000 378.663
28.26000 382.191
28.27000 377.136
28.28000 370.090
28.29000 364.013
28.30000 364.691
28.31000 366.130
28.32000 368.409
28.33000 373.720
28.34000 379.306
28.35000 381.981
28.36000 377.490
28.37000 372.667
28.38000 369.625
28.39000 364.654
28.40000 361.032
28.41000 362.621
28.42000 370.052
28.43000 377.437
28.44000 376.440
28.45000 369.317
28.46000 362.328
28.47000 364.434
28.48000 370.800
28.49000 376.356
28.50000 369.560
28.51000 358.584
28.52000 349.333
28.53000 354.804
28.54000 363.638
28.55000 371.236
28.56000 365.733
28.57000 359.431
28.58000 355.127
28.59000 357.941
28.60000 361.384
28.61000 363.099
28.62000 360.616
28.63000 357.946
28.64000 356.271
28.65000 358.560
28.66000 360.257
28.67000 362.284
28.68000 364.676
28.69000 367.043
28.70000 365.495
28.71000 361.130
28.72000 356.851
28.73000 361.302
28.74000 369.683
28.75000 377.438
28.76000 375.896
28.77000 371.252
28.78000 367.172
28.79000 367.820
28.80000 369.530
28.81000 370.997
28.82000 366.653
28.83000 362.267
28.84000 359.313
28.85000 361.382
28.86000 363.886
28.87000 366.641
28.88000 369.996
28.89000 373.376
28.90000 375.484
28.91000 371.275
28.92000 368.176
28.93000 365.819
28.94000 364.266
28.95000 362.747
28.96000 366.009
28.97000 372.660
28.98000 379.174
28.99000 377.843
29.00000 372.938
29.01000 368.041
29.02000 363.267
29.03000 358.533
29.04000 354.277
29.05000 353.951
29.06000 354.494
29.07000 354.959
29.08000 357.900
29.09000 360.680
29.10000 363.535
29.11000 366.647
29.12000 369.781
29.13000 368.632
29.14000 357.383
29.15000 345.709
29.16000 338.475
29.17000 360.499
29.18000 376.619
29.19000 382.985
29.20000 378.949
29.21000 374.904
29.22000 370.099
29.23000 364.764
29.24000 359.542
29.25000 358.699
29.26000 359.880
29.27000 360.885
29.28000 359.402
29.29000 357.114
29.30000 354.925
29.31000 353.539
29.32000 352.328
29.33000 351.294
29.34000 351.872
29.35000 352.549
29.36000 352.893
29.37000 352.102
29.38000 351.218
29.39000 353.013
29.40000 361.037
29.41000 369.315
29.42000 374.414
29.43000 365.329
29.44000 358.682
29.45000 356.194
29.46000 358.067
29.47000 359.951
29.48000 363.051
29.49000 366.987
29.50000 370.836
29.51000 369.974
29.52000 367.041
29.53000 364.212
29.54000 362.816
29.55000 361.877
29.56000 360.906
29.57000 359.675
29.58000 358.388
29.59000 357.292
29.60000 352.248
29.61000 347.551
29.62000 343.770
29.63000 343.060
29.64000 342.599
29.65000 345.688
29.66000 356.912
29.67000 368.457
29.68000 375.525
29.69000 372.158
29.70000 369.659
29.71000 366.418
29.72000 362.410
29.73000 358.463
29.74000 361.083
29.75000 368.151
29.76000 375.055
29.77000 379.944
29.78000 383.738
29.79000 387.430
29.80000 389.746
29.81000 391.629
29.82000 392.491
29.83000 385.436
29.84000 376.708
29.85000 369.302
29.86000 373.236
29.87000 377.822
29.88000 382.251
29.89000 386.153
29.90000 390.015
29.91000 396.701
29.92000 409.767
29.93000 423.076
29.94000 431.174
29.95000 440.428
29.96000 447.047
29.97000 450.143
29.98000 449.667
29.99000 449.158
30.00000 445.379
30.01000 439.420
30.02000 433.604
30.03000 435.698
30.04000 441.128
30.05000 446.840
30.06000 456.250
30.07000 466.806
30.08000 476.126
30.09000 476.032
30.10000 473.982
30.11000 472.248
30.12000 464.184
30.13000 456.729
30.14000 450.617
30.15000 448.881
30.16000 447.483
30.17000 444.597
30.18000 438.401
30.19000 432.083
30.20000 428.263
30.21000 412.109
30.22000 400.508
30.23000 394.136
30.24000 392.979
30.25000 391.863
30.26000 394.753
30.27000 400.273
30.28000 405.654
30.29000 409.113
30.30000 411.594
30.31000 414.004
30.32000 415.508
30.33000 416.735
30.34000 417.045
30.35000 410.506
30.36000 402.565
30.37000 395.863
30.38000 398.311
30.39000 401.354
30.40000 404.042
30.41000 405.591
30.42000 407.054
30.43000 407.481
30.44000 405.633
30.45000 403.704
30.46000 402.545
30.47000 399.913
30.48000 398.033
30.49000 401.305
30.50000 409.629
30.51000 417.892
30.52000 420.725
30.53000 420.044
30.54000 419.381
30.55000 414.809
30.56000 408.810
30.57000 403.045
30.58000 400.219
30.59000 398.277
30.60000 396.337
30.61000 394.415
30.62000 392.498
30.63000 390.884
30.64000 395.035
30.65000 399.113
30.66000 402.061
30.67000 401.433
30.68000 400.541
30.69000 401.260
30.70000 405.462
30.71000 409.783
30.72000 412.364
30.73000 405.307
30.74000 400.243
30.75000 399.524
30.76000 402.994
30.77000 406.495
30.78000 412.615
30.79000 420.405
30.80000 427.985
30.81000 429.184
30.82000 427.687
30.83000 426.350
30.84000 426.974
30.85000 428.180
30.86000 430.751
30.87000 443.162
30.88000 457.522
30.89000 469.572
30.90000 475.682
30.91000 480.146
30.92000 482.770
30.93000 479.655
30.94000 476.127
30.95000 478.553
30.96000 493.669
30.97000 509.204
30.98000 518.420
30.99000 517.986
31.00000 517.625
31.01000 529.611
31.02000 553.300
31.03000 576.817
31.04000 586.896
31.05000 588.535
31.06000 590.129
31.07000 619.982
31.08000 659.856
31.09000 699.425
31.10000 735.326
31.11000 770.155
31.12000 805.482
31.13000 844.324
31.14000 883.852
31.15000 916.926
31.16000 987.763
31.17000 1050.490
31.18000 1115.657
31.19000 1188.317
31.20000 1261.502
31.21000 1342.461
31.22000 1439.753
31.23000 1537.563
31.24000 1595.214
31.25000 1730.356
31.26000 1826.161
31.27000 1938.480
31.28000 2066.195
31.29000 2193.571
31.30000 2296.138
31.31000 2383.356
31.32000 2468.043
31.33000 2570.954
31.34000 2675.934
31.35000 2776.591
31.36000 2826.572
31.37000 2861.967
31.38000 2900.328
31.39000 2959.306
31.40000 3022.239
31.41000 3074.743
31.42000 3069.360
31.43000 3059.089
31.44000 3032.873
31.45000 2958.388
31.46000 2880.603
31.47000 2804.532
31.48000 2732.011
31.49000 2659.599
31.50000 2617.198
31.51000 2473.842
31.52000 2372.405
31.53000 2264.430
31.54000 2150.462
31.55000 2036.746
31.56000 1940.457
31.57000 1854.790
31.58000 1771.699
31.59000 1672.261
31.60000 1571.569
31.61000 1472.531
31.62000 1392.438
31.63000 1317.717
31.64000 1242.864
31.65000 1167.107
31.66000 1091.180
31.67000 1028.021
31.68000 969.100
31.69000 920.744
31.70000 874.837
31.71000 836.239
31.72000 798.128
31.73000 756.655
31.74000 708.318
31.75000 659.780
31.76000 631.546
31.77000 616.686
31.78000 606.301
31.79000 586.959
31.80000 559.540
31.81000 532.337
31.82000 519.181
31.83000 514.462
31.84000 509.890
31.85000 502.334
31.86000 494.025
31.87000 485.768
31.88000 478.083
31.89000 470.558
31.90000 463.084
31.91000 455.945
31.92000 448.870
31.93000 443.001
31.94000 436.023
31.95000 430.151
31.96000 422.860
31.97000 411.394
31.98000 399.658
31.99000 390.882
32.00000 388.064
32.01000 385.415
32.02000 383.884
32.03000 383.474
32.04000 383.191
32.05000 382.969
32.06000 382.802
32.07000 382.606
32.08000 380.603
32.09000 377.531
32.10000 374.558
32.11000 371.690
32.12000 369.019
32.13000 366.627
32.14000 367.283
32.15000 368.779
32.16000 369.625
32.17000 366.191
32.18000 361.976
32.19000 358.491
32.20000 352.604
32.21000 347.524
32.22000 344.551
32.23000 347.682
32.24000 351.200
32.25000 352.368
32.26000 348.878
32.27000 345.261
32.28000 343.185
32.29000 341.801
32.30000 340.837
32.31000 341.296
32.32000 342.998
32.33000 344.674
32.34000 344.900
32.35000 344.280
32.36000 343.681
32.37000 348.077
32.38000 354.102
32.39000 359.030
32.40000 352.186
32.41000 342.151
32.42000 333.782
32.43000 336.195
32.44000 340.545
32.45000 344.131
32.46000 344.452
32.47000 344.415
32.48000 342.846
32.49000 336.900
32.50000 330.683
32.51000 326.372
32.52000 325.781
32.53000 325.288
32.54000 325.007
32.55000 334.733
32.56000 341.547
32.57000 348.477
32.58000 355.506
32.59000 362.412
32.60000 362.506
32.61000 358.686
32.62000 354.997
32.63000 348.895
32.64000 342.253
32.65000 336.239
32.66000 336.824
32.67000 339.173
32.68000 339.854
32.69000 329.925
32.70000 318.123
32.71000 308.424
32.72000 314.668
32.73000 321.235
32.74000 325.966
32.75000 325.531
32.76000 324.786
32.77000 324.222
32.78000 324.006
32.79000 323.799
32.80000 323.682
32.81000 330.793
32.82000 335.756
32.83000 337.814
32.84000 337.418
32.85000 336.896
32.86000 329.770
32.87000 318.904
32.88000 308.425
32.89000 311.001
32.90000 318.177
32.91000 324.393
32.92000 320.746
32.93000 314.504
32.94000 309.538
32.95000 312.548
32.96000 316.943
32.97000 320.544
32.98000 316.494
32.99000 312.500
33.00000 310.939
33.01000 316.132
33.02000 321.720
33.03000 326.262
33.04000 328.820
33.05000 331.330
33.06000 332.741
33.07000 321.883
33.08000 314.328
33.09000 311.764
33.10000 313.351
33.11000 314.933
33.12000 316.212
33.13000 317.323
33.14000 318.394
33.15000 316.490
33.16000 313.637
33.17000 310.763
33.18000 307.667
33.19000 304.514
33.20000 302.328
33.21000 306.091
33.22000 310.869
33.23000 314.771
33.24000 313.472
33.25000 311.960
33.26000 311.074
33.27000 311.899
33.28000 312.821
33.29000 312.878
33.30000 311.316
33.31000 309.718
33.32000 308.826
33.33000 301.514
33.34000 296.449
33.35000 295.689
33.36000 298.452
33.37000 301.181
33.38000 302.254
33.39000 302.417
33.40000 302.574
33.41000 301.497
33.42000 300.052
33.43000 298.356
33.44000 294.179
33.45000 289.370
33.46000 285.645
33.47000 288.474
33.48000 292.403
33.49000 295.602
33.50000 300.485
33.51000 304.616
33.52000 307.024
33.53000 304.789
33.54000 302.296
33.55000 302.299
33.56000 306.902
33.57000 311.605
33.58000 314.211
33.59000 308.948
33.60000 305.310
33.61000 305.298
33.62000 308.208
33.63000 311.039
33.64000 310.277
33.65000 307.570
33.66000 304.968
33.67000 304.134
33.68000 303.966
33.69000 303.613
33.70000 301.473
33.71000 298.883
33.72000 297.232
33.73000 301.152
33.74000 305.993
33.75000 309.920
33.76000 299.848
33.77000 290.482
33.78000 284.336
33.79000 286.740
33.80000 289.605
33.81000 292.833
33.82000 296.722
33.83000 300.624
33.84000 302.769
33.85000 301.125
33.86000 299.986
33.87000 298.717
33.88000 297.344
33.89000 295.904
33.90000 291.573
33.91000 285.700
33.92000 280.062
33.93000 281.359
33.94000 284.939
33.95000 288.226
33.96000 288.736
33.97000 288.559
33.98000 289.455
33.99000 296.621
34.00000 304.805
34.01000 311.424
34.02000 308.039
34.03000 304.478
34.04000 299.984
34.05000 293.048
34.06000 285.983
34.07000 281.914
34.08000 283.203
34.09000 284.599
34.10000 285.361
34.11000 281.158
34.12000 278.284
34.13000 280.465
34.14000 286.593
34.15000 292.528
34.16000 290.413
34.17000 284.066
34.18000 277.981
34.19000 279.054
34.20000 282.461
34.21000 285.138
34.22000 281.047
34.23000 275.305
34.24000 270.378
34.25000 270.136
34.26000 270.641
34.27000 271.048
34.28000 285.817
34.29000 298.943
34.30000 307.001
34.31000 301.987
34.32000 296.307
34.33000 291.219
34.34000 287.174
34.35000 283.149
34.36000 280.968
34.37000 284.969
34.38000 287.714
34.39000 289.888
34.40000 291.622
34.41000 293.281
34.42000 291.923
34.43000 289.003
34.44000 286.206
34.45000 287.605
34.46000 290.294
34.47000 291.807
34.48000 282.613
34.49000 270.849
34.50000 262.191
34.51000 271.080
34.52000 282.719
34.53000 292.071
34.54000 285.224
34.55000 278.427
34.56000 274.438
34.57000 277.589
34.58000 281.092
34.59000 283.847
34.60000 285.301
34.61000 286.732
34.62000 287.501
34.63000 289.897
34.64000 291.518
34.65000 289.484
34.66000 284.685
34.67000 279.932
34.68000 276.927
34.69000 274.813
34.70000 272.793
34.71000 278.822
34.72000 287.050
34.73000 294.360
34.74000 293.484
34.75000 290.673
34.76000 288.064
34.77000 286.580
34.78000 285.270
34.79000 284.221
34.80000 278.949
34.81000 274.366
34.82000 270.820
34.83000 269.872
34.84000 269.049
34.85000 271.691
34.86000 280.266
34.87000 288.942
34.88000 293.572
34.89000 291.070
34.90000 289.353
34.91000 286.153
34.92000 281.850
34.93000 277.758
34.94000 281.398
34.95000 288.932
34.96000 296.125
34.97000 291.798
34.98000 284.092
34.99000 277.578
35.00000 281.483
35.01000 287.814
35.02000 292.842
35.03000 290.744
35.04000 287.569
35.05000 285.034
35.06000 281.218
35.07000 278.043
35.08000 275.621
35.09000 275.061
35.10000 274.588
35.11000 274.927
35.12000 276.636
35.13000 278.367
35.14000 279.283
35.15000 277.787
35.16000 276.787
35.17000 278.942
35.18000 283.412
35.19000 287.719
35.20000 286.311
35.21000 282.067
35.22000 278.021
35.23000 279.929
35.24000 283.574
35.25000 286.458
35.26000 282.820
35.27000 277.686
35.28000 272.708
35.29000 268.568
35.30000 264.552
35.31000 261.358
35.32000 265.428
35.33000 269.229
35.34000 273.477
35.35000 278.816
35.36000 284.203
35.37000 285.857
35.38000 281.303
35.39000 276.655
35.40000 274.213
35.41000 267.831
35.42000 263.517
35.43000 261.410
35.44000 260.897
35.45000 260.434
35.46000 261.650
35.47000 263.686
35.48000 265.625
35.49000 264.521
35.50000 262.556
35.51000 261.590
35.52000 269.025
35.53000 278.355
35.54000 285.614
35.55000 281.919
35.56000 276.623
35.57000 272.425
35.58000 278.836
35.59000 284.735
35.60000 287.949
35.61000 284.720
35.62000 281.209
35.63000 278.167
35.64000 275.893
35.65000 273.631
35.66000 272.451
35.67000 278.747
35.68000 282.949
35.69000 279.172
35.70000 269.721
35.71000 260.587
35.72000 261.780
35.73000 267.951
35.74000 273.820
35.75000 272.935
35.76000 270.057
35.77000 267.573
35.78000 268.342
35.79000 269.833
35.80000 271.700
35.81000 275.518
35.82000 279.617
35.83000 282.856
35.84000 276.169
35.85000 270.124
35.86000 267.342
35.87000 272.280
35.88000 277.545
35.89000 279.123
35.90000 274.755
35.91000 270.307
35.92000 268.007
35.93000 271.567
35.94000 273.912
35.95000 268.851
35.96000 258.602
35.97000 248.826
35.98000 253.857
35.99000 265.923
36.00000 277.381
36.01000 272.092
36.02000 262.185
36.03000 253.740
36.04000 257.127
36.05000 263.101
36.06000 267.539
36.07000 264.113
36.08000 259.579
36.09000 256.010
36.10000 257.298
36.11000 258.654
36.12000 258.492
36.13000 254.788
36.14000 250.940
36.15000 249.036
36.16000 250.222
36.17000 251.447
36.18000 252.076
36.19000 269.567
36.20000 281.211
36.21000 278.659
36.22000 266.313
36.23000 254.326
36.24000 253.150
36.25000 257.037
36.26000 260.722
36.27000 261.814
36.28000 262.055
36.29000 262.722
36.30000 266.770
36.31000 271.545
36.32000 275.018
36.33000 271.928
36.34000 267.930
36.35000 264.793
36.36000 264.491
36.37000 264.433
36.38000 263.626
36.39000 261.094
36.40000 258.494
36.41000 259.781
36.42000 267.152
36.43000 274.596
36.44000 278.383
36.45000 271.638
36.46000 267.140
36.47000 265.352
36.48000 265.406
36.49000 265.422
36.50000 264.316
36.51000 262.693
36.52000 261.156
36.53000 262.216
36.54000 263.946
36.55000 265.540
36.56000 266.075
36.57000 266.385
36.58000 266.679
36.59000 266.892
36.60000 267.094
36.61000 267.252
36.62000 265.644
36.63000 264.249
36.64000 262.656
36.65000 260.617
36.66000 258.560
36.67000 256.871
36.68000 255.750
36.69000 254.635
36.70000 254.073
36.71000 255.435
36.72000 256.357
36.73000 258.361
36.74000 261.090
36.75000 263.664
36.76000 261.912
36.77000 258.191
36.78000 254.673
36.79000 260.089
36.80000 267.617
36.81000 273.763
36.82000 269.342
36.83000 262.716
36.84000 257.418
36.85000 258.597
36.86000 260.641
36.87000 262.232
36.88000 270.306
36.89000 277.137
36.90000 282.197
36.91000 283.300
36.92000 284.257
36.93000 285.084
36.94000 285.715
36.95000 286.344
36.96000 286.658
36.97000 279.648
36.98000 275.038
36.99000 276.581
37.00000 282.180
37.01000 287.619
37.02000 288.744
37.03000 287.936
37.04000 287.172
37.05000 286.703
37.06000 286.355
37.07000 285.859
37.08000 284.253
37.09000 282.419
37.10000 281.360
37.11000 284.019
37.12000 287.166
37.13000 289.608
37.14000 284.132
37.15000 279.301
37.16000 276.334
37.17000 277.469
37.18000 278.751
37.19000 280.061
37.20000 281.415
37.21000 282.769
37.22000 281.603
37.23000 277.957
37.24000 274.355
37.25000 274.670
37.26000 277.528
37.27000 280.130
37.28000 276.006
37.29000 268.909
37.30000 262.220
37.31000 259.054
37.32000 257.129
37.33000 255.838
37.34000 259.217
37.35000 263.540
37.36000 267.605
37.37000 270.452
37.38000 273.142
37.39000 275.222
37.40000 268.900
37.41000 263.391
37.42000 258.558
37.43000 255.193
37.44000 251.877
37.45000 251.401
37.46000 255.108
37.47000 258.852
37.48000 259.330
37.49000 256.649
37.50000 254.003
37.51000 254.440
37.52000 256.848
37.53000 259.230
37.54000 260.970
37.55000 262.431
37.56000 263.805
37.57000 262.669
37.58000 260.948
37.59000 258.799
37.60000 253.549
37.61000 247.682
37.62000 243.705
37.63000 248.513
37.64000 254.431
37.65000 258.988
37.66000 269.804
37.67000 278.726
37.68000 282.483
37.69000 275.197
37.70000 267.544
37.71000 262.297
37.72000 260.541
37.73000 258.815
37.74000 257.906
37.75000 257.775
37.76000 257.674
37.77000 259.942
37.78000 263.702
37.79000 267.219
37.80000 264.820
37.81000 259.881
37.82000 255.240
37.83000 258.214
37.84000 262.966
37.85000 267.097
37.86000 266.815
37.87000 265.671
37.88000 265.038
37.89000 266.751
37.90000 268.753
37.91000 270.290
37.92000 271.251
37.93000 271.978
37.94000 270.992
37.95000 266.396
37.96000 261.684
37.97000 258.273
37.98000 256.720
37.99000 255.182
38.00000 254.689
38.01000 255.173
38.02000 255.695
38.03000 258.990
38.04000 264.006
38.05000 268.708
38.06000 266.001
38.07000 260.158
38.08000 254.676
38.09000 255.688
38.10000 258.318
38.11000 261.227
38.12000 266.081
38.13000 271.311
38.14000 275.496
38.15000 274.975
38.16000 273.882
38.17000 273.047
38.18000 272.775
38.19000 272.590
38.20000 274.034
38.21000 278.861
38.22000 283.792
38.23000 287.148
38.24000 288.288
38.25000 289.413
38.26000 286.562
38.27000 280.056
38.28000 273.649
38.29000 274.089
38.30000 278.715
38.31000 283.375
38.32000 288.811
38.33000 294.571
38.34000 299.966
38.35000 309.593
38.36000 319.446
38.37000 329.560
38.38000 341.457
38.39000 353.693
38.40000 362.924
38.41000 358.828
38.42000 353.144
38.43000 348.816
38.44000 370.864
38.45000 389.611
38.46000 406.182
38.47000 418.298
38.48000 430.280
38.49000 445.270
38.50000 464.427
38.51000 483.606
38.52000 508.721
38.53000 539.183
38.54000 569.744
38.55000 606.811
38.56000 647.798
38.57000 688.533
38.58000 723.637
38.59000 756.426
38.60000 787.089
38.61000 815.102
38.62000 839.867
38.63000 865.932
38.64000 900.758
38.65000 937.216
38.66000 971.895
38.67000 998.800
38.68000 1024.797
38.69000 1044.518
38.70000 1050.846
38.71000 1055.130
38.72000 1056.999
38.73000 1053.996
38.74000 1050.854
38.75000 1047.133
38.76000 1042.622
38.77000 1038.109
38.78000 1027.883
38.79000 1012.590
38.80000 997.116
38.81000 970.398
38.82000 937.005
38.83000 903.556
38.84000 868.873
38.85000 833.690
38.86000 800.843
38.87000 758.080
38.88000 716.829
38.89000 677.926
38.90000 654.551
38.91000 634.022
38.92000 610.466
38.93000 573.894
38.94000 535.830
38.95000 507.068
38.96000 483.271
38.97000 464.863
38.98000 446.012
38.99000 426.281
39.00000 406.525
39.01000 388.437
39.02000 372.592
39.03000 356.767
39.04000 347.612
39.05000 344.307
39.06000 340.961
39.07000 335.171
39.08000 327.952
39.09000 320.681
39.10000 312.329
39.11000 303.544
39.12000 295.356
39.13000 292.955
39.14000 292.207
39.15000 290.934
39.16000 286.251
39.17000 280.953
39.18000 277.381
39.19000 281.114
39.20000 285.667
39.21000 289.095
39.22000 278.948
39.23000 270.350
39.24000 264.404
39.25000 263.655
39.26000 263.042
39.27000 263.224
39.28000 264.460
39.29000 265.699
39.30000 264.339
39.31000 260.745
39.32000 257.157
39.33000 253.928
39.34000 250.904
39.35000 248.042
39.36000 248.447
39.37000 250.139
39.38000 251.713
39.39000 251.988
39.40000 251.923
39.41000 251.586
39.42000 249.517
39.43000 247.142
39.44000 245.451
39.45000 246.619
39.46000 248.100
39.47000 249.211
39.48000 244.912
39.49000 241.299
39.50000 239.318
39.51000 240.487
39.52000 241.735
39.53000 243.683
39.54000 246.543
39.55000 249.404
39.56000 246.080
39.57000 237.530
39.58000 229.185
39.59000 231.748
39.60000 240.504
39.61000 248.916
39.62000 250.538
39.63000 249.525
39.64000 248.584
39.65000 244.823
39.66000 240.759
39.67000 237.903
39.68000 242.633
39.69000 248.686
39.70000 252.696
39.71000 248.319
39.72000 243.037
39.73000 239.093
39.74000 239.918
39.75000 240.780
39.76000 239.542
39.77000 234.309
39.78000 228.980
39.79000 226.951
39.80000 229.157
39.81000 231.376
39.82000 230.578
39.83000 227.272
39.84000 223.992
39.85000 222.085
39.86000 220.945
39.87000 220.011
39.88000 223.030
39.89000 227.560
39.90000 231.760
39.91000 234.540
39.92000 236.710
39.93000 238.158
39.94000 235.146
39.95000 231.369
39.96000 228.078
39.97000 226.754
39.98000 225.638
39.99000 224.808
40.00000 227.738
40.01000 230.185
40.02000 232.145
40.03000 233.194
40.04000 234.222
40.05000 235.455
40.06000 236.949
40.07000 238.442
40.08000 237.581
40.09000 234.796
40.10000 232.090
40.11000 233.182
40.12000 236.367
40.13000 239.141
40.14000 234.252
40.15000 226.473
40.16000 219.272
40.17000 221.058
40.18000 224.733
40.19000 228.038
40.20000 229.100
40.21000 229.784
40.22000 229.887
40.23000 227.678
40.24000 225.228
40.25000 223.414
40.26000 232.161
40.27000 239.406
40.28000 241.628
40.29000 234.564
40.30000 227.295
40.31000 222.579
40.32000 221.036
40.33000 219.505
40.34000 220.055
40.35000 222.279
40.36000 224.435
40.37000 223.473
40.38000 220.818
40.39000 218.345
40.40000 219.169
40.41000 221.217
40.42000 223.110
40.43000 220.302
40.44000 216.719
40.45000 213.874
40.46000 215.433
40.47000 217.721
40.48000 219.710
40.49000 220.526
40.50000 221.222
40.51000 221.736
40.52000 221.840
40.53000 221.904
40.54000 221.446
40.55000 220.038
40.56000 218.611
40.57000 218.875
40.58000 221.209
40.59000 223.544
40.60000 225.262
40.61000 226.482
40.62000 227.723
40.63000 229.822
40.64000 232.381
40.65000 234.654
40.66000 231.895
40.67000 227.294
40.68000 223.050
40.69000 224.490
40.70000 227.043
40.71000 229.339
40.72000 230.120
40.73000 230.655
40.74000 229.788
40.75000 223.504
40.76000 216.681
40.77000 211.670
40.78000 212.040
40.79000 212.546
40.80000 214.010
40.81000 217.195
40.82000 220.415
40.83000 222.310
40.84000 222.611
40.85000 222.907
40.86000 228.398
40.87000 237.907
40.88000 247.071
40.89000 241.709
40.90000 228.681
40.91000 216.189
40.92000 212.868
40.93000 212.859
40.94000 212.850
40.95000 210.572
40.96000 208.038
40.97000 206.453
40.98000 210.329
40.99000 215.080
41.00000 218.735
41.01000 218.215
41.02000 217.290
41.03000 216.613
41.04000 213.352
41.05000 210.735
41.06000 210.866
41.07000 215.858
41.08000 220.943
41.09000 226.712
41.10000 233.291
41.11000 239.857
41.12000 238.966
41.13000 232.365
41.14000 225.923
41.15000 225.849
41.16000 229.087
41.17000 231.731
41.18000 224.487
41.19000 213.725
41.20000 203.836
41.21000 205.879
41.22000 210.268
41.23000 214.236
41.24000 215.811
41.25000 217.010
41.26000 216.968
41.27000 212.278
41.28000 207.145
41.29000 203.407
41.30000 212.594
41.31000 220.161
41.32000 222.352
41.33000 215.172
41.34000 207.823
41.35000 206.483
41.36000 212.150
41.37000 217.813
41.38000 218.698
41.39000 215.975
41.40000 213.324
41.41000 213.457
41.42000 215.016
41.43000 216.337
41.44000 213.796
41.45000 209.902
41.46000 206.330
41.47000 208.852
41.48000 212.389
41.49000 215.234
41.50000 214.223
41.51000 212.615
41.52000 210.669
41.53000 207.471
41.54000 204.156
41.55000 201.753
41.56000 201.433
41.57000 201.265
41.58000 202.763
41.59000 207.121
41.60000 211.528
41.61000 213.479
41.62000 212.612
41.63000 211.744
41.64000 212.455
41.65000 214.332
41.66000 216.129
41.67000 214.992
41.68000 212.374
41.69000 209.745
41.70000 206.953
41.71000 204.105
41.72000 201.498
41.73000 203.009
41.74000 205.208
41.75000 207.292
41.76000 208.742
41.77000 210.095
41.78000 211.419
41.79000 212.637
41.80000 213.845
41.81000 214.717
41.82000 217.575
41.83000 219.838
41.84000 219.948
41.85000 216.414
41.86000 212.820
41.87000 208.144
41.88000 202.246
41.89000 196.366
41.90000 198.413
41.91000 206.232
41.92000 213.860
41.93000 214.724
41.94000 212.221
41.95000 209.804
41.96000 208.699
41.97000 208.041
41.98000 207.439
41.99000 202.265
42.00000 196.736
42.01000 193.226
42.02000 200.610
42.03000 209.621
42.04000 216.266
42.05000 214.432
42.06000 211.840
42.07000 209.977
42.08000 206.258
42.09000 203.347
42.10000 201.706
42.11000 202.181
42.12000 202.688
42.13000 203.595
42.14000 204.944
42.15000 206.289
42.16000 205.505
42.17000 203.198
42.18000 200.988
42.19000 202.092
42.20000 204.820
42.21000 207.459
42.22000 208.755
42.23000 209.601
42.24000 210.371
42.25000 204.800
42.26000 198.587
42.27000 193.816
42.28000 196.692
42.29000 200.689
42.30000 203.715
42.31000 203.312
42.32000 202.610
42.33000 202.107
42.34000 202.749
42.35000 203.278
42.36000 203.083
42.37000 201.697
42.38000 200.294
42.39000 198.319
42.40000 195.720
42.41000 193.131
42.42000 194.275
42.43000 198.047
42.44000 201.816
42.45000 205.496
42.46000 209.134
42.47000 212.401
42.48000 210.238
42.49000 206.280
42.50000 202.678
42.51000 205.846
42.52000 209.987
42.53000 212.873
42.54000 209.211
42.55000 204.607
42.56000 200.822
42.57000 199.889
42.58000 199.199
42.59000 198.708
42.60000 205.334
42.61000 210.614
42.62000 212.041
42.63000 207.230
42.64000 202.333
42.65000 198.758
42.66000 196.602
42.67000 194.456
42.68000 198.444
42.69000 206.657
42.70000 214.604
42.71000 214.156
42.72000 209.706
42.73000 205.590
42.74000 206.228
42.75000 208.416
42.76000 210.404
42.77000 208.482
42.78000 206.026
42.79000 203.671
42.80000 201.836
42.81000 200.074
42.82000 198.533
42.83000 197.752
42.84000 197.034
42.85000 196.525
42.86000 201.188
42.87000 204.897
42.88000 207.099
42.89000 206.900
42.90000 206.671
42.91000 206.038
42.92000 204.980
42.93000 203.926
42.94000 205.218
42.95000 208.101
42.96000 210.884
42.97000 210.622
42.98000 208.929
42.99000 207.267
43.00000 206.023
43.01000 204.914
43.02000 203.909
43.03000 199.929
43.04000 195.852
43.05000 193.093
43.06000 196.992
43.07000 201.817
43.08000 205.540
43.09000 205.545
43.10000 205.246
43.11000 205.035
43.12000 197.221
43.13000 191.060
43.14000 189.225
43.15000 194.184
43.16000 199.224
43.17000 201.908
43.18000 202.145
43.19000 202.380
43.20000 203.551
43.21000 205.340
43.22000 207.159
43.23000 209.880
43.24000 213.018
43.25000 215.944
43.26000 215.979
43.27000 215.099
43.28000 214.303
43.29000 213.081
43.30000 211.926
43.31000 211.537
43.32000 214.958
43.33000 218.900
43.34000 221.184
43.35000 217.956
43.36000 214.288
43.37000 211.711
43.38000 206.835
43.39000 203.076
43.40000 198.631
43.41000 193.126
43.42000 187.609
43.43000 188.262
43.44000 195.219
43.45000 202.136
43.46000 202.203
43.47000 197.730
43.48000 193.480
43.49000 195.546
43.50000 200.493
43.51000 205.098
43.52000 205.143
43.53000 203.765
43.54000 202.521
43.55000 204.031
43.56000 205.864
43.57000 207.071
43.58000 205.211
43.59000 202.939
43.60000 199.645
43.61000 192.998
43.62000 186.090
43.63000 181.260
43.64000 190.746
43.65000 198.318
43.66000 202.544
43.67000 201.669
43.68000 200.740
43.69000 200.040
43.70000 199.567
43.71000 199.098
43.72000 199.476
43.73000 200.401
43.74000 201.236
43.75000 199.609
43.76000 196.874
43.77000 194.422
43.78000 195.629
43.79000 197.961
43.80000 200.063
43.81000 199.484
43.82000 198.493
43.83000 196.738
43.84000 191.306
43.85000 185.391
43.86000 182.156
43.87000 187.582
43.88000 193.668
43.89000 197.903
43.90000 199.867
43.91000 201.286
43.92000 199.987
43.93000 194.607
43.94000 189.188
43.95000 187.817
43.96000 190.444
43.97000 193.053
43.98000 192.062
43.99000 188.774
44.00000 185.642
44.01000 186.591
44.02000 189.349
44.03000 191.973
44.04000 192.895
44.05000 193.300
44.06000 193.665
44.07000 194.704
44.08000 195.733
44.09000 196.499
44.10000 196.021
44.11000 195.382
44.12000 195.683
44.13000 198.978
44.14000 202.496
44.15000 204.932
44.16000 198.169
44.17000 192.840
44.18000 191.434
44.19000 195.833
44.20000 200.284
44.21000 201.288
44.22000 198.945
44.23000 196.619
44.24000 198.571
44.25000 203.194
44.26000 207.505
44.27000 203.889
44.28000 196.808
44.29000 190.169
44.30000 188.995
44.31000 189.453
44.32000 189.864
44.33000 188.886
44.34000 187.789
44.35000 187.673
44.36000 192.140
44.37000 197.186
44.38000 200.433
44.39000 198.035
44.40000 195.227
44.41000 193.292
44.42000 197.051
44.43000 200.016
44.44000 204.110
44.45000 209.849
44.46000 215.600
44.47000 217.212
44.48000 214.873
44.49000 212.551
44.50000 212.123
44.51000 212.880
44.52000 213.532
44.53000 211.600
44.54000 208.554
44.55000 205.874
44.56000 207.625
44.57000 210.678
44.58000 213.411
44.59000 211.930
44.60000 209.916
44.61000 208.342
44.62000 208.786
44.63000 209.480
44.64000 210.474
44.65000 212.395
44.66000 214.381
44.67000 215.743
44.68000 217.463
44.69000 218.761
44.70000 218.667
44.71000 216.577
44.72000 214.473
44.73000 215.758
44.74000 220.223
44.75000 224.652
44.76000 231.700
44.77000 240.222
44.78000 248.335
44.79000 246.665
44.80000 240.841
44.81000 235.780
44.82000 239.739
44.83000 246.311
44.84000 252.180
44.85000 256.843
44.86000 260.701
44.87000 264.173
44.88000 265.898
44.89000 267.411
44.90000 270.438
44.91000 278.077
44.92000 286.036
44.93000 291.467
44.94000 292.074
44.95000 292.416
44.96000 295.272
44.97000 301.680
44.98000 308.112
44.99000 314.715
45.00000 321.474
45.01000 328.174
45.02000 334.587
45.03000 340.705
45.04000 346.682
45.05000 349.398
45.06000 350.750
45.07000 352.013
45.08000 352.248
45.09000 352.189
45.10000 352.136
45.11000 344.006
45.12000 335.603
45.13000 330.086
45.14000 337.420
45.15000 346.291
45.16000 353.449
45.17000 355.462
45.18000 357.129
45.19000 358.260
45.20000 350.211
45.21000 344.000
45.22000 339.122
45.23000 336.097
45.24000 333.084
45.25000 330.039
45.26000 326.965
45.27000 323.920
45.28000 321.483
45.29000 319.455
45.30000 317.221
45.31000 310.363
45.32000 301.598
45.33000 293.460
45.34000 292.407
45.35000 293.347
45.36000 294.182
45.37000 288.845
45.38000 283.210
45.39000 279.463
45.40000 283.984
45.41000 289.476
45.42000 290.592
45.43000 278.765
45.44000 266.087
45.45000 257.522
45.46000 248.782
45.47000 242.270
45.48000 240.350
45.49000 244.719
45.50000 249.125
45.51000 251.604
45.52000 252.362
45.53000 253.113
45.54000 249.469
45.55000 243.339
45.56000 237.288
45.57000 232.943
45.58000 229.291
45.59000 226.059
45.60000 227.474
45.61000 230.176
45.62000 232.574
45.63000 230.653
45.64000 228.301
45.65000 226.947
45.66000 229.898
45.67000 233.344
45.68000 234.189
45.69000 227.448
45.70000 220.221
45.71000 215.363
45.72000 215.071
45.73000 214.948
45.74000 213.504
45.75000 210.280
45.76000 207.049
45.77000 207.677
45.78000 211.697
45.79000 215.675
45.80000 211.389
45.81000 202.459
45.82000 193.952
45.83000 194.360
45.84000 198.340
45.85000 201.882
45.86000 200.683
45.87000 198.190
45.88000 195.983
45.89000 196.227
45.90000 196.821
45.91000 196.869
45.92000 194.601
45.93000 192.071
45.94000 190.872
45.95000 193.500
45.96000 196.367
45.97000 198.283
45.98000 189.990
45.99000 183.640
46.00000 183.508
46.01000 191.631
46.02000 199.784
46.03000 200.304
46.04000 194.222
46.05000 188.207
46.06000 186.174
46.07000 186.436
46.08000 186.705
46.09000 187.124
46.10000 187.601
46.11000 187.961
46.12000 187.069
46.13000 185.841
46.14000 184.756
46.15000 181.434
46.16000 178.222
46.17000 176.061
46.18000 178.296
46.19000 181.017
46.20000 182.879
46.21000 182.305
46.22000 181.584
46.23000 181.104
46.24000 178.431
46.25000 176.413
46.26000 176.617
46.27000 179.729
46.28000 182.852
46.29000 185.637
46.30000 188.133
46.31000 190.600
46.32000 185.593
46.33000 176.556
46.34000 167.927
46.35000 167.414
46.36000 170.059
46.37000 172.707
46.38000 175.379
46.39000 178.057
46.40000 180.417
46.41000 177.630
46.42000 174.452
46.43000 172.809
46.44000 177.486
46.45000 182.849
46.46000 186.645
46.47000 186.068
46.48000 185.232
46.49000 184.679
46.50000 184.921
46.51000 185.114
46.52000 184.160
46.53000 181.730
46.54000 179.296
46.55000 177.790
46.56000 177.061
46.57000 176.342
46.58000 173.074
46.59000 168.495
46.60000 164.243
46.61000 166.304
46.62000 170.786
46.63000 174.679
46.64000 172.579
46.65000 168.916
46.66000 165.697
46.67000 165.575
46.68000 165.928
46.69000 166.151
46.70000 165.849
46.71000 165.491
46.72000 166.650
46.73000 171.982
46.74000 177.554
46.75000 181.222
46.76000 178.914
46.77000 177.111
46.78000 177.980
46.79000 182.234
46.80000 186.487
46.81000 185.882
46.82000 181.271
46.83000 176.721
46.84000 172.595
46.85000 168.807
46.86000 165.254
46.87000 166.091
46.88000 168.587
46.89000 170.896
46.90000 171.340
46.91000 171.304
46.92000 171.272
46.93000 169.924
46.94000 168.576
46.95000 167.766
46.96000 169.104
46.97000 170.666
46.98000 171.345
46.99000 169.626
47.00000 167.772
47.01000 166.559
47.02000 171.156
47.03000 174.630
47.04000 177.061
47.05000 178.191
47.06000 179.311
47.07000 178.339
47.08000 175.670
47.09000 173.037
47.10000 169.848
47.11000 166.454
47.12000 163.381
47.13000 166.164
47.14000 171.130
47.15000 175.586
47.16000 175.075
47.17000 173.307
47.18000 171.760
47.19000 169.417
47.20000 167.297
47.21000 165.080
47.22000 162.486
47.23000 159.854
47.24000 159.462
47.25000 165.057
47.26000 170.978
47.27000 174.833
47.28000 168.895
47.29000 164.388
47.30000 163.670
47.31000 167.602
47.32000 171.544
47.33000 174.879
47.34000 177.730
47.35000 180.540
47.36000 181.414
47.37000 181.252
47.38000 180.828
47.39000 175.771
47.40000 169.012
47.41000 163.149
47.42000 165.850
47.43000 170.686
47.44000 174.906
47.45000 172.683
47.46000 169.881
47.47000 167.119
47.48000 164.515
47.49000 161.925
47.50000 160.284
47.51000 161.140
47.52000 162.127
47.53000 162.767
47.54000 163.369
47.55000 163.808
47.56000 166.562
47.57000 172.112
47.58000 177.650
47.59000 178.021
47.60000 174.330
47.61000 170.696
47.62000 169.644
47.63000 169.949
47.64000 170.011
47.65000 165.895
47.66000 160.265
47.67000 155.184
47.68000 155.240
47.69000 156.556
47.70000 157.702
47.71000 160.916
47.72000 163.944
47.73000 166.076
47.74000 164.787
47.75000 163.164
47.76000 162.132
47.77000 162.637
47.78000 163.220
47.79000 163.596
47.80000 161.714
47.81000 160.308
47.82000 159.316
47.83000 158.815
47.84000 158.319
47.85000 158.726
47.86000 159.832
47.87000 160.921
47.88000 162.513
47.89000 164.309
47.90000 165.991
47.91000 165.773
47.92000 164.877
47.93000 164.026
47.94000 163.581
47.95000 163.234
47.96000 162.933
47.97000 163.562
47.98000 164.223
47.99000 164.185
48.00000 161.520
48.01000 158.603
48.02000 156.436
48.03000 156.190
48.04000 156.040
48.05000 155.944
48.06000 153.029
48.07000 150.869
48.08000 150.895
48.09000 153.481
48.10000 156.075
48.11000 159.397
48.12000 163.276
48.13000 167.090
48.14000 168.119
48.15000 167.729
48.16000 167.253
48.17000 165.389
48.18000 163.037
48.19000 161.084
48.20000 162.722
48.21000 165.214
48.22000 167.373
48.23000 164.326
48.24000 161.047
48.25000 158.851
48.26000 160.670
48.27000 162.866
48.28000 163.683
48.29000 161.022
48.30000 158.192
48.31000 156.389
48.32000 158.085
48.33000 159.361
48.34000 161.632
48.35000 165.047
48.36000 168.451
48.37000 169.188
48.38000 167.924
48.39000 166.683
48.40000 165.517
48.41000 164.426
48.42000 163.069
48.43000 157.463
48.44000 150.385
48.45000 144.302
48.46000 146.995
48.47000 151.745
48.48000 155.848
48.49000 158.173
48.50000 159.917
48.51000 162.349
48.52000 167.297
48.53000 172.474
48.54000 174.005
48.55000 166.466
48.56000 158.500
48.57000 153.457
48.58000 157.212
48.59000 160.041
48.60000 159.087
48.61000 153.850
48.62000 148.641
48.63000 149.459
48.64000 154.726
48.65000 159.897
48.66000 159.524
48.67000 156.495
48.68000 153.682
48.69000 154.221
48.70000 155.906
48.71000 157.275
48.72000 155.919
48.73000 153.934
48.74000 152.224
48.75000 157.747
48.76000 163.347
48.77000 166.836
48.78000 162.737
48.79000 157.957
48.80000 154.740
48.81000 155.354
48.82000 156.143
48.83000 156.640
48.84000 158.850
48.85000 160.468
48.86000 159.905
48.87000 156.909
48.88000 153.934
48.89000 154.511
48.90000 157.670
48.91000 160.768
48.92000 159.057
48.93000 155.128
48.94000 151.555
48.95000 153.345
48.96000 156.940
48.97000 160.038
48.98000 158.914
48.99000 156.831
49.00000 155.042
49.01000 159.120
49.02000 163.301
49.03000 166.010
49.04000 163.509
49.05000 160.550
49.06000 157.713
49.07000 155.173
49.08000 152.646
49.09000 151.064
49.10000 150.514
49.11000 150.127
49.12000 151.288
49.13000 154.144
49.14000 156.979
49.15000 156.667
49.16000 154.101
49.17000 151.586
49.18000 149.812
49.19000 148.452
49.20000 147.494
49.21000 152.479
49.22000 159.435
49.23000 165.870
49.24000 167.973
49.25000 169.107
49.26000 170.079
49.27000 168.863
49.28000 167.570
49.29000 166.109
49.30000 164.063
49.31000 161.967
49.32000 160.697
49.33000 161.397
49.34000 162.180
49.35000 162.668
49.36000 158.199
49.37000 154.931
49.38000 152.998
49.39000 152.504
49.40000 152.025
49.41000 153.590
49.42000 156.596
49.43000 159.539
49.44000 157.133
49.45000 152.365
49.46000 148.162
49.47000 152.092
49.48000 158.681
49.49000 164.420
49.50000 163.231
49.51000 160.515
49.52000 158.194
49.53000 150.855
49.54000 144.068
49.55000 139.525
49.56000 142.696
49.57000 146.515
49.58000 149.166
49.59000 149.074
49.60000 148.869
49.61000 148.743
49.62000 146.596
49.63000 145.034
49.64000 145.310
49.65000 147.536
49.66000 149.763
49.67000 152.113
49.68000 154.548
49.69000 156.930
49.70000 157.553
49.71000 157.354
49.72000 157.064
49.73000 155.485
49.74000 153.490
49.75000 151.764
49.76000 152.186
49.77000 153.073
49.78000 153.830
49.79000 151.884
49.80000 149.930
49.81000 148.584
49.82000 149.301
49.83000 150.187
49.84000 150.792
49.85000 150.749
49.86000 150.679
49.87000 150.636
49.88000 157.901
49.89000 163.174
49.90000 163.192
49.91000 157.730
49.92000 152.324
49.93000 153.582
49.94000 159.397
49.95000 165.081
49.96000 160.605
49.97000 151.794
49.98000 143.687
49.99000 145.210
50.00000 149.790
50.01000 154.222
50.02000 157.484
50.03000 160.497
50.04000 163.058
50.05000 163.242
50.06000 163.122
50.07000 162.889
50.08000 162.276
50.09000 161.632
50.10000 161.879
50.11000 164.155
50.12000 166.509
50.13000 167.948
50.14000 162.667
50.15000 158.834
50.16000 158.654
50.17000 162.219
50.18000 165.735
50.19000 163.966
50.20000 158.637
50.21000 153.434
50.22000 152.945
50.23000 154.541
50.24000 156.185
50.25000 158.465
50.26000 160.943
50.27000 163.274
50.28000 164.470
50.29000 165.426
50.30000 166.238
50.31000 160.568
50.32000 155.086
50.33000 152.351
50.34000 158.649
50.35000 165.656
50.36000 169.296
50.37000 165.369
50.38000 161.159
50.39000 158.603
50.40000 160.708
50.41000 162.246
50.42000 163.685
50.43000 165.025
50.44000 166.370
50.45000 168.182
50.46000 170.303
50.47000 172.373
50.48000 174.189
50.49000 175.816
50.50000 177.574
50.51000 181.040
50.52000 185.033
50.53000 188.995
50.54000 192.722
50.55000 196.401
50.56000 199.511
50.57000 202.605
50.58000 205.193
50.59000 207.139
50.60000 207.009
50.61000 206.721
50.62000 208.252
50.63000 213.815
50.64000 219.525
50.65000 222.970
50.66000 223.201
50.67000 223.343
50.68000 228.612
50.69000 238.961
50.70000 249.175
50.71000 246.726
50.72000 236.004
50.73000 225.554
50.74000 223.388
50.75000 224.836
50.76000 226.711
50.77000 234.023
50.78000 242.988
50.79000 250.375
50.80000 246.038
50.81000 239.315
50.82000 233.648
50.83000 233.623
50.84000 234.212
50.85000 233.783
50.86000 230.099
50.87000 226.172
50.88000 222.300
50.89000 218.549
50.90000 214.801
50.91000 212.554
50.92000 214.501
50.93000 215.911
50.94000 212.912
50.95000 205.617
50.96000 198.337
50.97000 192.366
50.98000 187.237
50.99000 182.244
51.00000 181.848
51.01000 183.392
51.02000 184.819
51.03000 184.790
51.04000 184.325
51.05000 183.989
51.06000 184.589
51.07000 185.376
51.08000 186.038
51.09000 179.436
51.10000 173.163
51.11000 168.572
51.12000 169.270
51.13000 170.354
51.14000 170.898
51.15000 170.280
51.16000 169.623
51.17000 169.231
51.18000 167.045
51.19000 165.485
51.20000 164.278
51.21000 163.409
51.22000 162.559
51.23000 163.191
51.24000 164.765
51.25000 166.295
51.26000 168.910
51.27000 171.844
51.28000 174.322
51.29000 171.260
51.30000 166.563
51.31000 162.084
51.32000 159.160
51.33000 156.542
51.34000 154.348
51.35000 158.857
51.36000 163.303
51.37000 165.195
51.38000 159.162
51.39000 152.565
51.40000 148.270
51.41000 148.855
51.42000 149.600
51.43000 150.041
51.44000 155.556
51.45000 159.483
51.46000 160.067
51.47000 157.499
51.48000 154.910
51.49000 150.614
51.50000 145.253
51.51000 140.044
51.52000 141.595
51.53000 145.804
51.54000 149.969
51.55000 153.617
51.56000 157.115
51.57000 159.631
51.58000 155.240
51.59000 149.510
51.60000 144.720
51.61000 145.975
51.62000 147.633
51.63000 148.671
51.64000 147.817
51.65000 146.832
51.66000 147.002
51.67000 149.584
51.68000 152.243
51.69000 153.806
51.70000 158.884
51.71000 162.483
51.72000 163.029
51.73000 160.747
51.74000 158.447
51.75000 154.899
51.76000 150.583
51.77000 146.395
51.78000 146.516
51.79000 148.348
51.80000 149.930
51.81000 148.597
51.82000 146.429
51.83000 144.608
51.84000 145.185
51.85000 146.220
51.86000 147.082
51.87000 146.266
51.88000 145.423
51.89000 144.839
51.90000 145.036
51.91000 145.286
51.92000 145.095
51.93000 143.997
51.94000 142.871
51.95000 142.213
51.96000 144.214
51.97000 145.633
51.98000 146.296
51.99000 146.269
52.00000 146.225
52.01000 145.024
52.02000 143.122
52.03000 141.277
52.04000 141.966
52.05000 143.612
52.06000 145.145
52.07000 145.391
52.08000 145.274
52.09000 145.095
52.10000 144.489
52.11000 143.804
52.12000 143.234
52.13000 143.582
52.14000 143.959
52.15000 144.350
52.16000 144.783
52.17000 145.219
52.18000 146.231
52.19000 148.411
52.20000 150.626
52.21000 151.911
52.22000 149.634
52.23000 148.021
52.24000 145.595
52.25000 142.440
52.26000 139.345
52.27000 140.086
52.28000 143.117
52.29000 146.053
52.30000 147.593
52.31000 148.511
52.32000 148.970
52.33000 144.329
52.34000 138.270
52.35000 133.729
52.36000 139.307
52.37000 146.754
52.38000 152.923
52.39000 153.532
52.40000 153.503
52.41000 151.533
52.42000 143.883
52.43000 135.867
52.44000 132.645
52.45000 139.018
52.46000 145.659
52.47000 149.486
52.48000 143.255
52.49000 138.857
52.50000 137.897
52.51000 139.971
52.52000 142.003
52.53000 141.503
52.54000 139.513
52.55000 137.587
52.56000 139.088
52.57000 141.806
52.58000 144.167
52.59000 142.647
52.60000 140.065
52.61000 137.880
52.62000 138.301
52.63000 139.195
52.64000 139.934
52.65000 140.514
52.66000 140.977
52.67000 140.648
52.68000 138.039
52.69000 135.286
52.70000 134.409
52.71000 137.231
52.72000 140.153
52.73000 141.825
52.74000 142.530
52.75000 143.020
52.76000 145.039
52.77000 148.385
52.78000 151.664
52.79000 151.065
52.80000 148.218
52.81000 145.467
52.82000 143.644
52.83000 142.273
52.84000 141.228
52.85000 143.665
52.86000 147.040
52.87000 149.384
52.88000 145.091
52.89000 139.612
52.90000 135.100
52.91000 136.632
52.92000 138.444
52.93000 138.997
52.94000 135.973
52.95000 132.730
52.96000 131.295
52.97000 133.376
52.98000 135.548
52.99000 136.782
53.00000 142.045
53.01000 145.721
53.02000 147.814
53.03000 148.555
53.04000 149.279
53.05000 149.109
53.06000 148.429
53.07000 147.773
53.08000 146.842
53.09000 145.864
53.10000 145.222
53.11000 148.078
53.12000 151.863
53.13000 154.733
53.14000 151.809
53.15000 147.869
53.16000 144.634
53.17000 143.980
53.18000 143.675
53.19000 142.349
53.20000 138.168
53.21000 133.817
53.22000 132.291
53.23000 136.179
53.24000 140.199
53.25000 142.469
53.26000 144.320
53.27000 145.605
53.28000 146.565
53.29000 147.252
53.30000 147.950
53.31000 149.233
53.32000 150.844
53.33000 152.397
53.34000 154.805
53.35000 157.379
53.36000 159.895
53.37000 161.824
53.38000 163.600
53.39000 164.743
53.40000 161.952
53.41000 158.483
53.42000 155.644
53.43000 151.979
53.44000 148.905
53.45000 146.721
53.46000 146.998
53.47000 147.418
53.48000 148.140
53.49000 149.434
53.50000 150.741
53.51000 151.473
53.52000 145.830
53.53000 141.914
53.54000 143.044
53.55000 148.348
53.56000 153.508
53.57000 151.622
53.58000 145.825
53.59000 140.244
53.60000 140.373
53.61000 142.529
53.62000 144.232
53.63000 141.408
53.64000 137.417
53.65000 134.598
53.66000 138.944
53.67000 144.507
53.68000 149.044
53.69000 150.280
53.70000 151.009
53.71000 151.708
53.72000 152.328
53.73000 152.943
53.74000 152.641
53.75000 150.632
53.76000 148.585
53.77000 147.446
53.78000 144.592
53.79000 142.615
53.80000 140.564
53.81000 138.455
53.82000 136.383
53.83000 136.055
53.84000 136.682
53.85000 137.284
53.86000 140.983
53.87000 145.536
53.88000 149.423
53.89000 146.789
53.90000 142.501
53.91000 138.576
53.92000 136.837
53.93000 135.464
53.94000 134.346
53.95000 136.517
53.96000 138.563
53.97000 140.291
53.98000 141.167
53.99000 141.997
54.00000 141.266
54.01000 137.675
54.02000 134.023
54.03000 132.005
54.04000 137.558
54.05000 141.402
54.06000 145.449
54.07000 149.658
54.08000 153.666
54.09000 148.671
54.10000 138.826
54.11000 129.369
54.12000 134.249
54.13000 143.760
54.14000 152.155
54.15000 149.837
54.16000 144.842
54.17000 140.226
54.18000 137.854
54.19000 135.850
54.20000 134.226
54.21000 136.694
54.22000 139.040
54.23000 140.721
54.24000 140.647
54.25000 140.479
54.26000 139.723
54.27000 137.902
54.28000 136.059
54.29000 135.048
54.30000 135.684
54.31000 136.121
54.32000 135.740
54.33000 134.712
54.34000 133.757
54.35000 135.860
54.36000 139.587
54.37000 143.163
54.38000 140.548
54.39000 136.004
54.40000 132.047
54.41000 133.620
54.42000 136.553
54.43000 138.959
54.44000 138.297
54.45000 137.141
54.46000 136.207
54.47000 132.769
54.48000 129.774
54.49000 129.211
54.50000 134.986
54.51000 141.089
54.52000 145.462
54.53000 146.756
54.54000 147.989
54.55000 148.661
54.56000 143.556
54.57000 140.055
54.58000 139.223
54.59000 140.461
54.60000 141.667
54.61000 141.548
54.62000 140.736
54.63000 139.958
54.64000 136.270
54.65000 131.857
54.66000 127.955
54.67000 128.765
54.68000 130.718
54.69000 132.260
54.70000 131.451
54.71000 130.269
54.72000 129.317
54.73000 133.010
54.74000 136.371
54.75000 138.578
54.76000 137.826
54.77000 136.926
54.78000 136.979
54.79000 138.705
54.80000 140.462
54.81000 141.412
54.82000 143.735
54.83000 145.320
54.84000 145.199
54.85000 143.774
54.86000 142.369
54.87000 141.722
54.88000 141.468
54.89000 141.224
54.90000 140.998
54.91000 140.793
54.92000 140.769
54.93000 142.383
54.94000 144.388
54.95000 145.980
54.96000 145.252
54.97000 144.161
54.98000 143.286
54.99000 145.630
55.00000 147.775
55.01000 147.866
55.02000 142.763
55.03000 137.406
55.04000 134.861
55.05000 137.177
55.06000 139.578
55.07000 140.866
55.08000 144.597
55.09000 147.139
55.10000 148.370
55.11000 148.616
55.12000 148.870
55.13000 149.441
55.14000 150.173
55.15000 150.873
55.16000 150.304
55.17000 149.364
55.18000 148.573
55.19000 149.092
55.20000 149.919
55.21000 150.091
55.22000 146.649
55.23000 142.653
55.24000 139.456
55.25000 142.797
55.26000 145.984
55.27000 149.655
55.28000 154.529
55.29000 159.460
55.30000 161.614
55.31000 159.039
55.32000 156.384
55.33000 154.971
55.34000 156.512
55.35000 157.557
55.36000 157.519
55.37000 156.678
55.38000 155.950
55.39000 159.272
55.40000 164.623
55.41000 169.730
55.42000 167.365
55.43000 162.791
55.44000 159.062
55.45000 162.677
55.46000 167.992
55.47000 172.470
55.48000 172.404
55.49000 171.653
55.50000 171.055
55.51000 178.124
55.52000 184.386
55.53000 189.789
55.54000 193.079
55.55000 196.271
55.56000 198.088
55.57000 197.597
55.58000 197.070
55.59000 196.791
55.60000 205.019
55.61000 210.624
55.62000 218.404
55.63000 227.773
55.64000 237.041
55.65000 242.832
55.66000 246.907
55.67000 250.790
55.68000 255.056
55.69000 259.131
55.70000 263.574
55.71000 271.143
55.72000 279.426
55.73000 287.719
55.74000 296.068
55.75000 304.426
55.76000 311.067
55.77000 336.493
55.78000 358.306
55.79000 375.037
55.80000 379.458
55.81000 383.330
55.82000 391.668
55.83000 407.392
55.84000 423.226
55.85000 431.521
55.86000 451.799
55.87000 465.555
55.88000 482.160
55.89000 500.812
55.90000 519.219
55.91000 529.477
55.92000 535.770
55.93000 541.759
55.94000 553.089
55.95000 565.222
55.96000 576.240
55.97000 577.943
55.98000 577.556
55.99000 577.421
56.00000 578.610
56.01000 579.992
56.02000 581.086
56.03000 574.262
56.04000 568.228
56.05000 559.416
56.06000 543.971
56.07000 528.240
56.08000 515.598
56.09000 507.991
56.10000 500.454
56.11000 496.537
56.12000 491.752
56.13000 488.463
56.14000 477.166
56.15000 460.204
56.16000 443.308
56.17000 428.557
56.18000 414.835
56.19000 401.792
56.20000 384.166
56.21000 366.488
56.22000 349.666
56.23000 339.849
56.24000 331.581
56.25000 323.617
56.26000 317.229
56.27000 311.066
56.28000 306.203
56.29000 295.396
56.30000 286.324
56.31000 276.824
56.32000 266.314
56.33000 255.762
56.34000 247.309
56.35000 242.224
56.36000 237.184
56.37000 234.586
56.38000 219.874
56.39000 210.039
56.40000 209.929
56.41000 216.594
56.42000 222.902
56.43000 218.169
56.44000 208.217
56.45000 198.772
56.46000 195.667
56.47000 194.693
56.48000 193.534
56.49000 190.895
56.50000 187.933
56.51000 184.990
56.52000 182.141
56.53000 179.306
56.54000 177.077
56.55000 172.733
56.56000 169.116
56.57000 166.888
56.58000 167.886
56.59000 169.015
56.60000 169.447
56.61000 168.779
56.62000 168.097
56.63000 167.748
56.64000 161.723
56.65000 157.685
56.66000 154.787
56.67000 152.672
56.68000 150.540
56.69000 147.929
56.70000 145.095
56.71000 142.410
56.72000 143.423
56.73000 145.442
56.74000 147.328
56.75000 148.156
56.76000 148.757
56.77000 149.269
56.78000 149.330
56.79000 149.330
56.80000 149.330
56.81000 144.479
56.82000 140.290
56.83000 138.726
56.84000 143.161
56.85000 147.832
56.86000 149.346
56.87000 145.944
56.88000 142.485
56.89000 140.731
56.90000 139.148
56.91000 138.078
56.92000 135.907
56.93000 132.992
56.94000 130.122
56.95000 128.541
56.96000 127.551
56.97000 126.615
56.98000 131.406
56.99000 137.465
57.00000 142.630
57.01000 140.878
57.02000 137.668
57.03000 135.419
57.04000 137.904
57.05000 141.028
57.06000 143.467
57.07000 139.943
57.08000 136.757
57.09000 135.323
57.10000 137.836
57.11000 140.498
57.12000 140.417
57.13000 136.129
57.14000 131.796
57.15000 129.616
57.16000 132.123
57.17000 133.780
57.18000 133.626
57.19000 132.266
57.20000 130.982
57.21000 131.788
57.22000 133.538
57.23000 135.192
57.24000 136.874
57.25000 138.426
57.26000 139.639
57.27000 138.275
57.28000 136.376
57.29000 133.641
57.30000 126.846
57.31000 119.514
57.32000 113.810
57.33000 123.683
57.34000 132.495
57.35000 138.426
57.36000 137.956
57.37000 137.252
57.38000 135.046
57.39000 130.571
57.40000 126.072
57.41000 125.232
57.42000 128.033
57.43000 130.813
57.44000 131.602
57.45000 131.086
57.46000 130.579
57.47000 130.324
57.48000 130.180
57.49000 130.044
57.50000 128.988
57.51000 127.763
57.52000 126.729
57.53000 127.119
57.54000 127.798
57.55000 128.141
57.56000 126.877
57.57000 125.404
57.58000 124.262
57.59000 125.735
57.60000 127.062
57.61000 127.947
57.62000 127.866
57.63000 127.751
57.64000 129.620
57.65000 134.442
57.66000 139.292
57.67000 138.577
57.68000 132.420
57.69000 126.313
57.70000 124.657
57.71000 125.876
57.72000 127.123
57.73000 129.095
57.74000 131.386
57.75000 133.544
57.76000 130.093
57.77000 125.393
57.78000 121.521
57.79000 123.713
57.80000 127.123
57.81000 129.869
57.82000 129.496
57.83000 128.726
57.84000 128.131
57.85000 123.056
57.86000 118.772
57.87000 116.886
57.88000 120.179
57.89000 123.648
57.90000 124.792
57.91000 122.526
57.92000 120.231
57.93000 121.039
57.94000 124.832
57.95000 128.586
57.96000 129.090
57.97000 127.526
57.98000 126.036
57.99000 126.372
58.00000 127.498
58.01000 128.558
58.02000 127.509
58.03000 125.980
58.04000 124.842
58.05000 126.515
58.06000 128.745
58.07000 129.887
58.08000 126.001
58.09000 121.485
58.10000 118.010
58.11000 115.796
58.12000 114.115
58.13000 114.196
58.14000 118.027
58.15000 121.981
58.16000 125.948
58.17000 129.933
58.18000 133.918
58.19000 134.136
58.20000 130.792
58.21000 127.487
58.22000 127.144
58.23000 128.656
58.24000 130.071
58.25000 129.116
58.26000 127.150
58.27000 125.303
58.28000 120.846
58.29000 116.085
58.30000 112.610
58.31000 118.209
58.32000 125.574
58.33000 131.181
58.34000 128.782
58.35000 125.400
58.36000 122.807
58.37000 125.965
58.38000 128.776
58.39000 129.116
58.40000 124.278
58.41000 119.275
58.42000 117.155
58.43000 119.134
58.44000 121.142
58.45000 123.129
58.46000 125.093
58.47000 127.050
58.48000 128.431
58.49000 129.458
58.50000 130.353
58.51000 128.152
58.52000 124.649
58.53000 121.364
58.54000 120.471
58.55000 120.284
58.56000 120.360
58.57000 122.266
58.58000 124.521
58.59000 125.717
58.60000 122.163
58.61000 118.036
58.62000 114.886
58.63000 113.586
58.64000 112.661
58.65000 113.994
58.66000 119.993
58.67000 126.135
58.68000 130.117
58.69000 131.077
58.70000 132.016
58.71000 128.806
58.72000 121.806
58.73000 114.890
58.74000 113.740
58.75000 116.100
58.76000 118.519
58.77000 122.305
58.78000 126.658
58.79000 130.733
58.80000 129.574
58.81000 127.174
58.82000 125.278
58.83000 126.821
58.84000 129.011
58.85000 130.022
58.86000 125.832
58.87000 121.027
58.88000 117.373
58.89000 119.819
58.90000 122.062
58.91000 123.440
58.92000 123.056
58.93000 122.620
58.94000 122.707
58.95000 123.514
58.96000 124.325
58.97000 126.101
58.98000 128.744
58.99000 131.289
59.00000 127.570
59.01000 120.097
59.02000 112.878
59.03000 111.230
59.04000 111.863
59.05000 112.454
59.06000 118.723
59.07000 125.849
59.08000 131.658
59.09000 128.657
59.10000 124.025
59.11000 119.800
59.12000 117.346
59.13000 115.098
59.14000 113.396
59.15000 119.301
59.16000 124.324
59.17000 124.685
59.18000 115.687
59.19000 106.425
59.20000 104.020
59.21000 110.927
59.22000 117.882
59.23000 122.228
59.24000 124.261
59.25000 126.286
59.26000 127.873
59.27000 129.200
59.28000 130.296
59.29000 126.449
59.30000 120.609
59.31000 115.160
59.32000 117.021
59.33000 120.526
59.34000 123.063
59.35000 119.237
59.36000 114.251
59.37000 110.476
59.38000 111.878
59.39000 113.870
59.40000 115.373
59.41000 118.115
59.42000 120.325
59.43000 121.116
59.44000 119.102
59.45000 117.011
59.46000 114.802
59.47000 112.433
59.48000 110.064
59.49000 110.524
59.50000 113.442
59.51000 116.317
59.52000 116.642
59.53000 115.484
59.54000 114.519
59.55000 117.520
59.56000 122.097
59.57000 126.362
59.58000 124.745
59.59000 121.842
59.60000 119.135
59.61000 117.688
59.62000 116.466
59.63000 115.719
59.64000 116.971
59.65000 118.447
59.66000 119.556
59.67000 124.695
59.68000 128.906
59.69000 130.464
59.70000 126.847
59.71000 123.095
59.72000 119.014
59.73000 114.500
59.74000 109.987
59.75000 110.849
59.76000 116.307
59.77000 121.734
59.78000 125.466
59.79000 128.227
59.80000 130.889
59.81000 131.551
59.82000 131.430
59.83000 131.318
59.84000 127.048
59.85000 122.192
59.86000 118.006
59.87000 118.082
59.88000 118.908
59.89000 120.029
59.90000 122.372
59.91000 124.849
59.92000 126.703
59.93000 126.956
59.94000 127.079
59.95000 125.657
59.96000 121.267
59.97000 116.802
59.98000 115.418
59.99000 118.024
60.00000 120.643
60.01000 119.696
60.02000 115.751
60.03000 111.896
60.04000 112.762
60.05000 116.295
60.06000 119.735
60.07000 121.381
60.08000 122.333
60.09000 123.217
60.10000 120.336
60.11000 116.847
60.12000 113.961
60.13000 114.836
60.14000 116.364
60.15000 117.594
60.16000 117.611
60.17000 117.497
60.18000 117.413
60.19000 117.687
60.20000 117.917
60.21000 118.473
60.22000 119.646
60.23000 120.834
60.24000 121.449
60.25000 121.333
60.26000 121.215
60.27000 123.479
60.28000 127.708
60.29000 131.800
60.30000 129.143
60.31000 122.728
60.32000 116.605
60.33000 115.999
60.34000 117.494
60.35000 118.879
60.36000 119.289
60.37000 119.430
60.38000 119.735
60.39000 121.052
60.40000 122.540
60.41000 123.124
60.42000 120.070
60.43000 116.634
60.44000 114.083
60.45000 112.378
60.46000 111.091
60.47000 111.325
60.48000 114.399
60.49000 117.537
60.50000 118.728
60.51000 117.476
60.52000 116.218
60.53000 117.435
60.54000 120.662
60.55000 123.807
60.56000 122.996
60.57000 120.016
60.58000 117.258
60.59000 118.592
60.60000 121.462
60.61000 124.116
60.62000 122.800
60.63000 120.708
60.64000 118.622
60.65000 116.569
60.66000 114.522
60.67000 114.076
60.68000 119.977
60.69000 126.530
60.70000 131.376
60.71000 126.064
60.72000 121.509
60.73000 118.170
60.74000 117.068
60.75000 116.014
60.76000 114.792
60.77000 113.363
60.78000 111.935
60.79000 112.954
60.80000 115.928
60.81000 118.821
60.82000 118.067
60.83000 115.341
60.84000 112.680
60.85000 111.178
60.86000 110.104
60.87000 109.112
60.88000 114.567
60.89000 120.910
60.90000 126.251
60.91000 125.648
60.92000 124.065
60.93000 122.089
60.94000 118.574
60.95000 114.904
60.96000 112.201
60.97000 122.500
60.98000 131.011
60.99000 133.534
61.00000 125.203
61.01000 116.647
61.02000 112.648
61.03000 114.193
61.04000 115.748
61.05000 115.211
61.06000 113.028
61.07000 110.955
61.08000 113.586
61.09000 118.724
61.10000 123.579
61.11000 123.495
61.12000 121.611
61.13000 119.875
61.14000 123.618
61.15000 128.182
61.16000 131.784
61.17000 129.786
61.18000 126.882
61.19000 124.694
61.20000 125.260
61.21000 126.097
61.22000 126.712
61.23000 126.363
61.24000 126.054
61.25000 125.939
61.26000 126.168
61.27000 126.404
61.28000 126.527
61.29000 126.514
61.30000 126.502
61.31000 127.801
61.32000 130.111
61.33000 132.362
61.34000 132.210
61.35000 130.797
61.36000 129.497
61.37000 130.115
61.38000 131.421
61.39000 132.623
61.40000 135.962
61.41000 139.411
61.42000 142.078
61.43000 140.254
61.44000 137.716
61.45000 136.758
61.46000 141.785
61.47000 147.391
61.48000 151.484
61.49000 154.700
61.50000 157.145
61.51000 164.068
61.52000 178.868
61.53000 193.817
61.54000 209.491
61.55000 226.019
61.56000 242.509
61.57000 260.148
61.58000 278.557
61.59000 296.878
61.60000 311.691
61.61000 324.690
61.62000 337.501
61.63000 347.200
61.64000 355.799
61.65000 363.695
61.66000 364.859
61.67000 364.458
61.68000 365.135
61.69000 371.883
61.70000 379.580
61.71000 384.353
61.72000 378.221
61.73000 371.058
61.74000 365.850
61.75000 355.267
61.76000 346.921
61.77000 333.408
61.78000 310.936
61.79000 288.304
61.80000 265.429
61.81000 242.273
61.82000 219.179
61.83000 203.989
61.84000 194.829
61.85000 185.642
61.86000 175.450
61.87000 164.746
61.88000 154.220
61.89000 146.563
61.90000 139.908
61.91000 133.807
61.92000 136.614
61.93000 140.985
61.94000 144.019
61.95000 139.635
61.96000 134.112
61.97000 129.967
61.98000 130.881
61.99000 132.264
62.00000 133.265
62.01000 132.872
62.02000 132.519
62.03000 132.707
62.04000 133.818
62.05000 134.945
62.06000 135.045
62.07000 133.973
62.08000 132.903
62.09000 132.112
62.10000 131.534
62.11000 130.978
62.12000 131.262
62.13000 131.966
62.14000 132.592
62.15000 131.967
62.16000 130.912
62.17000 129.947
62.18000 128.116
62.19000 126.310
62.20000 125.014
62.21000 126.501
62.22000 128.410
62.23000 129.843
62.24000 129.558
62.25000 129.118
62.26000 128.800
62.27000 130.393
62.28000 131.682
62.29000 132.843
62.30000 133.792
62.31000 134.737
62.32000 134.250
62.33000 132.157
62.34000 130.069
62.35000 130.421
62.36000 132.542
62.37000 134.624
62.38000 135.356
62.39000 135.420
62.40000 135.560
62.41000 136.882
62.42000 138.603
62.43000 140.174
62.44000 137.526
62.45000 134.319
62.46000 131.643
62.47000 131.812
62.48000 132.404
62.49000 133.112
62.50000 134.231
62.51000 135.388
62.52000 136.218
62.53000 141.284
62.54000 145.303
62.55000 144.347
62.56000 135.139
62.57000 125.807
62.58000 123.544
62.59000 129.083
62.60000 134.607
62.61000 137.813
62.62000 139.335
62.63000 140.754
62.64000 138.675
62.65000 134.889
62.66000 131.329
62.67000 131.123
62.68000 132.038
62.69000 132.871
62.70000 133.295
62.71000 133.588
62.72000 133.542
62.73000 131.706
62.74000 129.609
62.75000 128.375
62.76000 130.172
62.77000 132.232
62.78000 133.703
62.79000 134.462
62.80000 135.018
62.81000 137.158
62.82000 141.887
62.83000 146.652
62.84000 147.044
62.85000 142.687
62.86000 138.347
62.87000 135.478
62.88000 133.671
62.89000 132.003
62.90000 134.786
62.91000 139.712
62.92000 144.297
62.93000 143.931
62.94000 141.935
62.95000 140.121
62.96000 139.892
62.97000 140.002
62.98000 140.274
62.99000 141.396
63.00000 142.639
63.01000 142.114
63.02000 135.472
63.03000 128.311
63.04000 123.219
63.05000 135.309
63.06000 145.067
63.07000 149.782
63.08000 146.381
63.09000 142.870
63.10000 141.731
63.11000 143.125
63.12000 144.513
63.13000 144.212
63.14000 142.747
63.15000 141.330
63.16000 141.370
63.17000 142.102
63.18000 142.795
63.19000 142.925
63.20000 142.874
63.21000 142.827
63.22000 141.611
63.23000 140.313
63.24000 139.699
63.25000 142.587
63.26000 145.967
63.27000 149.126
63.28000 151.533
63.29000 153.878
63.30000 155.537
63.31000 146.069
63.32000 138.529
63.33000 134.641
63.34000 136.544
63.35000 138.521
63.36000 139.362
63.37000 139.009
63.38000 138.659
63.39000 139.208
63.40000 140.363
63.41000 141.557
63.42000 143.954
63.43000 146.911
63.44000 149.497
63.45000 146.932
63.46000 142.722
63.47000 138.908
63.48000 134.049
63.49000 129.568
63.50000 125.877
63.51000 126.156
63.52000 126.983
63.53000 127.870
63.54000 128.957
63.55000 130.061
63.56000 130.838
63.57000 132.076
63.58000 133.029
63.59000 135.334
63.60000 139.754
63.61000 144.198
63.62000 144.511
63.63000 140.556
63.64000 136.622
63.65000 137.296
63.66000 141.046
63.67000 144.821
63.68000 149.275
63.69000 154.043
63.70000 158.259
63.71000 155.026
63.72000 149.448
63.73000 144.406
63.74000 145.689
63.75000 147.994
63.76000 150.196
63.77000 151.885
63.78000 153.504
63.79000 154.443
63.80000 153.128
63.81000 151.634
63.82000 150.587
63.83000 148.180
63.84000 146.319
63.85000 146.146
63.86000 148.570
63.87000 151.022
63.88000 151.050
63.89000 148.616
63.90000 146.196
63.91000 146.738
63.92000 149.225
63.93000 151.645
63.94000 152.221
63.95000 151.960
63.96000 151.614
63.97000 150.146
63.98000 148.330
63.99000 146.692
64.00000 145.706
64.01000 144.961
64.02000 144.731
64.03000 147.016
64.04000 149.635
64.05000 152.120
64.06000 154.164
64.07000 156.173
64.08000 157.576
64.09000 149.460
64.10000 143.067
64.11000 141.933
64.12000 148.776
64.13000 155.700
64.14000 158.412
64.15000 156.919
64.16000 155.436
64.17000 156.054
64.18000 158.027
64.19000 159.905
64.20000 159.225
64.21000 157.399
64.22000 156.003
64.23000 160.134
64.24000 165.954
64.25000 171.194
64.26000 168.956
64.27000 165.652
64.28000 162.582
64.29000 160.639
64.30000 158.842
64.31000 158.988
64.32000 165.379
64.33000 172.242
64.34000 177.009
64.35000 176.832
64.36000 176.567
64.37000 174.202
64.38000 168.703
64.39000 163.175
64.40000 161.249
64.41000 162.860
64.42000 164.460
64.43000 167.224
64.44000 170.688
64.45000 173.947
64.46000 171.878
64.47000 167.458
64.48000 163.195
64.49000 160.899
64.50000 159.196
64.51000 157.666
64.52000 164.709
64.53000 172.384
64.54000 178.250
64.55000 175.582
64.56000 171.819
64.57000 169.373
64.58000 171.095
64.59000 173.124
64.60000 174.527
64.61000 169.163
64.62000 164.956
64.63000 162.306
64.64000 161.950
64.65000 161.614
64.66000 165.640
64.67000 173.877
64.68000 182.055
64.69000 183.462
64.70000 180.594
64.71000 177.833
64.72000 177.719
64.73000 178.757
64.74000 180.038
64.75000 184.304
64.76000 189.456
64.77000 194.074
64.78000 188.598
64.79000 182.065
64.80000 176.838
64.81000 177.667
64.82000 179.259
64.83000 181.325
64.84000 184.869
64.85000 188.520
64.86000 191.031
64.87000 193.162
64.88000 194.752
64.89000 195.750
64.90000 195.890
64.91000 196.024
64.92000 196.338
64.93000 196.823
64.94000 197.304
64.95000 197.894
64.96000 198.540
64.97000 199.207
64.98000 200.378
64.99000 201.764
65.00000 203.110
65.01000 203.983
65.02000 204.717
65.03000 205.374
65.04000 212.261
65.05000 219.327
65.06000 225.121
65.07000 225.102
65.08000 224.365
65.09000 223.727
65.10000 223.398
65.11000 223.090
65.12000 222.879
65.13000 229.802
65.14000 235.156
65.15000 238.045
65.16000 237.416
65.17000 236.761
65.18000 238.558
65.19000 242.642
65.20000 246.693
65.21000 253.457
65.22000 261.748
65.23000 269.867
65.24000 273.907
65.25000 276.226
65.26000 278.097
65.27000 274.720
65.28000 269.829
65.29000 265.465
65.30000 267.278
65.31000 269.890
65.32000 274.705
65.33000 289.434
65.34000 305.363
65.35000 318.131
65.36000 321.318
65.37000 323.849
65.38000 325.572
65.39000 331.155
65.40000 335.414
65.41000 343.591
65.42000 357.272
65.43000 370.989
65.44000 378.888
65.45000 381.445
65.46000 383.979
65.47000 393.599
65.48000 407.272
65.49000 420.943
65.50000 434.581
65.51000 448.205
65.52000 461.283
65.53000 468.091
65.54000 473.119
65.55000 477.596
65.56000 493.949
65.57000 510.108
65.58000 525.642
65.59000 538.409
65.60000 550.848
65.61000 566.908
65.62000 593.785
65.63000 621.385
65.64000 640.092
65.65000 707.435
65.66000 758.714
65.67000 823.776
65.68000 907.905
65.69000 992.172
65.70000 1101.913
65.71000 1234.664
65.72000 1366.159
65.73000 1519.631
65.74000 1682.916
65.75000 1846.256
65.76000 2010.798
65.77000 2175.833
65.78000 2336.717
65.79000 2450.980
65.80000 2552.203
65.81000 2642.137
65.82000 2701.110
65.83000 2747.268
65.84000 2787.406
65.85000 2801.302
65.86000 2812.139
65.87000 2815.904
65.88000 2798.852
65.89000 2780.443
65.90000 2768.029
65.91000 2711.422
65.92000 2668.374
65.93000 2576.463
65.94000 2417.986
65.95000 2259.120
65.96000 2094.912
65.97000 1925.959
65.98000 1758.703
65.99000 1584.966
66.00000 1411.203
66.01000 1238.954
66.02000 1099.207
66.03000 972.606
66.04000 850.400
66.05000 776.487
66.06000 715.884
66.07000 662.161
66.08000 624.612
66.09000 594.664
66.10000 566.163
66.11000 543.873
66.12000 522.293
66.13000 503.161
66.14000 491.133
66.15000 479.556
66.16000 471.789
66.17000 466.420
66.18000 462.482
66.19000 465.161
66.20000 476.716
66.21000 488.309
66.22000 493.185
66.23000 492.191
66.24000 491.206
66.25000 511.919
66.26000 544.542
66.27000 576.969
66.28000 605.310
66.29000 632.021
66.30000 657.985
66.31000 675.912
66.32000 691.658
66.33000 705.584
66.34000 731.609
66.35000 755.980
66.36000 779.324
66.37000 798.323
66.38000 816.836
66.39000 829.101
66.40000 823.500
66.41000 816.794
66.42000 812.317
66.43000 817.173
66.44000 820.951
66.45000 823.910
66.46000 825.787
66.47000 827.631
66.48000 808.495
66.49000 771.314
66.50000 734.553
66.51000 704.883
66.52000 679.897
66.53000 654.698
66.54000 625.182
66.55000 593.969
66.56000 563.578
66.57000 541.850
66.58000 522.438
66.59000 505.309
66.60000 482.234
66.61000 461.422
66.62000 444.388
66.63000 443.072
66.64000 443.483
66.65000 442.023
66.66000 435.290
66.67000 428.238
66.68000 423.556
66.69000 430.986
66.70000 436.702
66.71000 439.564
66.72000 438.715
66.73000 437.844
66.74000 433.633
66.75000 426.594
66.76000 419.639
66.77000 416.767
66.78000 416.224
66.79000 415.734
66.80000 416.315
66.81000 417.311
66.82000 419.165
66.83000 429.875
66.84000 442.916
66.85000 454.397
66.86000 450.272
66.87000 444.384
66.88000 437.410
66.89000 425.988
66.90000 414.087
66.91000 407.346
66.92000 414.939
66.93000 423.373
66.94000 428.944
66.95000 435.736
66.96000 440.767
66.97000 443.307
66.98000 442.658
66.99000 441.994
67.00000 439.879
67.01000 436.558
67.02000 433.277
67.03000 435.838
67.04000 441.508
67.05000 446.978
67.06000 448.607
67.07000 448.770
67.08000 448.713
67.09000 446.428
67.10000 443.565
67.11000 441.052
67.12000 445.782
67.13000 450.912
67.14000 455.537
67.15000 458.119
67.16000 460.487
67.17000 462.601
67.18000 464.025
67.19000 465.409
67.20000 466.318
67.21000 454.518
67.22000 445.619
67.23000 443.932
67.24000 451.331
67.25000 458.755
67.26000 463.794
67.27000 466.877
67.28000 469.919
67.29000 467.634
67.30000 462.557
67.31000 457.873
67.32000 460.464
67.33000 465.791
67.34000 471.213
67.35000 477.565
67.36000 484.155
67.37000 489.929
67.38000 495.454
67.39000 500.159
67.40000 502.968
67.41000 498.243
67.42000 492.738
67.43000 488.513
67.44000 487.738
67.45000 487.155
67.46000 486.775
67.47000 500.426
67.48000 510.677
67.49000 514.473
67.50000 510.262
67.51000 506.035
67.52000 503.698
67.53000 502.886
67.54000 502.085
67.55000 506.706
67.56000 514.054
67.57000 521.266
67.58000 526.037
67.59000 529.902
67.60000 532.867
67.61000 527.123
67.62000 519.187
67.63000 512.251
67.64000 514.360
67.65000 517.447
67.66000 521.061
67.67000 526.737
67.68000 532.622
67.69000 536.512
67.70000 535.096
67.71000 533.392
67.72000 532.285
67.73000 535.380
67.74000 537.713
67.75000 542.134
67.76000 549.105
67.77000 556.076
67.78000 560.847
67.79000 563.873
67.80000 566.854
67.81000 564.957
67.82000 560.585
67.83000 556.341
67.84000 554.316
67.85000 553.104
67.86000 552.407
67.87000 556.600
67.88000 562.006
67.89000 566.720
67.90000 570.300
67.91000 573.204
67.92000 576.276
67.93000 580.000
67.94000 583.788
67.95000 585.802
67.96000 583.165
67.97000 580.284
67.98000 578.422
67.99000 573.108
68.00000 569.172
68.01000 573.013
68.02000 586.197
68.03000 599.371
68.04000 604.453
68.05000 603.210
68.06000 601.987
68.07000 608.542
68.08000 618.867
68.09000 628.502
68.10000 626.350
68.11000 619.953
68.12000 614.846
68.13000 621.732
68.14000 631.547
68.15000 640.082
68.16000 650.738
68.17000 660.120
68.18000 667.153
68.19000 665.270
68.20000 662.522
68.21000 660.708
68.22000 661.312
68.23000 662.038
68.24000 662.505
68.25000 660.556
68.26000 659.100
68.27000 666.231
68.28000 683.513
68.29000 700.797
68.30000 714.571
68.31000 725.644
68.32000 736.537
68.33000 735.550
68.34000 728.626
68.35000 722.017
68.36000 720.636
68.37000 721.112
68.38000 722.420
68.39000 731.308
68.40000 742.020
68.41000 751.311
68.42000 750.836
68.43000 749.126
68.44000 750.691
68.45000 764.510
68.46000 779.494
68.47000 792.962
68.48000 802.569
68.49000 811.985
68.50000 818.003
68.51000 835.963
68.52000 849.192
68.53000 871.238
68.54000 903.539
68.55000 935.827
68.56000 962.273
68.57000 984.293
68.58000 1005.939
68.59000 1034.583
68.60000 1065.735
68.61000 1097.845
68.62000 1145.455
68.63000 1198.488
68.64000 1251.427
68.65000 1303.516
68.66000 1355.405
68.67000 1400.303
68.68000 1480.439
68.69000 1553.188
68.70000 1622.378
68.71000 1678.456
68.72000 1733.313
68.73000 1793.357
68.74000 1866.418
68.75000 1940.104
68.76000 1986.931
68.77000 2093.031
68.78000 2170.821
68.79000 2257.085
68.80000 2353.050
68.81000 2448.997
68.82000 2539.379
68.83000 2625.612
68.84000 2710.312
68.85000 2877.696
68.86000 3079.554
68.87000 3289.447
68.88000 3625.985
68.89000 4006.199
68.90000 4440.197
68.91000 5345.107
68.92000 6359.792
68.93000 7235.525
68.94000 9807.631
68.95000 12208.438
68.96000 15009.423
68.97000 19263.307
68.98000 23649.500
68.99000 28269.648
69.00000 33468.512
69.01000 38694.355
69.02000 41996.262
69.03000 48042.207
69.04000 52455.266
69.05000 55880.742
69.06000 58194.125
69.07000 60502.824
69.08000 62164.270
69.09000 63350.359
69.10000 64514.395
69.11000 65526.242
69.12000 66429.016
69.13000 67337.258
69.14000 68329.547
69.15000 69350.406
69.16000 70291.953
69.17000 70552.609
69.18000 70656.977
69.19000 70746.820
69.20000 68407.453
69.21000 66119.563
69.22000 63440.316
69.23000 59361.281
69.24000 55157.531
69.25000 51160.895
69.26000 47669.227
69.27000 44200.387
69.28000 42021.328
69.29000 38927.688
69.30000 36680.988
69.31000 35031.270
69.32000 34042.879
69.33000 33056.723
69.34000 32356.480
69.35000 31863.010
69.36000 31379.123
69.37000 30339.764
69.38000 29076.953
69.39000 27760.967
69.40000 25648.693
69.41000 23269.691
69.42000 20855.018
69.43000 18139.938
69.44000 15356.974
69.45000 12967.609
69.46000 10650.342
69.47000 8700.150
69.48000 6921.163
69.49000 5745.458
69.50000 4622.331
69.51000 3670.476
69.52000 3130.223
69.53000 2608.003
69.54000 2281.875
69.55000 2009.997
69.56000 1814.453
69.57000 1664.858
69.58000 1565.334
69.59000 1466.000
69.60000 1390.728
69.61000 1332.591
69.62000 1275.632
69.63000 1222.057
69.64000 1172.106
69.65000 1122.745
69.66000 1082.016
69.67000 1044.136
69.68000 1006.688
69.69000 972.813
69.70000 939.732
69.71000 911.405
69.72000 894.215
69.73000 881.058
69.74000 865.949
69.75000 844.059
69.76000 821.591
69.77000 799.214
69.78000 777.051
69.79000 754.898
69.80000 741.145
69.81000 738.979
69.82000 737.534
69.83000 729.052
69.84000 713.026
69.85000 697.008
69.86000 682.332
69.87000 668.596
69.88000 655.151
69.89000 646.365
69.90000 640.056
69.91000 633.976
69.92000 631.158
69.93000 629.402
69.94000 627.422
69.95000 623.628
69.96000 619.436
69.97000 615.856
69.98000 595.702
69.99000 576.755
70.00000 563.545
