20.00000 503.017
20.01000 495.585
20.02000 487.092
20.03000 481.464
20.04000 487.141
20.05000 493.974
20.06000 499.020
20.07000 495.929
20.08000 493.188
20.09000 490.488
20.10000 487.865
20.11000 485.243
20.12000 487.181
20.13000 494.729
20.14000 502.278
20.15000 502.840
20.16000 497.831
20.17000 492.892
20.18000 491.038
20.19000 490.844
20.20000 490.493
20.21000 487.328
20.22000 483.129
20.23000 479.254
20.24000 480.995
20.25000 483.813
20.26000 486.443
20.27000 487.962
20.28000 489.299
20.29000 490.492
20.30000 491.119
20.31000 491.690
20.32000 492.110
20.33000 494.222
20.34000 495.925
20.35000 498.057
20.36000 500.963
20.37000 503.885
20.38000 499.907
20.39000 487.576
20.40000 475.250
20.41000 475.693
20.42000 486.141
20.43000 496.393
20.44000 498.249
20.45000 495.651
20.46000 492.882
20.47000 487.141
20.48000 480.324
20.49000 474.043
20.50000 488.436
20.51000 505.865
20.52000 520.067
20.53000 515.552
20.54000 508.023
20.55000 500.665
20.56000 493.964
20.57000 487.328
20.58000 482.468
20.59000 482.796
20.60000 483.256
20.61000 482.169
20.62000 478.332
20.63000 474.440
20.64000 475.409
20.65000 482.166
20.66000 488.919
20.67000 489.884
20.68000 486.380
20.69000 482.936
20.70000 481.941
20.71000 482.225
20.72000 482.421
20.73000 481.139
20.74000 479.328
20.75000 477.663
20.76000 479.317
20.77000 481.513
20.78000 483.761
20.79000 486.307
20.80000 488.900
20.81000 490.530
20.82000 488.532
20.83000 486.186
20.84000 484.476
20.85000 490.142
20.86000 494.793
20.87000 494.956
20.88000 487.257
20.89000 479.412
20.90000 475.086
20.91000 474.884
20.92000 474.688
20.93000 477.126
20.94000 481.544
20.95000 485.831
20.96000 484.995
20.97000 481.520
20.98000 478.469
20.99000 482.360
21.00000 488.698
21.01000 494.515
21.02000 489.172
21.03000 482.034
21.04000 476.342
21.05000 478.765
21.06000 482.450
21.07000 485.609
21.08000 486.819
21.09000 487.846
21.10000 488.591
21.11000 485.300
21.12000 482.619
21.13000 479.086
21.14000 474.082
21.15000 469.052
21.16000 468.966
21.17000 474.583
21.18000 480.192
21.19000 482.640
21.20000 482.714
21.21000 482.902
21.22000 487.395
21.23000 494.072
21.24000 500.344
21.25000 500.132
21.26000 497.669
21.27000 495.413
21.28000 489.988
21.29000 484.497
21.30000 480.076
21.31000 481.561
21.32000 483.950
21.33000 485.529
21.34000 484.150
21.35000 482.498
21.36000 481.304
21.37000 484.849
21.38000 487.740
21.39000 489.105
21.40000 487.874
21.41000 486.599
21.42000 485.702
21.43000 485.233
21.44000 484.767
21.45000 486.025
21.46000 488.539
21.47000 491.040
21.48000 493.045
21.49000 494.801
21.50000 496.504
21.51000 497.371
21.52000 497.951
21.53000 498.482
21.54000 491.330
21.55000 483.396
21.56000 476.338
21.57000 474.032
21.58000 472.441
21.59000 471.518
21.60000 473.004
21.61000 474.706
21.62000 475.932
21.63000 483.068
21.64000 488.740
21.65000 495.006
21.66000 502.268
21.67000 509.545
21.68000 508.137
21.69000 497.031
21.70000 485.957
21.71000 491.796
21.72000 509.804
21.73000 527.354
21.74000 529.087
21.75000 523.020
21.76000 517.634
21.77000 522.575
21.78000 530.998
21.79000 538.685
21.80000 537.067
21.81000 533.753
21.82000 532.230
21.83000 540.265
21.84000 549.711
21.85000 557.925
21.86000 561.771
21.87000 565.233
21.88000 567.713
21.89000 574.243
21.90000 579.370
21.91000 586.316
21.92000 596.266
21.93000 606.260
21.94000 611.624
21.95000 611.903
21.96000 612.179
21.97000 622.512
21.98000 639.898
21.99000 657.151
22.00000 669.938
22.01000 680.556
22.02000 690.626
22.03000 692.598
22.04000 691.878
22.05000 691.223
22.06000 682.695
22.07000 673.580
22.08000 667.407
22.09000 676.680
22.10000 688.192
22.11000 694.315
22.12000 681.595
22.13000 667.251
22.14000 657.019
22.15000 660.620
22.16000 663.821
22.17000 665.039
22.18000 663.032
22.19000 660.980
22.20000 649.656
22.21000 628.315
22.22000 607.060
22.23000 599.467
22.24000 601.504
22.25000 603.288
22.26000 596.942
22.27000 586.702
22.28000 576.744
22.29000 570.840
22.30000 566.265
22.31000 562.107
22.32000 557.895
22.33000 554.162
22.34000 549.474
22.35000 539.854
22.36000 529.531
22.37000 522.064
22.38000 524.431
22.39000 527.626
22.40000 529.895
22.41000 514.999
22.42000 503.119
22.43000 494.454
22.44000 490.942
22.45000 487.499
22.46000 486.865
22.47000 489.216
22.48000 491.557
22.49000 491.517
22.50000 489.839
22.51000 488.101
22.52000 484.535
22.53000 480.107
22.54000 475.621
22.55000 470.315
22.56000 464.745
22.57000 459.692
22.58000 459.509
22.59000 460.281
22.60000 461.149
22.61000 462.505
22.62000 463.930
22.63000 465.932
22.64000 469.894
22.65000 474.016
22.66000 476.931
22.67000 474.632
22.68000 472.726
22.69000 468.906
22.70000 462.066
22.71000 455.188
22.72000 452.410
22.73000 453.918
22.74000 455.418
22.75000 453.815
22.76000 450.131
22.77000 446.477
22.78000 443.726
22.79000 441.397
22.80000 439.841
22.81000 448.918
22.82000 461.378
22.83000 472.658
22.84000 469.620
22.85000 464.248
22.86000 459.479
22.87000 457.732
22.88000 456.399
22.89000 454.581
22.90000 451.136
22.91000 447.561
22.92000 445.045
22.93000 448.536
22.94000 451.359
22.95000 451.929
22.96000 448.992
22.97000 446.015
22.98000 445.243
22.99000 446.737
23.00000 448.222
23.01000 448.650
23.02000 448.368
23.03000 448.082
23.04000 447.661
23.05000 447.178
23.06000 446.599
23.07000 444.728
23.08000 442.452
23.09000 440.396
23.10000 439.738
23.11000 439.417
23.12000 439.028
23.13000 438.299
23.14000 437.525
23.15000 435.701
23.16000 430.419
23.17000 424.866
23.18000 420.977
23.19000 431.207
23.20000 439.347
23.21000 442.542
23.22000 438.163
23.23000 433.702
23.24000 434.289
23.25000 439.977
23.26000 445.631
23.27000 449.417
23.28000 451.928
23.29000 454.454
23.30000 457.409
23.31000 460.559
23.32000 462.591
23.33000 449.985
23.34000 432.858
23.35000 417.417
23.36000 424.660
23.37000 435.142
23.38000 442.408
23.39000 434.095
23.40000 423.719
23.41000 417.021
23.42000 422.266
23.43000 428.429
23.44000 432.724
23.45000 433.963
23.46000 434.813
23.47000 436.216
23.48000 438.451
23.49000 440.694
23.50000 437.885
23.51000 430.058
23.52000 422.280
23.53000 417.556
23.54000 414.870
23.55000 412.593
23.56000 421.233
23.57000 434.737
23.58000 447.050
23.59000 444.154
23.60000 436.628
23.61000 429.858
23.62000 422.818
23.63000 416.601
23.64000 411.973
23.65000 414.915
23.66000 418.841
23.67000 423.558
23.68000 430.805
23.69000 438.242
23.70000 443.401
23.71000 442.336
23.72000 441.369
23.73000 441.641
23.74000 443.754
23.75000 445.885
23.76000 443.405
23.77000 436.422
23.78000 429.487
23.79000 424.422
23.80000 420.625
23.81000 417.015
23.82000 418.236
23.83000 421.578
23.84000 424.721
23.85000 425.378
23.86000 425.288
23.87000 425.208
23.88000 432.775
23.89000 440.736
23.90000 446.057
23.91000 438.987
23.92000 430.338
23.93000 423.688
23.94000 423.339
23.95000 423.452
23.96000 423.529
23.97000 426.201
23.98000 428.274
23.99000 429.538
24.00000 429.617
24.01000 429.685
24.02000 423.868
24.03000 412.398
24.04000 401.013
24.05000 403.220
24.06000 413.884
24.07000 424.181
24.08000 425.344
24.09000 422.553
24.10000 420.187
24.11000 422.996
24.12000 427.336
24.13000 431.224
24.14000 432.903
24.15000 433.989
24.16000 432.565
24.17000 419.547
24.18000 405.079
24.19000 397.451
24.20000 411.079
24.21000 426.227
24.22000 436.633
24.23000 431.820
24.24000 427.838
24.25000 424.793
24.26000 423.101
24.27000 421.419
24.28000 420.618
24.29000 420.647
24.30000 420.676
24.31000 416.956
24.32000 410.996
24.33000 405.606
24.34000 413.984
24.35000 428.236
24.36000 441.322
24.37000 440.511
24.38000 435.652
24.39000 431.309
24.40000 422.350
24.41000 413.760
24.42000 407.437
24.43000 411.420
24.44000 416.668
24.45000 422.441
24.46000 429.818
24.47000 437.306
24.48000 442.425
24.49000 426.100
24.50000 413.378
24.51000 409.963
24.52000 419.766
24.53000 429.665
24.54000 433.529
24.55000 431.786
24.56000 430.058
24.57000 433.532
24.58000 440.089
24.59000 446.066
24.60000 438.486
24.61000 425.204
24.62000 413.105
24.63000 414.801
24.64000 420.454
24.65000 425.497
24.66000 418.893
24.67000 411.211
24.68000 405.591
24.69000 409.201
24.70000 413.922
24.71000 416.013
24.72000 410.164
24.73000 403.775
24.74000 399.429
24.75000 406.383
24.76000 411.832
24.77000 413.478
24.78000 409.807
24.79000 406.101
24.80000 406.542
24.81000 410.771
24.82000 414.963
24.83000 414.378
24.84000 410.960
24.85000 407.657
24.86000 406.948
24.87000 407.314
24.88000 407.786
24.89000 409.476
24.90000 411.511
24.91000 413.321
24.92000 411.393
24.93000 409.108
24.94000 407.348
24.95000 407.907
24.96000 408.739
24.97000 409.893
24.98000 412.009
24.99000 414.187
25.00000 415.662
25.01000 417.667
25.02000 419.173
25.03000 418.874
25.04000 416.090
25.05000 413.293
25.06000 414.343
25.07000 418.849
25.08000 423.313
25.09000 422.544
25.10000 418.725
25.11000 414.988
25.12000 413.050
25.13000 411.847
25.14000 410.317
25.15000 405.140
25.16000 398.947
25.17000 393.449
25.18000 394.045
25.19000 395.539
25.20000 397.768
25.21000 403.185
25.22000 408.972
25.23000 413.343
25.24000 413.565
25.25000 413.518
25.26000 413.486
25.27000 421.862
25.28000 428.265
25.29000 430.699
25.30000 427.749
25.31000 424.764
25.32000 415.875
25.33000 401.766
25.34000 387.801
25.35000 385.532
25.36000 390.059
25.37000 394.467
25.38000 396.304
25.39000 397.106
25.40000 397.895
25.41000 398.537
25.42000 399.140
25.43000 399.673
25.44000 397.138
25.45000 394.461
25.46000 392.376
25.47000 392.819
25.48000 393.550
25.49000 395.273
25.50000 399.864
25.51000 404.637
25.52000 407.834
25.53000 404.047
25.54000 401.098
25.55000 400.835
25.56000 404.157
25.57000 407.494
25.58000 407.839
25.59000 405.583
25.60000 403.350
25.61000 400.726
25.62000 397.938
25.63000 395.364
25.64000 397.197
25.65000 400.778
25.66000 404.033
25.67000 403.802
25.68000 402.629
25.69000 401.592
25.70000 402.186
25.71000 402.951
25.72000 404.816
25.73000 411.310
25.74000 418.319
25.75000 420.702
25.76000 409.914
25.77000 398.318
25.78000 390.590
25.79000 395.765
25.80000 399.842
25.81000 401.338
25.82000 399.440
25.83000 397.529
25.84000 397.199
25.85000 398.223
25.86000 399.234
25.87000 401.405
25.88000 404.171
25.89000 406.664
25.90000 403.676
25.91000 398.545
25.92000 393.554
25.93000 390.035
25.94000 386.908
25.95000 384.151
25.96000 391.649
25.97000 399.670
25.98000 404.967
25.99000 398.980
26.00000 391.762
26.01000 389.253
26.02000 399.959
26.03000 411.455
26.04000 419.076
26.05000 410.013
26.06000 403.013
26.07000 395.898
26.08000 388.633
26.09000 381.380
26.10000 380.967
26.11000 386.315
26.12000 391.599
26.13000 399.830
26.14000 409.475
26.15000 418.693
26.16000 419.613
26.17000 417.333
26.18000 414.626
26.19000 407.555
26.20000 399.339
26.21000 392.111
26.22000 394.806
26.23000 398.602
26.24000 401.053
26.25000 398.014
26.26000 394.387
26.27000 390.917
26.28000 387.881
26.29000 384.871
26.30000 382.886
26.31000 394.143
26.32000 402.672
26.33000 408.387
26.34000 410.517
26.35000 412.626
26.36000 410.824
26.37000 405.779
26.38000 400.799
26.39000 403.447
26.40000 410.153
26.41000 416.427
26.42000 414.546
26.43000 409.565
26.44000 404.594
26.45000 399.713
26.46000 394.857
26.47000 390.595
26.48000 394.462
26.49000 398.972
26.50000 402.587
26.51000 402.609
26.52000 402.254
26.53000 399.334
26.54000 389.421
26.55000 379.112
26.56000 372.351
26.57000 379.524
26.58000 385.032
26.59000 390.859
26.60000 397.086
26.61000 403.293
26.62000 401.586
26.63000 393.421
26.64000 385.366
26.65000 383.799
26.66000 385.732
26.67000 387.687
26.68000 390.043
26.69000 392.550
26.70000 394.791
26.71000 394.427
26.72000 393.400
26.73000 392.501
26.74000 389.565
26.75000 386.755
26.76000 384.580
26.77000 384.915
26.78000 385.507
26.79000 384.581
26.80000 379.575
26.81000 374.345
26.82000 370.932
26.83000 382.592
26.84000 391.387
26.85000 395.324
26.86000 393.264
26.87000 391.178
26.88000 385.497
26.89000 376.929
26.90000 368.484
26.91000 370.862
26.92000 378.848
26.93000 386.398
26.94000 386.154
26.95000 383.034
26.96000 379.902
26.97000 376.660
26.98000 373.391
26.99000 370.536
27.00000 370.713
27.01000 371.291
27.02000 372.367
27.03000 375.381
27.04000 378.591
27.05000 382.757
27.06000 389.455
27.07000 396.288
27.08000 400.722
27.09000 394.016
27.10000 388.937
27.11000 381.150
27.12000 370.074
27.13000 359.034
27.14000 360.777
27.15000 372.625
27.16000 384.295
27.17000 388.450
27.18000 388.602
27.19000 388.814
27.20000 390.055
27.21000 391.671
27.22000 392.529
27.23000 386.230
27.24000 378.166
27.25000 371.141
27.26000 376.207
27.27000 382.206
27.28000 385.512
27.29000 378.487
27.30000 370.443
27.31000 364.311
27.32000 363.168
27.33000 362.284
27.34000 361.714
27.35000 374.638
27.36000 384.274
27.37000 392.208
27.38000 398.107
27.39000 403.978
27.40000 403.482
27.41000 398.033
27.42000 392.669
27.43000 390.665
27.44000 390.429
27.45000 390.150
27.46000 389.139
27.47000 387.865
27.48000 386.650
27.49000 385.972
27.50000 385.425
27.51000 384.950
27.52000 385.445
27.53000 385.999
27.54000 386.363
27.55000 386.007
27.56000 385.582
27.57000 385.661
27.58000 387.037
27.59000 388.479
27.60000 389.404
27.61000 383.584
27.62000 379.250
27.63000 378.330
27.64000 381.426
27.65000 384.528
27.66000 387.371
27.67000 390.016
27.68000 392.618
27.69000 388.985
27.70000 382.352
27.71000 375.883
27.72000 372.112
27.73000 369.296
27.74000 367.206
27.75000 371.708
27.76000 377.788
27.77000 383.057
27.78000 376.362
27.79000 369.072
27.80000 364.544
27.81000 370.306
27.82000 377.040
27.83000 383.402
27.84000 388.822
27.85000 394.196
27.86000 397.624
27.87000 385.502
27.88000 376.483
27.89000 373.009
27.90000 375.951
27.91000 378.881
27.92000 377.457
27.93000 372.750
27.94000 368.124
27.95000 367.315
27.96000 368.412
27.97000 369.474
27.98000 369.976
27.99000 370.284
28.00000 370.435
28.01000 369.196
28.02000 367.631
28.03000 366.277
28.04000 374.203
28.05000 382.147
28.06000 387.031
28.07000 380.687
28.08000 373.304
28.09000 369.918
28.10000 376.517
28.11000 383.592
28.12000 388.080
28.13000 382.261
28.14000 377.913
28.15000 379.008
28.16000 386.304
28.17000 393.563
28.18000 392.960
28.19000 386.517
28.20000 380.191
28.21000 375.732
28.22000 372.334
28.23000 369.140
28.24000 369.153
28.25000 370.266
28.26000 370.983
28.27000 368.247
28.28000 364.710
28.29000 361.660
28.30000 364.951
28.31000 368.553
28.32000 370.968
28.33000 369.093
28.34000 366.829
28.35000 366.791
28.36000 372.235
28.37000 377.933
28.38000 381.526
28.39000 380.206
28.40000 379.194
28.41000 374.659
28.42000 366.176
28.43000 357.742
28.44000 358.039
28.45000 364.718
28.46000 371.271
28.47000 376.292
28.48000 380.402
28.49000 384.060
28.50000 380.849
28.51000 375.313
28.52000 370.388
28.53000 370.678
28.54000 372.158
28.55000 373.432
28.56000 366.179
28.57000 358.971
28.58000 354.529
28.59000 359.942
28.60000 366.226
28.61000 369.121
28.62000 363.786
28.63000 358.083
28.64000 354.507
28.65000 363.087
28.66000 369.419
28.67000 369.038
28.68000 361.258
28.69000 353.527
28.70000 353.986
28.71000 360.339
28.72000 366.568
28.73000 370.401
28.74000 372.968
28.75000 375.162
28.76000 371.831
28.77000 366.658
28.78000 362.590
28.79000 367.770
28.80000 375.032
28.81000 381.261
28.82000 384.629
28.83000 387.122
28.84000 386.246
28.85000 373.549
28.86000 359.828
28.87000 351.018
28.88000 353.956
28.89000 357.403
28.90000 359.552
28.91000 361.505
28.92000 362.911
28.93000 362.587
28.94000 360.390
28.95000 358.207
28.96000 358.037
28.97000 359.295
28.98000 360.527
28.99000 360.017
29.00000 358.723
29.01000 357.445
29.02000 356.400
29.03000 355.431
29.04000 355.193
29.05000 360.948
29.06000 368.031
29.07000 374.091
29.08000 369.376
29.09000 364.101
29.10000 360.035
29.11000 360.144
29.12000 360.606
29.13000 360.344
29.14000 358.372
29.15000 356.329
29.16000 355.063
29.17000 363.812
29.18000 370.200
29.19000 372.016
29.20000 368.955
29.21000 365.892
29.22000 362.707
29.23000 359.438
29.24000 356.239
29.25000 351.109
29.26000 345.307
29.27000 340.001
29.28000 341.711
29.29000 345.692
29.30000 349.313
29.31000 350.028
29.32000 350.110
29.33000 350.179
29.34000 357.169
29.35000 363.871
29.36000 369.638
29.37000 372.226
29.38000 374.550
29.39000 377.361
29.40000 381.305
29.41000 385.294
29.42000 387.752
29.43000 369.305
29.44000 355.881
29.45000 352.318
29.46000 359.099
29.47000 365.846
29.48000 368.452
29.49000 368.211
29.50000 367.975
29.51000 368.539
29.52000 369.438
29.53000 370.126
29.54000 367.919
29.55000 364.788
29.56000 362.404
29.57000 365.929
29.58000 370.722
29.59000 374.800
29.60000 362.453
29.61000 350.176
29.62000 341.781
29.63000 346.413
29.64000 352.099
29.65000 358.072
29.66000 364.704
29.67000 371.361
29.68000 375.437
29.69000 375.929
29.70000 376.252
29.71000 379.700
29.72000 386.371
29.73000 392.977
29.74000 392.332
29.75000 386.777
29.76000 381.352
29.77000 382.728
29.78000 387.042
29.79000 391.491
29.80000 397.758
29.81000 404.597
29.82000 410.558
29.83000 409.712
29.84000 407.427
29.85000 405.488
29.86000 408.396
29.87000 411.384
29.88000 412.828
29.89000 409.167
29.90000 405.102
29.91000 407.123
29.92000 422.885
29.93000 439.171
29.94000 449.080
29.95000 455.254
29.96000 459.634
29.97000 463.161
29.98000 465.825
29.99000 468.479
30.00000 470.185
30.01000 471.259
30.02000 472.307
30.03000 474.348
30.04000 476.730
30.05000 478.711
30.06000 475.429
30.07000 470.515
30.08000 466.119
30.09000 465.670
30.10000 466.042
30.11000 466.357
30.12000 458.466
30.13000 450.947
30.14000 447.717
30.15000 458.458
30.16000 470.278
30.17000 473.512
30.18000 457.632
30.19000 441.050
30.20000 431.022
30.21000 433.405
30.22000 435.194
30.23000 436.857
30.24000 438.396
30.25000 439.896
30.26000 437.753
30.27000 433.216
30.28000 428.793
30.29000 424.404
30.30000 420.228
30.31000 415.991
30.32000 410.968
30.33000 405.705
30.34000 401.227
30.35000 402.616
30.36000 405.205
30.37000 407.390
30.38000 413.915
30.39000 419.840
30.40000 421.970
30.41000 411.915
30.42000 400.942
30.43000 394.227
30.44000 396.855
30.45000 399.814
30.46000 401.592
30.47000 401.574
30.48000 401.548
30.49000 404.637
30.50000 410.778
30.51000 416.814
30.52000 413.615
30.53000 404.438
30.54000 395.501
30.55000 395.288
30.56000 398.750
30.57000 402.010
30.58000 402.729
30.59000 402.684
30.60000 402.896
30.61000 404.995
30.62000 407.474
30.63000 409.561
30.64000 416.052
30.65000 421.935
30.66000 427.080
30.67000 429.888
30.68000 432.523
30.69000 432.781
30.70000 427.900
30.71000 422.842
30.72000 419.822
30.73000 421.270
30.74000 422.324
30.75000 418.098
30.76000 408.781
30.77000 399.659
30.78000 406.767
30.79000 424.220
30.80000 441.202
30.81000 442.095
30.82000 436.294
30.83000 431.582
30.84000 440.212
30.85000 452.799
30.86000 464.417
30.87000 469.059
30.88000 472.318
30.89000 475.054
30.90000 467.097
30.91000 459.354
30.92000 457.110
30.93000 472.003
30.94000 488.128
30.95000 503.781
30.96000 518.430
30.97000 533.047
30.98000 541.718
30.99000 550.435
31.00000 556.605
31.01000 569.922
31.02000 590.015
31.03000 610.125
31.04000 631.532
31.05000 653.753
31.06000 675.351
31.07000 706.797
31.08000 740.696
31.09000 774.885
31.10000 812.564
31.11000 851.262
31.12000 891.078
31.13000 938.806
31.14000 988.077
31.15000 1029.304
31.16000 1112.916
31.17000 1186.730
31.18000 1265.827
31.19000 1361.151
31.20000 1457.612
31.21000 1550.835
31.22000 1637.254
31.23000 1723.456
31.24000 1774.265
31.25000 1962.880
31.26000 2096.738
31.27000 2217.699
31.28000 2326.638
31.29000 2435.617
31.30000 2547.511
31.31000 2661.208
31.32000 2771.605
31.33000 2844.659
31.34000 2899.048
31.35000 2953.522
31.36000 3008.994
31.37000 3064.753
31.38000 3112.225
31.39000 3102.084
31.40000 3080.893
31.41000 3063.214
31.42000 3022.900
31.43000 2987.197
31.44000 2944.395
31.45000 2880.104
31.46000 2814.344
31.47000 2737.051
31.48000 2635.881
31.49000 2533.979
31.50000 2474.311
31.51000 2344.884
31.52000 2253.403
31.53000 2147.406
31.54000 2028.099
31.55000 1908.985
31.56000 1803.183
31.57000 1705.495
31.58000 1610.745
31.59000 1512.851
31.60000 1418.827
31.61000 1326.493
31.62000 1253.519
31.63000 1186.036
31.64000 1119.080
31.65000 1055.719
31.66000 993.036
31.67000 940.895
31.68000 875.217
31.69000 819.521
31.70000 771.612
31.71000 746.929
31.72000 723.795
31.73000 698.897
31.74000 670.400
31.75000 641.797
31.76000 625.160
31.77000 596.551
31.78000 576.404
31.79000 559.857
31.80000 546.556
31.81000 533.245
31.82000 519.267
31.83000 504.890
31.84000 490.960
31.85000 474.745
31.86000 458.512
31.87000 443.045
31.88000 436.168
31.89000 431.691
31.90000 427.923
31.91000 428.905
31.92000 430.769
31.93000 432.315
31.94000 425.075
31.95000 418.249
31.96000 409.845
31.97000 396.799
31.98000 383.452
31.99000 378.403
32.00000 390.046
32.01000 402.161
32.02000 409.161
32.03000 397.641
32.04000 389.496
32.05000 383.989
32.06000 380.824
32.07000 377.699
32.08000 377.054
32.09000 377.876
32.10000 378.671
32.11000 373.534
32.12000 366.414
32.13000 359.748
32.14000 358.062
32.15000 357.747
32.16000 357.734
32.17000 359.710
32.18000 362.050
32.19000 363.985
32.20000 355.875
32.21000 348.242
32.22000 344.129
32.23000 350.215
32.24000 356.947
32.25000 360.539
32.26000 357.908
32.27000 355.107
32.28000 353.499
32.29000 352.405
32.30000 351.644
32.31000 352.022
32.32000 353.395
32.33000 354.752
32.34000 355.118
32.35000 354.906
32.36000 354.702
32.37000 353.138
32.38000 351.150
32.39000 348.846
32.40000 343.141
32.41000 336.514
32.42000 330.940
32.43000 332.191
32.44000 334.668
32.45000 336.709
32.46000 339.742
32.47000 342.329
32.48000 344.401
32.49000 345.002
32.50000 345.512
32.51000 343.264
32.52000 335.628
32.53000 327.852
32.54000 323.420
32.55000 327.961
32.56000 331.153
32.57000 331.650
32.58000 329.832
32.59000 328.070
32.60000 329.392
32.61000 332.486
32.62000 335.473
32.63000 329.902
32.64000 321.489
32.65000 314.165
32.66000 318.287
32.67000 325.466
32.68000 331.957
32.69000 334.073
32.70000 335.416
32.71000 336.519
32.72000 342.383
32.73000 347.630
32.74000 350.317
32.75000 345.802
32.76000 340.854
32.77000 335.499
32.78000 329.360
32.79000 323.202
32.80000 319.717
32.81000 320.157
32.82000 320.478
32.83000 323.241
32.84000 328.067
32.85000 332.785
32.86000 331.729
32.87000 327.406
32.88000 323.236
32.89000 325.769
32.90000 330.591
32.91000 334.143
32.92000 324.637
32.93000 311.696
32.94000 301.368
32.95000 307.380
32.96000 316.230
32.97000 323.481
32.98000 318.533
32.99000 313.402
33.00000 312.154
33.01000 321.682
33.02000 331.840
33.03000 333.569
33.04000 319.303
33.05000 304.655
33.06000 296.423
33.07000 303.250
33.08000 308.012
33.09000 306.956
33.10000 301.059
33.11000 295.348
33.12000 298.960
33.13000 307.772
33.14000 316.260
33.15000 316.071
33.16000 312.785
33.17000 309.692
33.18000 308.543
33.19000 307.899
33.20000 307.398
33.21000 307.782
33.22000 308.316
33.23000 308.752
33.24000 313.565
33.25000 317.880
33.26000 320.161
33.27000 316.879
33.28000 313.280
33.29000 309.055
33.30000 303.662
33.31000 298.242
33.32000 295.218
33.33000 301.432
33.34000 305.740
33.35000 304.796
33.36000 299.552
33.37000 294.348
33.38000 291.001
33.39000 288.674
33.40000 286.435
33.41000 291.239
33.42000 298.227
33.43000 304.919
33.44000 308.691
33.45000 311.718
33.46000 313.693
33.47000 309.309
33.48000 303.856
33.49000 299.417
33.50000 295.180
33.51000 291.737
33.52000 291.521
33.53000 300.006
33.54000 308.972
33.55000 313.322
33.56000 309.168
33.57000 304.827
33.58000 302.423
33.59000 292.752
33.60000 286.087
33.61000 288.362
33.62000 297.839
33.63000 307.143
33.64000 308.549
33.65000 305.676
33.66000 302.915
33.67000 297.181
33.68000 290.781
33.69000 285.336
33.70000 289.127
33.71000 295.241
33.72000 300.424
33.73000 300.083
33.74000 298.831
33.75000 297.815
33.76000 304.646
33.77000 310.862
33.78000 312.536
33.79000 302.147
33.80000 291.108
33.81000 283.792
33.82000 283.234
33.83000 282.818
33.84000 282.588
33.85000 282.898
33.86000 283.125
33.87000 286.934
33.88000 293.584
33.89000 300.105
33.90000 300.986
33.91000 298.856
33.92000 296.812
33.93000 290.031
33.94000 282.074
33.95000 275.417
33.96000 281.074
33.97000 289.779
33.98000 297.837
33.99000 302.114
34.00000 305.778
34.01000 308.741
34.02000 304.495
34.03000 300.459
34.04000 295.457
34.05000 287.926
34.06000 280.263
34.07000 277.244
34.08000 282.536
34.09000 287.993
34.10000 290.972
34.11000 291.683
34.12000 292.152
34.13000 288.566
34.14000 281.813
34.15000 275.308
34.16000 279.123
34.17000 288.368
34.18000 297.230
34.19000 295.989
34.20000 291.437
34.21000 287.773
34.22000 292.355
34.23000 298.947
34.24000 303.508
34.25000 296.400
34.26000 287.431
34.27000 280.200
34.28000 294.742
34.29000 308.266
34.30000 316.314
34.31000 310.237
34.32000 303.440
34.33000 298.556
34.34000 297.044
34.35000 295.596
34.36000 294.811
34.37000 290.318
34.38000 287.250
34.39000 287.725
34.40000 290.923
34.41000 293.955
34.42000 290.370
34.43000 283.354
34.44000 276.638
34.45000 278.653
34.46000 283.416
34.47000 287.883
34.48000 289.644
34.49000 290.756
34.50000 291.644
34.51000 291.265
34.52000 290.686
34.53000 290.221
34.54000 285.765
34.55000 281.846
34.56000 279.550
34.57000 281.385
34.58000 283.423
34.59000 283.486
34.60000 280.116
34.61000 276.685
34.62000 274.840
34.63000 276.165
34.64000 277.078
34.65000 279.050
34.66000 281.823
34.67000 284.593
34.68000 287.272
34.69000 289.903
34.70000 292.419
34.71000 294.989
34.72000 297.397
34.73000 299.128
34.74000 294.811
34.75000 289.065
34.76000 284.456
34.77000 286.170
34.78000 288.858
34.79000 291.010
34.80000 290.799
34.81000 290.449
34.82000 290.353
34.83000 290.890
34.84000 291.457
34.85000 291.359
34.86000 290.126
34.87000 288.872
34.88000 288.204
34.89000 280.415
34.90000 275.129
34.91000 274.841
34.92000 278.278
34.93000 281.575
34.94000 279.734
34.95000 275.307
34.96000 271.080
34.97000 271.013
34.98000 272.282
34.99000 273.892
35.00000 278.488
35.01000 283.780
35.02000 287.716
35.03000 284.245
35.04000 279.653
35.05000 275.987
35.06000 273.342
35.07000 271.281
35.08000 270.309
35.09000 272.030
35.10000 273.875
35.11000 274.992
35.12000 274.878
35.13000 274.745
35.14000 274.674
35.15000 276.705
35.16000 278.096
35.17000 281.092
35.18000 285.266
35.19000 289.278
35.20000 287.590
35.21000 283.073
35.22000 278.766
35.23000 274.592
35.24000 270.761
35.25000 267.906
35.26000 273.414
35.27000 280.839
35.28000 286.745
35.29000 284.485
35.30000 281.010
35.31000 278.246
35.32000 276.057
35.33000 274.334
35.34000 271.959
35.35000 267.998
35.36000 263.964
35.37000 262.091
35.38000 263.806
35.39000 265.576
35.40000 266.506
35.41000 268.533
35.42000 269.908
35.43000 271.279
35.44000 272.649
35.45000 274.011
35.46000 275.138
35.47000 276.149
35.48000 277.112
35.49000 277.494
35.50000 277.668
35.51000 277.123
35.52000 270.539
35.53000 262.592
35.54000 255.727
35.55000 254.588
35.56000 254.284
35.57000 254.044
35.58000 263.446
35.59000 271.684
35.60000 276.414
35.61000 272.726
35.62000 268.671
35.63000 266.588
35.64000 267.735
35.65000 268.928
35.66000 269.550
35.67000 271.549
35.68000 272.941
35.69000 280.072
35.70000 291.285
35.71000 302.132
35.72000 301.083
35.73000 294.299
35.74000 287.847
35.75000 282.370
35.76000 277.602
35.77000 273.174
35.78000 271.548
35.79000 270.544
35.80000 269.095
35.81000 265.335
35.82000 261.243
35.83000 258.010
35.84000 257.846
35.85000 257.925
35.86000 258.313
35.87000 259.432
35.88000 260.583
35.89000 262.713
35.90000 266.421
35.91000 270.151
35.92000 272.079
35.93000 270.251
35.94000 269.025
35.95000 268.836
35.96000 269.374
35.97000 269.763
35.98000 265.500
35.99000 259.026
36.00000 252.879
36.01000 257.479
36.02000 264.949
36.03000 271.578
36.04000 271.411
36.05000 269.757
36.06000 267.811
36.07000 264.373
36.08000 260.725
36.09000 257.853
36.10000 260.396
36.11000 262.794
36.12000 263.630
36.13000 260.823
36.14000 257.866
36.15000 257.162
36.16000 260.038
36.17000 262.959
36.18000 264.457
36.19000 267.871
36.20000 270.146
36.21000 269.868
36.22000 267.830
36.23000 265.735
36.24000 261.919
36.25000 257.297
36.26000 252.915
36.27000 253.934
36.28000 256.468
36.29000 258.833
36.30000 259.849
36.31000 260.576
36.32000 261.000
36.33000 259.901
36.34000 258.592
36.35000 257.565
36.36000 261.822
36.37000 265.570
36.38000 267.334
36.39000 264.539
36.40000 261.563
36.41000 260.266
36.42000 261.599
36.43000 262.963
36.44000 263.657
36.45000 260.804
36.46000 258.885
36.47000 256.372
36.48000 253.454
36.49000 250.735
36.50000 253.804
36.51000 259.544
36.52000 264.979
36.53000 265.663
36.54000 264.912
36.55000 264.222
36.56000 264.004
36.57000 263.887
36.58000 263.683
36.59000 263.051
36.60000 262.361
36.61000 261.822
36.62000 263.087
36.63000 264.211
36.64000 264.561
36.65000 263.154
36.66000 261.679
36.67000 262.841
36.68000 268.070
36.69000 273.344
36.70000 276.005
36.71000 267.249
36.72000 261.498
36.73000 266.449
36.74000 278.561
36.75000 290.239
36.76000 289.754
36.77000 283.737
36.78000 278.047
36.79000 275.650
36.80000 274.388
36.81000 274.114
36.82000 281.398
36.83000 290.259
36.84000 295.681
36.85000 284.331
36.86000 270.743
36.87000 260.160
36.88000 265.913
36.89000 271.506
36.90000 274.618
36.91000 272.194
36.92000 269.564
36.93000 269.114
36.94000 271.973
36.95000 274.867
36.96000 276.314
36.97000 287.897
36.98000 295.563
36.99000 297.806
37.00000 296.474
37.01000 295.172
37.02000 294.680
37.03000 294.551
37.04000 294.430
37.05000 291.793
37.06000 288.668
37.07000 285.881
37.08000 285.636
37.09000 285.912
37.10000 284.994
37.11000 278.345
37.12000 270.945
37.13000 265.203
37.14000 261.359
37.15000 258.417
37.16000 258.822
37.17000 266.595
37.18000 274.631
37.19000 280.436
37.20000 282.901
37.21000 285.333
37.22000 283.939
37.23000 278.780
37.24000 273.638
37.25000 270.127
37.26000 267.673
37.27000 265.254
37.28000 263.719
37.29000 262.574
37.30000 261.496
37.31000 261.944
37.32000 262.777
37.33000 263.767
37.34000 265.918
37.35000 268.303
37.36000 270.544
37.37000 272.107
37.38000 273.581
37.39000 274.722
37.40000 267.568
37.41000 261.406
37.42000 259.533
37.43000 266.965
37.44000 274.718
37.45000 277.031
37.46000 271.329
37.47000 265.554
37.48000 258.928
37.49000 251.479
37.50000 244.115
37.51000 243.910
37.52000 248.286
37.53000 252.588
37.54000 255.054
37.55000 256.719
37.56000 258.286
37.57000 262.020
37.58000 266.023
37.59000 268.971
37.60000 264.283
37.61000 258.078
37.62000 254.526
37.63000 263.319
37.64000 273.668
37.65000 281.641
37.66000 274.909
37.67000 268.738
37.68000 262.444
37.69000 255.886
37.70000 249.319
37.71000 251.933
37.72000 267.872
37.73000 283.920
37.74000 281.557
37.75000 261.683
37.76000 242.054
37.77000 241.754
37.78000 253.632
37.79000 265.186
37.80000 268.796
37.81000 268.997
37.82000 269.185
37.83000 269.355
37.84000 269.505
37.85000 269.496
37.86000 268.354
37.87000 266.990
37.88000 265.964
37.89000 266.484
37.90000 267.194
37.91000 267.739
37.92000 275.436
37.93000 281.917
37.94000 285.913
37.95000 284.675
37.96000 283.269
37.97000 280.860
37.98000 277.016
37.99000 273.161
38.00000 269.975
38.01000 267.413
38.02000 264.909
38.03000 266.653
38.04000 271.032
38.05000 275.088
38.06000 271.479
38.07000 264.625
38.08000 258.195
38.09000 261.960
38.10000 268.074
38.11000 273.938
38.12000 278.063
38.13000 281.855
38.14000 284.624
38.15000 282.792
38.16000 280.401
38.17000 278.573
38.18000 286.303
38.19000 292.918
38.20000 296.841
38.21000 295.172
38.22000 293.331
38.23000 292.672
38.24000 293.677
38.25000 294.694
38.26000 299.615
38.27000 308.124
38.28000 316.538
38.29000 318.399
38.30000 316.253
38.31000 314.194
38.32000 314.132
38.33000 314.904
38.34000 315.628
38.35000 320.423
38.36000 325.838
38.37000 332.031
38.38000 343.552
38.39000 356.083
38.40000 367.755
38.41000 375.621
38.42000 383.033
38.43000 388.678
38.44000 401.954
38.45000 412.807
38.46000 427.323
38.47000 449.335
38.48000 471.571
38.49000 493.275
38.50000 514.243
38.51000 535.200
38.52000 562.935
38.53000 596.776
38.54000 630.487
38.55000 655.698
38.56000 675.788
38.57000 696.700
38.58000 735.912
38.59000 782.648
38.60000 826.354
38.61000 854.203
38.62000 875.458
38.63000 897.376
38.64000 923.765
38.65000 950.987
38.66000 975.153
38.67000 985.972
38.68000 995.231
38.69000 1002.254
38.70000 998.699
38.71000 995.363
38.72000 997.341
38.73000 1010.043
38.74000 1023.050
38.75000 1019.479
38.76000 993.277
38.77000 966.954
38.78000 939.355
38.79000 910.655
38.80000 881.951
38.81000 852.982
38.82000 823.855
38.83000 794.694
38.84000 764.781
38.85000 734.563
38.86000 706.351
38.87000 675.773
38.88000 647.460
38.89000 619.443
38.90000 593.380
38.91000 567.676
38.92000 542.003
38.93000 516.467
38.94000 490.947
38.95000 471.664
38.96000 450.942
38.97000 434.625
38.98000 418.013
38.99000 400.813
39.00000 383.597
39.01000 370.994
39.02000 364.591
39.03000 358.225
39.04000 349.305
39.05000 338.164
39.06000 327.088
39.07000 319.789
39.08000 314.698
39.09000 309.538
39.10000 302.920
39.11000 295.719
39.12000 289.007
39.13000 287.351
39.14000 287.098
39.15000 286.648
39.16000 284.926
39.17000 282.973
39.18000 280.066
39.19000 273.113
39.20000 265.705
39.21000 260.130
39.22000 254.281
39.23000 249.692
39.24000 248.489
39.25000 253.925
39.26000 259.535
39.27000 260.602
39.28000 255.657
39.29000 250.687
39.30000 251.420
39.31000 257.058
39.32000 262.587
39.33000 262.091
39.34000 258.121
39.35000 254.428
39.36000 256.348
39.37000 260.479
39.38000 264.323
39.39000 259.630
39.40000 253.324
39.41000 247.618
39.42000 245.744
39.43000 244.550
39.44000 244.089
39.45000 246.685
39.46000 249.617
39.47000 251.815
39.48000 249.799
39.49000 248.026
39.50000 246.813
39.51000 246.683
39.52000 246.581
39.53000 246.252
39.54000 245.629
39.55000 245.005
39.56000 244.283
39.57000 243.481
39.58000 242.641
39.59000 239.791
39.60000 235.799
39.61000 232.113
39.62000 234.442
39.63000 239.107
39.64000 243.439
39.65000 244.041
39.66000 243.695
39.67000 242.801
39.68000 238.463
39.69000 233.524
39.70000 230.162
39.71000 233.275
39.72000 237.087
39.73000 239.933
39.74000 246.020
39.75000 250.911
39.76000 253.294
39.77000 250.901
39.78000 248.393
39.79000 247.819
39.80000 249.726
39.81000 251.639
39.82000 250.848
39.83000 247.809
39.84000 244.771
39.85000 241.870
39.86000 239.045
39.87000 236.335
39.88000 235.834
39.89000 236.177
39.90000 236.495
39.91000 234.758
39.92000 232.712
39.93000 231.633
39.94000 236.520
39.95000 242.429
39.96000 245.528
39.97000 237.267
39.98000 227.805
39.99000 220.768
40.00000 223.844
40.01000 226.687
40.02000 229.988
40.03000 234.149
40.04000 238.330
40.05000 239.640
40.06000 237.326
40.07000 235.003
40.08000 235.355
40.09000 237.897
40.10000 240.354
40.11000 238.665
40.12000 234.691
40.13000 231.020
40.14000 232.978
40.15000 237.058
40.16000 240.835
40.17000 236.081
40.18000 229.843
40.19000 224.865
40.20000 227.524
40.21000 231.471
40.22000 234.557
40.23000 234.218
40.24000 233.523
40.25000 233.008
40.26000 234.980
40.27000 236.618
40.28000 235.720
40.29000 230.134
40.30000 224.445
40.31000 219.498
40.32000 215.474
40.33000 211.460
40.34000 213.937
40.35000 221.632
40.36000 229.152
40.37000 228.597
40.38000 223.656
40.39000 219.027
40.40000 220.039
40.41000 223.148
40.42000 226.020
40.43000 222.266
40.44000 217.396
40.45000 213.413
40.46000 214.720
40.47000 216.904
40.48000 219.967
40.49000 226.482
40.50000 233.347
40.51000 238.410
40.52000 235.112
40.53000 232.206
40.54000 230.779
40.55000 232.045
40.56000 233.368
40.57000 231.372
40.58000 225.315
40.59000 219.259
40.60000 217.618
40.61000 219.483
40.62000 221.293
40.63000 220.701
40.64000 218.823
40.65000 216.993
40.66000 216.001
40.67000 215.316
40.68000 214.685
40.69000 222.810
40.70000 232.038
40.71000 239.244
40.72000 234.588
40.73000 228.001
40.74000 222.499
40.75000 221.192
40.76000 220.302
40.77000 219.649
40.78000 222.047
40.79000 224.026
40.80000 225.894
40.81000 227.562
40.82000 229.225
40.83000 228.764
40.84000 225.744
40.85000 222.725
40.86000 222.295
40.87000 223.884
40.88000 225.463
40.89000 226.596
40.90000 227.494
40.91000 228.205
40.92000 225.705
40.93000 222.047
40.94000 218.680
40.95000 220.566
40.96000 223.401
40.97000 225.299
40.98000 221.793
40.99000 217.421
41.00000 214.544
41.01000 217.355
41.02000 220.721
41.03000 223.183
41.04000 225.752
41.05000 227.739
41.06000 227.861
41.07000 224.683
41.08000 221.442
41.09000 222.236
41.10000 227.811
41.11000 233.380
41.12000 232.762
41.13000 227.402
41.14000 222.101
41.15000 219.137
41.16000 217.390
41.17000 215.842
41.18000 217.634
41.19000 220.613
41.20000 223.351
41.21000 224.174
41.22000 224.496
41.23000 224.995
41.24000 226.495
41.25000 228.151
41.26000 229.223
41.27000 228.099
41.28000 226.765
41.29000 225.794
41.30000 221.405
41.31000 217.895
41.32000 216.112
41.33000 217.342
41.34000 218.626
41.35000 221.181
41.36000 225.218
41.37000 229.246
41.38000 228.082
41.39000 223.010
41.40000 218.028
41.41000 216.517
41.42000 216.785
41.43000 216.895
41.44000 214.434
41.45000 211.072
41.46000 207.989
41.47000 208.330
41.48000 209.359
41.49000 210.524
41.50000 212.452
41.51000 214.499
41.52000 216.804
41.53000 220.069
41.54000 223.422
41.55000 225.854
41.56000 223.000
41.57000 220.611
41.58000 219.078
41.59000 219.014
41.60000 218.976
41.61000 218.779
41.62000 218.402
41.63000 218.025
41.64000 216.226
41.65000 213.385
41.66000 210.609
41.67000 210.238
41.68000 211.083
41.69000 211.956
41.70000 213.288
41.71000 214.779
41.72000 216.144
41.73000 213.775
41.74000 210.892
41.75000 208.952
41.76000 212.183
41.77000 216.200
41.78000 218.341
41.79000 213.661
41.80000 208.357
41.81000 204.529
41.82000 207.106
41.83000 209.311
41.84000 209.414
41.85000 205.958
41.86000 202.443
41.87000 203.972
41.88000 211.192
41.89000 218.393
41.90000 221.360
41.91000 221.211
41.92000 220.993
41.93000 218.286
41.94000 214.340
41.95000 210.555
41.96000 209.239
41.97000 208.764
41.98000 208.331
41.99000 211.124
42.00000 214.265
42.01000 216.020
42.02000 210.304
42.03000 203.473
42.04000 199.076
42.05000 203.404
42.06000 208.511
42.07000 212.182
42.08000 209.598
42.09000 207.404
42.10000 206.732
42.11000 208.598
42.12000 210.503
42.13000 211.345
42.14000 211.008
42.15000 210.671
42.16000 212.210
42.17000 215.081
42.18000 217.877
42.19000 218.078
42.20000 217.006
42.21000 215.962
42.22000 215.338
42.23000 214.854
42.24000 214.413
42.25000 211.143
42.26000 207.675
42.27000 205.205
42.28000 208.025
42.29000 211.621
42.30000 214.687
42.31000 215.879
42.32000 216.908
42.33000 217.644
42.34000 215.775
42.35000 214.261
42.36000 212.390
42.37000 209.933
42.38000 207.468
42.39000 205.668
42.40000 204.595
42.41000 203.526
42.42000 205.653
42.43000 210.019
42.44000 214.184
42.45000 211.764
42.46000 206.161
42.47000 200.809
42.48000 199.143
42.49000 198.697
42.50000 198.290
42.51000 196.446
42.52000 194.530
42.53000 193.369
42.54000 196.150
42.55000 199.500
42.56000 202.314
42.57000 203.266
42.58000 204.059
42.59000 204.624
42.60000 204.844
42.61000 205.001
42.62000 203.780
42.63000 200.330
42.64000 196.850
42.65000 196.231
42.66000 198.687
42.67000 201.133
42.68000 203.932
42.69000 206.946
42.70000 209.820
42.71000 208.252
42.72000 204.568
42.73000 201.392
42.74000 205.488
42.75000 211.954
42.76000 217.827
42.77000 214.711
42.78000 210.216
42.79000 206.282
42.80000 205.231
42.81000 204.588
42.82000 204.783
42.83000 207.852
42.84000 211.161
42.85000 213.507
42.86000 205.749
42.87000 199.532
42.88000 197.114
42.89000 200.754
42.90000 204.473
42.91000 204.370
42.92000 200.229
42.93000 196.108
42.94000 196.037
42.95000 198.737
42.96000 201.375
42.97000 202.108
42.98000 201.947
42.99000 202.139
43.00000 207.275
43.01000 213.999
43.02000 220.094
43.03000 214.610
43.04000 207.568
43.05000 200.839
43.06000 195.691
43.07000 190.762
43.08000 188.285
43.09000 194.086
43.10000 200.563
43.11000 205.134
43.12000 206.180
43.13000 206.868
43.14000 207.736
43.15000 208.889
43.16000 210.045
43.17000 210.516
43.18000 210.275
43.19000 210.036
43.20000 207.259
43.21000 202.809
43.22000 198.451
43.23000 196.802
43.24000 196.407
43.25000 196.084
43.26000 196.737
43.27000 197.699
43.28000 198.569
43.29000 202.197
43.30000 205.906
43.31000 208.192
43.32000 203.397
43.33000 197.636
43.34000 193.747
43.35000 196.089
43.36000 198.929
43.37000 200.923
43.38000 193.285
43.39000 187.219
43.40000 185.009
43.41000 188.765
43.42000 192.588
43.43000 195.881
43.44000 198.632
43.45000 201.369
43.46000 201.167
43.47000 199.022
43.48000 196.949
43.49000 196.915
43.50000 197.810
43.51000 198.667
43.52000 199.014
43.53000 199.201
43.54000 199.371
43.55000 203.294
43.56000 207.432
43.57000 210.719
43.58000 209.845
43.59000 208.413
43.60000 206.143
43.61000 201.124
43.62000 195.891
43.63000 192.232
43.64000 197.603
43.65000 201.916
43.66000 202.824
43.67000 198.541
43.68000 194.204
43.69000 193.218
43.70000 195.599
43.71000 197.966
43.72000 202.142
43.73000 207.441
43.74000 212.530
43.75000 211.929
43.76000 208.769
43.77000 205.828
43.78000 205.746
43.79000 206.542
43.80000 207.259
43.81000 207.888
43.82000 208.423
43.83000 208.546
43.84000 206.683
43.85000 204.559
43.86000 201.955
43.87000 197.800
43.88000 193.526
43.89000 190.552
43.90000 191.802
43.91000 192.859
43.92000 195.290
43.93000 199.784
43.94000 204.298
43.95000 205.350
43.96000 202.981
43.97000 200.629
43.98000 196.478
43.99000 191.235
44.00000 186.202
44.01000 186.719
44.02000 189.697
44.03000 192.732
44.04000 196.494
44.05000 200.476
44.06000 204.056
44.07000 205.172
44.08000 205.713
44.09000 207.150
44.10000 212.837
44.11000 219.073
44.12000 222.153
44.13000 215.187
44.14000 207.475
44.15000 202.134
44.16000 190.859
44.17000 182.220
44.18000 179.937
44.19000 187.053
44.20000 194.255
44.21000 194.931
44.22000 189.273
44.23000 183.654
44.24000 187.682
44.25000 197.736
44.26000 207.449
44.27000 208.432
44.28000 205.602
44.29000 203.155
44.30000 205.457
44.31000 209.177
44.32000 212.513
44.33000 212.345
44.34000 211.587
44.35000 211.352
44.36000 213.559
44.37000 216.077
44.38000 217.153
44.39000 213.708
44.40000 209.936
44.41000 207.336
44.42000 203.309
44.43000 200.249
44.44000 198.214
44.45000 197.673
44.46000 197.145
44.47000 198.549
44.48000 201.798
44.49000 205.022
44.50000 208.870
44.51000 213.041
44.52000 216.935
44.53000 213.998
44.54000 208.119
44.55000 203.018
44.56000 207.333
44.57000 214.416
44.58000 220.757
44.59000 219.396
44.60000 216.889
44.61000 214.835
44.62000 214.865
44.63000 215.155
44.64000 216.564
44.65000 221.434
44.66000 226.549
44.67000 230.057
44.68000 226.341
44.69000 223.382
44.70000 225.067
44.71000 233.412
44.72000 241.809
44.73000 248.709
44.74000 254.204
44.75000 259.653
44.76000 261.241
44.77000 260.439
44.78000 259.743
44.79000 261.592
44.80000 264.521
44.81000 267.494
44.82000 270.994
44.83000 274.647
44.84000 277.909
44.85000 284.892
44.86000 291.600
44.87000 298.242
44.88000 304.588
44.89000 310.898
44.90000 315.439
44.91000 314.594
44.92000 313.376
44.93000 312.545
44.94000 316.717
44.95000 319.952
44.96000 324.997
44.97000 332.595
44.98000 340.213
44.99000 351.645
45.00000 366.600
45.01000 381.424
45.02000 384.821
45.03000 381.278
45.04000 377.963
45.05000 379.934
45.06000 384.118
45.07000 388.015
45.08000 388.595
45.09000 388.228
45.10000 387.902
45.11000 394.180
45.12000 400.730
45.13000 405.078
45.14000 399.625
45.15000 392.999
45.16000 385.912
45.17000 377.442
45.18000 368.878
45.19000 363.064
45.20000 367.547
45.21000 371.123
45.22000 368.627
45.23000 357.686
45.24000 346.691
45.25000 337.750
45.26000 330.673
45.27000 323.663
45.28000 319.108
45.29000 316.100
45.30000 313.064
45.31000 309.417
45.32000 305.518
45.33000 301.692
45.34000 298.688
45.35000 295.917
45.36000 293.452
45.37000 293.706
45.38000 294.367
45.39000 294.278
45.40000 290.904
45.41000 287.143
45.42000 284.183
45.43000 283.591
45.44000 283.154
45.45000 282.859
45.46000 279.808
45.47000 277.477
45.48000 274.246
45.49000 269.784
45.50000 265.314
45.51000 260.410
45.52000 255.117
45.53000 249.876
45.54000 246.226
45.55000 243.579
45.56000 241.019
45.57000 240.335
45.58000 240.414
45.59000 240.285
45.60000 237.860
45.61000 234.798
45.62000 232.082
45.63000 230.351
45.64000 229.009
45.65000 227.767
45.66000 226.959
45.67000 226.201
45.68000 224.751
45.69000 221.283
45.70000 217.685
45.71000 215.267
45.72000 215.430
45.73000 215.605
45.74000 216.835
45.75000 219.489
45.76000 222.146
45.77000 220.292
45.78000 214.472
45.79000 208.713
45.80000 206.014
45.81000 205.132
45.82000 204.395
45.83000 206.745
45.84000 210.332
45.85000 212.913
45.86000 204.605
45.87000 193.326
45.88000 183.341
45.89000 187.676
45.90000 193.663
45.91000 198.265
45.92000 196.977
45.93000 195.025
45.94000 192.850
45.95000 190.033
45.96000 187.176
45.97000 185.266
45.98000 180.961
45.99000 177.722
46.00000 179.110
46.01000 186.641
46.02000 194.197
46.03000 198.139
46.04000 198.954
46.05000 199.760
46.06000 196.011
46.07000 189.777
46.08000 183.888
46.09000 185.061
46.10000 189.022
46.11000 192.553
46.12000 191.515
46.13000 189.250
46.14000 187.250
46.15000 183.139
46.16000 179.266
46.17000 176.999
46.18000 181.447
46.19000 186.638
46.20000 189.530
46.21000 185.908
46.22000 181.890
46.23000 179.218
46.24000 173.154
46.25000 168.605
46.26000 168.761
46.27000 175.069
46.28000 181.399
46.29000 184.483
46.30000 184.805
46.31000 185.122
46.32000 181.970
46.33000 176.968
46.34000 172.253
46.35000 173.262
46.36000 176.499
46.37000 179.419
46.38000 179.056
46.39000 177.823
46.40000 176.736
46.41000 177.178
46.42000 177.789
46.43000 178.262
46.44000 178.165
46.45000 178.006
46.46000 177.603
46.47000 176.519
46.48000 175.395
46.49000 174.651
46.50000 183.020
46.51000 189.361
46.52000 191.242
46.53000 187.382
46.54000 183.504
46.55000 181.580
46.56000 181.294
46.57000 181.011
46.58000 180.078
46.59000 178.812
46.60000 177.508
46.61000 175.460
46.62000 173.127
46.63000 170.979
46.64000 170.715
46.65000 170.943
46.66000 171.142
46.67000 173.250
46.68000 175.345
46.69000 176.186
46.70000 171.935
46.71000 167.142
46.72000 165.176
46.73000 170.986
46.74000 177.244
46.75000 181.363
46.76000 176.595
46.77000 172.930
46.78000 169.183
46.79000 165.332
46.80000 161.493
46.81000 163.255
46.82000 169.634
46.83000 175.930
46.84000 177.852
46.85000 177.367
46.86000 176.955
46.87000 177.901
46.88000 179.360
46.89000 180.773
46.90000 181.739
46.91000 182.589
46.92000 183.334
46.93000 181.827
46.94000 180.207
46.95000 178.090
46.96000 173.988
46.97000 169.679
46.98000 166.303
46.99000 165.452
47.00000 164.743
47.01000 164.279
47.02000 169.483
47.03000 173.401
47.04000 175.232
47.05000 174.462
47.06000 173.685
47.07000 173.049
47.08000 172.527
47.09000 172.012
47.10000 171.580
47.11000 171.205
47.12000 170.690
47.13000 167.619
47.14000 163.596
47.15000 160.215
47.16000 163.103
47.17000 167.577
47.18000 171.490
47.19000 171.698
47.20000 171.348
47.21000 171.154
47.22000 171.574
47.23000 172.056
47.24000 172.169
47.25000 171.293
47.26000 170.363
47.27000 169.758
47.28000 178.041
47.29000 184.254
47.30000 183.977
47.31000 175.735
47.32000 167.491
47.33000 165.035
47.34000 167.201
47.35000 169.335
47.36000 171.268
47.37000 173.039
47.38000 174.667
47.39000 173.765
47.40000 171.934
47.41000 170.217
47.42000 169.597
47.43000 169.251
47.44000 168.949
47.45000 168.374
47.46000 167.844
47.47000 167.843
47.48000 169.893
47.49000 172.148
47.50000 173.579
47.51000 172.837
47.52000 171.979
47.53000 171.424
47.54000 173.352
47.55000 174.799
47.56000 174.862
47.57000 173.253
47.58000 171.630
47.59000 166.986
47.60000 159.968
47.61000 153.056
47.62000 157.934
47.63000 168.717
47.64000 178.561
47.65000 172.235
47.66000 160.054
47.67000 149.338
47.68000 152.330
47.69000 158.687
47.70000 164.220
47.71000 167.636
47.72000 170.263
47.73000 172.011
47.74000 170.406
47.75000 168.473
47.76000 167.385
47.77000 168.492
47.78000 169.711
47.79000 170.496
47.80000 166.878
47.81000 164.174
47.82000 163.601
47.83000 165.564
47.84000 167.528
47.85000 168.841
47.86000 169.650
47.87000 170.446
47.88000 168.155
47.89000 164.377
47.90000 160.817
47.91000 160.916
47.92000 162.320
47.93000 163.589
47.94000 163.628
47.95000 163.368
47.96000 163.143
47.97000 163.864
47.98000 164.607
47.99000 164.817
48.00000 163.025
48.01000 161.042
48.02000 160.250
48.03000 162.507
48.04000 164.916
48.05000 166.459
48.06000 169.358
48.07000 171.488
48.08000 173.494
48.09000 175.354
48.10000 177.207
48.11000 177.340
48.12000 176.164
48.13000 175.008
48.14000 173.471
48.15000 171.795
48.16000 170.310
48.17000 171.945
48.18000 174.678
48.19000 176.770
48.20000 173.101
48.21000 168.060
48.22000 163.694
48.23000 162.146
48.24000 161.202
48.25000 159.877
48.26000 157.143
48.27000 154.276
48.28000 152.829
48.29000 154.961
48.30000 157.268
48.31000 158.737
48.32000 156.864
48.33000 155.460
48.34000 156.824
48.35000 161.374
48.36000 165.901
48.37000 165.149
48.38000 160.437
48.39000 155.807
48.40000 158.087
48.41000 163.671
48.42000 168.898
48.43000 168.439
48.44000 166.010
48.45000 163.746
48.46000 162.927
48.47000 162.447
48.48000 162.033
48.49000 160.462
48.50000 158.978
48.51000 156.746
48.52000 151.780
48.53000 146.564
48.54000 144.117
48.55000 148.555
48.56000 153.316
48.57000 156.331
48.58000 163.260
48.59000 168.332
48.60000 170.848
48.61000 170.471
48.62000 170.082
48.63000 168.179
48.64000 165.160
48.65000 162.196
48.66000 160.447
48.67000 159.345
48.68000 158.202
48.69000 156.438
48.70000 154.462
48.71000 153.350
48.72000 159.707
48.73000 167.789
48.74000 174.752
48.75000 171.831
48.76000 168.100
48.77000 165.437
48.78000 166.613
48.79000 168.134
48.80000 167.721
48.81000 162.570
48.82000 157.202
48.83000 153.823
48.84000 158.406
48.85000 161.812
48.86000 162.804
48.87000 161.108
48.88000 159.419
48.89000 159.259
48.90000 160.211
48.91000 161.145
48.92000 159.310
48.93000 156.230
48.94000 153.187
48.95000 150.704
48.96000 148.410
48.97000 146.847
48.98000 151.480
48.99000 157.522
49.00000 162.713
49.01000 158.804
49.02000 154.363
49.03000 151.150
49.04000 152.284
49.05000 153.801
49.06000 155.195
49.07000 156.296
49.08000 157.383
49.09000 158.064
49.10000 158.475
49.11000 158.769
49.12000 158.865
49.13000 158.745
49.14000 158.607
49.15000 155.933
49.16000 151.443
49.17000 147.043
49.18000 152.184
49.19000 161.583
49.20000 170.342
49.21000 169.668
49.22000 165.863
49.23000 162.567
49.24000 163.496
49.25000 165.371
49.26000 166.979
49.27000 162.089
49.28000 157.166
49.29000 154.304
49.30000 158.632
49.31000 163.577
49.32000 167.322
49.33000 168.208
49.34000 168.972
49.35000 169.447
49.36000 159.857
49.37000 152.849
49.38000 149.887
49.39000 151.289
49.40000 152.690
49.41000 153.893
49.42000 154.957
49.43000 155.998
49.44000 156.791
49.45000 157.439
49.46000 157.932
49.47000 156.201
49.48000 153.742
49.49000 152.036
49.50000 156.468
49.51000 162.252
49.52000 167.196
49.53000 161.564
49.54000 155.552
49.55000 151.198
49.56000 152.545
49.57000 154.371
49.58000 155.775
49.59000 156.188
49.60000 156.560
49.61000 156.790
49.62000 152.398
49.63000 149.199
49.64000 148.731
49.65000 151.158
49.66000 153.592
49.67000 156.943
49.68000 160.929
49.69000 164.829
49.70000 164.268
49.71000 161.715
49.72000 159.119
49.73000 155.946
49.74000 152.586
49.75000 149.682
49.76000 150.435
49.77000 151.981
49.78000 153.298
49.79000 156.247
49.80000 158.919
49.81000 160.646
49.82000 159.173
49.83000 157.436
49.84000 154.386
49.85000 148.295
49.86000 142.083
49.87000 138.264
49.88000 154.908
49.89000 167.021
49.90000 170.670
49.91000 165.494
49.92000 160.327
49.93000 156.317
49.94000 153.099
49.95000 149.954
49.96000 149.726
49.97000 150.807
49.98000 151.904
49.99000 153.239
50.00000 154.650
50.01000 156.741
50.02000 164.180
50.03000 172.759
50.04000 180.054
50.05000 168.548
50.06000 156.724
50.07000 149.658
50.08000 158.474
50.09000 168.564
50.10000 174.680
50.11000 171.738
50.12000 168.443
50.13000 166.430
50.14000 162.231
50.15000 159.210
50.16000 159.213
50.17000 162.318
50.18000 165.381
50.19000 163.992
50.20000 159.604
50.21000 155.320
50.22000 155.880
50.23000 158.538
50.24000 161.396
50.25000 166.922
50.26000 173.284
50.27000 178.716
50.28000 176.981
50.29000 173.740
50.30000 170.993
50.31000 167.275
50.32000 164.050
50.33000 162.271
50.34000 165.251
50.35000 168.604
50.36000 170.990
50.37000 171.203
50.38000 171.335
50.39000 171.415
50.40000 174.695
50.41000 177.060
50.42000 179.570
50.43000 182.225
50.44000 184.837
50.45000 183.151
50.46000 178.611
50.47000 174.183
50.48000 178.715
50.49000 186.908
50.50000 194.853
50.51000 199.556
50.52000 203.260
50.53000 206.554
50.54000 206.745
50.55000 206.294
50.56000 205.913
50.57000 213.986
50.58000 221.674
50.59000 227.653
50.60000 228.092
50.61000 228.106
50.62000 228.020
50.63000 227.710
50.64000 227.392
50.65000 227.200
50.66000 225.069
50.67000 223.538
50.68000 224.106
50.69000 226.754
50.70000 229.412
50.71000 233.051
50.72000 237.331
50.73000 241.502
50.74000 242.044
50.75000 241.021
50.76000 239.923
50.77000 237.867
50.78000 235.520
50.79000 233.119
50.80000 230.320
50.81000 227.440
50.82000 225.012
50.83000 229.076
50.84000 233.172
50.85000 233.329
50.86000 220.904
50.87000 207.538
50.88000 199.667
50.89000 203.790
50.90000 208.333
50.91000 211.056
50.92000 201.225
50.93000 194.160
50.94000 193.004
50.95000 197.608
50.96000 202.138
50.97000 200.316
50.98000 194.405
50.99000 188.650
51.00000 188.060
51.01000 189.655
51.02000 190.824
51.03000 186.683
51.04000 180.952
51.05000 175.861
51.06000 175.429
51.07000 175.931
51.08000 176.353
51.09000 170.605
51.10000 165.161
51.11000 160.490
51.12000 158.252
51.13000 156.192
51.14000 157.415
51.15000 165.700
51.16000 174.224
51.17000 179.302
51.18000 175.474
51.19000 172.707
51.20000 171.034
51.21000 170.409
51.22000 169.781
51.23000 168.963
51.24000 168.025
51.25000 167.112
51.26000 167.419
51.27000 168.213
51.28000 168.595
51.29000 163.972
51.30000 157.873
51.31000 152.413
51.32000 151.532
51.33000 151.553
51.34000 151.571
51.35000 155.041
51.36000 158.286
51.37000 159.611
51.38000 154.981
51.39000 149.928
51.40000 147.202
51.41000 149.413
51.42000 151.785
51.43000 153.189
51.44000 157.574
51.45000 160.689
51.46000 159.962
51.47000 155.612
51.48000 151.302
51.49000 149.986
51.50000 150.540
51.51000 151.078
51.52000 149.141
51.53000 146.298
51.54000 143.833
51.55000 145.867
51.56000 149.209
51.57000 152.138
51.58000 152.160
51.59000 151.619
51.60000 151.166
51.61000 150.623
51.62000 150.163
51.63000 149.032
51.64000 145.851
51.65000 142.528
51.66000 142.465
51.67000 149.217
51.68000 156.183
51.69000 160.279
51.70000 152.666
51.71000 147.239
51.72000 146.526
51.73000 150.183
51.74000 153.803
51.75000 154.790
51.76000 154.158
51.77000 153.544
51.78000 155.226
51.79000 157.735
51.80000 159.837
51.81000 157.194
51.82000 153.192
51.83000 149.533
51.84000 148.237
51.85000 147.391
51.86000 146.687
51.87000 145.631
51.88000 144.720
51.89000 145.285
51.90000 150.289
51.91000 155.594
51.92000 158.941
51.93000 158.255
51.94000 157.446
51.95000 156.974
51.96000 159.384
51.97000 161.092
51.98000 159.440
51.99000 154.726
52.00000 150.061
52.01000 148.755
52.02000 149.485
52.03000 150.193
52.04000 148.262
52.05000 145.398
52.06000 142.614
52.07000 140.744
52.08000 139.132
52.09000 137.726
52.10000 137.719
52.11000 137.974
52.12000 138.187
52.13000 138.329
52.14000 138.440
52.15000 139.620
52.16000 143.973
52.17000 148.535
52.18000 150.678
52.19000 147.909
52.20000 144.997
52.21000 143.308
52.22000 151.849
52.23000 157.881
52.24000 156.797
52.25000 149.330
52.26000 141.952
52.27000 140.293
52.28000 142.052
52.29000 143.755
52.30000 145.295
52.31000 146.689
52.32000 147.962
52.33000 147.899
52.34000 147.463
52.35000 147.068
52.36000 146.937
52.37000 146.854
52.38000 146.786
52.39000 146.454
52.40000 146.155
52.41000 145.600
52.42000 144.294
52.43000 142.940
52.44000 141.663
52.45000 140.543
52.46000 139.427
52.47000 138.784
52.48000 145.828
52.49000 150.786
52.50000 152.303
52.51000 150.785
52.52000 149.251
52.53000 146.776
52.54000 143.745
52.55000 140.814
52.56000 140.668
52.57000 141.588
52.58000 142.278
52.59000 140.451
52.60000 137.937
52.61000 135.840
52.62000 136.485
52.63000 137.628
52.64000 138.572
52.65000 135.782
52.66000 133.134
52.67000 133.109
52.68000 140.644
52.69000 148.654
52.70000 152.982
52.71000 150.049
52.72000 146.921
52.73000 145.130
52.74000 142.789
52.75000 141.157
52.76000 144.343
52.77000 151.712
52.78000 158.913
52.79000 156.536
52.80000 148.605
52.81000 140.941
52.82000 142.149
52.83000 146.602
52.84000 150.431
52.85000 147.606
52.86000 142.986
52.87000 139.046
52.88000 139.480
52.89000 140.694
52.90000 141.694
52.91000 144.013
52.92000 146.041
52.93000 146.749
52.94000 143.702
52.95000 140.425
52.96000 136.976
52.97000 133.192
52.98000 129.398
52.99000 127.242
53.00000 128.955
53.01000 130.160
53.02000 130.959
53.03000 131.412
53.04000 131.899
53.05000 134.236
53.06000 137.630
53.07000 140.907
53.08000 141.447
53.09000 140.950
53.10000 140.454
53.11000 139.963
53.12000 139.474
53.13000 139.159
53.14000 139.951
53.15000 140.937
53.16000 141.746
53.17000 141.996
53.18000 142.150
53.19000 143.548
53.20000 148.426
53.21000 153.512
53.22000 155.930
53.23000 153.237
53.24000 150.418
53.25000 148.827
53.26000 149.627
53.27000 150.192
53.28000 151.858
53.29000 154.449
53.30000 156.954
53.31000 154.982
53.32000 150.488
53.33000 146.156
53.34000 146.820
53.35000 149.252
53.36000 151.505
53.37000 151.928
53.38000 151.872
53.39000 152.049
53.40000 153.674
53.41000 155.550
53.42000 157.084
53.43000 155.735
53.44000 154.377
53.45000 154.469
53.46000 158.561
53.47000 162.884
53.48000 165.251
53.49000 163.924
53.50000 162.509
53.51000 161.716
53.52000 159.117
53.53000 157.309
53.54000 154.756
53.55000 151.586
53.56000 148.415
53.57000 145.161
53.58000 141.860
53.59000 138.682
53.60000 138.694
53.61000 139.843
53.62000 140.950
53.63000 141.648
53.64000 142.240
53.65000 142.681
53.66000 142.202
53.67000 141.567
53.68000 141.048
53.69000 139.716
53.70000 138.556
53.71000 138.934
53.72000 143.495
53.73000 148.292
53.74000 151.462
53.75000 151.604
53.76000 151.679
53.77000 151.720
53.78000 149.738
53.79000 148.359
53.80000 145.117
53.81000 140.359
53.82000 135.702
53.83000 135.757
53.84000 138.389
53.85000 140.921
53.86000 142.613
53.87000 143.905
53.88000 144.802
53.89000 141.829
53.90000 137.874
53.91000 134.626
53.92000 135.622
53.93000 137.327
53.94000 138.714
53.95000 140.325
53.96000 141.660
53.97000 142.448
53.98000 141.774
53.99000 141.020
54.00000 141.016
54.01000 142.388
54.02000 143.790
54.03000 144.565
54.04000 141.404
54.05000 139.219
54.06000 138.003
54.07000 137.562
54.08000 137.151
54.09000 138.085
54.10000 139.743
54.11000 141.337
54.12000 140.962
54.13000 139.933
54.14000 139.173
54.15000 141.002
54.16000 143.479
54.17000 145.028
54.18000 141.095
54.19000 136.262
54.20000 132.345
54.21000 135.996
54.22000 139.589
54.23000 141.723
54.24000 140.001
54.25000 138.074
54.26000 135.930
54.27000 133.395
54.28000 130.851
54.29000 129.457
54.30000 125.641
54.31000 123.034
54.32000 126.981
54.33000 136.096
54.34000 145.059
54.35000 147.549
54.36000 146.601
54.37000 145.692
54.38000 144.126
54.39000 142.440
54.40000 140.922
54.41000 140.980
54.42000 141.426
54.43000 141.603
54.44000 140.218
54.45000 138.580
54.46000 137.257
54.47000 145.632
54.48000 153.218
54.49000 157.196
54.50000 151.780
54.51000 145.878
54.52000 141.921
54.53000 141.430
54.54000 141.006
54.55000 140.776
54.56000 138.772
54.57000 137.402
54.58000 138.105
54.59000 140.417
54.60000 142.714
54.61000 144.443
54.62000 145.873
54.63000 147.244
54.64000 148.159
54.65000 148.860
54.66000 149.113
54.67000 145.235
54.68000 140.355
54.69000 136.104
54.70000 135.443
54.71000 135.350
54.72000 135.275
54.73000 138.645
54.74000 141.649
54.75000 143.067
54.76000 140.415
54.77000 137.558
54.78000 138.337
54.79000 145.494
54.80000 152.769
54.81000 156.701
54.82000 152.368
54.83000 149.395
54.84000 146.854
54.85000 144.643
54.86000 142.490
54.87000 142.654
54.88000 144.014
54.89000 145.315
54.90000 145.814
54.91000 146.016
54.92000 146.146
54.93000 145.622
54.94000 144.942
54.95000 144.201
54.96000 143.112
54.97000 141.968
54.98000 141.051
54.99000 143.449
55.00000 145.645
55.01000 147.520
55.02000 148.582
55.03000 149.604
55.04000 149.702
55.05000 148.202
55.06000 146.673
55.07000 145.854
55.08000 144.805
55.09000 144.083
55.10000 142.020
55.11000 138.949
55.12000 135.967
55.13000 136.353
55.14000 138.451
55.15000 140.456
55.16000 146.352
55.17000 153.095
55.18000 158.964
55.19000 157.088
55.20000 153.390
55.21000 150.558
55.22000 152.501
55.23000 155.176
55.24000 157.316
55.25000 155.392
55.26000 153.534
55.27000 152.719
55.28000 154.506
55.29000 156.417
55.30000 157.878
55.31000 158.573
55.32000 159.255
55.33000 159.618
55.34000 160.544
55.35000 161.176
55.36000 162.255
55.37000 163.663
55.38000 165.097
55.39000 167.480
55.40000 170.339
55.41000 173.067
55.42000 175.397
55.43000 177.433
55.44000 178.880
55.45000 175.202
55.46000 170.338
55.47000 167.053
55.48000 172.351
55.49000 178.940
55.50000 184.193
55.51000 182.412
55.52000 180.464
55.53000 182.023
55.54000 192.208
55.55000 202.790
55.56000 209.066
55.57000 208.117
55.58000 207.055
55.59000 206.494
55.60000 212.311
55.61000 216.290
55.62000 224.365
55.63000 235.431
55.64000 246.498
55.65000 257.624
55.66000 268.781
55.67000 279.414
55.68000 281.802
55.69000 281.436
55.70000 282.888
55.71000 299.824
55.72000 320.291
55.73000 339.042
55.74000 348.627
55.75000 356.857
55.76000 363.396
55.77000 381.290
55.78000 396.508
55.79000 410.337
55.80000 420.803
55.81000 431.119
55.82000 445.427
55.83000 466.333
55.84000 487.337
55.85000 498.342
55.86000 494.076
55.87000 491.314
55.88000 508.655
55.89000 540.439
55.90000 571.592
55.91000 581.740
55.92000 581.666
55.93000 581.596
55.94000 584.985
55.95000 589.188
55.96000 592.502
55.97000 588.392
55.98000 582.616
55.99000 576.826
56.00000 570.963
56.01000 565.089
56.02000 560.439
56.03000 555.607
56.04000 551.711
56.05000 544.778
56.06000 530.589
56.07000 516.087
56.08000 502.691
56.09000 491.096
56.10000 479.527
56.11000 473.513
56.12000 456.482
56.13000 445.006
56.14000 437.800
56.15000 433.614
56.16000 429.038
56.17000 411.990
56.18000 388.961
56.19000 367.072
56.20000 357.391
56.21000 352.144
56.22000 345.792
56.23000 330.382
56.24000 312.971
56.25000 297.758
56.26000 293.915
56.27000 291.694
56.28000 289.942
56.29000 275.168
56.30000 262.435
56.31000 251.358
56.32000 244.181
56.33000 237.168
56.34000 231.983
56.35000 229.733
56.36000 227.522
56.37000 226.383
56.38000 220.945
56.39000 217.278
56.40000 213.175
56.41000 208.768
56.42000 204.363
56.43000 200.039
56.44000 195.753
56.45000 191.686
56.46000 188.934
56.47000 186.787
56.48000 184.753
56.49000 183.616
56.50000 182.674
56.51000 181.569
56.52000 179.634
56.53000 177.583
56.54000 175.971
56.55000 170.874
56.56000 166.563
56.57000 163.620
56.58000 163.854
56.59000 164.217
56.60000 163.538
56.61000 161.213
56.62000 158.867
56.63000 157.667
56.64000 159.691
56.65000 161.042
56.66000 161.414
56.67000 161.115
56.68000 160.739
56.69000 158.099
56.70000 154.404
56.71000 150.902
56.72000 148.524
56.73000 146.664
56.74000 144.840
56.75000 143.313
56.76000 141.850
56.77000 140.542
56.78000 140.015
56.79000 139.596
56.80000 139.267
56.81000 136.864
56.82000 134.811
56.83000 134.491
56.84000 138.136
56.85000 141.936
56.86000 143.324
56.87000 140.953
56.88000 138.539
56.89000 137.315
56.90000 143.467
56.91000 147.536
56.92000 145.962
56.93000 140.574
56.94000 135.294
56.95000 133.133
56.96000 132.404
56.97000 131.715
56.98000 130.737
56.99000 129.754
57.00000 129.096
57.01000 130.957
57.02000 133.348
57.03000 135.053
57.04000 133.370
57.05000 131.229
57.06000 129.558
57.07000 130.724
57.08000 131.831
57.09000 132.657
57.10000 132.847
57.11000 133.014
57.12000 134.521
57.13000 138.086
57.14000 141.673
57.15000 143.477
57.16000 135.758
57.17000 130.655
57.18000 130.868
57.19000 134.619
57.20000 138.310
57.21000 140.339
57.22000 141.615
57.23000 142.822
57.24000 140.788
57.25000 138.001
57.26000 135.305
57.27000 133.301
57.28000 131.440
57.29000 129.795
57.30000 129.192
57.31000 128.728
57.32000 128.367
57.33000 124.863
57.34000 121.881
57.35000 119.748
57.36000 119.501
57.37000 119.323
57.38000 121.932
57.39000 128.756
57.40000 135.622
57.41000 136.343
57.42000 130.953
57.43000 125.596
57.44000 123.320
57.45000 123.064
57.46000 122.966
57.47000 127.077
57.48000 133.068
57.49000 138.720
57.50000 139.302
57.51000 138.420
57.52000 137.549
57.53000 136.758
57.54000 135.984
57.55000 135.396
57.56000 135.697
57.57000 136.114
57.58000 136.438
57.59000 132.030
57.60000 128.246
57.61000 126.078
57.62000 127.450
57.63000 128.947
57.64000 128.808
57.65000 126.231
57.66000 123.632
57.67000 123.027
57.68000 124.371
57.69000 125.698
57.70000 125.445
57.71000 124.173
57.72000 122.991
57.73000 124.155
57.74000 126.351
57.75000 128.420
57.76000 128.526
57.77000 128.083
57.78000 127.704
57.79000 127.792
57.80000 127.974
57.81000 127.976
57.82000 127.135
57.83000 126.186
57.84000 125.453
57.85000 125.944
57.86000 126.405
57.87000 126.915
57.88000 127.530
57.89000 128.149
57.90000 128.911
57.91000 129.882
57.92000 130.855
57.93000 131.559
57.94000 132.005
57.95000 132.442
57.96000 132.175
57.97000 131.459
57.98000 130.628
57.99000 126.934
58.00000 121.998
58.01000 117.355
58.02000 116.835
58.03000 117.475
58.04000 118.267
58.05000 120.155
58.06000 122.260
58.07000 123.912
58.08000 123.471
58.09000 122.768
58.10000 122.227
58.11000 119.288
58.12000 116.827
58.13000 115.358
58.14000 115.996
58.15000 116.703
58.16000 119.097
58.17000 123.924
58.18000 128.771
58.19000 131.038
58.20000 130.864
58.21000 130.677
58.22000 129.538
58.23000 127.802
58.24000 126.066
58.25000 124.346
58.26000 122.632
58.27000 121.023
58.28000 120.360
58.29000 120.008
58.30000 120.097
58.31000 123.295
58.32000 127.097
58.33000 130.543
58.34000 132.364
58.35000 133.985
58.36000 135.227
58.37000 130.076
58.38000 125.655
58.39000 124.077
58.40000 128.462
58.41000 133.035
58.42000 135.680
58.43000 135.584
58.44000 135.468
58.45000 133.537
58.46000 129.919
58.47000 126.322
58.48000 124.144
58.49000 122.842
58.50000 121.569
58.51000 120.937
58.52000 120.575
58.53000 120.236
58.54000 122.764
58.55000 125.817
58.56000 128.613
58.57000 129.625
58.58000 130.295
58.59000 130.634
58.60000 129.489
58.61000 128.165
58.62000 127.154
58.63000 128.207
58.64000 129.147
58.65000 129.579
58.66000 128.962
58.67000 128.312
58.68000 126.952
58.69000 124.596
58.70000 122.235
58.71000 123.101
58.72000 126.918
58.73000 130.667
58.74000 129.782
58.75000 126.077
58.76000 122.505
58.77000 121.913
58.78000 122.559
58.79000 123.164
58.80000 120.530
58.81000 117.301
58.82000 114.786
58.83000 117.127
58.84000 120.383
58.85000 122.678
58.86000 120.737
58.87000 118.295
58.88000 116.438
58.89000 120.570
58.90000 124.133
58.91000 127.045
58.92000 128.630
58.93000 130.177
58.94000 129.616
58.95000 126.150
58.96000 122.667
58.97000 122.040
58.98000 123.980
58.99000 125.885
59.00000 125.450
59.01000 123.614
59.02000 121.942
59.03000 123.898
59.04000 127.339
59.05000 130.554
59.06000 130.941
59.07000 130.576
59.08000 130.099
59.09000 128.867
59.10000 127.495
59.11000 126.966
59.12000 130.097
59.13000 133.654
59.14000 136.348
59.15000 126.016
59.16000 117.242
59.17000 111.516
59.18000 111.909
59.19000 112.473
59.20000 113.936
59.21000 116.621
59.22000 119.310
59.23000 122.240
59.24000 125.377
59.25000 128.430
59.26000 126.412
59.27000 121.398
59.28000 116.635
59.29000 117.223
59.30000 119.968
59.31000 122.529
59.32000 122.028
59.33000 120.813
59.34000 119.481
59.35000 117.380
59.36000 115.139
59.37000 114.155
59.38000 118.545
59.39000 123.546
59.40000 127.320
59.41000 122.293
59.42000 117.919
59.43000 115.342
59.44000 116.319
59.45000 117.391
59.46000 116.864
59.47000 114.200
59.48000 111.527
59.49000 110.354
59.50000 110.488
59.51000 110.628
59.52000 111.098
59.53000 111.761
59.54000 112.418
59.55000 112.966
59.56000 113.469
59.57000 113.938
59.58000 118.447
59.59000 123.513
59.60000 127.372
59.61000 123.431
59.62000 118.093
59.63000 114.228
59.64000 116.575
59.65000 119.614
59.66000 121.899
59.67000 118.797
59.68000 116.113
59.69000 113.208
59.70000 109.876
59.71000 106.532
59.72000 107.043
59.73000 112.629
59.74000 118.234
59.75000 120.186
59.76000 119.008
59.77000 117.833
59.78000 116.827
59.79000 115.918
59.80000 115.052
59.81000 115.033
59.82000 115.347
59.83000 115.639
59.84000 115.942
59.85000 116.219
59.86000 116.531
59.87000 117.059
59.88000 117.627
59.89000 118.301
59.90000 119.423
59.91000 120.593
59.92000 121.469
59.93000 118.609
59.94000 116.203
59.95000 115.135
59.96000 116.637
59.97000 118.204
59.98000 118.126
59.99000 115.918
60.00000 113.704
60.01000 114.338
60.02000 117.368
60.03000 120.370
60.04000 121.919
60.05000 122.648
60.06000 123.145
60.07000 119.111
60.08000 113.327
60.09000 107.957
60.10000 111.380
60.11000 116.547
60.12000 120.819
60.13000 119.506
60.14000 117.225
60.15000 115.814
60.16000 117.955
60.17000 120.478
60.18000 122.359
60.19000 119.047
60.20000 116.233
60.21000 114.233
60.22000 113.775
60.23000 113.353
60.24000 113.806
60.25000 115.373
60.26000 116.942
60.27000 117.622
60.28000 117.562
60.29000 117.540
60.30000 119.358
60.31000 122.201
60.32000 124.839
60.33000 123.570
60.34000 120.814
60.35000 118.261
60.36000 119.765
60.37000 122.063
60.38000 123.724
60.39000 121.486
60.40000 118.582
60.41000 117.244
60.42000 122.203
60.43000 127.824
60.44000 131.997
60.45000 124.875
60.46000 118.843
60.47000 116.204
60.48000 119.900
60.49000 123.740
60.50000 124.750
60.51000 122.207
60.52000 119.657
60.53000 117.145
60.54000 114.672
60.55000 112.232
60.56000 111.353
60.57000 111.330
60.58000 111.516
60.59000 115.540
60.60000 121.005
60.61000 126.059
60.62000 125.466
60.63000 123.641
60.64000 121.779
60.65000 119.694
60.66000 117.571
60.67000 115.415
60.68000 113.127
60.69000 110.826
60.70000 109.124
60.71000 115.593
60.72000 120.959
60.73000 122.843
60.74000 118.320
60.75000 113.658
60.76000 111.881
60.77000 113.670
60.78000 115.465
60.79000 116.133
60.80000 115.897
60.81000 115.718
60.82000 118.171
60.83000 122.046
60.84000 125.526
60.85000 121.921
60.86000 115.698
60.87000 109.951
60.88000 115.121
60.89000 122.214
60.90000 128.937
60.91000 133.469
60.92000 137.639
60.93000 139.794
60.94000 134.084
60.95000 127.581
60.96000 122.792
60.97000 120.609
60.98000 119.027
60.99000 118.834
61.00000 121.159
61.01000 123.536
61.02000 125.245
61.03000 126.141
61.04000 127.033
61.05000 125.321
61.06000 121.567
61.07000 117.916
61.08000 118.776
61.09000 122.039
61.10000 125.200
61.11000 126.593
61.12000 127.341
61.13000 128.031
61.14000 126.033
61.15000 123.649
61.16000 122.044
61.17000 124.976
61.18000 128.643
61.19000 130.905
61.20000 127.766
61.21000 124.094
61.22000 121.402
61.23000 124.261
61.24000 126.693
61.25000 127.215
61.26000 124.325
61.27000 121.368
61.28000 121.101
61.29000 124.054
61.30000 127.008
61.31000 127.804
61.32000 126.922
61.33000 126.095
61.34000 127.464
61.35000 129.988
61.36000 132.378
61.37000 132.489
61.38000 131.782
61.39000 131.131
61.40000 130.026
61.41000 128.938
61.42000 128.005
61.43000 127.954
61.44000 128.043
61.45000 129.732
61.46000 137.478
61.47000 145.809
61.48000 151.893
61.49000 159.767
61.50000 165.907
61.51000 176.329
61.52000 194.286
61.53000 212.384
61.54000 229.517
61.55000 245.514
61.56000 261.470
61.57000 280.663
61.58000 302.207
61.59000 323.633
61.60000 340.366
61.61000 354.670
61.62000 368.882
61.63000 381.563
61.64000 393.701
61.65000 404.848
61.66000 409.305
61.67000 411.853
61.68000 414.403
61.69000 416.967
61.70000 419.533
61.71000 418.905
61.72000 406.364
61.73000 392.697
61.74000 382.760
61.75000 365.391
61.76000 351.747
61.77000 335.717
61.78000 315.549
61.79000 295.308
61.80000 276.399
61.81000 259.033
61.82000 241.717
61.83000 222.368
61.84000 201.626
61.85000 181.209
61.86000 173.134
61.87000 171.353
61.88000 169.379
61.89000 164.294
61.90000 158.125
61.91000 152.471
61.92000 149.752
61.93000 147.948
61.94000 146.309
61.95000 145.586
61.96000 145.004
61.97000 144.509
61.98000 144.333
61.99000 144.186
62.00000 144.080
62.01000 140.740
62.02000 138.058
62.03000 136.060
62.04000 135.231
62.05000 134.422
62.06000 133.210
62.07000 131.538
62.08000 129.871
62.09000 130.890
62.10000 133.883
62.11000 136.865
62.12000 139.468
62.13000 141.880
62.14000 144.047
62.15000 142.368
62.16000 139.368
62.17000 136.622
62.18000 138.110
62.19000 140.307
62.20000 142.477
62.21000 144.493
62.22000 146.487
62.23000 147.307
62.24000 143.877
62.25000 140.063
62.26000 137.313
62.27000 136.503
62.28000 135.950
62.29000 135.769
62.30000 136.214
62.31000 136.669
62.32000 136.206
62.33000 134.713
62.34000 133.224
62.35000 131.286
62.36000 129.037
62.37000 126.882
62.38000 127.988
62.39000 130.708
62.40000 133.539
62.41000 138.051
62.42000 143.133
62.43000 147.773
62.44000 144.497
62.45000 139.982
62.46000 136.011
62.47000 134.960
62.48000 134.342
62.49000 134.917
62.50000 139.745
62.51000 144.951
62.52000 148.685
62.53000 144.333
62.54000 140.728
62.55000 141.272
62.56000 148.700
62.57000 156.232
62.58000 154.269
62.59000 141.824
62.60000 129.420
62.61000 128.317
62.62000 135.296
62.63000 142.149
62.64000 144.770
62.65000 145.324
62.66000 145.615
62.67000 141.982
62.68000 137.039
62.69000 132.534
62.70000 131.509
62.71000 131.296
62.72000 130.806
62.73000 128.858
62.74000 126.698
62.75000 125.916
62.76000 129.977
62.77000 134.457
62.78000 137.658
62.79000 139.245
62.80000 140.403
62.81000 140.489
62.82000 138.823
62.83000 137.132
62.84000 136.309
62.85000 136.428
62.86000 136.546
62.87000 135.978
62.88000 134.932
62.89000 133.951
62.90000 135.057
62.91000 137.167
62.92000 139.077
62.93000 138.078
62.94000 136.121
62.95000 134.341
62.96000 135.669
62.97000 137.452
62.98000 139.888
62.99000 145.709
63.00000 152.015
63.01000 155.516
63.02000 149.312
63.03000 142.286
63.04000 137.289
63.05000 141.357
63.06000 144.745
63.07000 145.689
63.08000 142.699
63.09000 139.656
63.10000 138.806
63.11000 140.297
63.12000 141.782
63.13000 141.012
63.14000 138.691
63.15000 136.507
63.16000 138.555
63.17000 142.612
63.18000 146.320
63.19000 145.103
63.20000 142.289
63.21000 139.734
63.22000 140.480
63.23000 141.774
63.24000 143.117
63.25000 144.710
63.26000 146.339
63.27000 147.209
63.28000 145.496
63.29000 143.567
63.30000 142.203
63.31000 144.298
63.32000 145.997
63.33000 146.874
63.34000 146.445
63.35000 145.999
63.36000 145.647
63.37000 145.392
63.38000 145.138
63.39000 145.520
63.40000 146.330
63.41000 147.190
63.42000 149.535
63.43000 152.573
63.44000 155.173
63.45000 151.720
63.46000 146.331
63.47000 141.451
63.48000 145.124
63.49000 149.982
63.50000 154.639
63.51000 158.287
63.52000 161.795
63.53000 162.612
63.54000 154.389
63.55000 145.433
63.56000 139.123
63.57000 149.460
63.58000 157.795
63.59000 161.548
63.60000 158.140
63.61000 154.647
63.62000 152.218
63.63000 150.887
63.64000 149.563
63.65000 149.177
63.66000 149.424
63.67000 149.663
63.68000 149.652
63.69000 149.527
63.70000 149.270
63.71000 147.248
63.72000 144.669
63.73000 142.338
63.74000 147.557
63.75000 153.553
63.76000 157.854
63.77000 153.768
63.78000 148.545
63.79000 143.867
63.80000 140.996
63.81000 138.268
63.82000 136.355
63.83000 141.858
63.84000 146.237
63.85000 148.763
63.86000 148.437
63.87000 148.079
63.88000 149.479
63.89000 152.664
63.90000 155.830
63.91000 153.900
63.92000 148.638
63.93000 143.687
63.94000 147.419
63.95000 155.093
63.96000 162.122
63.97000 160.643
63.98000 156.524
63.99000 152.808
64.00000 148.344
64.01000 144.285
64.02000 141.556
64.03000 145.297
64.04000 149.898
64.05000 153.763
64.06000 155.229
64.07000 156.509
64.08000 157.403
64.09000 151.166
64.10000 146.258
64.11000 144.200
64.12000 146.463
64.13000 148.770
64.14000 150.282
64.15000 150.999
64.16000 151.711
64.17000 153.138
64.18000 155.008
64.19000 156.817
64.20000 156.953
64.21000 156.342
64.22000 155.963
64.23000 158.569
64.24000 162.088
64.25000 165.256
64.26000 164.535
64.27000 163.203
64.28000 162.503
64.29000 164.823
64.30000 167.537
64.31000 169.405
64.32000 168.552
64.33000 167.493
64.34000 166.758
64.35000 166.683
64.36000 166.644
64.37000 166.991
64.38000 167.916
64.39000 168.847
64.40000 170.334
64.41000 172.368
64.42000 174.389
64.43000 172.023
64.44000 166.895
64.45000 162.012
64.46000 163.504
64.47000 167.807
64.48000 171.722
64.49000 170.751
64.50000 168.307
64.51000 166.112
64.52000 167.616
64.53000 169.585
64.54000 171.511
64.55000 173.239
64.56000 174.941
64.57000 175.715
64.58000 173.549
64.59000 171.166
64.60000 169.519
64.61000 172.536
64.62000 174.925
64.63000 175.763
64.64000 174.318
64.65000 172.854
64.66000 172.758
64.67000 173.983
64.68000 175.200
64.69000 179.846
64.70000 186.569
64.71000 193.040
64.72000 193.159
64.73000 190.517
64.74000 187.976
64.75000 186.683
64.76000 185.761
64.77000 184.934
64.78000 187.609
64.79000 190.553
64.80000 193.049
64.81000 193.465
64.82000 193.620
64.83000 193.578
64.84000 192.920
64.85000 192.217
64.86000 191.734
64.87000 194.231
64.88000 196.180
64.89000 197.799
64.90000 198.943
64.91000 200.083
64.92000 201.824
64.93000 204.137
64.94000 206.431
64.95000 208.389
64.96000 210.105
64.97000 211.696
64.98000 210.249
64.99000 207.501
65.00000 205.327
65.01000 210.060
65.02000 216.812
65.03000 222.851
65.04000 218.266
65.05000 212.458
65.06000 208.874
65.07000 215.449
65.08000 223.278
65.09000 229.621
65.10000 231.391
65.11000 232.841
65.12000 233.833
65.13000 240.400
65.14000 245.450
65.15000 251.787
65.16000 259.957
65.17000 268.139
65.18000 270.189
65.19000 266.514
65.20000 262.869
65.21000 261.718
65.22000 262.105
65.23000 262.529
65.24000 263.825
65.25000 265.489
65.26000 267.544
65.27000 274.200
65.28000 282.182
65.29000 289.305
65.30000 300.536
65.31000 310.998
65.32000 321.459
65.33000 331.911
65.34000 342.362
65.35000 350.316
65.36000 350.701
65.37000 350.568
65.38000 350.478
65.39000 356.532
65.40000 361.197
65.41000 368.109
65.42000 378.179
65.43000 388.269
65.44000 395.601
65.45000 400.401
65.46000 405.158
65.47000 415.897
65.48000 430.009
65.49000 443.874
65.50000 452.084
65.51000 457.940
65.52000 464.740
65.53000 482.395
65.54000 503.131
65.55000 521.596
65.56000 538.321
65.57000 552.568
65.58000 566.827
65.59000 581.140
65.60000 595.459
65.61000 611.993
65.62000 635.139
65.63000 658.727
65.64000 674.715
65.65000 760.919
65.66000 826.738
65.67000 904.468
65.68000 998.677
65.69000 1093.017
65.70000 1227.377
65.71000 1397.883
65.72000 1566.776
65.73000 1743.906
65.74000 1922.274
65.75000 2100.007
65.76000 2263.699
65.77000 2421.628
65.78000 2574.875
65.79000 2675.529
65.80000 2761.471
65.81000 2837.829
65.82000 2915.778
65.83000 2983.642
65.84000 3042.804
65.85000 3064.034
65.86000 3080.843
65.87000 3085.469
65.88000 3054.232
65.89000 3020.658
65.90000 2998.017
65.91000 2900.278
65.92000 2825.976
65.93000 2710.131
65.94000 2537.691
65.95000 2364.923
65.96000 2188.417
65.97000 2008.590
65.98000 1830.570
65.99000 1649.930
66.00000 1471.652
66.01000 1295.172
66.02000 1157.317
66.03000 1035.084
66.04000 916.318
66.05000 835.662
66.06000 765.508
66.07000 703.319
66.08000 655.303
66.09000 615.975
66.10000 579.896
66.11000 557.758
66.12000 537.214
66.13000 517.223
66.14000 498.836
66.15000 480.550
66.16000 468.283
66.17000 472.074
66.18000 475.213
66.19000 478.966
66.20000 483.541
66.21000 488.125
66.22000 495.813
66.23000 506.216
66.24000 516.508
66.25000 540.550
66.26000 571.893
66.27000 603.430
66.28000 638.981
66.29000 676.133
66.30000 713.184
66.31000 749.146
66.32000 784.813
66.33000 816.359
66.34000 842.293
66.35000 863.833
66.36000 881.197
66.37000 880.910
66.38000 878.644
66.39000 877.162
66.40000 877.918
66.41000 878.812
66.42000 879.409
66.43000 865.102
66.44000 854.214
66.45000 843.956
66.46000 834.528
66.47000 825.102
66.48000 813.831
66.49000 800.973
66.50000 788.261
66.51000 759.246
66.52000 721.765
66.53000 684.275
66.54000 646.624
66.55000 608.909
66.56000 572.839
66.57000 554.091
66.58000 539.975
66.59000 527.520
66.60000 508.629
66.61000 491.351
66.62000 475.474
66.63000 465.425
66.64000 456.017
66.65000 447.723
66.66000 442.567
66.67000 437.600
66.68000 434.302
66.69000 432.347
66.70000 430.927
66.71000 432.041
66.72000 436.448
66.73000 440.866
66.74000 442.895
66.75000 442.902
66.76000 442.910
66.77000 440.348
66.78000 436.430
66.79000 433.044
66.80000 440.095
66.81000 451.188
66.82000 460.554
66.83000 452.124
66.84000 439.006
66.85000 427.458
66.86000 432.099
66.87000 438.520
66.88000 444.075
66.89000 446.081
66.90000 447.706
66.91000 449.742
66.92000 452.925
66.93000 456.174
66.94000 458.320
66.95000 456.546
66.96000 455.168
66.97000 454.465
66.98000 454.627
66.99000 454.799
67.00000 458.751
67.01000 465.851
67.02000 472.861
67.03000 474.855
67.04000 474.069
67.05000 473.366
67.06000 474.260
67.07000 475.763
67.08000 476.683
67.09000 471.725
67.10000 465.241
67.11000 459.547
67.12000 467.772
67.13000 476.887
67.14000 483.233
67.15000 478.400
67.16000 472.388
67.17000 466.932
67.18000 463.001
67.19000 459.156
67.20000 456.631
67.21000 472.230
67.22000 484.016
67.23000 492.641
67.24000 497.281
67.25000 501.891
67.26000 499.199
67.27000 490.522
67.28000 481.960
67.29000 481.751
67.30000 486.019
67.31000 490.186
67.32000 492.468
67.33000 494.041
67.34000 496.334
67.35000 505.743
67.36000 516.971
67.37000 526.808
67.38000 527.940
67.39000 527.656
67.40000 525.858
67.41000 518.045
67.42000 509.610
67.43000 503.193
67.44000 502.219
67.45000 501.548
67.46000 501.109
67.47000 512.373
67.48000 520.834
67.49000 528.631
67.50000 535.605
67.51000 542.560
67.52000 543.199
67.53000 538.744
67.54000 534.352
67.55000 533.342
67.56000 534.143
67.57000 535.179
67.58000 540.454
67.59000 547.302
67.60000 552.957
67.61000 547.063
67.62000 538.261
67.63000 530.569
67.64000 527.690
67.65000 525.906
67.66000 524.756
67.67000 526.091
67.68000 527.677
67.69000 531.036
67.70000 539.110
67.71000 547.438
67.72000 552.850
67.73000 545.617
67.74000 540.124
67.75000 545.556
67.76000 564.324
67.77000 583.086
67.78000 590.213
67.79000 588.100
67.80000 586.018
67.81000 580.872
67.82000 574.287
67.83000 568.063
67.84000 568.139
67.85000 570.519
67.86000 574.062
67.87000 588.635
67.88000 605.943
67.89000 621.032
67.90000 615.218
67.91000 607.344
67.92000 600.569
67.93000 598.031
67.94000 595.912
67.95000 595.800
67.96000 600.943
67.97000 606.362
67.98000 609.865
67.99000 617.138
68.00000 622.509
68.01000 627.017
68.02000 630.487
68.03000 633.957
68.04000 637.729
68.05000 641.740
68.06000 645.688
68.07000 648.542
68.08000 650.751
68.09000 652.747
68.10000 651.132
68.11000 648.215
68.12000 645.823
68.13000 648.305
68.14000 651.977
68.15000 655.170
68.16000 654.801
68.17000 654.000
68.18000 655.624
68.19000 666.455
68.20000 678.181
68.21000 685.769
68.22000 682.669
68.23000 679.025
68.24000 676.683
68.25000 699.573
68.26000 716.620
68.27000 723.794
68.28000 719.296
68.29000 714.827
68.30000 722.097
68.31000 738.401
68.32000 754.441
68.33000 750.043
68.34000 735.517
68.35000 722.490
68.36000 734.368
68.37000 755.089
68.38000 774.501
68.39000 781.979
68.40000 786.588
68.41000 790.586
68.42000 798.139
68.43000 805.047
68.44000 813.904
68.45000 830.053
68.46000 846.894
68.47000 861.298
68.48000 869.492
68.49000 877.379
68.50000 882.419
68.51000 913.223
68.52000 935.981
68.53000 955.151
68.54000 970.145
68.55000 985.158
68.56000 1005.283
68.57000 1029.282
68.58000 1052.873
68.59000 1091.309
68.60000 1135.809
68.61000 1181.439
68.62000 1245.365
68.63000 1315.693
68.64000 1384.479
68.65000 1439.489
68.66000 1491.238
68.67000 1536.016
68.68000 1618.708
68.69000 1693.980
68.70000 1766.885
68.71000 1831.067
68.72000 1894.437
68.73000 1965.609
68.74000 2056.363
68.75000 2148.058
68.76000 2206.329
68.77000 2287.010
68.78000 2345.881
68.79000 2425.491
68.80000 2528.840
68.81000 2632.272
68.82000 2746.584
68.83000 2869.014
68.84000 2989.266
68.85000 3175.058
68.86000 3386.344
68.87000 3609.636
68.88000 4022.165
68.89000 4499.955
68.90000 5041.754
68.91000 6143.989
68.92000 7376.869
68.93000 8440.917
68.94000 11609.665
68.95000 14569.287
68.96000 17929.420
68.97000 22743.656
68.98000 27690.313
68.99000 32851.285
69.00000 38542.387
69.01000 44258.207
69.02000 47869.699
69.03000 54075.973
69.04000 58603.453
69.05000 62215.848
69.06000 64797.773
69.07000 67373.680
69.08000 69057.359
69.09000 70085.758
69.10000 71095.039
69.11000 72200.164
69.12000 73311.711
69.13000 74424.258
69.14000 75552.266
69.15000 76685.523
69.16000 77702.875
69.17000 77725.125
69.18000 77518.984
69.19000 77341.531
69.20000 74388.141
69.21000 71536.430
69.22000 68295.922
69.23000 63664.766
69.24000 58909.703
69.25000 54454.977
69.26000 50732.512
69.27000 47043.145
69.28000 44725.559
69.29000 41657.449
69.30000 39431.031
69.31000 37836.070
69.32000 36940.637
69.33000 36046.648
69.34000 35309.941
69.35000 34686.973
69.36000 34076.102
69.37000 32846.621
69.38000 31370.959
69.39000 29833.420
69.40000 27369.363
69.41000 24594.957
69.42000 21800.730
69.43000 18839.609
69.44000 15840.772
69.45000 13266.065
69.46000 10839.811
69.47000 8806.921
69.48000 6955.122
69.49000 5741.439
69.50000 4583.369
69.51000 3626.010
69.52000 3150.993
69.53000 2697.109
69.54000 2413.657
69.55000 2111.607
69.56000 1893.540
69.57000 1727.806
69.58000 1619.102
69.59000 1510.692
69.60000 1441.071
69.61000 1399.073
69.62000 1357.926
69.63000 1296.987
69.64000 1229.198
69.65000 1163.449
69.66000 1127.486
69.67000 1101.356
69.68000 1074.081
69.69000 1037.346
69.70000 998.506
69.71000 965.247
69.72000 948.476
69.73000 936.323
69.74000 919.579
69.75000 886.896
69.76000 852.855
69.77000 826.204
69.78000 817.057
69.79000 808.653
69.80000 803.435
69.81000 786.703
69.82000 774.549
69.83000 758.266
69.84000 737.558
69.85000 716.918
69.86000 705.440
69.87000 700.388
69.88000 695.443
69.89000 681.660
69.90000 664.387
69.91000 647.843
69.92000 641.684
69.93000 638.905
69.94000 635.598
69.95000 628.018
69.96000 619.503
69.97000 612.230
69.98000 599.742
69.99000 588.603
70.00000 580.657
