20.00000 489.343
20.01000 489.434
20.02000 489.538
20.03000 490.349
20.04000 493.942
20.05000 497.820
20.06000 500.684
20.07000 494.871
20.08000 489.997
20.09000 486.884
20.10000 486.996
20.11000 487.176
20.12000 484.845
20.13000 479.423
20.14000 474.003
20.15000 472.599
20.16000 474.400
20.17000 476.216
20.18000 478.709
20.19000 481.567
20.20000 484.266
20.21000 484.174
20.22000 483.054
20.23000 482.020
20.24000 486.283
20.25000 491.290
20.26000 494.911
20.27000 490.360
20.28000 484.470
20.29000 480.945
20.30000 486.608
20.31000 493.192
20.32000 498.033
20.33000 498.622
20.34000 498.902
20.35000 495.637
20.36000 485.978
20.37000 476.188
20.38000 472.581
20.39000 476.459
20.40000 480.346
20.41000 487.330
20.42000 496.706
20.43000 505.757
20.44000 500.958
20.45000 488.814
20.46000 477.326
20.47000 477.185
20.48000 481.161
20.49000 484.823
20.50000 487.244
20.51000 489.136
20.52000 489.578
20.53000 481.605
20.54000 472.277
20.55000 465.795
20.56000 470.207
20.57000 475.688
20.58000 479.702
20.59000 479.319
20.60000 478.848
20.61000 480.750
20.62000 486.870
20.63000 493.073
20.64000 495.406
20.65000 493.131
20.66000 490.853
20.67000 484.900
20.68000 476.148
20.69000 467.770
20.70000 474.641
20.71000 489.482
20.72000 503.236
20.73000 498.691
20.74000 487.604
20.75000 477.409
20.76000 479.436
20.77000 483.890
20.78000 488.469
20.79000 493.754
20.80000 499.151
20.81000 501.785
20.82000 494.006
20.83000 485.228
20.84000 478.827
20.85000 484.870
20.86000 490.007
20.87000 490.414
20.88000 482.533
20.89000 474.498
20.90000 471.181
20.91000 473.394
20.92000 475.609
20.93000 478.343
20.94000 481.454
20.95000 484.566
20.96000 487.739
20.97000 490.942
20.98000 493.800
20.99000 490.986
21.00000 486.173
21.01000 481.756
21.02000 483.715
21.03000 486.817
21.04000 489.061
21.05000 486.493
21.06000 483.177
21.07000 481.238
21.08000 484.413
21.09000 488.068
21.10000 490.722
21.11000 497.187
21.12000 502.300
21.13000 502.983
21.14000 496.018
21.15000 488.919
21.16000 486.882
21.17000 490.684
21.18000 494.483
21.19000 493.530
21.20000 489.038
21.21000 484.625
21.22000 483.206
21.23000 483.305
21.24000 483.353
21.25000 482.585
21.26000 481.533
21.27000 480.569
21.28000 484.412
21.29000 488.837
21.30000 492.632
21.31000 492.942
21.32000 492.720
21.33000 490.491
21.34000 480.924
21.35000 470.682
21.36000 463.278
21.37000 485.937
21.38000 504.414
21.39000 511.047
21.40000 497.535
21.41000 483.688
21.42000 474.667
21.43000 471.126
21.44000 467.602
21.45000 467.319
21.46000 469.419
21.47000 471.592
21.48000 476.374
21.49000 482.462
21.50000 488.278
21.51000 489.866
21.52000 490.006
21.53000 490.134
21.54000 488.454
21.55000 486.589
21.56000 485.035
21.57000 485.162
21.58000 485.541
21.59000 486.858
21.60000 491.554
21.61000 496.553
21.62000 500.152
21.63000 503.957
21.64000 506.878
21.65000 509.829
21.66000 512.830
21.67000 515.832
21.68000 517.621
21.69000 518.056
21.70000 518.489
21.71000 520.657
21.72000 524.061
21.73000 527.431
21.74000 529.606
21.75000 531.192
21.76000 533.083
21.77000 539.588
21.78000 547.650
21.79000 555.007
21.80000 568.461
21.81000 581.629
21.82000 594.508
21.83000 605.846
21.84000 616.957
21.85000 627.431
21.86000 635.646
21.87000 643.663
21.88000 649.407
21.89000 644.916
21.90000 641.137
21.91000 643.023
21.92000 654.264
21.93000 665.643
21.94000 673.606
21.95000 677.815
21.96000 682.006
21.97000 692.617
21.98000 707.694
21.99000 722.643
22.00000 733.327
22.01000 741.939
22.02000 749.577
22.03000 742.813
22.04000 731.261
22.05000 720.740
22.06000 723.902
22.07000 729.418
22.08000 734.231
22.09000 735.351
22.10000 735.937
22.11000 732.390
22.12000 714.392
22.13000 695.149
22.14000 681.423
22.15000 667.675
22.16000 657.192
22.17000 649.165
22.18000 645.135
22.19000 641.160
22.20000 634.732
22.21000 625.654
22.22000 616.613
22.23000 601.933
22.24000 583.456
22.25000 565.500
22.26000 564.184
22.27000 570.838
22.28000 577.022
22.29000 576.424
22.30000 573.603
22.31000 571.039
22.32000 560.912
22.33000 550.484
22.34000 540.532
22.35000 533.040
22.36000 525.899
22.37000 517.224
22.38000 503.264
22.39000 488.860
22.40000 478.632
22.41000 481.533
22.42000 484.157
22.43000 487.614
22.44000 492.407
22.45000 497.218
22.46000 494.177
22.47000 482.793
22.48000 471.459
22.49000 469.766
22.50000 474.726
22.51000 479.625
22.52000 482.643
22.53000 484.773
22.54000 486.362
22.55000 480.331
22.56000 471.841
22.57000 464.139
22.58000 466.474
22.59000 470.459
22.60000 472.458
22.61000 464.358
22.62000 454.846
22.63000 448.139
22.64000 450.956
22.65000 454.557
22.66000 457.102
22.67000 460.301
22.68000 462.751
22.69000 463.373
22.70000 461.111
22.71000 458.813
22.72000 458.918
22.73000 461.533
22.74000 464.136
22.75000 460.044
22.76000 451.468
22.77000 443.117
22.78000 441.437
22.79000 442.861
22.80000 444.553
22.81000 449.919
22.82000 456.454
22.83000 462.369
22.84000 461.384
22.85000 459.215
22.86000 456.959
22.87000 454.263
22.88000 451.506
22.89000 449.954
22.90000 452.432
22.91000 455.234
22.92000 457.205
22.93000 456.127
22.94000 455.220
22.95000 453.236
22.96000 449.577
22.97000 445.900
22.98000 449.012
22.99000 459.101
23.00000 469.135
23.01000 469.362
23.02000 463.051
23.03000 456.965
23.04000 457.322
23.05000 460.634
23.06000 463.439
23.07000 459.462
23.08000 453.359
23.09000 447.844
23.10000 448.619
23.11000 450.463
23.12000 451.811
23.13000 450.710
23.14000 449.279
23.15000 447.302
23.16000 443.527
23.17000 439.611
23.18000 436.868
23.19000 447.764
23.20000 456.392
23.21000 459.142
23.22000 452.883
23.23000 446.526
23.24000 442.804
23.25000 441.743
23.26000 440.688
23.27000 438.384
23.28000 435.293
23.29000 432.672
23.30000 443.064
23.31000 459.339
23.32000 474.020
23.33000 467.849
23.34000 455.237
23.35000 443.867
23.36000 435.789
23.37000 429.298
23.38000 425.593
23.39000 435.385
23.40000 446.964
23.41000 453.393
23.42000 443.098
23.43000 431.519
23.44000 423.449
23.45000 446.539
23.46000 464.821
23.47000 471.268
23.48000 459.852
23.49000 448.255
23.50000 441.543
23.51000 439.683
23.52000 437.835
23.53000 436.654
23.54000 435.919
23.55000 435.306
23.56000 437.913
23.57000 441.955
23.58000 445.362
23.59000 440.653
23.60000 433.473
23.61000 427.014
23.62000 429.509
23.63000 433.296
23.64000 434.807
23.65000 425.470
23.66000 414.724
23.67000 408.028
23.68000 414.290
23.69000 421.525
23.70000 426.543
23.71000 429.073
23.72000 430.912
23.73000 432.860
23.74000 434.970
23.75000 437.081
23.76000 437.575
23.77000 436.489
23.78000 435.411
23.79000 435.947
23.80000 437.501
23.81000 438.899
23.82000 436.276
23.83000 431.887
23.84000 427.638
23.85000 425.132
23.86000 423.148
23.87000 421.367
23.88000 435.761
23.89000 451.189
23.90000 461.539
23.91000 448.062
23.92000 431.546
23.93000 421.034
23.94000 429.453
23.95000 439.259
23.96000 446.028
23.97000 443.662
23.98000 441.651
23.99000 441.227
24.00000 443.128
24.01000 445.049
24.02000 448.060
24.03000 452.118
24.04000 456.146
24.05000 454.315
24.06000 448.853
24.07000 443.405
24.08000 438.317
24.09000 433.384
24.10000 428.420
24.11000 423.075
24.12000 417.618
24.13000 412.730
24.14000 421.002
24.15000 430.492
24.16000 437.758
24.17000 434.753
24.18000 430.463
24.19000 428.168
24.20000 432.073
24.21000 436.421
24.22000 439.408
24.23000 433.448
24.24000 428.758
24.25000 423.787
24.26000 418.409
24.27000 413.029
24.28000 412.290
24.29000 415.936
24.30000 419.552
24.31000 420.623
24.32000 420.110
24.33000 419.499
24.34000 416.536
24.35000 412.568
24.36000 408.667
24.37000 405.556
24.38000 402.676
24.39000 400.102
24.40000 408.945
24.41000 418.584
24.42000 425.948
24.43000 422.961
24.44000 418.703
24.45000 416.194
24.46000 419.043
24.47000 422.265
24.48000 424.467
24.49000 424.226
24.50000 423.988
24.51000 421.454
24.52000 415.659
24.53000 409.843
24.54000 413.170
24.55000 424.989
24.56000 436.708
24.57000 437.255
24.58000 431.029
24.59000 424.763
24.60000 417.556
24.61000 409.953
24.62000 402.989
24.63000 403.479
24.64000 406.107
24.65000 408.450
24.66000 419.125
24.67000 429.796
24.68000 437.064
24.69000 429.095
24.70000 419.291
24.71000 412.552
24.72000 415.063
24.73000 418.204
24.74000 420.340
24.75000 420.518
24.76000 420.606
24.77000 416.433
24.78000 406.300
24.79000 396.132
24.80000 397.718
24.81000 410.043
24.82000 422.256
24.83000 423.683
24.84000 418.659
24.85000 413.964
24.86000 416.719
24.87000 422.563
24.88000 428.057
24.89000 429.570
24.90000 429.957
24.91000 430.302
24.92000 423.736
24.93000 416.906
24.94000 412.029
24.95000 415.762
24.96000 420.513
24.97000 424.465
24.98000 426.042
24.99000 427.461
25.00000 428.422
25.01000 427.635
25.02000 427.010
25.03000 425.313
25.04000 422.139
25.05000 418.957
25.06000 419.211
25.07000 422.554
25.08000 425.863
25.09000 425.152
25.10000 422.097
25.11000 419.000
25.12000 414.974
25.13000 410.570
25.14000 406.940
25.15000 411.959
25.16000 419.386
25.17000 425.981
25.18000 424.223
25.19000 421.360
25.20000 418.940
25.21000 418.445
25.22000 418.172
25.23000 417.109
25.24000 413.729
25.25000 410.199
25.26000 407.822
25.27000 402.814
25.28000 399.036
25.29000 397.693
25.30000 399.654
25.31000 401.632
25.32000 402.305
25.33000 401.824
25.34000 401.348
25.35000 405.308
25.36000 411.741
25.37000 417.741
25.38000 414.522
25.39000 407.591
25.40000 401.564
25.41000 405.411
25.42000 411.967
25.43000 417.774
25.44000 412.229
25.45000 405.643
25.46000 401.116
25.47000 405.384
25.48000 410.652
25.49000 414.041
25.50000 412.008
25.51000 409.633
25.52000 408.042
25.53000 410.998
25.54000 413.282
25.55000 413.187
25.56000 409.916
25.57000 406.634
25.58000 407.360
25.59000 411.573
25.60000 415.740
25.61000 415.163
25.62000 411.906
25.63000 408.588
25.64000 404.015
25.65000 398.944
25.66000 394.527
25.67000 397.096
25.68000 401.554
25.69000 405.493
25.70000 411.286
25.71000 416.575
25.72000 419.988
25.73000 415.502
25.74000 410.137
25.75000 406.545
25.76000 407.999
25.77000 409.764
25.78000 410.940
25.79000 405.465
25.80000 401.286
25.81000 400.137
25.82000 402.971
25.83000 405.825
25.84000 409.535
25.85000 413.978
25.86000 418.370
25.87000 414.758
25.88000 406.760
25.89000 398.941
25.90000 394.715
25.91000 391.895
25.92000 389.604
25.93000 392.857
25.94000 397.585
25.95000 401.754
25.96000 396.665
25.97000 390.873
25.98000 387.966
25.99000 397.014
26.00000 407.368
26.01000 412.712
26.02000 404.003
26.03000 394.454
26.04000 388.124
26.05000 405.638
26.06000 419.011
26.07000 421.661
26.08000 410.436
26.09000 399.170
26.10000 396.218
26.11000 400.268
26.12000 404.269
26.13000 405.862
26.14000 406.090
26.15000 406.263
26.16000 405.366
26.17000 404.055
26.18000 402.821
26.19000 402.367
26.20000 402.116
26.21000 401.896
26.22000 400.168
26.23000 398.456
26.24000 398.164
26.25000 403.663
26.26000 409.782
26.27000 414.392
26.28000 414.830
26.29000 415.026
26.30000 415.154
26.31000 406.041
26.32000 399.163
26.33000 396.983
26.34000 400.787
26.35000 404.598
26.36000 401.171
26.37000 391.746
26.38000 382.441
26.39000 383.196
26.40000 389.378
26.41000 395.226
26.42000 394.771
26.43000 391.920
26.44000 389.314
26.45000 389.173
26.46000 389.668
26.47000 390.102
26.48000 396.382
26.49000 402.631
26.50000 407.652
26.51000 407.739
26.52000 407.309
26.53000 405.298
26.54000 398.978
26.55000 392.415
26.56000 388.109
26.57000 406.538
26.58000 420.470
26.59000 423.195
26.60000 411.866
26.61000 400.504
26.62000 393.113
26.63000 388.964
26.64000 384.871
26.65000 388.282
26.66000 395.597
26.67000 402.571
26.68000 403.254
26.69000 401.582
26.70000 399.269
26.71000 390.668
26.72000 380.467
26.73000 371.537
26.74000 377.587
26.75000 384.924
26.76000 390.432
26.77000 388.707
26.78000 386.238
26.79000 386.800
26.80000 395.505
26.81000 404.658
26.82000 410.630
26.83000 399.075
26.84000 390.318
26.85000 386.448
26.86000 388.610
26.87000 390.778
26.88000 389.418
26.89000 385.227
26.90000 381.095
26.91000 382.166
26.92000 385.935
26.93000 389.701
26.94000 393.422
26.95000 397.128
26.96000 400.135
26.97000 396.417
26.98000 391.014
26.99000 386.296
27.00000 381.896
27.01000 378.176
27.02000 374.808
27.03000 372.815
27.04000 370.959
27.05000 371.124
27.06000 376.637
27.07000 382.437
27.08000 386.200
27.09000 389.129
27.10000 391.261
27.11000 391.788
27.12000 390.365
27.13000 388.942
27.14000 388.646
27.15000 389.241
27.16000 389.826
27.17000 385.018
27.18000 377.570
27.19000 370.556
27.20000 371.100
27.21000 374.395
27.22000 377.558
27.23000 379.482
27.24000 381.099
27.25000 382.509
27.26000 382.103
27.27000 381.506
27.28000 381.048
27.29000 381.127
27.30000 381.259
27.31000 381.617
27.32000 382.565
27.33000 383.544
27.34000 384.176
27.35000 383.429
27.36000 382.863
27.37000 380.970
27.38000 377.491
27.39000 374.032
27.40000 376.401
27.41000 383.306
27.42000 390.102
27.43000 388.779
27.44000 383.373
27.45000 378.458
27.46000 381.855
27.47000 388.233
27.48000 393.836
27.49000 392.278
27.50000 388.979
27.51000 386.112
27.52000 378.167
27.53000 370.703
27.54000 366.837
27.55000 376.578
27.56000 387.632
27.57000 395.074
27.58000 393.225
27.59000 390.906
27.60000 389.418
27.61000 384.504
27.62000 380.875
27.63000 378.624
27.64000 377.996
27.65000 377.372
27.66000 377.152
27.67000 377.241
27.68000 377.329
27.69000 376.178
27.70000 374.445
27.71000 372.727
27.72000 371.241
27.73000 369.836
27.74000 369.023
27.75000 373.567
27.76000 379.393
27.77000 384.444
27.78000 382.786
27.79000 380.483
27.80000 378.543
27.81000 377.957
27.82000 377.500
27.83000 377.001
27.84000 376.401
27.85000 375.796
27.86000 375.410
27.87000 382.015
27.88000 386.909
27.89000 389.435
27.90000 389.219
27.91000 388.980
27.92000 384.881
27.93000 377.870
27.94000 370.980
27.95000 376.524
27.96000 388.001
27.97000 398.833
27.98000 399.311
27.99000 396.180
28.00000 392.776
28.01000 386.941
28.02000 380.532
28.03000 374.992
28.04000 377.100
28.05000 379.888
28.06000 381.111
28.07000 376.589
28.08000 371.536
28.09000 369.211
28.10000 373.699
28.11000 378.512
28.12000 381.565
28.13000 377.914
28.14000 375.183
28.15000 376.705
28.16000 383.071
28.17000 389.410
28.18000 389.778
28.19000 385.712
28.20000 381.720
28.21000 384.079
28.22000 389.432
28.23000 394.378
28.24000 392.952
28.25000 389.339
28.26000 385.980
28.27000 384.840
28.28000 384.216
28.29000 383.678
28.30000 388.385
28.31000 393.047
28.32000 395.956
28.33000 392.528
28.34000 388.525
28.35000 385.490
28.36000 384.836
28.37000 384.292
28.38000 383.949
28.39000 369.507
28.40000 358.887
28.41000 361.130
28.42000 377.787
28.43000 394.354
28.44000 393.930
28.45000 381.084
28.46000 368.481
28.47000 366.378
28.48000 369.358
28.49000 372.180
28.50000 372.597
28.51000 372.201
28.52000 372.176
28.53000 375.325
28.54000 379.200
28.55000 382.532
28.56000 378.226
28.57000 373.622
28.58000 369.118
28.59000 364.973
28.60000 360.858
28.61000 357.747
28.62000 357.070
28.63000 356.501
28.64000 356.145
28.65000 362.436
28.66000 367.054
28.67000 371.411
28.68000 375.481
28.69000 379.531
28.70000 380.584
28.71000 379.480
28.72000 378.397
28.73000 377.642
28.74000 377.069
28.75000 376.199
28.76000 370.927
28.77000 364.187
28.78000 358.269
28.79000 359.225
28.80000 361.728
28.81000 363.875
28.82000 362.453
28.83000 360.812
28.84000 359.683
28.85000 360.346
28.86000 361.164
28.87000 361.625
28.88000 361.228
28.89000 360.794
28.90000 360.524
28.91000 357.052
28.92000 354.516
28.93000 355.398
28.94000 359.985
28.95000 364.596
28.96000 372.353
28.97000 382.340
28.98000 392.122
28.99000 395.028
29.00000 394.646
29.01000 393.835
29.02000 386.826
29.03000 377.780
29.04000 369.582
29.05000 368.353
29.06000 368.667
29.07000 368.936
29.08000 373.501
29.09000 377.868
29.10000 381.061
29.11000 380.191
29.12000 378.978
29.13000 376.147
29.14000 369.501
29.15000 362.694
29.16000 358.476
29.17000 356.864
29.18000 355.730
29.19000 357.653
29.20000 362.836
29.21000 367.967
29.22000 366.127
29.23000 359.421
29.24000 352.859
29.25000 361.982
29.26000 377.873
29.27000 392.782
29.28000 393.817
29.29000 390.359
29.30000 386.212
29.31000 376.520
29.32000 365.619
29.33000 356.317
29.34000 359.252
29.35000 363.170
29.36000 366.481
29.37000 367.730
29.38000 368.808
29.39000 368.577
29.40000 365.304
29.41000 361.908
29.42000 359.815
29.43000 361.507
29.44000 362.755
29.45000 364.391
29.46000 366.436
29.47000 368.466
29.48000 368.716
29.49000 367.742
29.50000 366.790
29.51000 364.866
29.52000 362.588
29.53000 360.721
29.54000 364.526
29.55000 370.143
29.56000 374.880
29.57000 372.667
29.58000 368.962
29.59000 365.810
29.60000 370.225
29.61000 374.812
29.62000 378.567
29.63000 379.533
29.64000 380.273
29.65000 380.224
29.66000 378.366
29.67000 376.437
29.68000 375.255
29.69000 369.562
29.70000 365.448
29.71000 364.784
29.72000 367.678
29.73000 370.593
29.74000 375.754
29.75000 382.437
29.76000 388.964
29.77000 395.261
29.78000 401.188
29.79000 406.616
29.80000 405.328
29.81000 401.927
29.82000 398.851
29.83000 398.293
29.84000 398.267
29.85000 398.245
29.86000 400.364
29.87000 402.383
29.88000 405.884
29.89000 414.280
29.90000 423.063
29.91000 428.014
29.92000 424.313
29.93000 420.283
29.94000 417.831
29.95000 437.592
29.96000 451.879
29.97000 459.556
29.98000 460.528
29.99000 461.528
30.00000 465.375
30.01000 471.122
30.02000 476.729
30.03000 470.898
30.04000 460.364
30.05000 450.252
30.06000 445.675
30.07000 442.814
30.08000 440.651
30.09000 443.799
30.10000 448.052
30.11000 451.652
30.12000 452.541
30.13000 452.984
30.14000 452.272
30.15000 447.797
30.16000 443.032
30.17000 437.261
30.18000 429.251
30.19000 421.159
30.20000 416.265
30.21000 411.908
30.22000 408.808
30.23000 409.092
30.24000 412.752
30.25000 416.386
30.26000 417.688
30.27000 417.458
30.28000 417.233
30.29000 411.553
30.30000 403.802
30.31000 396.912
30.32000 401.075
30.33000 408.614
30.34000 414.819
30.35000 411.053
30.36000 405.248
30.37000 400.349
30.38000 401.131
30.39000 402.403
30.40000 401.824
30.41000 395.301
30.42000 388.330
30.43000 385.259
30.44000 390.745
30.45000 396.533
30.46000 400.012
30.47000 400.137
30.48000 400.203
30.49000 399.538
30.50000 398.158
30.51000 396.843
30.52000 401.226
30.53000 409.296
30.54000 417.157
30.55000 413.512
30.56000 405.204
30.57000 397.248
30.58000 393.698
30.59000 391.474
30.60000 390.244
30.61000 396.302
30.62000 403.829
30.63000 410.163
30.64000 403.016
30.65000 395.615
30.66000 391.341
30.67000 396.957
30.68000 403.301
30.69000 404.600
30.70000 394.990
30.71000 385.006
30.72000 379.045
30.73000 388.592
30.74000 395.461
30.75000 404.923
30.76000 416.884
30.77000 428.680
30.78000 426.690
30.79000 415.911
30.80000 405.424
30.81000 407.046
30.82000 413.596
30.83000 420.252
30.84000 428.201
30.85000 436.533
30.86000 444.103
30.87000 446.181
30.88000 447.171
30.89000 448.002
30.90000 453.462
30.91000 458.490
30.92000 463.834
30.93000 470.160
30.94000 476.556
30.95000 483.793
30.96000 492.822
30.97000 501.910
30.98000 507.302
30.99000 533.028
31.00000 551.347
31.01000 565.144
31.02000 574.657
31.03000 584.291
31.04000 603.447
31.05000 628.583
31.06000 653.014
31.07000 681.598
31.08000 710.458
31.09000 740.928
31.10000 790.705
31.11000 846.123
31.12000 902.522
31.13000 965.867
31.14000 1030.565
31.15000 1084.701
31.16000 1183.026
31.17000 1269.251
31.18000 1354.204
31.19000 1435.252
31.20000 1516.026
31.21000 1609.326
31.22000 1728.940
31.23000 1849.391
31.24000 1920.387
31.25000 2051.687
31.26000 2144.685
31.27000 2243.458
31.28000 2347.614
31.29000 2451.692
31.30000 2550.082
31.31000 2644.952
31.32000 2737.068
31.33000 2820.266
31.34000 2895.667
31.35000 2968.480
31.36000 3010.967
31.37000 3044.727
31.38000 3072.781
31.39000 3061.181
31.40000 3041.975
31.41000 3025.951
31.42000 2995.322
31.43000 2968.455
31.44000 2933.053
31.45000 2871.814
31.46000 2808.809
31.47000 2733.935
31.48000 2634.487
31.49000 2534.286
31.50000 2475.614
31.51000 2318.513
31.52000 2207.410
31.53000 2087.088
31.54000 1958.312
31.55000 1829.779
31.56000 1717.982
31.57000 1616.385
31.58000 1517.842
31.59000 1423.754
31.60000 1336.332
31.61000 1249.411
31.62000 1168.229
31.63000 1088.676
31.64000 1012.498
31.65000 959.375
31.66000 910.602
31.67000 870.031
31.68000 833.146
31.69000 802.975
31.70000 770.452
31.71000 730.912
31.72000 690.904
31.73000 655.786
31.74000 630.646
31.75000 605.799
31.76000 591.347
31.77000 570.057
31.78000 555.074
31.79000 542.053
31.80000 530.803
31.81000 519.512
31.82000 505.520
31.83000 489.905
31.84000 474.776
31.85000 459.486
31.86000 444.953
31.87000 431.066
31.88000 424.420
31.89000 419.798
31.90000 416.877
31.91000 425.379
31.92000 436.001
31.93000 444.810
31.94000 430.412
31.95000 416.285
31.96000 403.902
31.97000 396.644
31.98000 389.720
31.99000 386.193
32.00000 389.498
32.01000 392.997
32.02000 395.018
32.03000 384.210
32.04000 376.584
32.05000 367.570
32.06000 357.324
32.07000 347.263
32.08000 348.609
32.09000 356.704
32.10000 364.538
32.11000 368.417
32.12000 370.572
32.13000 371.931
32.14000 364.564
32.15000 354.795
32.16000 346.297
32.17000 346.176
32.18000 347.585
32.19000 348.750
32.20000 346.361
32.21000 344.057
32.22000 342.222
32.23000 341.745
32.24000 341.355
32.25000 341.114
32.26000 341.169
32.27000 341.232
32.28000 341.268
32.29000 341.521
32.30000 341.699
32.31000 342.017
32.32000 342.457
32.33000 342.888
32.34000 342.754
32.35000 342.292
32.36000 341.845
32.37000 343.790
32.38000 346.524
32.39000 348.816
32.40000 346.366
32.41000 342.629
32.42000 339.368
32.43000 339.183
32.44000 339.551
32.45000 339.853
32.46000 338.356
32.47000 336.959
32.48000 335.813
32.49000 335.386
32.50000 335.003
32.51000 334.306
32.52000 332.993
32.53000 331.664
32.54000 330.906
32.55000 341.208
32.56000 348.414
32.57000 346.584
32.58000 336.992
32.59000 327.571
32.60000 327.655
32.61000 333.198
32.62000 338.550
32.63000 342.402
32.64000 345.476
32.65000 348.134
32.66000 346.428
32.67000 343.557
32.68000 341.261
32.69000 342.623
32.70000 344.632
32.71000 346.283
32.72000 346.243
32.73000 346.057
32.74000 343.932
32.75000 336.348
32.76000 328.436
32.77000 324.687
32.78000 328.952
32.79000 333.417
32.80000 335.944
32.81000 319.592
32.82000 308.182
32.83000 307.107
32.84000 314.767
32.85000 322.386
32.86000 327.787
32.87000 331.934
32.88000 335.933
32.89000 338.033
32.90000 339.317
32.91000 340.093
32.92000 335.630
32.93000 329.790
32.94000 324.342
32.95000 321.344
32.96000 318.771
32.97000 316.663
32.98000 316.024
32.99000 315.629
33.00000 317.780
33.01000 326.995
33.02000 336.623
33.03000 341.847
33.04000 338.717
33.05000 335.386
33.06000 333.515
33.07000 323.047
33.08000 315.776
33.09000 315.160
33.10000 320.079
33.11000 324.944
33.12000 327.073
33.13000 327.676
33.14000 328.257
33.15000 325.926
33.16000 322.693
33.17000 319.282
33.18000 314.070
33.19000 308.392
33.20000 304.434
33.21000 311.046
33.22000 319.464
33.23000 326.339
33.24000 309.470
33.25000 293.618
33.26000 284.386
33.27000 293.256
33.28000 303.156
33.29000 307.752
33.30000 302.430
33.31000 296.882
33.32000 293.786
33.33000 291.885
33.34000 290.584
33.35000 294.282
33.36000 302.073
33.37000 309.720
33.38000 310.537
33.39000 307.601
33.40000 304.776
33.41000 303.993
33.42000 303.977
33.43000 304.196
33.44000 306.724
33.45000 309.841
33.46000 311.047
33.47000 300.693
33.48000 288.399
33.49000 278.390
33.50000 293.037
33.51000 307.079
33.52000 315.285
33.53000 307.765
33.54000 299.374
33.55000 293.710
33.56000 293.069
33.57000 292.538
33.58000 292.243
33.59000 293.504
33.60000 294.376
33.61000 294.510
33.62000 294.052
33.63000 293.669
33.64000 296.728
33.65000 301.651
33.66000 306.382
33.67000 302.649
33.68000 296.217
33.69000 290.782
33.70000 294.981
33.71000 301.600
33.72000 307.398
33.73000 308.311
33.74000 308.417
33.75000 308.503
33.76000 302.478
33.77000 297.062
33.78000 295.385
33.79000 303.637
33.80000 312.424
33.81000 317.327
33.82000 315.175
33.83000 312.877
33.84000 311.613
33.85000 310.973
33.86000 310.530
33.87000 309.076
33.88000 306.819
33.89000 304.527
33.90000 300.684
33.91000 296.014
33.92000 291.531
33.93000 295.115
33.94000 301.219
33.95000 306.223
33.96000 300.812
33.97000 292.821
33.98000 286.372
33.99000 288.926
34.00000 292.942
34.01000 296.191
34.02000 293.523
34.03000 290.875
34.04000 288.866
34.05000 288.530
34.06000 288.281
34.07000 289.115
34.08000 291.884
34.09000 294.691
34.10000 296.224
34.11000 302.178
34.12000 306.263
34.13000 307.591
34.14000 306.765
34.15000 305.792
34.16000 298.643
34.17000 288.247
34.18000 278.282
34.19000 276.297
34.20000 277.126
34.21000 278.460
34.22000 284.482
34.23000 291.647
34.24000 297.760
34.25000 297.829
34.26000 296.934
34.27000 296.212
34.28000 290.989
34.29000 286.394
34.30000 284.983
34.31000 291.789
34.32000 299.013
34.33000 301.874
34.34000 297.044
34.35000 292.068
34.36000 289.371
34.37000 298.550
34.38000 304.830
34.39000 305.994
34.40000 303.225
34.41000 300.343
34.42000 292.934
34.43000 283.178
34.44000 273.838
34.45000 279.001
34.46000 288.607
34.47000 297.119
34.48000 295.691
34.49000 291.876
34.50000 288.752
34.51000 289.532
34.52000 290.922
34.53000 292.040
34.54000 288.286
34.55000 284.868
34.56000 283.777
34.57000 288.604
34.58000 293.722
34.59000 295.444
34.60000 291.264
34.61000 286.978
34.62000 284.673
34.63000 286.979
34.64000 288.544
34.65000 287.093
34.66000 283.358
34.67000 279.710
34.68000 279.372
34.69000 280.725
34.70000 282.019
34.71000 285.424
34.72000 289.281
34.73000 292.036
34.74000 284.971
34.75000 275.584
34.76000 268.959
34.77000 277.677
34.78000 288.758
34.79000 297.633
34.80000 290.958
34.81000 284.389
34.82000 282.876
34.83000 294.035
34.84000 305.801
34.85000 309.707
34.86000 300.156
34.87000 290.377
34.88000 285.158
34.89000 282.148
34.90000 280.106
34.91000 279.620
34.92000 280.292
34.93000 280.986
34.94000 282.478
34.95000 284.371
34.96000 286.179
34.97000 284.364
34.98000 281.518
34.99000 278.874
35.00000 277.984
35.01000 277.504
35.02000 276.987
35.03000 276.274
35.04000 275.530
35.05000 274.937
35.06000 273.647
35.07000 272.554
35.08000 272.284
35.09000 274.047
35.10000 275.905
35.11000 277.132
35.12000 277.296
35.13000 277.443
35.14000 277.520
35.15000 279.553
35.16000 280.917
35.17000 279.158
35.18000 275.107
35.19000 271.165
35.20000 271.064
35.21000 272.870
35.22000 274.592
35.23000 277.247
35.24000 280.005
35.25000 282.250
35.26000 280.102
35.27000 276.946
35.28000 274.415
35.29000 275.238
35.30000 276.560
35.31000 277.611
35.32000 271.626
35.33000 266.298
35.34000 263.408
35.35000 266.457
35.36000 269.774
35.37000 273.475
35.38000 277.814
35.39000 282.163
35.40000 284.447
35.41000 283.185
35.42000 282.326
35.43000 281.123
35.44000 279.672
35.45000 278.260
35.46000 278.181
35.47000 278.754
35.48000 279.300
35.49000 278.402
35.50000 277.122
35.51000 275.239
35.52000 268.285
35.53000 260.186
35.54000 254.302
35.55000 260.131
35.56000 267.671
35.57000 273.649
35.58000 265.984
35.59000 258.865
35.60000 255.896
35.61000 262.892
35.62000 270.323
35.63000 275.724
35.64000 277.802
35.65000 279.832
35.66000 280.890
35.67000 272.407
35.68000 266.694
35.69000 264.413
35.70000 264.573
35.71000 264.879
35.72000 269.940
35.73000 277.293
35.74000 284.284
35.75000 284.078
35.76000 281.693
35.77000 278.917
35.78000 272.915
35.79000 266.197
35.80000 260.683
35.81000 261.436
35.82000 263.087
35.83000 264.393
35.84000 261.242
35.85000 258.408
35.86000 258.761
35.87000 266.652
35.88000 274.863
35.89000 278.520
35.90000 274.832
35.91000 271.044
35.92000 269.086
35.93000 268.287
35.94000 267.728
35.95000 264.504
35.96000 259.413
35.97000 254.493
35.98000 254.910
35.99000 257.864
36.00000 260.668
36.01000 260.706
36.02000 259.911
36.03000 259.254
36.04000 259.706
36.05000 260.400
36.06000 262.101
36.07000 268.954
36.08000 276.533
36.09000 282.499
36.10000 274.122
36.11000 266.455
36.12000 260.436
36.13000 258.261
36.14000 256.243
36.15000 258.234
36.16000 266.595
36.17000 275.038
36.18000 279.368
36.19000 270.894
36.20000 265.241
36.21000 265.025
36.22000 268.561
36.23000 271.907
36.24000 269.526
36.25000 264.462
36.26000 259.661
36.27000 263.782
36.28000 270.214
36.29000 275.929
36.30000 275.953
36.31000 274.753
36.32000 273.073
36.33000 268.982
36.34000 264.557
36.35000 261.085
36.36000 259.795
36.37000 258.904
36.38000 261.082
36.39000 270.312
36.40000 279.822
36.41000 285.601
36.42000 285.538
36.43000 285.406
36.44000 285.339
36.45000 284.254
36.46000 283.489
36.47000 278.382
36.48000 270.326
36.49000 262.523
36.50000 262.085
36.51000 265.047
36.52000 267.851
36.53000 269.203
36.54000 270.026
36.55000 270.649
36.56000 269.718
36.57000 268.458
36.58000 267.344
36.59000 266.956
36.60000 266.665
36.61000 266.438
36.62000 262.979
36.63000 260.013
36.64000 258.793
36.65000 261.529
36.66000 264.417
36.67000 267.003
36.68000 269.124
36.69000 271.240
36.70000 272.307
36.71000 277.333
36.72000 280.674
36.73000 282.027
36.74000 282.049
36.75000 281.947
36.76000 278.346
36.77000 273.153
36.78000 268.244
36.79000 266.644
36.80000 266.119
36.81000 266.015
36.82000 269.123
36.83000 272.902
36.84000 276.179
36.85000 277.008
36.86000 277.511
36.87000 277.903
36.88000 283.773
36.89000 288.787
36.90000 292.094
36.91000 291.590
36.92000 290.944
36.93000 285.614
36.94000 273.167
36.95000 260.645
36.96000 254.382
36.97000 263.726
36.98000 269.933
36.99000 273.971
37.00000 276.577
37.01000 279.154
37.02000 280.914
37.03000 282.308
37.04000 283.624
37.05000 285.025
37.06000 286.335
37.07000 287.588
37.08000 288.412
37.09000 289.148
37.10000 289.613
37.11000 288.773
37.12000 287.762
37.13000 286.978
37.14000 284.585
37.15000 282.587
37.16000 280.288
37.17000 277.326
37.18000 274.341
37.19000 274.278
37.20000 278.587
37.21000 282.938
37.22000 283.232
37.23000 279.534
37.24000 275.875
37.25000 275.719
37.26000 277.837
37.27000 279.765
37.28000 276.742
37.29000 271.532
37.30000 266.620
37.31000 270.618
37.32000 276.742
37.33000 281.745
37.34000 278.480
37.35000 273.545
37.36000 269.711
37.37000 271.078
37.38000 273.114
37.39000 274.687
37.40000 271.804
37.41000 269.254
37.42000 266.469
37.43000 263.171
37.44000 259.857
37.45000 259.291
37.46000 262.779
37.47000 266.302
37.48000 269.091
37.49000 271.168
37.50000 273.164
37.51000 268.302
37.52000 259.055
37.53000 250.291
37.54000 253.768
37.55000 262.577
37.56000 270.868
37.57000 265.809
37.58000 257.555
37.59000 250.765
37.60000 254.575
37.61000 260.492
37.62000 265.262
37.63000 264.695
37.64000 263.455
37.65000 262.500
37.66000 263.100
37.67000 263.663
37.68000 263.159
37.69000 260.370
37.70000 257.505
37.71000 257.707
37.72000 262.360
37.73000 267.051
37.74000 266.843
37.75000 261.977
37.76000 257.125
37.77000 253.432
37.78000 250.469
37.79000 247.753
37.80000 251.061
37.81000 256.956
37.82000 262.496
37.83000 262.909
37.84000 261.914
37.85000 261.120
37.86000 261.744
37.87000 262.647
37.88000 262.955
37.89000 260.541
37.90000 257.790
37.91000 255.680
37.92000 250.178
37.93000 245.642
37.94000 245.454
37.95000 254.430
37.96000 263.701
37.97000 268.856
37.98000 268.130
37.99000 267.359
38.00000 268.367
38.01000 271.039
38.02000 273.670
38.03000 273.329
38.04000 271.143
38.05000 269.060
38.06000 269.400
38.07000 270.767
38.08000 272.049
38.09000 270.798
38.10000 268.991
38.11000 267.675
38.12000 269.782
38.13000 272.548
38.14000 276.254
38.15000 284.193
38.16000 292.645
38.17000 299.107
38.18000 296.912
38.19000 294.711
38.20000 293.229
38.21000 293.242
38.22000 293.302
38.23000 296.708
38.24000 304.827
38.25000 312.977
38.26000 315.899
38.27000 314.010
38.28000 312.200
38.29000 315.937
38.30000 323.065
38.31000 330.010
38.32000 332.735
38.33000 333.701
38.34000 334.605
38.35000 337.433
38.36000 340.504
38.37000 344.652
38.38000 356.182
38.39000 369.110
38.40000 380.534
38.41000 385.283
38.42000 389.238
38.43000 392.249
38.44000 414.906
38.45000 433.777
38.46000 452.603
38.47000 471.336
38.48000 490.066
38.49000 506.645
38.50000 520.239
38.51000 533.810
38.52000 551.124
38.53000 571.808
38.54000 592.511
38.55000 614.529
38.56000 637.338
38.57000 659.725
38.58000 672.728
38.59000 681.873
38.60000 690.425
38.61000 724.998
38.62000 763.016
38.63000 796.298
38.64000 797.687
38.65000 793.134
38.66000 792.688
38.67000 810.176
38.68000 829.761
38.69000 844.617
38.70000 848.815
38.71000 851.566
38.72000 849.016
38.73000 835.773
38.74000 822.224
38.75000 808.177
38.76000 793.448
38.77000 778.722
38.78000 758.544
38.79000 733.543
38.80000 708.660
38.81000 691.129
38.82000 677.962
38.83000 664.231
38.84000 638.341
38.85000 607.522
38.86000 578.749
38.87000 551.476
38.88000 527.127
38.89000 503.587
38.90000 485.409
38.91000 468.212
38.92000 451.581
38.93000 437.382
38.94000 423.461
38.95000 412.943
38.96000 398.636
38.97000 387.230
38.98000 377.642
38.99000 371.666
39.00000 365.790
39.01000 359.925
39.02000 354.075
39.03000 348.228
39.04000 341.030
39.05000 332.659
39.06000 324.281
39.07000 315.391
39.08000 306.201
39.09000 297.174
39.10000 291.540
39.11000 287.261
39.12000 283.273
39.13000 283.429
39.14000 284.591
39.15000 285.133
39.16000 281.648
39.17000 277.437
39.18000 273.347
39.19000 269.769
39.20000 266.248
39.21000 263.598
39.22000 260.581
39.23000 258.202
39.24000 259.439
39.25000 267.763
39.26000 276.274
39.27000 278.610
39.28000 272.777
39.29000 266.908
39.30000 267.488
39.31000 273.615
39.32000 279.599
39.33000 277.639
39.34000 271.101
39.35000 264.641
39.36000 259.776
39.37000 255.537
39.38000 251.594
39.39000 253.098
39.40000 255.777
39.41000 258.064
39.42000 257.859
39.43000 257.212
39.44000 257.248
39.45000 260.133
39.46000 263.331
39.47000 265.729
39.48000 254.192
39.49000 244.525
39.50000 239.257
39.51000 242.485
39.52000 245.928
39.53000 247.248
39.54000 245.803
39.55000 244.348
39.56000 243.140
39.57000 242.144
39.58000 241.211
39.59000 243.680
39.60000 248.080
39.61000 252.185
39.62000 250.477
39.63000 246.513
39.64000 242.832
39.65000 241.460
39.66000 240.773
39.67000 240.986
39.68000 246.851
39.69000 253.701
39.70000 258.605
39.71000 255.519
39.72000 251.570
39.73000 248.622
39.74000 249.243
39.75000 249.890
39.76000 249.423
39.77000 246.836
39.78000 244.197
39.79000 244.411
39.80000 248.284
39.81000 252.167
39.82000 249.960
39.83000 242.689
39.84000 235.549
39.85000 235.041
39.86000 238.243
39.87000 241.524
39.88000 246.309
39.89000 251.669
39.90000 256.640
39.91000 251.931
39.92000 245.424
39.93000 240.274
39.94000 243.494
39.95000 248.148
39.96000 250.036
39.97000 240.736
39.98000 230.253
39.99000 222.457
40.00000 234.904
40.01000 245.486
40.02000 250.276
40.03000 244.201
40.04000 237.876
40.05000 234.797
40.06000 235.819
40.07000 236.853
40.08000 238.763
40.09000 241.385
40.10000 243.926
40.11000 242.557
40.12000 239.033
40.13000 235.550
40.14000 232.823
40.15000 230.380
40.16000 228.119
40.17000 233.153
40.18000 239.357
40.19000 244.548
40.20000 243.591
40.21000 241.599
40.22000 239.727
40.23000 238.338
40.24000 236.999
40.25000 236.007
40.26000 231.741
40.27000 228.289
40.28000 225.959
40.29000 225.704
40.30000 225.495
40.31000 226.576
40.32000 229.258
40.33000 231.940
40.34000 230.762
40.35000 226.480
40.36000 222.287
40.37000 222.203
40.38000 224.352
40.39000 226.714
40.40000 232.952
40.41000 240.629
40.42000 247.723
40.43000 244.747
40.44000 239.796
40.45000 236.015
40.46000 239.205
40.47000 243.551
40.48000 246.073
40.49000 241.442
40.50000 236.085
40.51000 232.134
40.52000 236.645
40.53000 240.494
40.54000 240.447
40.55000 233.302
40.56000 226.007
40.57000 221.451
40.58000 220.243
40.59000 219.045
40.60000 219.959
40.61000 222.543
40.62000 225.083
40.63000 225.742
40.64000 225.394
40.65000 224.948
40.66000 222.776
40.67000 219.972
40.68000 217.386
40.69000 221.932
40.70000 227.590
40.71000 231.971
40.72000 228.858
40.73000 224.524
40.74000 220.128
40.75000 215.497
40.76000 210.841
40.77000 207.423
40.78000 226.655
40.79000 242.444
40.80000 248.841
40.81000 238.379
40.82000 227.579
40.83000 223.976
40.84000 229.037
40.85000 234.106
40.86000 233.488
40.87000 228.441
40.88000 223.532
40.89000 224.429
40.90000 228.391
40.91000 231.910
40.92000 227.855
40.93000 221.066
40.94000 214.816
40.95000 218.676
40.96000 224.340
40.97000 229.225
40.98000 229.621
40.99000 229.298
41.00000 227.853
41.01000 222.136
41.02000 216.003
41.03000 211.519
41.04000 221.759
41.05000 230.241
41.06000 233.897
41.07000 229.017
41.08000 223.974
41.09000 218.655
41.10000 213.008
41.11000 207.374
41.12000 207.101
41.13000 210.939
41.14000 214.751
41.15000 217.508
41.16000 219.715
41.17000 221.733
41.18000 220.598
41.19000 218.342
41.20000 216.269
41.21000 219.283
41.22000 223.069
41.23000 226.112
41.24000 224.944
41.25000 223.115
41.26000 221.584
41.27000 221.171
41.28000 220.865
41.29000 220.643
41.30000 225.146
41.31000 228.793
41.32000 229.886
41.33000 226.525
41.34000 223.082
41.35000 221.687
41.36000 222.677
41.37000 223.668
41.38000 223.572
41.39000 222.656
41.40000 221.707
41.41000 219.463
41.42000 216.555
41.43000 214.114
41.44000 219.247
41.45000 227.035
41.46000 234.179
41.47000 229.951
41.48000 223.779
41.49000 218.611
41.50000 219.035
41.51000 220.325
41.52000 221.406
41.53000 221.717
41.54000 221.956
41.55000 222.129
41.56000 216.351
41.57000 211.690
41.58000 210.168
41.59000 214.034
41.60000 217.993
41.61000 222.071
41.62000 226.287
41.63000 230.490
41.64000 227.946
41.65000 220.414
41.66000 213.057
41.67000 212.174
41.68000 214.560
41.69000 216.632
41.70000 213.739
41.71000 209.129
41.72000 204.909
41.73000 211.012
41.74000 218.588
41.75000 224.003
41.76000 217.562
41.77000 209.320
41.78000 203.406
41.79000 205.963
41.80000 209.294
41.81000 211.699
41.82000 208.050
41.83000 205.035
41.84000 203.380
41.85000 204.027
41.86000 204.712
41.87000 207.046
41.88000 211.240
41.89000 215.422
41.90000 219.409
41.91000 223.223
41.92000 226.865
41.93000 224.442
41.94000 219.001
41.95000 213.755
41.96000 211.543
41.97000 210.363
41.98000 209.285
41.99000 210.727
42.00000 212.522
42.01000 213.911
42.02000 213.108
42.03000 211.978
42.04000 210.467
42.05000 207.589
42.06000 204.590
42.07000 202.435
42.08000 206.698
42.09000 210.183
42.10000 210.698
42.11000 206.259
42.12000 201.745
42.13000 202.499
42.14000 209.102
42.15000 215.685
42.16000 216.919
42.17000 214.301
42.18000 211.789
42.19000 212.908
42.20000 215.809
42.21000 218.443
42.22000 217.063
42.23000 214.335
42.24000 211.848
42.25000 217.550
42.26000 224.250
42.27000 228.095
42.28000 216.792
42.29000 203.267
42.30000 193.272
42.31000 195.740
42.32000 199.297
42.33000 201.842
42.34000 201.228
42.35000 200.654
42.36000 202.185
42.37000 207.178
42.38000 212.220
42.39000 214.048
42.40000 212.364
42.41000 210.685
42.42000 207.986
42.43000 204.591
42.44000 201.172
42.45000 196.984
42.46000 192.424
42.47000 188.461
42.48000 193.250
42.49000 200.934
42.50000 207.927
42.51000 208.638
42.52000 208.029
42.53000 207.319
42.54000 206.089
42.55000 204.783
42.56000 203.456
42.57000 202.053
42.58000 200.644
42.59000 199.641
42.60000 208.056
42.61000 214.774
42.62000 217.327
42.63000 213.140
42.64000 208.860
42.65000 206.735
42.66000 206.926
42.67000 207.118
42.68000 208.413
42.69000 210.464
42.70000 212.453
42.71000 212.513
42.72000 211.654
42.73000 210.782
42.74000 209.736
42.75000 208.632
42.76000 207.629
42.77000 208.480
42.78000 209.592
42.79000 209.547
42.80000 203.559
42.81000 196.730
42.82000 191.480
42.83000 191.638
42.84000 192.249
42.85000 192.682
42.86000 202.568
42.87000 210.382
42.88000 215.306
42.89000 215.620
42.90000 215.874
42.91000 215.514
42.92000 214.505
42.93000 213.500
42.94000 212.118
42.95000 210.493
42.96000 208.912
42.97000 208.696
42.98000 209.120
42.99000 209.418
43.00000 207.975
43.01000 205.971
43.02000 204.155
43.03000 204.873
43.04000 205.989
43.05000 207.119
43.06000 208.319
43.07000 209.529
43.08000 210.225
43.09000 209.184
43.10000 208.001
43.11000 207.167
43.12000 207.622
43.13000 208.006
43.14000 206.547
43.15000 202.192
43.16000 197.802
43.17000 201.038
43.18000 212.197
43.19000 223.298
43.20000 223.992
43.21000 217.670
43.22000 211.476
43.23000 209.045
43.24000 208.357
43.25000 207.712
43.26000 207.657
43.27000 207.789
43.28000 207.909
43.29000 204.106
43.30000 200.024
43.31000 197.154
43.32000 200.310
43.33000 204.288
43.34000 208.062
43.35000 211.160
43.36000 214.204
43.37000 216.343
43.38000 210.755
43.39000 206.297
43.40000 205.694
43.41000 211.056
43.42000 216.485
43.43000 216.347
43.44000 210.521
43.45000 204.728
43.46000 202.479
43.47000 202.606
43.48000 202.742
43.49000 203.124
43.50000 203.618
43.51000 204.044
43.52000 203.578
43.53000 202.832
43.54000 202.159
43.55000 206.154
43.56000 210.523
43.57000 214.268
43.58000 214.958
43.59000 215.240
43.60000 214.171
43.61000 208.677
43.62000 202.838
43.63000 198.755
43.64000 196.824
43.65000 195.426
43.66000 193.893
43.67000 192.154
43.68000 190.413
43.69000 193.732
43.70000 202.133
43.71000 210.482
43.72000 211.743
43.73000 208.364
43.74000 205.060
43.75000 203.800
43.76000 203.458
43.77000 203.148
43.78000 203.244
43.79000 203.465
43.80000 203.664
43.81000 205.711
43.82000 207.840
43.83000 209.021
43.84000 205.635
43.85000 201.648
43.86000 199.087
43.87000 201.136
43.88000 203.537
43.89000 205.207
43.90000 206.337
43.91000 207.174
43.92000 206.632
43.93000 204.017
43.94000 201.382
43.95000 199.275
43.96000 197.690
43.97000 196.115
43.98000 195.959
43.99000 196.716
44.00000 197.524
44.01000 199.683
44.02000 202.442
44.03000 204.878
44.04000 203.242
44.05000 200.372
44.06000 197.792
44.07000 201.080
44.08000 205.000
44.09000 208.522
44.10000 210.151
44.11000 211.535
44.12000 212.137
44.13000 210.248
44.14000 208.174
44.15000 206.737
44.16000 206.354
44.17000 206.093
44.18000 206.893
44.19000 209.260
44.20000 211.642
44.21000 211.344
44.22000 208.445
44.23000 205.567
44.24000 203.533
44.25000 202.063
44.26000 200.615
44.27000 199.715
44.28000 199.054
44.29000 198.731
44.30000 202.610
44.31000 207.741
44.32000 212.344
44.33000 211.082
44.34000 208.956
44.35000 208.299
44.36000 214.498
44.37000 221.566
44.38000 226.179
44.39000 223.087
44.40000 219.436
44.41000 216.919
44.42000 219.475
44.43000 221.522
44.44000 225.105
44.45000 230.925
44.46000 236.763
44.47000 235.595
44.48000 227.738
44.49000 219.942
44.50000 216.680
44.51000 216.290
44.52000 215.992
44.53000 217.921
44.54000 220.809
44.55000 223.745
44.56000 227.258
44.57000 230.941
44.58000 234.237
44.59000 236.197
44.60000 237.678
44.61000 239.949
44.62000 245.850
44.63000 252.202
44.64000 257.200
44.65000 258.014
44.66000 258.530
44.67000 258.885
44.68000 263.341
44.69000 266.779
44.70000 268.338
44.71000 267.202
44.72000 266.045
44.73000 270.746
44.74000 280.946
44.75000 291.063
44.76000 295.431
44.77000 296.206
44.78000 297.341
44.79000 307.087
44.80000 320.488
44.81000 333.559
44.82000 342.730
44.83000 350.770
44.84000 357.951
44.85000 356.648
44.86000 354.086
44.87000 353.381
44.88000 361.073
44.89000 369.788
44.90000 379.206
44.91000 390.760
44.92000 402.462
44.93000 410.448
44.94000 409.533
44.95000 408.642
44.96000 410.689
44.97000 416.888
44.98000 423.115
44.99000 425.228
45.00000 423.542
45.01000 421.870
45.02000 427.013
45.03000 436.161
45.04000 444.960
45.05000 445.715
45.06000 443.105
45.07000 440.222
45.08000 434.176
45.09000 427.227
45.10000 421.034
45.11000 411.373
45.12000 402.401
45.13000 395.531
45.14000 398.021
45.15000 401.631
45.16000 403.191
45.17000 398.598
45.18000 393.590
45.19000 390.190
45.20000 375.934
45.21000 365.054
45.22000 358.152
45.23000 356.783
45.24000 355.450
45.25000 352.180
45.26000 347.152
45.27000 342.171
45.28000 337.441
45.29000 332.955
45.30000 328.369
45.31000 321.533
45.32000 313.768
45.33000 306.438
45.34000 304.023
45.35000 302.991
45.36000 302.073
45.37000 293.272
45.38000 284.355
45.39000 276.902
45.40000 275.863
45.41000 275.576
45.42000 274.135
45.43000 269.279
45.44000 264.199
45.45000 260.767
45.46000 257.923
45.47000 255.818
45.48000 252.584
45.49000 247.802
45.50000 243.015
45.51000 242.690
45.52000 246.353
45.53000 249.980
45.54000 246.667
45.55000 239.379
45.56000 232.425
45.57000 232.742
45.58000 236.014
45.59000 238.649
45.60000 234.216
45.61000 227.826
45.62000 222.157
45.63000 222.764
45.64000 224.290
45.65000 224.912
45.66000 221.635
45.67000 217.909
45.68000 214.508
45.69000 212.053
45.70000 209.658
45.71000 208.049
45.72000 216.053
45.73000 222.198
45.74000 220.857
45.75000 209.420
45.76000 197.937
45.77000 195.351
45.78000 200.585
45.79000 205.765
45.80000 207.337
45.81000 206.806
45.82000 206.277
45.83000 205.796
45.84000 205.335
45.85000 204.761
45.86000 202.972
45.87000 200.851
45.88000 198.974
45.89000 199.978
45.90000 201.296
45.91000 202.313
45.92000 202.047
45.93000 201.636
45.94000 200.121
45.95000 195.431
45.96000 190.543
45.97000 187.275
45.98000 192.843
45.99000 197.144
46.00000 198.341
46.01000 195.414
46.02000 192.468
46.03000 190.424
46.04000 189.160
46.05000 187.909
46.06000 186.437
46.07000 184.874
46.08000 183.389
46.09000 183.476
46.10000 184.184
46.11000 185.079
46.12000 187.967
46.13000 191.390
46.14000 194.414
46.15000 184.835
46.16000 174.632
46.17000 167.997
46.18000 176.288
46.19000 186.231
46.20000 192.851
46.21000 190.060
46.22000 186.696
46.23000 184.458
46.24000 189.138
46.25000 192.729
46.26000 195.182
46.27000 196.146
46.28000 197.101
46.29000 195.657
46.30000 192.174
46.31000 188.731
46.32000 184.946
46.33000 181.063
46.34000 177.383
46.35000 177.722
46.36000 179.626
46.37000 181.286
46.38000 180.412
46.39000 178.866
46.40000 177.503
46.41000 177.894
46.42000 178.495
46.43000 179.380
46.44000 181.438
46.45000 183.624
46.46000 185.060
46.47000 184.406
46.48000 183.628
46.49000 183.114
46.50000 182.268
46.51000 181.638
46.52000 181.943
46.53000 183.453
46.54000 184.964
46.55000 184.929
46.56000 183.598
46.57000 182.285
46.58000 183.663
46.59000 186.478
46.60000 189.034
46.61000 186.570
46.62000 182.182
46.63000 177.949
46.64000 175.299
46.65000 173.062
46.66000 171.096
46.67000 169.808
46.68000 168.800
46.69000 168.043
46.70000 168.302
46.71000 168.669
46.72000 169.743
46.73000 172.764
46.74000 175.897
46.75000 177.960
46.76000 183.713
46.77000 188.014
46.78000 187.919
46.79000 182.258
46.80000 176.586
46.81000 174.681
46.82000 175.881
46.83000 177.066
46.84000 176.256
46.85000 174.394
46.86000 172.618
46.87000 172.452
46.88000 172.894
46.89000 173.674
46.90000 177.817
46.91000 182.823
46.92000 187.212
46.93000 184.101
46.94000 180.341
46.95000 175.865
46.96000 168.529
46.97000 160.896
46.98000 157.005
46.99000 163.264
47.00000 170.092
47.01000 174.562
47.02000 172.865
47.03000 171.517
47.04000 170.531
47.05000 169.995
47.06000 169.464
47.07000 170.103
47.08000 171.692
47.09000 173.259
47.10000 175.595
47.11000 178.273
47.12000 180.701
47.13000 178.577
47.14000 174.757
47.15000 171.187
47.16000 170.062
47.17000 169.556
47.18000 169.113
47.19000 166.632
47.20000 164.216
47.21000 161.740
47.22000 159.026
47.23000 156.287
47.24000 155.612
47.25000 160.451
47.26000 165.591
47.27000 168.938
47.28000 169.810
47.29000 170.410
47.30000 172.802
47.31000 177.392
47.32000 181.970
47.33000 180.896
47.34000 175.309
47.35000 169.803
47.36000 171.278
47.37000 176.351
47.38000 180.885
47.39000 175.863
47.40000 167.332
47.41000 159.538
47.42000 158.791
47.43000 159.801
47.44000 160.683
47.45000 164.792
47.46000 168.758
47.47000 172.075
47.48000 172.873
47.49000 173.419
47.50000 173.092
47.51000 170.467
47.52000 167.719
47.53000 165.940
47.54000 168.012
47.55000 169.585
47.56000 170.896
47.57000 171.893
47.58000 172.880
47.59000 171.356
47.60000 167.857
47.61000 164.411
47.62000 163.117
47.63000 162.968
47.64000 162.781
47.65000 161.962
47.66000 160.914
47.67000 160.329
47.68000 164.078
47.69000 168.892
47.70000 173.082
47.71000 175.089
47.72000 176.504
47.73000 175.995
47.74000 168.142
47.75000 159.572
47.76000 155.538
47.77000 163.283
47.78000 171.635
47.79000 177.014
47.80000 171.666
47.81000 167.611
47.82000 164.713
47.83000 163.189
47.84000 161.672
47.85000 161.245
47.86000 161.662
47.87000 162.073
47.88000 162.967
47.89000 164.078
47.90000 165.024
47.91000 163.197
47.92000 160.381
47.93000 158.440
47.94000 164.530
47.95000 172.561
47.96000 179.533
47.97000 176.662
47.98000 172.889
47.99000 170.860
48.00000 175.386
48.01000 180.541
48.02000 182.770
48.03000 177.514
48.04000 171.883
48.05000 168.278
48.06000 165.310
48.07000 163.157
48.08000 162.730
48.09000 164.322
48.10000 165.905
48.11000 164.756
48.12000 161.527
48.13000 158.351
48.14000 157.960
48.15000 158.965
48.16000 159.984
48.17000 161.238
48.18000 162.574
48.19000 163.575
48.20000 161.556
48.21000 158.817
48.22000 156.446
48.23000 157.626
48.24000 159.098
48.25000 160.025
48.26000 158.936
48.27000 157.657
48.28000 157.495
48.29000 160.147
48.30000 162.937
48.31000 164.713
48.32000 161.357
48.33000 158.854
48.34000 159.260
48.35000 163.017
48.36000 166.764
48.37000 167.961
48.38000 167.246
48.39000 166.542
48.40000 166.612
48.41000 167.057
48.42000 167.721
48.43000 171.851
48.44000 177.184
48.45000 181.630
48.46000 178.266
48.47000 173.072
48.48000 168.585
48.49000 169.347
48.50000 170.675
48.51000 171.767
48.52000 171.999
48.53000 172.152
48.54000 171.457
48.55000 168.655
48.56000 165.753
48.57000 163.916
48.58000 166.592
48.59000 168.587
48.60000 168.787
48.61000 166.954
48.62000 165.131
48.63000 165.290
48.64000 166.912
48.65000 168.505
48.66000 168.357
48.67000 167.377
48.68000 166.352
48.69000 164.630
48.70000 162.671
48.71000 160.894
48.72000 160.682
48.73000 160.832
48.74000 160.961
48.75000 160.448
48.76000 159.932
48.77000 159.701
48.78000 160.500
48.79000 161.391
48.80000 161.574
48.81000 160.020
48.82000 158.387
48.83000 157.359
48.84000 156.312
48.85000 155.555
48.86000 153.657
48.87000 150.487
48.88000 147.339
48.89000 147.689
48.90000 150.583
48.91000 153.422
48.92000 155.791
48.93000 157.850
48.94000 159.841
48.95000 160.803
48.96000 161.418
48.97000 162.138
48.98000 163.752
48.99000 165.569
49.00000 167.130
49.01000 170.762
49.02000 174.093
49.03000 175.222
49.04000 168.553
49.05000 161.198
49.06000 156.853
49.07000 159.776
49.08000 163.020
49.09000 165.050
49.10000 160.880
49.11000 157.804
49.12000 157.297
49.13000 159.606
49.14000 161.897
49.15000 161.171
49.16000 158.284
49.17000 155.455
49.18000 154.441
49.19000 154.313
49.20000 154.188
49.21000 154.105
49.22000 154.037
49.23000 153.848
49.24000 152.658
49.25000 151.244
49.26000 150.032
49.27000 155.704
49.28000 161.334
49.29000 164.929
49.30000 161.423
49.31000 157.308
49.32000 154.558
49.33000 155.060
49.34000 155.702
49.35000 156.101
49.36000 162.967
49.37000 167.977
49.38000 167.744
49.39000 161.860
49.40000 156.003
49.41000 154.254
49.42000 155.401
49.43000 156.523
49.44000 156.099
49.45000 154.980
49.46000 153.770
49.47000 151.247
49.48000 148.295
49.49000 146.000
49.50000 149.075
49.51000 153.333
49.52000 156.973
49.53000 161.588
49.54000 165.595
49.55000 167.638
49.56000 162.929
49.57000 157.653
49.58000 153.924
49.59000 153.827
49.60000 153.881
49.61000 153.914
49.62000 160.982
49.63000 166.127
49.64000 166.670
49.65000 162.334
49.66000 158.007
49.67000 155.103
49.68000 153.185
49.69000 151.309
49.70000 152.599
49.71000 155.268
49.72000 157.777
49.73000 158.040
49.74000 157.579
49.75000 156.835
49.76000 153.831
49.77000 150.336
49.78000 147.357
49.79000 152.139
49.80000 157.073
49.81000 160.937
49.82000 161.172
49.83000 161.110
49.84000 161.506
49.85000 162.960
49.86000 164.457
49.87000 165.377
49.88000 161.866
49.89000 159.311
49.90000 159.031
49.91000 161.126
49.92000 163.215
49.93000 164.521
49.94000 165.294
49.95000 166.049
49.96000 165.063
49.97000 163.343
49.98000 161.726
49.99000 161.507
50.00000 161.732
50.01000 161.662
50.02000 159.282
50.03000 156.408
50.04000 153.965
50.05000 153.407
50.06000 153.156
50.07000 154.078
50.08000 158.918
50.09000 164.071
50.10000 165.858
50.11000 159.969
50.12000 153.782
50.13000 150.002
50.14000 155.401
50.15000 159.339
50.16000 164.751
50.17000 171.673
50.18000 178.531
50.19000 178.432
50.20000 173.646
50.21000 168.974
50.22000 169.074
50.23000 171.261
50.24000 172.875
50.25000 166.826
50.26000 158.379
50.27000 151.003
50.28000 151.880
50.29000 154.490
50.30000 156.704
50.31000 166.580
50.32000 175.721
50.33000 182.377
50.34000 180.856
50.35000 178.695
50.36000 177.277
50.37000 177.530
50.38000 177.845
50.39000 178.036
50.40000 178.883
50.41000 179.492
50.42000 181.327
50.43000 184.399
50.44000 187.525
50.45000 196.100
50.46000 208.290
50.47000 220.181
50.48000 220.022
50.49000 214.673
50.50000 209.785
50.51000 210.902
50.52000 213.870
50.53000 217.005
50.54000 221.403
50.55000 226.061
50.56000 230.000
50.57000 231.581
50.58000 232.643
50.59000 233.318
50.60000 232.741
50.61000 232.067
50.62000 233.217
50.63000 238.402
50.64000 243.735
50.65000 246.952
50.66000 242.608
50.67000 239.460
50.68000 239.353
50.69000 242.258
50.70000 245.142
50.71000 246.088
50.72000 245.769
50.73000 245.458
50.74000 248.589
50.75000 253.039
50.76000 256.886
50.77000 253.059
50.78000 246.902
50.79000 240.958
50.80000 236.598
50.81000 232.560
50.82000 229.156
50.83000 228.866
50.84000 228.960
50.85000 228.901
50.86000 228.348
50.87000 227.760
50.88000 227.398
50.89000 227.533
50.90000 227.686
50.91000 227.777
50.92000 230.011
50.93000 231.612
50.94000 225.504
50.95000 211.885
50.96000 198.334
50.97000 190.701
50.98000 186.878
50.99000 183.155
51.00000 182.891
51.01000 184.083
51.02000 185.279
51.03000 186.514
51.04000 187.760
51.05000 188.811
51.06000 188.432
51.07000 187.767
51.08000 187.208
51.09000 182.816
51.10000 178.749
51.11000 174.938
51.12000 171.936
51.13000 168.992
51.14000 167.148
51.15000 167.669
51.16000 168.271
51.17000 168.629
51.18000 167.550
51.19000 166.777
51.20000 166.383
51.21000 166.354
51.22000 166.330
51.23000 166.776
51.24000 167.519
51.25000 168.242
51.26000 167.812
51.27000 166.928
51.28000 166.154
51.29000 166.724
51.30000 167.690
51.31000 168.588
51.32000 168.992
51.33000 169.298
51.34000 169.555
51.35000 166.067
51.36000 162.776
51.37000 160.277
51.38000 160.233
51.39000 160.364
51.40000 159.683
51.41000 157.280
51.42000 154.821
51.43000 153.366
51.44000 152.461
51.45000 151.824
51.46000 149.864
51.47000 146.656
51.48000 143.522
51.49000 145.964
51.50000 151.892
51.51000 157.651
51.52000 157.876
51.53000 155.851
51.54000 153.913
51.55000 153.023
51.56000 152.437
51.57000 151.788
51.58000 150.702
51.59000 149.532
51.60000 148.553
51.61000 149.204
51.62000 149.911
51.63000 149.455
51.64000 145.447
51.65000 141.192
51.66000 139.866
51.67000 144.661
51.68000 149.648
51.69000 152.581
51.70000 148.855
51.71000 146.193
51.72000 145.381
51.73000 146.283
51.74000 147.162
51.75000 146.419
51.76000 144.677
51.77000 142.986
51.78000 143.224
51.79000 144.219
51.80000 145.199
51.81000 146.007
51.82000 146.765
51.83000 147.313
51.84000 146.407
51.85000 145.225
51.86000 144.239
51.87000 146.697
51.88000 149.077
51.89000 150.232
51.90000 147.700
51.91000 144.917
51.92000 143.381
51.93000 144.411
51.94000 145.518
51.95000 146.165
51.96000 145.628
51.97000 145.246
51.98000 146.381
51.99000 148.899
52.00000 151.413
52.01000 153.578
52.02000 155.531
52.03000 157.426
52.04000 154.017
52.05000 148.711
52.06000 143.838
52.07000 143.908
52.08000 145.372
52.09000 146.628
52.10000 146.471
52.11000 146.048
52.12000 145.697
52.13000 143.961
52.14000 142.389
52.15000 141.816
52.16000 144.209
52.17000 146.798
52.18000 148.559
52.19000 148.640
52.20000 148.671
52.21000 148.690
52.22000 144.788
52.23000 142.033
52.24000 139.947
52.25000 138.462
52.26000 137.022
52.27000 138.513
52.28000 141.755
52.29000 144.894
52.30000 146.799
52.31000 148.124
52.32000 149.374
52.33000 149.780
52.34000 149.952
52.35000 149.922
52.36000 148.544
52.37000 146.916
52.38000 145.568
52.39000 143.760
52.40000 142.224
52.41000 141.381
52.42000 142.566
52.43000 143.882
52.44000 144.686
52.45000 144.464
52.46000 144.213
52.47000 144.069
52.48000 147.258
52.49000 149.504
52.50000 151.734
52.51000 153.949
52.52000 156.125
52.53000 155.977
52.54000 154.460
52.55000 152.992
52.56000 152.259
52.57000 151.845
52.58000 150.984
52.59000 145.245
52.60000 138.169
52.61000 132.694
52.62000 137.697
52.63000 144.603
52.64000 150.307
52.65000 153.324
52.66000 155.559
52.67000 157.349
52.68000 157.852
52.69000 158.274
52.70000 156.989
52.71000 152.337
52.72000 147.595
52.73000 144.880
52.74000 145.526
52.75000 145.985
52.76000 143.875
52.77000 139.535
52.78000 135.237
52.79000 133.359
52.80000 132.886
52.81000 132.429
52.82000 136.209
52.83000 141.358
52.84000 145.886
52.85000 143.805
52.86000 139.940
52.87000 136.787
52.88000 138.207
52.89000 140.444
52.90000 142.286
52.91000 136.298
52.92000 130.657
52.93000 128.370
52.94000 135.611
52.95000 143.435
52.96000 148.727
52.97000 149.100
52.98000 149.347
52.99000 149.487
53.00000 146.818
53.01000 144.950
53.02000 143.394
53.03000 142.104
53.04000 140.838
53.05000 140.836
53.06000 141.556
53.07000 142.251
53.08000 146.979
53.09000 152.914
53.10000 158.000
53.11000 154.238
53.12000 148.126
53.13000 143.193
53.14000 145.724
53.15000 149.565
53.16000 152.718
53.17000 149.149
53.18000 145.619
53.19000 143.821
53.20000 146.876
53.21000 150.220
53.22000 150.984
53.23000 146.806
53.24000 142.506
53.25000 140.078
53.26000 145.350
53.27000 149.034
53.28000 152.463
53.29000 155.677
53.30000 158.863
53.31000 160.566
53.32000 161.434
53.33000 162.271
53.34000 164.641
53.35000 167.423
53.36000 169.668
53.37000 166.422
53.38000 161.739
53.39000 156.856
53.40000 150.730
53.41000 144.389
53.42000 139.200
53.43000 149.658
53.44000 159.596
53.45000 166.401
53.46000 164.561
53.47000 162.220
53.48000 159.831
53.49000 157.351
53.50000 154.868
53.51000 153.477
53.52000 151.562
53.53000 150.231
53.54000 148.086
53.55000 145.267
53.56000 142.535
53.57000 144.082
53.58000 148.002
53.59000 151.777
53.60000 151.023
53.61000 148.702
53.62000 146.659
53.63000 147.385
53.64000 148.824
53.65000 150.085
53.66000 150.251
53.67000 150.232
53.68000 150.215
53.69000 144.306
53.70000 138.970
53.71000 134.586
53.72000 132.796
53.73000 131.151
53.74000 131.588
53.75000 135.895
53.76000 140.289
53.77000 142.735
53.78000 142.220
53.79000 141.858
53.80000 141.178
53.81000 140.241
53.82000 139.322
53.83000 139.234
53.84000 139.601
53.85000 139.953
53.86000 143.786
53.87000 148.599
53.88000 153.045
53.89000 153.899
53.90000 153.840
53.91000 153.539
53.92000 151.780
53.93000 149.777
53.94000 148.148
53.95000 142.135
53.96000 136.861
53.97000 134.326
53.98000 139.134
53.99000 144.345
54.00000 147.808
54.01000 148.065
54.02000 148.254
54.03000 148.359
54.04000 141.062
54.05000 136.029
54.06000 135.371
54.07000 138.218
54.08000 140.977
54.09000 139.804
54.10000 136.512
54.11000 133.350
54.12000 134.989
54.13000 138.179
54.14000 141.255
54.15000 143.249
54.16000 144.971
54.17000 146.345
54.18000 145.659
54.19000 144.635
54.20000 143.805
54.21000 138.470
54.22000 133.756
54.23000 131.729
54.24000 136.803
54.25000 142.256
54.26000 146.392
54.27000 148.146
54.28000 149.852
54.29000 150.788
54.30000 152.561
54.31000 153.769
54.32000 151.327
54.33000 146.006
54.34000 140.742
54.35000 137.898
54.36000 136.339
54.37000 134.844
54.38000 135.654
54.39000 137.192
54.40000 138.642
54.41000 139.254
54.42000 139.659
54.43000 139.528
54.44000 136.273
54.45000 132.514
54.46000 129.477
54.47000 135.266
54.48000 140.678
54.49000 144.531
54.50000 144.323
54.51000 143.904
54.52000 142.441
54.53000 139.118
54.54000 135.759
54.55000 133.929
54.56000 131.990
54.57000 130.670
54.58000 132.253
54.59000 136.089
54.60000 139.873
54.61000 141.535
54.62000 142.086
54.63000 142.614
54.64000 142.514
54.65000 142.210
54.66000 141.978
54.67000 142.407
54.68000 142.997
54.69000 143.752
54.70000 145.452
54.71000 147.303
54.72000 148.793
54.73000 145.681
54.74000 142.796
54.75000 141.651
54.76000 144.975
54.77000 148.524
54.78000 150.652
54.79000 150.290
54.80000 149.881
54.81000 149.660
54.82000 149.310
54.83000 149.066
54.84000 147.872
54.85000 145.952
54.86000 144.102
54.87000 145.022
54.88000 147.371
54.89000 149.618
54.90000 149.817
54.91000 149.330
54.92000 149.209
54.93000 152.404
54.94000 156.390
54.95000 159.236
54.96000 155.682
54.97000 151.130
54.98000 147.476
54.99000 145.689
55.00000 144.384
55.01000 145.110
55.02000 150.975
55.03000 157.092
55.04000 159.700
55.05000 156.245
55.06000 152.682
55.07000 150.771
55.08000 149.614
55.09000 148.836
55.10000 150.578
55.11000 154.216
55.12000 157.786
55.13000 158.808
55.14000 158.536
55.15000 158.275
55.16000 155.974
55.17000 153.174
55.18000 150.470
55.19000 148.623
55.20000 146.977
55.21000 146.266
55.22000 150.720
55.23000 155.965
55.24000 160.161
55.25000 164.408
55.26000 167.846
55.27000 168.683
55.28000 163.034
55.29000 157.077
55.30000 155.394
55.31000 160.988
55.32000 166.704
55.33000 169.746
55.34000 175.798
55.35000 179.909
55.36000 182.092
55.37000 182.844
55.38000 183.599
55.39000 184.411
55.40000 185.252
55.41000 186.055
55.42000 185.246
55.43000 183.982
55.44000 183.133
55.45000 185.892
55.46000 189.486
55.47000 193.556
55.48000 200.210
55.49000 207.251
55.50000 212.866
55.51000 212.531
55.52000 211.827
55.53000 212.671
55.54000 217.318
55.55000 222.140
55.56000 229.063
55.57000 239.510
55.58000 250.013
55.59000 255.560
55.60000 262.088
55.61000 266.543
55.62000 274.692
55.63000 285.536
55.64000 296.282
55.65000 303.644
55.66000 309.336
55.67000 314.760
55.68000 324.447
55.69000 334.762
55.70000 345.380
55.71000 358.577
55.72000 372.361
55.73000 386.780
55.74000 404.592
55.75000 422.905
55.76000 437.456
55.77000 447.867
55.78000 455.958
55.79000 465.016
55.80000 476.418
55.81000 487.925
55.82000 497.287
55.83000 503.104
55.84000 508.867
55.85000 511.887
55.86000 535.327
55.87000 551.165
55.88000 560.202
55.89000 564.354
55.90000 568.405
55.91000 569.072
55.92000 568.092
55.93000 567.160
55.94000 577.804
55.95000 591.225
55.96000 601.700
55.97000 587.583
55.98000 567.946
55.99000 551.290
56.00000 550.309
56.01000 551.603
56.02000 552.628
56.03000 541.574
56.04000 531.850
56.05000 521.157
56.06000 508.147
56.07000 495.038
56.08000 482.750
56.09000 471.801
56.10000 460.871
56.11000 455.190
56.12000 422.114
56.13000 399.826
56.14000 385.679
56.15000 377.290
56.16000 369.022
56.17000 364.614
56.18000 362.055
56.19000 359.624
56.20000 348.438
56.21000 335.447
56.22000 322.581
56.23000 310.747
56.24000 299.142
56.25000 288.133
56.26000 280.210
56.27000 272.726
56.28000 266.821
56.29000 259.435
56.30000 253.408
56.31000 246.644
56.32000 238.142
56.33000 229.567
56.34000 224.804
56.35000 226.160
56.36000 227.598
56.37000 228.339
56.38000 214.203
56.39000 204.697
56.40000 197.511
56.41000 191.940
56.42000 186.536
56.43000 186.258
56.44000 188.405
56.45000 190.441
56.46000 187.806
56.47000 183.980
56.48000 180.374
56.49000 178.526
56.50000 177.062
56.51000 175.291
56.52000 171.958
56.53000 168.407
56.54000 165.615
56.55000 170.730
56.56000 175.348
56.57000 176.763
56.58000 170.746
56.59000 164.428
56.60000 159.198
56.61000 155.686
56.62000 152.195
56.63000 150.410
56.64000 152.645
56.65000 154.128
56.66000 153.413
56.67000 151.188
56.68000 148.959
56.69000 146.590
56.70000 144.156
56.71000 141.849
56.72000 144.057
56.73000 147.416
56.74000 150.375
56.75000 150.183
56.76000 149.316
56.77000 149.217
56.78000 152.967
56.79000 157.246
56.80000 160.598
56.81000 154.639
56.82000 149.277
56.83000 145.186
56.84000 144.004
56.85000 142.936
56.86000 143.309
56.87000 145.929
56.88000 148.575
56.89000 149.917
56.90000 147.124
56.91000 145.248
56.92000 142.723
56.93000 139.761
56.94000 136.753
56.95000 132.449
56.96000 127.549
56.97000 122.912
56.98000 124.286
56.99000 127.286
57.00000 129.963
57.01000 130.149
57.02000 129.810
57.03000 128.909
57.04000 125.244
57.05000 121.205
57.06000 118.052
57.07000 124.824
57.08000 130.848
57.09000 135.690
57.10000 137.870
57.11000 139.949
57.12000 140.098
57.13000 137.284
57.14000 134.438
57.15000 133.007
57.16000 128.324
57.17000 125.238
57.18000 126.445
57.19000 130.510
57.20000 134.437
57.21000 134.587
57.22000 133.026
57.23000 131.551
57.24000 132.732
57.25000 134.571
57.26000 136.110
57.27000 135.367
57.28000 134.152
57.29000 133.451
57.30000 135.250
57.31000 137.379
57.32000 139.036
57.33000 132.893
57.34000 127.527
57.35000 126.020
57.36000 133.091
57.37000 140.475
57.38000 141.812
57.39000 134.013
57.40000 126.120
57.41000 124.046
57.42000 127.759
57.43000 131.472
57.44000 135.129
57.45000 138.750
57.46000 142.171
57.47000 140.252
57.48000 135.951
57.49000 131.893
57.50000 130.064
57.51000 129.010
57.52000 128.180
57.53000 129.020
57.54000 130.201
57.55000 130.706
57.56000 127.985
57.57000 124.844
57.58000 122.410
57.59000 121.562
57.60000 120.983
57.61000 121.335
57.62000 123.726
57.63000 126.189
57.64000 128.882
57.65000 131.917
57.66000 134.955
57.67000 132.346
57.68000 124.213
57.69000 116.157
57.70000 114.832
57.71000 117.855
57.72000 120.891
57.73000 124.254
57.74000 127.760
57.75000 131.063
57.76000 128.323
57.77000 124.154
57.78000 120.931
57.79000 124.634
57.80000 129.729
57.81000 133.648
57.82000 132.043
57.83000 129.732
57.84000 127.948
57.85000 127.632
57.86000 127.466
57.87000 127.181
57.88000 126.637
57.89000 126.084
57.90000 126.908
57.91000 129.748
57.92000 132.606
57.93000 132.029
57.94000 128.149
57.95000 124.301
57.96000 122.967
57.97000 123.232
57.98000 123.504
57.99000 123.925
58.00000 124.410
58.01000 124.866
58.02000 121.228
58.03000 116.798
58.04000 113.439
58.05000 117.782
58.06000 123.649
58.07000 128.329
58.08000 127.522
58.09000 126.028
58.10000 124.878
58.11000 121.060
58.12000 117.888
58.13000 116.507
58.14000 118.935
58.15000 121.488
58.16000 122.624
58.17000 121.711
58.18000 120.783
58.19000 120.416
58.20000 120.580
58.21000 120.736
58.22000 120.291
58.23000 119.468
58.24000 118.753
58.25000 120.639
58.26000 123.636
58.27000 126.450
58.28000 124.990
58.29000 122.521
58.30000 120.225
58.31000 119.148
58.32000 118.308
58.33000 117.526
58.34000 117.007
58.35000 116.521
58.36000 116.148
58.37000 117.556
58.38000 118.766
58.39000 119.591
58.40000 119.606
58.41000 119.596
58.42000 120.530
58.43000 122.805
58.44000 125.089
58.45000 125.634
58.46000 124.561
58.47000 123.505
58.48000 123.729
58.49000 124.742
58.50000 125.742
58.51000 126.407
58.52000 126.933
58.53000 127.425
58.54000 131.730
58.55000 136.646
58.56000 140.496
58.57000 136.943
58.58000 131.974
58.59000 127.215
58.60000 123.396
58.61000 119.691
58.62000 116.862
58.63000 123.732
58.64000 129.668
58.65000 132.519
58.66000 128.997
58.67000 125.280
58.68000 124.040
58.69000 126.267
58.70000 128.517
58.71000 127.352
58.72000 123.067
58.73000 118.830
58.74000 117.899
58.75000 118.981
58.76000 120.006
58.77000 119.750
58.78000 118.962
58.79000 118.224
58.80000 120.541
58.81000 123.434
58.82000 126.004
58.83000 126.380
58.84000 126.342
58.85000 126.243
58.86000 125.871
58.87000 125.468
58.88000 125.161
58.89000 123.613
58.90000 122.331
58.91000 121.746
58.92000 122.584
58.93000 123.463
58.94000 122.699
58.95000 119.666
58.96000 116.621
58.97000 117.500
58.98000 121.906
58.99000 126.277
59.00000 128.363
59.01000 129.079
59.02000 129.576
59.03000 125.244
59.04000 118.938
59.05000 113.043
59.06000 115.704
59.07000 120.284
59.08000 123.932
59.09000 121.348
59.10000 117.610
59.11000 114.797
59.12000 116.000
59.13000 117.670
59.14000 118.935
59.15000 116.364
59.16000 114.151
59.17000 114.368
59.18000 119.464
59.19000 124.698
59.20000 127.217
59.21000 126.051
59.22000 124.864
59.23000 125.023
59.24000 126.372
59.25000 127.700
59.26000 127.725
59.27000 126.981
59.28000 126.232
59.29000 125.354
59.30000 124.426
59.31000 123.559
59.32000 123.817
59.33000 124.330
59.34000 124.711
59.35000 124.230
59.36000 123.590
59.37000 123.221
59.38000 124.007
59.39000 124.924
59.40000 125.615
59.41000 124.407
59.42000 123.367
59.43000 123.568
59.44000 126.228
59.45000 128.954
59.46000 129.642
59.47000 127.604
59.48000 125.554
59.49000 124.041
59.50000 122.996
59.51000 121.962
59.52000 121.593
59.53000 121.611
59.54000 121.680
59.55000 122.802
59.56000 124.344
59.57000 125.780
59.58000 124.299
59.59000 122.247
59.60000 120.728
59.61000 122.656
59.62000 125.202
59.63000 127.476
59.64000 128.608
59.65000 129.613
59.66000 130.368
59.67000 120.125
59.68000 111.588
59.69000 107.373
59.70000 111.586
59.71000 116.018
59.72000 116.783
59.73000 112.722
59.74000 108.643
59.75000 109.007
59.76000 113.169
59.77000 117.340
59.78000 121.969
59.79000 126.861
59.80000 131.520
59.81000 131.481
59.82000 129.603
59.83000 127.856
59.84000 127.856
59.85000 128.277
59.86000 128.438
59.87000 126.953
59.88000 125.177
59.89000 123.595
59.90000 122.815
59.91000 122.122
59.92000 121.603
59.93000 124.237
59.94000 126.440
59.95000 126.631
59.96000 122.958
59.97000 119.188
59.98000 119.764
59.99000 125.970
60.00000 132.193
60.01000 134.585
60.02000 133.749
60.03000 132.851
60.04000 128.729
60.05000 122.785
60.06000 117.033
60.07000 115.022
60.08000 114.454
60.09000 113.927
60.10000 115.936
60.11000 118.347
60.12000 120.990
60.13000 125.078
60.14000 129.417
60.15000 132.573
60.16000 130.893
60.17000 128.695
60.18000 127.057
60.19000 124.261
60.20000 122.031
60.21000 120.936
60.22000 121.989
60.23000 123.093
60.24000 122.829
60.25000 120.819
60.26000 118.805
60.27000 118.946
60.28000 120.870
60.29000 122.723
60.30000 121.085
60.31000 117.503
60.32000 114.041
60.33000 112.848
60.34000 112.519
60.35000 112.213
60.36000 115.804
60.37000 119.942
60.38000 123.706
60.39000 125.177
60.40000 126.257
60.41000 126.487
60.42000 123.300
60.43000 119.754
60.44000 117.122
60.45000 120.698
60.46000 123.751
60.47000 125.148
60.48000 123.454
60.49000 121.689
60.50000 121.016
60.51000 121.712
60.52000 122.411
60.53000 121.783
60.54000 120.078
60.55000 118.409
60.56000 118.447
60.57000 119.423
60.58000 120.335
60.59000 120.072
60.60000 119.369
60.61000 118.719
60.62000 117.092
60.63000 115.407
60.64000 114.655
60.65000 119.532
60.66000 125.353
60.67000 129.247
60.68000 125.508
60.69000 120.984
60.70000 117.638
60.71000 116.519
60.72000 115.746
60.73000 116.031
60.74000 118.261
60.75000 120.533
60.76000 121.291
60.77000 120.177
60.78000 119.060
60.79000 116.421
60.80000 112.576
60.81000 108.850
60.82000 110.506
60.83000 115.072
60.84000 119.377
60.85000 119.009
60.86000 116.914
60.87000 114.979
60.88000 114.615
60.89000 114.642
60.90000 115.105
60.91000 118.154
60.92000 121.629
60.93000 124.394
60.94000 124.387
60.95000 124.099
60.96000 123.888
60.97000 123.179
60.98000 122.610
60.99000 121.467
61.00000 119.284
61.01000 117.079
61.02000 117.981
61.03000 122.662
61.04000 127.343
61.05000 129.737
61.06000 130.319
61.07000 130.859
61.08000 129.584
61.09000 127.342
61.10000 125.136
61.11000 123.550
61.12000 122.191
61.13000 120.938
61.14000 120.713
61.15000 120.739
61.16000 121.039
61.17000 122.936
61.18000 125.091
61.19000 126.820
61.20000 126.911
61.21000 126.840
61.22000 126.788
61.23000 124.445
61.24000 122.542
61.25000 120.760
61.26000 119.193
61.27000 117.630
61.28000 118.229
61.29000 121.414
61.30000 124.599
61.31000 128.985
61.32000 134.279
61.33000 139.463
61.34000 140.057
61.35000 138.241
61.36000 136.303
61.37000 132.280
61.38000 127.507
61.39000 123.117
61.40000 126.962
61.41000 132.190
61.42000 136.455
61.43000 135.198
61.44000 133.063
61.45000 133.744
61.46000 145.086
61.47000 157.459
61.48000 166.494
61.49000 169.928
61.50000 172.358
61.51000 181.765
61.52000 203.453
61.53000 225.372
61.54000 246.328
61.55000 266.150
61.56000 285.923
61.57000 302.582
61.58000 316.765
61.59000 331.047
61.60000 349.234
61.61000 369.443
61.62000 389.467
61.63000 406.444
61.64000 422.343
61.65000 436.943
61.66000 442.416
61.67000 445.346
61.68000 448.132
61.69000 450.100
61.70000 451.939
61.71000 453.006
61.72000 451.194
61.73000 449.109
61.74000 447.594
61.75000 412.058
61.76000 383.433
61.77000 356.409
61.78000 332.163
61.79000 307.966
61.80000 284.566
61.81000 262.090
61.82000 239.676
61.83000 220.991
61.84000 205.230
61.85000 189.574
61.86000 177.929
61.87000 168.329
61.88000 159.245
61.89000 158.468
61.90000 160.589
61.91000 162.532
61.92000 156.955
61.93000 150.407
61.94000 144.386
61.95000 141.283
61.96000 138.628
61.97000 136.580
61.98000 136.764
61.99000 137.155
62.00000 137.438
62.01000 136.648
62.02000 136.003
62.03000 135.391
62.04000 134.837
62.05000 134.284
62.06000 134.248
62.07000 134.801
62.08000 135.354
62.09000 135.442
62.10000 135.188
62.11000 134.973
62.12000 136.197
62.13000 138.146
62.14000 139.939
62.15000 139.301
62.16000 137.827
62.17000 136.479
62.18000 132.498
62.19000 128.415
62.20000 124.891
62.21000 124.414
62.22000 124.397
62.23000 125.393
62.24000 130.057
62.25000 135.054
62.26000 138.655
62.27000 136.075
62.28000 133.879
62.29000 133.132
62.30000 134.825
62.31000 136.556
62.32000 137.656
62.33000 138.046
62.34000 138.434
62.35000 137.413
62.36000 135.379
62.37000 133.422
62.38000 134.142
62.39000 136.188
62.40000 138.226
62.41000 140.137
62.42000 142.005
62.43000 143.710
62.44000 144.792
62.45000 145.627
62.46000 146.044
62.47000 144.228
62.48000 142.081
62.49000 140.454
62.50000 140.683
62.51000 141.077
62.52000 141.360
62.53000 141.281
62.54000 141.208
62.55000 141.194
62.56000 141.276
62.57000 141.359
62.58000 142.041
62.59000 143.383
62.60000 144.721
62.61000 142.730
62.62000 138.381
62.63000 134.186
62.64000 135.196
62.65000 138.747
62.66000 141.863
62.67000 138.503
62.68000 132.980
62.69000 127.946
62.70000 131.858
62.71000 137.109
62.72000 141.122
62.73000 138.598
62.74000 135.122
62.75000 133.416
62.76000 137.925
62.77000 142.973
62.78000 146.578
62.79000 146.148
62.80000 145.685
62.81000 144.869
62.82000 143.475
62.83000 142.072
62.84000 141.122
62.85000 140.663
62.86000 140.206
62.87000 138.190
62.88000 135.098
62.89000 132.086
62.90000 131.663
62.91000 132.485
62.92000 133.405
62.93000 135.738
62.94000 138.535
62.95000 141.079
62.96000 136.371
62.97000 130.785
62.98000 126.813
62.99000 131.225
63.00000 136.837
63.01000 141.591
63.02000 143.379
63.03000 144.915
63.04000 146.007
63.05000 142.208
63.06000 139.157
63.07000 137.048
63.08000 136.453
63.09000 135.878
63.10000 136.822
63.11000 139.388
63.12000 141.943
63.13000 144.071
63.14000 145.881
63.15000 147.622
63.16000 147.230
63.17000 145.826
63.18000 144.557
63.19000 145.206
63.20000 146.476
63.21000 147.629
63.22000 139.940
63.23000 131.448
63.24000 125.194
63.25000 130.378
63.26000 137.171
63.27000 142.581
63.28000 143.280
63.29000 143.588
63.30000 143.807
63.31000 142.540
63.32000 141.531
63.33000 140.156
63.34000 138.200
63.35000 136.237
63.36000 138.055
63.37000 143.845
63.38000 149.606
63.39000 148.059
63.40000 141.557
63.41000 135.239
63.42000 134.430
63.43000 136.196
63.44000 137.760
63.45000 136.525
63.46000 134.395
63.47000 132.466
63.48000 135.751
63.49000 139.633
63.50000 142.796
63.51000 142.343
63.52000 141.390
63.53000 141.686
63.54000 146.179
63.55000 151.012
63.56000 154.417
63.57000 152.000
63.58000 149.992
63.59000 148.099
63.60000 146.384
63.61000 144.671
63.62000 141.733
63.63000 137.530
63.64000 133.349
63.65000 135.934
63.66000 143.015
63.67000 149.950
63.68000 152.639
63.69000 153.372
63.70000 153.811
63.71000 150.284
63.72000 145.508
63.73000 141.191
63.74000 140.410
63.75000 140.382
63.76000 140.943
63.77000 144.422
63.78000 148.297
63.79000 151.875
63.80000 154.471
63.81000 156.991
63.82000 158.757
63.83000 154.255
63.84000 150.667
63.85000 150.136
63.86000 154.310
63.87000 158.537
63.88000 159.358
63.89000 156.722
63.90000 154.100
63.91000 152.335
63.92000 151.156
63.93000 150.115
63.94000 152.879
63.95000 157.373
63.96000 161.426
63.97000 159.678
63.98000 156.130
63.99000 152.930
64.00000 152.245
64.01000 152.105
64.02000 152.087
64.03000 152.674
64.04000 153.340
64.05000 154.454
64.06000 157.030
64.07000 159.719
64.08000 161.596
64.09000 159.925
64.10000 158.565
64.11000 157.919
64.12000 158.357
64.13000 158.806
64.14000 158.013
64.15000 155.980
64.16000 153.960
64.17000 155.163
64.18000 158.440
64.19000 161.711
64.20000 164.855
64.21000 167.942
64.22000 170.409
64.23000 164.902
64.24000 156.958
64.25000 149.806
64.26000 160.215
64.27000 172.494
64.28000 181.784
64.29000 176.761
64.30000 169.867
64.31000 165.404
64.32000 168.752
64.33000 172.691
64.34000 175.427
64.35000 168.966
64.36000 163.851
64.37000 164.015
64.38000 172.061
64.39000 180.183
64.40000 179.872
64.41000 171.281
64.42000 162.749
64.43000 159.486
64.44000 159.635
64.45000 159.897
64.46000 163.102
64.47000 167.605
64.48000 171.730
64.49000 171.084
64.50000 169.002
64.51000 167.131
64.52000 168.067
64.53000 169.380
64.54000 170.499
64.55000 170.700
64.56000 170.782
64.57000 170.691
64.58000 170.047
64.59000 169.362
64.60000 168.889
64.61000 174.026
64.62000 178.034
64.63000 181.496
64.64000 184.156
64.65000 186.808
64.66000 186.910
64.67000 184.550
64.68000 182.208
64.69000 184.364
64.70000 189.311
64.71000 194.063
64.72000 193.935
64.73000 191.684
64.74000 189.671
64.75000 190.587
64.76000 192.373
64.77000 193.973
64.78000 194.708
64.79000 195.201
64.80000 195.575
64.81000 195.399
64.82000 195.154
64.83000 196.138
64.84000 200.959
64.85000 206.056
64.86000 209.563
64.87000 205.027
64.88000 201.424
64.89000 200.062
64.90000 201.946
64.91000 203.856
64.92000 206.561
64.93000 210.020
64.94000 213.453
64.95000 216.775
64.96000 219.972
64.97000 223.065
64.98000 223.625
64.99000 223.098
65.00000 222.510
65.01000 221.169
65.02000 219.608
65.03000 218.212
65.04000 225.184
65.05000 232.687
65.06000 238.022
65.07000 233.453
65.08000 227.661
65.09000 225.055
65.10000 232.245
65.11000 240.124
65.12000 245.517
65.13000 245.155
65.14000 244.745
65.15000 244.372
65.16000 244.049
65.17000 243.728
65.18000 247.321
65.19000 254.568
65.20000 261.755
65.21000 268.558
65.22000 275.003
65.23000 281.503
65.24000 289.287
65.25000 297.615
65.26000 305.327
65.27000 305.820
65.28000 304.234
65.29000 302.817
65.30000 308.710
65.31000 315.060
65.32000 322.680
65.33000 336.007
65.34000 350.025
65.35000 360.947
65.36000 362.485
65.37000 363.380
65.38000 363.989
65.39000 375.996
65.40000 385.228
65.41000 391.654
65.42000 394.136
65.43000 396.593
65.44000 401.444
65.45000 408.495
65.46000 415.484
65.47000 424.520
65.48000 434.608
65.49000 444.816
65.50000 457.774
65.51000 471.876
65.52000 486.253
65.53000 503.794
65.54000 522.232
65.55000 538.650
65.56000 549.704
65.57000 558.427
65.58000 569.467
65.59000 590.765
65.60000 613.283
65.61000 636.378
65.62000 661.198
65.63000 686.133
65.64000 703.034
65.65000 783.416
65.66000 844.744
65.67000 927.364
65.68000 1039.440
65.69000 1151.729
65.70000 1303.427
65.71000 1490.722
65.72000 1676.245
65.73000 1873.879
65.74000 2074.615
65.75000 2274.479
65.76000 2455.066
65.77000 2627.742
65.78000 2798.090
65.79000 2942.296
65.80000 3079.189
65.81000 3200.816
65.82000 3258.436
65.83000 3298.092
65.84000 3334.525
65.85000 3356.907
65.86000 3377.651
65.87000 3384.505
65.88000 3350.474
65.89000 3313.778
65.90000 3289.031
65.91000 3183.402
65.92000 3103.108
65.93000 2989.928
65.94000 2831.946
65.95000 2673.675
65.96000 2480.299
65.97000 2255.729
65.98000 2033.416
65.99000 1819.226
66.00000 1614.347
66.01000 1411.410
66.02000 1250.174
66.03000 1105.804
66.04000 965.540
66.05000 870.401
66.06000 787.698
66.07000 714.384
66.08000 678.569
66.09000 653.497
66.10000 628.002
66.11000 600.689
66.12000 573.168
66.13000 546.481
66.14000 522.215
66.15000 498.102
66.16000 481.924
66.17000 494.429
66.18000 504.292
66.19000 510.872
66.20000 513.048
66.21000 515.208
66.22000 524.903
66.23000 541.182
66.24000 557.289
66.25000 583.191
66.26000 614.096
66.27000 645.264
66.28000 681.898
66.29000 720.712
66.30000 758.711
66.31000 787.943
66.32000 814.795
66.33000 838.543
66.34000 877.479
66.35000 913.487
66.36000 945.459
66.37000 960.372
66.38000 973.373
66.39000 980.934
66.40000 972.940
66.41000 963.985
66.42000 958.007
66.43000 959.437
66.44000 960.639
66.45000 949.806
66.46000 923.079
66.47000 896.289
66.48000 877.808
66.49000 866.474
66.50000 855.268
66.51000 822.728
66.52000 778.980
66.53000 735.138
66.54000 689.413
66.55000 642.947
66.56000 598.663
66.57000 577.355
66.58000 562.190
66.59000 548.809
66.60000 529.722
66.61000 512.386
66.62000 495.999
66.63000 483.561
66.64000 471.556
66.65000 463.202
66.66000 465.133
66.67000 467.684
66.68000 469.378
66.69000 475.223
66.70000 479.620
66.71000 481.064
66.72000 478.668
66.73000 476.257
66.74000 474.379
66.75000 472.951
66.76000 471.540
66.77000 466.260
66.78000 458.973
66.79000 452.043
66.80000 452.140
66.81000 454.959
66.82000 458.027
66.83000 463.664
66.84000 469.978
66.85000 475.536
66.86000 470.820
66.87000 465.221
66.88000 462.178
66.89000 469.614
66.90000 478.177
66.91000 485.780
66.92000 490.715
66.93000 495.493
66.94000 498.649
66.95000 489.385
66.96000 482.332
66.97000 479.269
66.98000 481.312
66.99000 483.377
67.00000 487.070
67.01000 492.117
67.02000 497.101
67.03000 497.608
67.04000 495.666
67.05000 493.602
67.06000 489.181
67.07000 483.861
67.08000 479.659
67.09000 486.728
67.10000 496.721
67.11000 505.498
67.12000 499.321
67.13000 491.815
67.14000 487.106
67.15000 493.688
67.16000 501.461
67.17000 507.684
67.18000 509.661
67.19000 511.396
67.20000 512.536
67.21000 510.663
67.22000 509.235
67.23000 510.444
67.24000 514.977
67.25000 519.517
67.26000 522.404
67.27000 523.938
67.28000 525.451
67.29000 518.412
67.30000 506.986
67.31000 496.368
67.32000 500.737
67.33000 510.744
67.34000 520.399
67.35000 526.568
67.36000 531.847
67.37000 536.471
67.38000 531.537
67.39000 525.924
67.40000 522.090
67.41000 525.320
67.42000 529.282
67.43000 535.516
67.44000 547.884
67.45000 560.592
67.46000 568.896
67.47000 562.879
67.48000 558.230
67.49000 553.667
67.50000 549.213
67.51000 544.783
67.52000 548.954
67.53000 560.064
67.54000 571.019
67.55000 574.353
67.56000 573.578
67.57000 572.454
67.58000 565.032
67.59000 555.276
67.60000 546.869
67.61000 551.532
67.62000 559.484
67.63000 566.434
67.64000 572.227
67.65000 577.023
67.66000 581.624
67.67000 585.460
67.68000 589.218
67.69000 592.457
67.70000 594.317
67.71000 596.102
67.72000 597.263
67.73000 608.188
67.74000 616.343
67.75000 620.018
67.76000 618.223
67.77000 616.407
67.78000 612.070
67.79000 605.732
67.80000 599.486
67.81000 601.142
67.82000 606.846
67.83000 612.200
67.84000 611.409
67.85000 608.371
67.86000 605.949
67.87000 609.368
67.88000 614.235
67.89000 618.478
67.90000 623.877
67.91000 628.651
67.92000 633.162
67.93000 636.652
67.94000 640.041
67.95000 641.614
67.96000 638.428
67.97000 634.992
67.98000 632.771
67.99000 632.388
68.00000 632.135
68.01000 639.897
68.02000 657.289
68.03000 674.677
68.04000 685.790
68.05000 691.997
68.06000 698.108
68.07000 692.607
68.08000 681.347
68.09000 671.080
68.10000 677.757
68.11000 690.538
68.12000 702.307
68.13000 704.669
68.14000 704.735
68.15000 704.792
68.16000 707.174
68.17000 709.523
68.18000 711.764
68.19000 713.595
68.20000 715.386
68.21000 713.927
68.22000 704.072
68.23000 693.790
68.24000 687.181
68.25000 704.715
68.26000 717.840
68.27000 729.352
68.28000 738.957
68.29000 748.551
68.30000 756.443
68.31000 763.025
68.32000 769.500
68.33000 781.693
68.34000 796.369
68.35000 810.661
68.36000 818.595
68.37000 824.270
68.38000 829.515
68.39000 830.846
68.40000 831.236
68.41000 831.575
68.42000 849.346
68.43000 866.812
68.44000 883.565
68.45000 897.648
68.46000 911.477
68.47000 921.699
68.48000 922.738
68.49000 923.322
68.50000 923.695
68.51000 952.153
68.52000 973.234
68.53000 996.538
68.54000 1022.425
68.55000 1048.341
68.56000 1079.449
68.57000 1114.491
68.58000 1148.938
68.59000 1187.411
68.60000 1226.597
68.61000 1266.350
68.62000 1315.271
68.63000 1367.400
68.64000 1422.823
68.65000 1507.668
68.66000 1599.478
68.67000 1678.919
68.68000 1755.556
68.69000 1820.339
68.70000 1889.921
68.71000 1977.187
68.72000 2066.098
68.73000 2150.767
68.74000 2224.790
68.75000 2298.300
68.76000 2345.015
68.77000 2428.532
68.78000 2489.641
68.79000 2587.463
68.80000 2727.306
68.81000 2867.223
68.82000 3012.189
68.83000 3160.921
68.84000 3307.008
68.85000 3530.748
68.86000 3784.571
68.87000 4051.365
68.88000 4522.616
68.89000 5064.378
68.90000 5670.207
68.91000 6836.981
68.92000 8134.518
68.93000 9254.369
68.94000 12653.079
68.95000 15830.241
68.96000 19465.238
68.97000 24762.469
68.98000 30211.070
68.99000 35878.445
69.00000 42086.977
69.01000 48320.738
69.02000 52259.492
69.03000 59193.367
69.04000 64252.762
69.05000 68278.000
69.06000 71138.680
69.07000 73993.016
69.08000 75917.289
69.09000 77158.492
69.10000 78376.625
69.11000 79566.500
69.12000 80700.313
69.13000 81835.656
69.14000 82994.609
69.15000 84161.578
69.16000 85217.852
69.17000 85323.688
69.18000 85211.375
69.19000 85114.695
69.20000 81721.375
69.21000 78431.375
69.22000 74827.836
69.23000 70102.859
69.24000 65277.977
69.25000 60685.992
69.26000 56661.855
69.27000 52663.391
69.28000 50151.629
69.29000 46466.953
69.30000 43790.102
69.31000 41888.590
69.32000 40846.004
69.33000 39805.172
69.34000 38954.395
69.35000 38241.055
69.36000 37541.570
69.37000 36154.195
69.38000 34493.813
69.39000 32766.844
69.40000 30042.740
69.41000 26984.635
69.42000 23921.381
69.43000 20814.777
69.44000 17698.377
69.45000 15022.733
69.46000 12321.181
69.47000 10033.977
69.48000 7941.253
69.49000 6533.833
69.50000 5186.138
69.51000 4069.948
69.52000 3510.105
69.53000 2974.636
69.54000 2640.234
69.55000 2321.702
69.56000 2092.105
69.57000 1910.382
69.58000 1780.826
69.59000 1651.481
69.60000 1548.995
69.61000 1465.637
69.62000 1383.968
69.63000 1328.703
69.64000 1287.809
69.65000 1246.797
69.66000 1204.044
69.67000 1160.718
69.68000 1118.475
69.69000 1085.191
69.70000 1053.899
69.71000 1027.103
69.72000 992.023
69.73000 961.415
69.74000 932.288
69.75000 908.306
69.76000 884.762
69.77000 863.852
69.78000 849.182
69.79000 834.776
69.80000 825.833
69.81000 797.591
69.82000 777.078
69.83000 765.688
69.84000 764.079
69.85000 762.425
69.86000 754.644
69.87000 742.566
69.88000 730.742
69.89000 708.248
69.90000 681.771
69.91000 656.596
69.92000 649.983
69.93000 649.410
69.94000 648.653
69.95000 646.414
69.96000 643.851
69.97000 641.662
69.98000 630.120
69.99000 619.287
70.00000 608.536
