20.00000 501.925
20.01000 500.444
20.02000 498.752
20.03000 494.914
20.04000 482.613
20.05000 469.447
20.06000 459.723
20.07000 466.080
20.08000 471.689
20.09000 479.203
20.10000 490.202
20.11000 501.275
20.12000 505.024
20.13000 499.764
20.14000 494.489
20.15000 490.395
20.16000 487.258
20.17000 484.198
20.18000 484.553
20.19000 486.745
20.20000 488.644
20.21000 485.320
20.22000 480.073
20.23000 475.231
20.24000 479.183
20.25000 484.694
20.26000 489.939
20.27000 493.620
20.28000 497.044
20.29000 498.129
20.30000 490.129
20.31000 481.219
20.32000 474.666
20.33000 483.281
20.34000 490.569
20.35000 496.481
20.36000 499.911
20.37000 503.290
20.38000 503.311
20.39000 499.267
20.40000 495.222
20.41000 495.270
20.42000 498.528
20.43000 501.611
20.44000 497.298
20.45000 489.062
20.46000 481.337
20.47000 482.451
20.48000 486.771
20.49000 490.751
20.50000 487.812
20.51000 483.660
20.52000 479.512
20.53000 475.388
20.54000 471.268
20.55000 468.050
20.56000 468.286
20.57000 468.860
20.58000 469.281
20.59000 468.759
20.60000 468.318
20.61000 471.190
20.62000 479.952
20.63000 488.828
20.64000 489.796
20.65000 481.340
20.66000 472.885
20.67000 469.338
20.68000 469.595
20.69000 469.995
20.70000 476.224
20.71000 485.501
20.72000 494.234
20.73000 493.820
20.74000 490.137
20.75000 486.749
20.76000 485.617
20.77000 485.093
20.78000 484.287
20.79000 481.873
20.80000 479.204
20.81000 478.053
20.82000 482.626
20.83000 487.748
20.84000 491.483
20.85000 489.390
20.86000 487.552
20.87000 484.380
20.88000 478.873
20.89000 473.323
20.90000 472.283
20.91000 476.529
20.92000 480.772
20.93000 479.530
20.94000 474.134
20.95000 468.932
20.96000 471.335
20.97000 477.655
20.98000 483.494
20.99000 481.450
21.00000 476.628
21.01000 472.202
21.02000 475.920
21.03000 480.967
21.04000 484.521
21.05000 479.698
21.06000 473.572
21.07000 469.385
21.08000 472.395
21.09000 476.083
21.10000 478.760
21.11000 482.043
21.12000 484.591
21.13000 485.311
21.14000 482.879
21.15000 480.391
21.16000 480.138
21.17000 482.463
21.18000 484.785
21.19000 486.381
21.20000 487.423
21.21000 488.342
21.22000 484.614
21.23000 478.527
21.24000 472.916
21.25000 474.905
21.26000 479.534
21.27000 483.775
21.28000 487.284
21.29000 490.256
21.30000 490.946
21.31000 479.045
21.32000 465.220
21.33000 456.759
21.34000 467.914
21.35000 480.874
21.36000 490.243
21.37000 478.012
21.38000 467.844
21.39000 463.456
21.40000 468.899
21.41000 474.507
21.42000 479.629
21.43000 484.202
21.44000 488.760
21.45000 487.686
21.46000 482.483
21.47000 477.640
21.48000 485.731
21.49000 500.293
21.50000 514.125
21.51000 516.610
21.52000 515.210
21.53000 513.930
21.54000 499.994
21.55000 485.009
21.56000 472.981
21.57000 476.994
21.58000 483.418
21.59000 488.587
21.60000 489.235
21.61000 489.476
21.62000 489.650
21.63000 488.827
21.64000 488.161
21.65000 491.037
21.66000 499.848
21.67000 508.752
21.68000 508.185
21.69000 497.044
21.70000 485.933
21.71000 482.367
21.72000 484.281
21.73000 486.264
21.74000 490.634
21.75000 496.181
21.76000 501.677
21.77000 506.387
21.78000 510.831
21.79000 514.887
21.80000 517.906
21.81000 520.374
21.82000 524.540
21.83000 537.765
21.84000 552.326
21.85000 562.234
21.86000 555.622
21.87000 547.555
21.88000 541.775
21.89000 540.881
21.90000 540.364
21.91000 544.589
21.92000 556.646
21.93000 568.820
21.94000 579.391
21.95000 588.203
21.96000 596.980
21.97000 607.032
21.98000 617.896
21.99000 628.753
22.00000 639.317
22.01000 649.739
22.02000 659.473
22.03000 659.049
22.04000 655.248
22.05000 651.786
22.06000 649.653
22.07000 648.029
22.08000 646.048
22.09000 642.197
22.10000 638.074
22.11000 634.233
22.12000 631.377
22.13000 628.607
22.14000 626.630
22.15000 628.147
22.16000 629.419
22.17000 627.357
22.18000 619.871
22.19000 612.310
22.20000 610.513
22.21000 614.945
22.22000 619.360
22.23000 618.576
22.24000 614.162
22.25000 609.557
22.26000 598.820
22.27000 585.146
22.28000 571.849
22.29000 563.985
22.30000 557.901
22.31000 552.370
22.32000 558.775
22.33000 566.766
22.34000 571.067
22.35000 556.308
22.36000 538.834
22.37000 525.871
22.38000 528.447
22.39000 532.331
22.40000 535.089
22.41000 532.694
22.42000 530.707
22.43000 525.972
22.44000 516.833
22.45000 507.635
22.46000 501.501
22.47000 498.623
22.48000 495.758
22.49000 493.768
22.50000 492.401
22.51000 491.031
22.52000 489.599
22.53000 488.136
22.54000 486.387
22.55000 480.617
22.56000 473.549
22.57000 467.137
22.58000 462.417
22.59000 458.575
22.60000 455.827
22.61000 458.636
22.62000 462.222
22.63000 464.640
22.64000 463.094
22.65000 461.222
22.66000 459.899
22.67000 468.691
22.68000 475.679
22.69000 480.309
22.70000 481.217
22.71000 482.078
22.72000 478.193
22.73000 469.345
22.74000 460.542
22.75000 457.987
22.76000 459.694
22.77000 461.251
22.78000 458.338
22.79000 453.346
22.80000 448.213
22.81000 441.147
22.82000 433.466
22.83000 426.512
22.84000 424.897
22.85000 424.479
22.86000 425.350
22.87000 432.668
22.88000 440.872
22.89000 447.751
22.90000 450.202
22.91000 452.297
22.92000 453.771
22.93000 442.829
22.94000 434.170
22.95000 429.655
22.96000 431.587
22.97000 433.593
22.98000 434.572
22.99000 434.494
23.00000 434.417
23.01000 431.345
23.02000 426.317
23.03000 421.664
23.04000 427.746
23.05000 438.750
23.06000 449.096
23.07000 450.615
23.08000 449.367
23.09000 448.239
23.10000 443.832
23.11000 439.350
23.12000 436.653
23.13000 442.742
23.14000 450.015
23.15000 454.765
23.16000 451.200
23.17000 446.982
23.18000 444.028
23.19000 445.764
23.20000 447.211
23.21000 447.391
23.22000 445.632
23.23000 443.851
23.24000 441.699
23.25000 439.172
23.26000 436.661
23.27000 437.429
23.28000 440.339
23.29000 443.011
23.30000 439.150
23.31000 432.335
23.32000 425.946
23.33000 425.128
23.34000 426.031
23.35000 426.845
23.36000 427.224
23.37000 427.477
23.38000 428.635
23.39000 434.173
23.40000 440.291
23.41000 444.609
23.42000 443.079
23.43000 441.101
23.44000 439.722
23.45000 434.865
23.46000 431.103
23.47000 427.626
23.48000 424.578
23.49000 421.534
23.50000 422.777
23.51000 428.279
23.52000 433.746
23.53000 431.743
23.54000 424.949
23.55000 418.677
23.56000 426.324
23.57000 440.173
23.58000 452.706
23.59000 448.412
23.60000 438.995
23.61000 430.523
23.62000 429.398
23.63000 429.725
23.64000 430.866
23.65000 435.888
23.66000 441.413
23.67000 446.049
23.68000 447.837
23.69000 449.411
23.70000 450.503
23.71000 440.682
23.72000 432.997
23.73000 431.844
23.74000 440.399
23.75000 449.045
23.76000 449.202
23.77000 441.067
23.78000 432.989
23.79000 431.082
23.80000 433.123
23.81000 435.009
23.82000 432.863
23.83000 428.946
23.84000 425.303
23.85000 425.083
23.86000 425.889
23.87000 426.613
23.88000 422.704
23.89000 418.472
23.90000 415.805
23.91000 420.484
23.92000 426.099
23.93000 429.052
23.94000 423.604
23.95000 417.542
23.96000 413.357
23.97000 418.019
23.98000 421.749
23.99000 423.381
24.00000 421.942
24.01000 420.476
24.02000 417.591
24.03000 413.342
24.04000 409.125
24.05000 411.973
24.06000 419.189
24.07000 426.262
24.08000 429.776
24.09000 431.750
24.10000 433.136
24.11000 427.344
24.12000 419.431
24.13000 412.343
24.14000 414.833
24.15000 418.658
24.16000 422.138
24.17000 424.021
24.18000 425.704
24.19000 427.568
24.20000 429.994
24.21000 432.460
24.22000 434.154
24.23000 434.749
24.24000 435.167
24.25000 431.859
24.26000 423.178
24.27000 414.454
24.28000 412.054
24.29000 415.625
24.30000 419.168
24.31000 420.711
24.32000 420.997
24.33000 421.372
24.34000 423.914
24.35000 427.379
24.36000 429.612
24.37000 417.139
24.38000 400.383
24.39000 385.406
24.40000 391.394
24.41000 400.162
24.42000 407.594
24.43000 408.949
24.44000 409.558
24.45000 410.094
24.46000 410.407
24.47000 410.704
24.48000 410.907
24.49000 412.275
24.50000 413.326
24.51000 415.673
24.52000 419.861
24.53000 424.060
24.54000 423.255
24.55000 417.801
24.56000 412.393
24.57000 412.817
24.58000 416.761
24.59000 420.758
24.60000 425.987
24.61000 431.735
24.62000 436.733
24.63000 432.984
24.64000 426.725
24.65000 421.143
24.66000 421.240
24.67000 422.269
24.68000 422.492
24.69000 419.106
24.70000 415.285
24.71000 411.361
24.72000 407.127
24.73000 402.872
24.74000 399.978
24.75000 407.925
24.76000 414.105
24.77000 417.861
24.78000 418.227
24.79000 418.571
24.80000 419.306
24.81000 420.399
24.82000 421.482
24.83000 422.029
24.84000 422.247
24.85000 422.314
24.86000 418.980
24.87000 414.236
24.88000 410.094
24.89000 412.815
24.90000 417.476
24.91000 421.623
24.92000 421.055
24.93000 419.791
24.94000 418.155
24.95000 414.873
24.96000 411.398
24.97000 408.720
24.98000 408.412
24.99000 408.261
25.00000 408.159
25.01000 405.501
25.02000 403.464
25.03000 401.934
25.04000 401.100
25.05000 400.272
25.06000 402.362
25.07000 407.074
25.08000 411.741
25.09000 416.709
25.10000 421.751
25.11000 426.462
25.12000 423.895
25.13000 418.355
25.14000 413.165
25.15000 411.893
25.16000 411.712
25.17000 411.550
25.18000 418.338
25.19000 425.335
25.20000 429.454
25.21000 421.083
25.22000 411.264
25.23000 404.397
25.24000 406.181
25.25000 408.525
25.26000 410.103
25.27000 407.944
25.28000 406.261
25.29000 404.195
25.30000 401.608
25.31000 399.020
25.32000 398.608
25.33000 400.120
25.34000 401.617
25.35000 401.190
25.36000 399.663
25.37000 398.352
25.38000 401.617
25.39000 406.726
25.40000 411.072
25.41000 407.100
25.42000 400.845
25.43000 395.305
25.44000 396.359
25.45000 398.309
25.46000 399.880
25.47000 399.836
25.48000 399.607
25.49000 399.225
25.50000 398.402
25.51000 397.551
25.52000 396.981
25.53000 404.472
25.54000 410.190
25.55000 412.176
25.56000 409.181
25.57000 406.164
25.58000 405.842
25.59000 407.866
25.60000 409.868
25.61000 411.755
25.62000 413.534
25.63000 415.258
25.64000 415.852
25.65000 415.996
25.66000 415.472
25.67000 407.809
25.68000 398.216
25.69000 389.737
25.70000 390.218
25.71000 392.018
25.72000 394.521
25.73000 399.980
25.74000 405.769
25.75000 409.067
25.76000 405.271
25.77000 401.041
25.78000 398.221
25.79000 398.612
25.80000 398.962
25.81000 400.948
25.82000 405.083
25.83000 409.224
25.84000 410.707
25.85000 409.914
25.86000 409.131
25.87000 404.942
25.88000 398.951
25.89000 393.104
25.90000 390.141
25.91000 388.306
25.92000 386.633
25.93000 386.658
25.94000 387.135
25.95000 387.555
25.96000 395.627
25.97000 403.747
25.98000 410.166
25.99000 409.537
26.00000 408.139
26.01000 406.049
26.02000 402.019
26.03000 397.872
26.04000 395.124
26.05000 407.029
26.06000 416.091
26.07000 414.915
26.08000 400.490
26.09000 386.030
26.10000 381.815
26.11000 386.229
26.12000 390.589
26.13000 395.809
26.14000 401.370
26.15000 406.677
26.16000 407.028
26.17000 405.468
26.18000 403.801
26.19000 401.044
26.20000 398.002
26.21000 395.325
26.22000 390.390
26.23000 385.806
26.24000 383.284
26.25000 389.174
26.26000 395.964
26.27000 401.712
26.28000 404.581
26.29000 407.282
26.30000 409.063
26.31000 388.533
26.32000 373.012
26.33000 367.092
26.34000 373.404
26.35000 379.751
26.36000 382.425
26.37000 382.052
26.38000 381.684
26.39000 385.002
26.40000 390.229
26.41000 395.197
26.42000 395.289
26.43000 393.528
26.44000 391.817
26.45000 390.612
26.46000 389.538
26.47000 388.595
26.48000 388.727
26.49000 388.997
26.50000 389.132
26.51000 388.727
26.52000 388.265
26.53000 389.241
26.54000 394.136
26.55000 399.253
26.56000 402.609
26.57000 397.896
26.58000 394.295
26.59000 394.974
26.60000 401.018
26.61000 407.068
26.62000 408.257
26.63000 405.482
26.64000 402.744
26.65000 401.304
26.66000 400.595
26.67000 399.623
26.68000 393.820
26.69000 386.207
26.70000 380.499
26.71000 393.494
26.72000 411.248
26.73000 426.791
26.74000 413.980
26.75000 398.928
26.76000 387.263
26.77000 388.998
26.78000 392.111
26.79000 394.055
26.80000 392.859
26.81000 391.491
26.82000 390.598
26.83000 392.833
26.84000 394.523
26.85000 394.030
26.86000 390.843
26.87000 387.660
26.88000 388.398
26.89000 392.284
26.90000 396.115
26.91000 395.211
26.92000 391.851
26.93000 388.752
26.94000 390.336
26.95000 393.650
26.96000 396.336
26.97000 392.980
26.98000 388.110
26.99000 383.857
27.00000 389.554
27.01000 395.831
27.02000 398.659
27.03000 388.050
27.04000 376.089
27.05000 367.931
27.06000 369.843
27.07000 372.294
27.08000 373.885
27.09000 387.495
27.10000 397.643
27.11000 399.657
27.12000 391.790
27.13000 383.906
27.14000 377.650
27.15000 372.681
27.16000 367.786
27.17000 363.502
27.18000 359.662
27.19000 356.296
27.20000 361.180
27.21000 369.066
27.22000 376.356
27.23000 378.033
27.24000 378.325
27.25000 378.579
27.26000 377.693
27.27000 376.779
27.28000 375.684
27.29000 373.894
27.30000 372.035
27.31000 369.228
27.32000 363.946
27.33000 358.536
27.34000 355.045
27.35000 377.779
27.36000 394.766
27.37000 401.983
27.38000 397.522
27.39000 393.044
27.40000 390.296
27.41000 388.894
27.42000 387.514
27.43000 385.661
27.44000 383.626
27.45000 381.490
27.46000 377.630
27.47000 373.152
27.48000 369.701
27.49000 375.728
27.50000 384.059
27.51000 391.298
27.52000 388.234
27.53000 384.224
27.54000 380.300
27.55000 376.702
27.56000 373.135
27.57000 374.023
27.58000 386.370
27.59000 399.296
27.60000 407.590
27.61000 391.665
27.62000 379.726
27.63000 372.693
27.64000 371.433
27.65000 370.196
27.66000 372.373
27.67000 377.165
27.68000 381.877
27.69000 381.772
27.70000 379.260
27.71000 376.764
27.72000 374.530
27.73000 372.388
27.74000 370.765
27.75000 373.843
27.76000 378.046
27.77000 381.689
27.78000 382.833
27.79000 383.475
27.80000 383.568
27.81000 381.620
27.82000 379.478
27.83000 378.255
27.84000 379.357
27.85000 380.573
27.86000 381.348
27.87000 388.427
27.88000 393.657
27.89000 392.964
27.90000 385.417
27.91000 377.890
27.92000 376.686
27.93000 380.249
27.94000 383.751
27.95000 379.585
27.96000 371.784
27.97000 364.612
27.98000 367.529
27.99000 373.961
28.00000 380.048
28.01000 383.082
28.02000 385.397
28.03000 387.398
28.04000 377.171
28.05000 366.888
28.06000 359.047
28.07000 360.172
28.08000 362.126
28.09000 365.191
28.10000 371.030
28.11000 377.002
28.12000 380.790
28.13000 387.078
28.14000 391.671
28.15000 390.891
28.16000 383.991
28.17000 377.107
28.18000 374.545
28.19000 375.193
28.20000 375.828
28.21000 378.057
28.22000 380.981
28.23000 383.394
28.24000 377.809
28.25000 369.477
28.26000 362.446
28.27000 366.732
28.28000 373.642
28.29000 379.602
28.30000 380.898
28.31000 381.401
28.32000 381.944
28.33000 382.629
28.34000 383.328
28.35000 383.236
28.36000 381.197
28.37000 379.068
28.38000 377.726
28.39000 369.651
28.40000 363.726
28.41000 359.634
28.42000 357.594
28.43000 355.571
28.44000 356.061
28.45000 358.388
28.46000 360.670
28.47000 363.643
28.48000 366.837
28.49000 369.982
28.50000 372.366
28.51000 374.493
28.52000 376.338
28.53000 375.773
28.54000 374.659
28.55000 373.700
28.56000 369.116
28.57000 364.781
28.58000 361.858
28.59000 363.962
28.60000 366.512
28.61000 367.686
28.62000 365.521
28.63000 363.207
28.64000 361.755
28.65000 362.288
28.66000 362.694
28.67000 364.654
28.68000 368.327
28.69000 371.991
28.70000 374.036
28.71000 374.916
28.72000 375.779
28.73000 379.434
28.74000 384.264
28.75000 388.483
28.76000 383.626
28.77000 375.742
28.78000 368.556
28.79000 367.219
28.80000 367.197
28.81000 367.178
28.82000 367.861
28.83000 368.525
28.84000 369.232
28.85000 370.091
28.86000 370.963
28.87000 373.186
28.88000 378.643
28.89000 384.241
28.90000 387.730
28.91000 373.357
28.92000 362.813
28.93000 358.374
28.94000 360.555
28.95000 362.749
28.96000 366.383
28.97000 371.038
28.98000 375.598
28.99000 373.353
29.00000 368.052
29.01000 363.424
29.02000 368.545
29.03000 376.871
29.04000 383.559
29.05000 376.799
29.06000 367.060
29.07000 358.728
29.08000 367.810
29.09000 377.570
29.10000 383.081
29.11000 373.911
29.12000 363.499
29.13000 358.025
29.14000 364.198
29.15000 370.862
29.16000 374.991
29.17000 366.420
29.18000 360.134
29.19000 359.293
29.20000 364.261
29.21000 369.198
29.22000 370.036
29.23000 368.012
29.24000 366.032
29.25000 367.355
29.26000 370.127
29.27000 372.415
29.28000 367.858
29.29000 361.084
29.30000 355.799
29.31000 362.512
29.32000 371.840
29.33000 379.800
29.34000 373.613
29.35000 366.733
29.36000 360.216
29.37000 354.933
29.38000 349.753
29.39000 346.404
29.40000 347.314
29.41000 348.397
29.42000 349.064
29.43000 350.630
29.44000 351.761
29.45000 356.285
29.46000 364.368
29.47000 372.376
29.48000 371.442
29.49000 364.362
29.50000 357.440
29.51000 356.332
29.52000 357.872
29.53000 359.561
29.54000 363.310
29.55000 367.717
29.56000 371.592
29.57000 371.263
29.58000 370.031
29.59000 368.984
29.60000 371.850
29.61000 374.712
29.62000 375.844
29.63000 371.172
29.64000 366.030
29.65000 363.177
29.66000 365.568
29.67000 368.166
29.68000 369.757
29.69000 374.066
29.70000 377.173
29.71000 374.847
29.72000 366.917
29.73000 359.104
29.74000 364.273
29.75000 378.232
29.76000 391.867
29.77000 394.832
29.78000 392.969
29.79000 390.991
29.80000 387.446
29.81000 383.407
29.82000 380.662
29.83000 387.952
29.84000 397.361
29.85000 405.346
29.86000 410.440
29.87000 414.384
29.88000 418.951
29.89000 425.578
29.90000 432.368
29.91000 438.669
29.92000 443.866
29.93000 449.022
29.94000 452.158
29.95000 459.590
29.96000 464.932
29.97000 466.992
29.98000 465.725
29.99000 464.458
30.00000 463.287
30.01000 462.180
30.02000 461.099
30.03000 468.123
30.04000 478.353
30.05000 487.536
30.06000 482.957
30.07000 474.114
30.08000 466.279
30.09000 466.124
30.10000 467.566
30.11000 468.786
30.12000 460.969
30.13000 453.419
30.14000 448.571
30.15000 452.527
30.16000 457.163
30.17000 458.618
30.18000 452.991
30.19000 447.104
30.20000 443.544
30.21000 427.439
30.22000 415.872
30.23000 410.995
30.24000 412.790
30.25000 414.521
30.26000 410.329
30.27000 402.244
30.28000 394.361
30.29000 396.259
30.30000 402.243
30.31000 407.845
30.32000 408.532
30.33000 407.719
30.34000 407.278
30.35000 409.622
30.36000 412.536
30.37000 414.995
30.38000 411.917
30.39000 408.742
30.40000 406.219
30.41000 405.793
30.42000 405.525
30.43000 403.601
30.44000 398.043
30.45000 392.356
30.46000 388.939
30.47000 394.086
30.48000 397.803
30.49000 401.742
30.50000 405.900
30.51000 410.007
30.52000 409.693
30.53000 406.519
30.54000 403.427
30.55000 401.726
30.56000 400.688
30.57000 400.208
30.58000 406.721
30.59000 415.339
30.60000 423.162
30.61000 425.158
30.62000 425.980
30.63000 426.672
30.64000 419.070
30.65000 411.845
30.66000 407.974
30.67000 414.716
30.68000 422.239
30.69000 425.945
30.70000 421.395
30.71000 416.563
30.72000 413.678
30.73000 418.071
30.74000 421.232
30.75000 425.680
30.76000 431.368
30.77000 436.993
30.78000 437.396
30.79000 434.470
30.80000 431.623
30.81000 436.462
30.82000 444.247
30.83000 451.329
30.84000 449.804
30.85000 445.728
30.86000 443.135
30.87000 451.234
30.88000 461.452
30.89000 470.027
30.90000 478.061
30.91000 484.692
30.92000 490.011
30.93000 491.237
30.94000 492.170
30.95000 499.080
30.96000 518.732
30.97000 538.804
30.98000 550.713
30.99000 563.301
31.00000 572.212
31.01000 582.365
31.02000 593.696
31.03000 605.104
31.04000 622.600
31.05000 643.920
31.06000 664.642
31.07000 699.211
31.08000 737.704
31.09000 776.281
31.10000 815.859
31.11000 855.729
31.12000 897.940
31.13000 956.722
31.14000 1018.733
31.15000 1070.620
31.16000 1135.080
31.17000 1189.927
31.18000 1254.555
31.19000 1349.228
31.20000 1446.007
31.21000 1547.831
31.22000 1660.251
31.23000 1773.009
31.24000 1839.470
31.25000 2025.044
31.26000 2156.655
31.27000 2272.148
31.28000 2372.614
31.29000 2473.324
31.30000 2591.914
31.31000 2721.565
31.32000 2847.454
31.33000 2942.196
31.34000 3019.652
31.35000 3094.985
31.36000 3145.419
31.37000 3188.686
31.38000 3227.858
31.39000 3238.567
31.40000 3243.816
31.41000 3248.196
31.42000 3215.027
31.43000 3183.753
31.44000 3139.769
31.45000 3057.306
31.46000 2972.211
31.47000 2879.799
31.48000 2772.236
31.49000 2664.209
31.50000 2600.954
31.51000 2467.137
31.52000 2372.556
31.53000 2253.707
31.54000 2112.606
31.55000 1971.787
31.56000 1850.505
31.57000 1741.130
31.58000 1635.042
31.59000 1545.898
31.60000 1468.085
31.61000 1389.473
31.62000 1301.722
31.63000 1211.378
31.64000 1124.604
31.65000 1062.204
31.66000 1004.404
31.67000 956.323
31.68000 909.900
31.69000 871.635
31.70000 833.719
31.71000 796.847
31.72000 760.044
31.73000 722.617
31.74000 683.916
31.75000 645.177
31.76000 622.643
31.77000 605.740
31.78000 593.888
31.79000 577.282
31.80000 556.390
31.81000 535.719
31.82000 529.444
31.83000 531.813
31.84000 534.109
31.85000 518.335
31.86000 496.397
31.87000 475.755
31.88000 469.645
31.89000 467.595
31.90000 464.341
31.91000 453.008
31.92000 440.175
31.93000 429.533
31.94000 425.226
31.95000 422.278
31.96000 419.977
31.97000 419.579
31.98000 419.306
31.99000 415.640
32.00000 405.153
32.01000 394.472
32.02000 388.301
32.03000 389.948
32.04000 391.129
32.05000 387.431
32.06000 379.401
32.07000 371.516
32.08000 372.493
32.09000 378.712
32.10000 384.732
32.11000 381.932
32.12000 375.918
32.13000 370.341
32.14000 369.559
32.15000 370.095
32.16000 369.804
32.17000 364.057
32.18000 357.313
32.19000 351.737
32.20000 353.172
32.21000 355.014
32.22000 355.348
32.23000 351.311
32.24000 346.996
32.25000 342.288
32.26000 336.803
32.27000 331.296
32.28000 328.136
32.29000 332.932
32.30000 336.317
32.31000 342.574
32.32000 351.337
32.33000 359.955
32.34000 360.054
32.35000 355.188
32.36000 350.483
32.37000 345.233
32.38000 340.073
32.39000 335.807
32.40000 341.128
32.41000 349.049
32.42000 355.356
32.43000 351.210
32.44000 345.187
32.45000 340.222
32.46000 342.008
32.47000 344.099
32.48000 346.554
32.49000 350.049
32.50000 353.609
32.51000 356.653
32.52000 358.692
32.53000 360.704
32.54000 361.851
32.55000 350.637
32.56000 342.783
32.57000 338.690
32.58000 337.827
32.59000 336.966
32.60000 336.147
32.61000 335.352
32.62000 334.585
32.63000 329.918
32.64000 324.078
32.65000 318.963
32.66000 321.458
32.67000 325.984
32.68000 329.929
32.69000 330.167
32.70000 329.750
32.71000 329.408
32.72000 333.898
32.73000 338.023
32.74000 340.253
32.75000 337.153
32.76000 333.732
32.77000 329.257
32.78000 322.753
32.79000 316.198
32.80000 312.488
32.81000 319.018
32.82000 323.583
32.83000 324.446
32.84000 322.180
32.85000 319.955
32.86000 319.901
32.87000 321.077
32.88000 322.210
32.89000 324.015
32.90000 325.957
32.91000 327.759
32.92000 328.117
32.93000 328.096
32.94000 327.638
32.95000 324.451
32.96000 320.790
32.97000 317.791
32.98000 317.963
32.99000 318.383
33.00000 317.134
33.01000 311.253
33.02000 305.100
33.03000 299.477
33.04000 294.857
33.05000 290.262
33.06000 287.679
33.07000 294.517
33.08000 299.282
33.09000 302.261
33.10000 303.753
33.11000 305.186
33.12000 303.617
33.13000 300.374
33.14000 297.249
33.15000 303.026
33.16000 311.639
33.17000 319.358
33.18000 318.072
33.19000 314.452
33.20000 311.168
33.21000 309.951
33.22000 309.087
33.23000 308.382
33.24000 307.130
33.25000 306.059
33.26000 304.906
33.27000 303.528
33.28000 302.138
33.29000 302.176
33.30000 304.886
33.31000 307.658
33.32000 309.204
33.33000 307.990
33.34000 307.135
33.35000 302.681
33.36000 295.281
33.37000 287.963
33.38000 284.565
33.39000 283.320
33.40000 282.123
33.41000 291.483
33.42000 303.983
33.43000 314.800
33.44000 309.016
33.45000 298.995
33.46000 291.025
33.47000 295.448
33.48000 301.952
33.49000 307.247
33.50000 305.924
33.51000 304.285
33.52000 303.497
33.53000 305.001
33.54000 306.633
33.55000 306.667
33.56000 303.758
33.57000 300.784
33.58000 299.137
33.59000 293.210
33.60000 289.124
33.61000 290.193
33.62000 295.415
33.63000 300.602
33.64000 304.166
33.65000 306.850
33.66000 309.431
33.67000 311.807
33.68000 313.961
33.69000 315.551
33.70000 311.680
33.71000 306.436
33.72000 302.176
33.73000 303.763
33.74000 306.315
33.75000 308.387
33.76000 302.919
33.77000 297.840
33.78000 294.274
33.79000 294.725
33.80000 295.393
33.81000 293.763
33.82000 287.961
33.83000 282.072
33.84000 278.833
33.85000 285.023
33.86000 289.298
33.87000 292.742
33.88000 295.525
33.89000 298.255
33.90000 298.618
33.91000 297.719
33.92000 296.855
33.93000 299.196
33.94000 302.477
33.95000 304.859
33.96000 298.722
33.97000 290.475
33.98000 283.156
33.99000 281.258
34.00000 280.239
34.01000 279.415
34.02000 286.254
34.03000 292.437
34.04000 296.521
34.05000 295.113
34.06000 293.417
34.07000 292.168
34.08000 291.718
34.09000 291.283
34.10000 291.046
34.11000 290.933
34.12000 290.862
34.13000 292.592
34.14000 295.727
34.15000 298.769
34.16000 297.929
34.17000 295.048
34.18000 292.286
34.19000 291.244
34.20000 290.850
34.21000 290.323
34.22000 288.563
34.23000 286.501
34.24000 284.774
34.25000 284.969
34.26000 285.470
34.27000 285.874
34.28000 285.481
34.29000 285.100
34.30000 287.290
34.31000 296.114
34.32000 305.276
34.33000 307.780
34.34000 298.545
34.35000 289.088
34.36000 283.964
34.37000 295.884
34.38000 304.017
34.39000 299.890
34.40000 286.341
34.41000 273.143
34.42000 273.961
34.43000 282.045
34.44000 289.785
34.45000 287.840
34.46000 282.826
34.47000 278.104
34.48000 276.032
34.49000 274.596
34.50000 273.992
34.51000 278.091
34.52000 282.926
34.53000 286.813
34.54000 277.529
34.55000 268.991
34.56000 263.097
34.57000 263.928
34.58000 265.090
34.59000 270.750
34.60000 284.226
34.61000 297.843
34.62000 305.165
34.63000 295.318
34.64000 288.579
34.65000 282.934
34.66000 278.117
34.67000 273.348
34.68000 270.420
34.69000 268.432
34.70000 266.531
34.71000 270.371
34.72000 275.812
34.73000 280.441
34.74000 277.837
34.75000 273.522
34.76000 270.100
34.77000 271.633
34.78000 273.930
34.79000 275.769
34.80000 278.851
34.81000 281.438
34.82000 283.610
34.83000 284.739
34.84000 285.819
34.85000 287.767
34.86000 291.202
34.87000 294.661
34.88000 296.508
34.89000 291.582
34.90000 288.219
34.91000 284.727
34.92000 281.138
34.93000 277.642
34.94000 277.556
34.95000 279.187
34.96000 280.744
34.97000 281.062
34.98000 280.961
34.99000 280.771
35.00000 279.813
35.01000 278.676
35.02000 277.844
35.03000 278.671
35.04000 279.751
35.05000 280.612
35.06000 284.620
35.07000 288.087
35.08000 288.854
35.09000 282.951
35.10000 276.737
35.11000 273.406
35.12000 274.937
35.13000 276.546
35.14000 277.398
35.15000 274.757
35.16000 272.978
35.17000 274.482
35.18000 278.394
35.19000 282.215
35.20000 282.810
35.21000 281.805
35.22000 280.847
35.23000 279.194
35.24000 277.442
35.25000 275.614
35.26000 273.135
35.27000 270.505
35.28000 267.903
35.29000 265.443
35.30000 263.005
35.31000 261.065
35.32000 261.548
35.33000 262.111
35.34000 263.063
35.35000 264.963
35.36000 266.905
35.37000 267.910
35.38000 267.356
35.39000 266.779
35.40000 266.475
35.41000 260.080
35.42000 255.797
35.43000 260.293
35.44000 271.130
35.45000 281.672
35.46000 282.288
35.47000 278.050
35.48000 274.013
35.49000 272.536
35.50000 271.961
35.51000 270.923
35.52000 265.998
35.53000 260.196
35.54000 255.186
35.55000 254.360
35.56000 254.146
35.57000 253.976
35.58000 260.829
35.59000 266.833
35.60000 272.568
35.61000 277.657
35.62000 282.718
35.63000 283.178
35.64000 276.103
35.65000 268.920
35.66000 265.176
35.67000 271.639
35.68000 275.985
35.69000 276.659
35.70000 274.721
35.71000 272.791
35.72000 271.136
35.73000 269.613
35.74000 268.164
35.75000 270.878
35.76000 274.656
35.77000 277.545
35.78000 273.109
35.79000 267.045
35.80000 262.465
35.81000 265.607
35.82000 269.858
35.83000 273.215
35.84000 275.895
35.85000 277.999
35.86000 276.632
35.87000 267.051
35.88000 257.124
35.89000 255.896
35.90000 268.704
35.91000 281.703
35.92000 288.424
35.93000 274.047
35.94000 264.395
35.95000 260.590
35.96000 260.880
35.97000 261.355
35.98000 267.604
35.99000 276.596
36.00000 285.134
36.01000 280.779
36.02000 272.890
36.03000 265.392
36.04000 261.055
36.05000 257.410
36.06000 255.579
36.07000 263.044
36.08000 271.818
36.09000 278.725
36.10000 274.336
36.11000 270.066
36.12000 266.966
36.13000 266.593
36.14000 266.332
36.15000 265.216
36.16000 262.742
36.17000 260.250
36.18000 258.973
36.19000 261.813
36.20000 263.725
36.21000 265.788
36.22000 267.957
36.23000 270.000
36.24000 268.281
36.25000 264.800
36.26000 261.499
36.27000 259.273
36.28000 257.538
36.29000 256.442
36.30000 260.415
36.31000 265.479
36.32000 269.600
36.33000 268.975
36.34000 267.693
36.35000 266.688
36.36000 262.656
36.37000 259.236
36.38000 257.351
36.39000 258.997
36.40000 260.783
36.41000 261.356
36.42000 260.030
36.43000 258.680
36.44000 257.994
36.45000 248.155
36.46000 241.604
36.47000 240.295
36.48000 242.548
36.49000 244.901
36.50000 250.173
36.51000 256.792
36.52000 263.059
36.53000 264.429
36.54000 264.267
36.55000 263.928
36.56000 262.203
36.57000 260.183
36.58000 257.592
36.59000 252.164
36.60000 246.350
36.61000 241.806
36.62000 256.575
36.63000 269.587
36.64000 277.240
36.65000 272.752
36.66000 267.799
36.67000 265.352
36.68000 266.769
36.69000 268.230
36.70000 268.967
36.71000 273.927
36.72000 277.201
36.73000 276.157
36.74000 272.222
36.75000 268.334
36.76000 265.767
36.77000 263.799
36.78000 261.940
36.79000 265.758
36.80000 270.888
36.81000 275.809
36.82000 279.136
36.83000 282.130
36.84000 284.117
36.85000 281.191
36.86000 277.609
36.87000 274.819
36.88000 284.529
36.89000 293.035
36.90000 295.487
36.91000 284.419
36.92000 272.851
36.93000 266.913
36.94000 269.527
36.95000 272.231
36.96000 273.583
36.97000 283.329
36.98000 289.782
36.99000 291.929
37.00000 291.239
37.01000 290.592
37.02000 291.154
37.03000 292.258
37.04000 293.300
37.05000 288.374
37.06000 282.178
37.07000 276.652
37.08000 276.159
37.09000 276.699
37.10000 277.187
37.11000 277.423
37.12000 277.626
37.13000 277.783
37.14000 274.358
37.15000 271.419
37.16000 270.421
37.17000 273.693
37.18000 277.118
37.19000 280.662
37.20000 284.385
37.21000 288.109
37.22000 287.497
37.23000 282.618
37.24000 277.762
37.25000 274.977
37.26000 273.537
37.27000 272.094
37.28000 270.595
37.29000 269.071
37.30000 267.634
37.31000 269.362
37.32000 271.819
37.33000 273.798
37.34000 272.249
37.35000 269.987
37.36000 267.644
37.37000 264.916
37.38000 262.140
37.39000 259.993
37.40000 265.362
37.41000 270.064
37.42000 272.243
37.43000 268.949
37.44000 265.467
37.45000 262.447
37.46000 260.109
37.47000 257.777
37.48000 259.242
37.49000 264.379
37.50000 269.431
37.51000 267.367
37.52000 260.752
37.53000 254.426
37.54000 255.418
37.55000 259.599
37.56000 263.533
37.57000 264.124
37.58000 263.756
37.59000 263.712
37.60000 266.022
37.61000 268.800
37.62000 269.958
37.63000 263.583
37.64000 256.258
37.65000 250.616
37.66000 255.109
37.67000 259.245
37.68000 263.398
37.69000 267.583
37.70000 271.770
37.71000 274.067
37.72000 273.621
37.73000 273.151
37.74000 267.617
37.75000 257.267
37.76000 247.067
37.77000 248.660
37.78000 257.684
37.79000 266.416
37.80000 267.999
37.81000 266.513
37.82000 265.117
37.83000 264.561
37.84000 264.278
37.85000 264.232
37.86000 265.865
37.87000 267.827
37.88000 269.170
37.89000 267.676
37.90000 265.831
37.91000 264.415
37.92000 262.967
37.93000 261.821
37.94000 261.548
37.95000 263.117
37.96000 264.744
37.97000 266.334
37.98000 267.869
37.99000 269.404
38.00000 272.270
38.01000 276.381
38.02000 280.454
38.03000 281.730
38.04000 281.270
38.05000 280.713
38.06000 277.873
38.07000 274.066
38.08000 270.494
38.09000 273.687
38.10000 278.375
38.11000 281.907
38.12000 277.364
38.13000 271.267
38.14000 267.066
38.15000 271.404
38.16000 276.780
38.17000 280.890
38.18000 286.162
38.19000 290.382
38.20000 293.787
38.21000 295.495
38.22000 297.152
38.23000 295.908
38.24000 290.582
38.25000 285.229
38.26000 283.599
38.27000 285.394
38.28000 287.257
38.29000 293.876
38.30000 303.404
38.31000 312.837
38.32000 320.089
38.33000 326.431
38.34000 332.371
38.35000 331.076
38.36000 328.026
38.37000 326.243
38.38000 333.151
38.39000 341.706
38.40000 351.000
38.41000 363.579
38.42000 376.550
38.43000 386.427
38.44000 400.152
38.45000 411.159
38.46000 422.551
38.47000 434.733
38.48000 446.937
38.49000 466.774
38.50000 497.192
38.51000 527.669
38.52000 554.870
38.53000 579.084
38.54000 603.407
38.55000 634.812
38.56000 670.484
38.57000 706.197
38.58000 742.817
38.59000 779.808
38.60000 814.402
38.61000 858.259
38.62000 900.444
38.63000 939.718
38.64000 959.383
38.65000 975.396
38.66000 993.108
38.67000 1018.239
38.68000 1044.237
38.69000 1063.958
38.70000 1074.978
38.71000 1083.187
38.72000 1085.619
38.73000 1076.395
38.74000 1066.838
38.75000 1065.323
38.76000 1074.788
38.77000 1084.312
38.78000 1063.163
38.79000 1014.758
38.80000 966.706
38.81000 940.574
38.82000 927.454
38.83000 912.845
38.84000 866.137
38.85000 806.420
38.86000 750.668
38.87000 722.294
38.88000 703.424
38.89000 682.852
38.90000 651.020
38.91000 617.124
38.92000 583.501
38.93000 551.054
38.94000 518.742
38.95000 494.326
38.96000 462.810
38.97000 437.746
38.98000 417.475
38.99000 406.732
39.00000 396.251
39.01000 382.549
39.02000 364.517
39.03000 346.472
39.04000 335.792
39.05000 331.569
39.06000 327.321
39.07000 321.532
39.08000 314.843
39.09000 308.008
39.10000 298.117
39.11000 287.007
39.12000 276.651
39.13000 272.912
39.14000 271.158
39.15000 269.788
39.16000 270.915
39.17000 272.493
39.18000 272.996
39.19000 268.947
39.20000 264.386
39.21000 260.953
39.22000 262.161
39.23000 263.330
39.24000 262.737
39.25000 258.689
39.26000 254.550
39.27000 254.457
39.28000 259.720
39.29000 265.003
39.30000 264.885
39.31000 260.120
39.32000 255.469
39.33000 257.243
39.34000 262.718
39.35000 267.809
39.36000 265.099
39.37000 259.318
39.38000 253.939
39.39000 252.920
39.40000 253.055
39.41000 252.411
39.42000 246.792
39.43000 240.291
39.44000 235.919
39.45000 240.421
39.46000 245.901
39.47000 250.009
39.48000 253.485
39.49000 256.170
39.50000 257.118
39.51000 254.711
39.52000 252.219
39.53000 250.144
39.54000 248.613
39.55000 247.085
39.56000 245.382
39.57000 243.534
39.58000 241.654
39.59000 238.111
39.60000 233.622
39.61000 229.367
39.62000 229.730
39.63000 231.883
39.64000 233.884
39.65000 233.034
39.66000 231.589
39.67000 230.111
39.68000 228.420
39.69000 226.693
39.70000 225.317
39.71000 225.381
39.72000 225.599
39.73000 225.763
39.74000 230.029
39.75000 233.541
39.76000 234.640
39.77000 231.147
39.78000 227.542
39.79000 225.032
39.80000 223.927
39.81000 222.828
39.82000 222.206
39.83000 221.982
39.84000 221.795
39.85000 223.455
39.86000 226.149
39.87000 228.870
39.88000 232.093
39.89000 235.508
39.90000 238.675
39.91000 236.553
39.92000 233.405
39.93000 230.655
39.94000 230.363
39.95000 230.492
39.96000 229.671
39.97000 225.008
39.98000 219.938
39.99000 216.168
40.00000 219.442
40.01000 222.302
40.02000 226.729
40.03000 234.096
40.04000 241.531
40.05000 243.235
40.06000 237.704
40.07000 232.156
40.08000 228.710
40.09000 226.996
40.10000 225.284
40.11000 223.670
40.12000 222.111
40.13000 220.625
40.14000 220.496
40.15000 220.879
40.16000 221.234
40.17000 232.580
40.18000 245.309
40.19000 254.879
40.20000 245.278
40.21000 232.446
40.22000 222.528
40.23000 224.211
40.24000 227.097
40.25000 229.235
40.26000 229.529
40.27000 229.678
40.28000 227.868
40.29000 222.439
40.30000 216.930
40.31000 216.277
40.32000 221.660
40.33000 227.051
40.34000 227.691
40.35000 224.501
40.36000 221.347
40.37000 219.898
40.38000 219.375
40.39000 219.020
40.40000 221.716
40.41000 225.545
40.42000 229.083
40.43000 229.582
40.44000 229.343
40.45000 228.673
40.46000 225.428
40.47000 221.757
40.48000 218.660
40.49000 217.814
40.50000 217.196
40.51000 216.741
40.52000 222.961
40.53000 228.059
40.54000 232.508
40.55000 235.776
40.56000 239.019
40.57000 237.113
40.58000 228.908
40.59000 220.702
40.60000 213.264
40.61000 206.468
40.62000 199.883
40.63000 202.591
40.64000 210.274
40.65000 217.635
40.66000 219.317
40.67000 218.919
40.68000 218.553
40.69000 218.196
40.70000 217.879
40.71000 217.282
40.72000 215.049
40.73000 212.550
40.74000 211.501
40.75000 216.055
40.76000 221.166
40.77000 224.920
40.78000 222.234
40.79000 219.896
40.80000 215.669
40.81000 208.053
40.82000 200.368
40.83000 200.677
40.84000 210.608
40.85000 220.538
40.86000 225.450
40.87000 226.423
40.88000 227.242
40.89000 221.543
40.90000 212.406
40.91000 203.821
40.92000 204.694
40.93000 208.981
40.94000 212.928
40.95000 220.166
40.96000 227.360
40.97000 233.204
40.98000 231.269
40.99000 228.090
41.00000 224.577
41.01000 219.798
41.02000 214.896
41.03000 211.312
41.04000 217.751
41.05000 223.114
41.06000 223.558
41.07000 215.302
41.08000 206.879
41.09000 205.320
41.10000 211.890
41.11000 218.460
41.12000 219.858
41.13000 217.282
41.14000 214.785
41.15000 215.445
41.16000 217.747
41.17000 220.026
41.18000 221.909
41.19000 223.652
41.20000 225.254
41.21000 219.083
41.22000 211.903
41.23000 206.259
41.24000 209.326
41.25000 213.763
41.26000 217.751
41.27000 220.055
41.28000 222.199
41.29000 223.760
41.30000 223.088
41.31000 222.486
41.32000 220.474
41.33000 216.005
41.34000 211.492
41.35000 210.852
41.36000 214.730
41.37000 218.603
41.38000 218.101
41.39000 214.302
41.40000 210.583
41.41000 209.986
41.42000 210.989
41.43000 211.996
41.44000 213.057
41.45000 214.139
41.46000 215.131
41.47000 209.757
41.48000 203.623
41.49000 198.919
41.50000 202.188
41.51000 206.689
41.52000 212.536
41.53000 223.351
41.54000 234.629
41.55000 242.806
41.56000 230.175
41.57000 219.700
41.58000 211.305
41.59000 206.484
41.60000 201.724
41.61000 199.763
41.62000 201.013
41.63000 202.262
41.64000 205.571
41.65000 210.383
41.66000 215.101
41.67000 216.334
41.68000 215.806
41.69000 215.467
41.70000 218.103
41.71000 221.767
41.72000 225.122
41.73000 225.607
41.74000 225.444
41.75000 224.564
41.76000 219.761
41.77000 214.361
41.78000 209.677
41.79000 207.595
41.80000 205.751
41.81000 204.419
41.82000 206.357
41.83000 207.960
41.84000 209.067
41.85000 209.337
41.86000 209.593
41.87000 210.087
41.88000 210.850
41.89000 211.611
41.90000 214.510
41.91000 218.948
41.92000 223.320
41.93000 225.399
41.94000 226.337
41.95000 226.938
41.96000 222.346
41.97000 215.986
41.98000 210.175
41.99000 209.827
42.00000 210.633
42.01000 210.915
42.02000 208.363
42.03000 205.388
42.04000 202.681
42.05000 200.937
42.06000 199.280
42.07000 198.088
42.08000 203.353
42.09000 207.606
42.10000 209.503
42.11000 207.471
42.12000 205.379
42.13000 203.456
42.14000 201.720
42.15000 199.990
42.16000 198.478
42.17000 197.136
42.18000 195.922
42.19000 199.068
42.20000 204.352
42.21000 209.357
42.22000 210.176
42.23000 209.590
42.24000 209.055
42.25000 204.740
42.26000 200.155
42.27000 197.170
42.28000 202.671
42.29000 209.417
42.30000 214.015
42.31000 211.029
42.32000 207.380
42.33000 204.769
42.34000 203.472
42.35000 202.525
42.36000 203.107
42.37000 206.200
42.38000 209.329
42.39000 210.622
42.40000 209.911
42.41000 209.201
42.42000 207.822
42.43000 205.984
42.44000 204.039
42.45000 198.553
42.46000 191.355
42.47000 184.934
42.48000 189.906
42.49000 198.647
42.50000 206.601
42.51000 203.144
42.52000 197.832
42.53000 193.747
42.54000 196.066
42.55000 199.309
42.56000 202.990
42.57000 208.201
42.58000 213.543
42.59000 217.347
42.60000 215.492
42.61000 213.895
42.62000 212.112
42.63000 210.029
42.64000 207.940
42.65000 206.309
42.66000 205.167
42.67000 204.031
42.68000 204.409
42.69000 205.835
42.70000 207.221
42.71000 207.328
42.72000 206.826
42.73000 206.132
42.74000 202.708
42.75000 198.394
42.76000 194.476
42.77000 198.910
42.78000 204.446
42.79000 208.427
42.80000 204.418
42.81000 199.279
42.82000 195.501
42.83000 196.387
42.84000 197.664
42.85000 198.569
42.86000 203.209
42.87000 206.854
42.88000 207.985
42.89000 205.108
42.90000 202.179
42.91000 200.483
42.92000 200.090
42.93000 199.698
42.94000 199.884
42.95000 200.463
42.96000 201.062
42.97000 202.278
42.98000 203.784
42.99000 205.159
43.00000 204.697
43.01000 203.644
43.02000 202.690
43.03000 205.082
43.04000 207.827
43.05000 209.340
43.06000 204.621
43.07000 199.035
43.08000 195.085
43.09000 196.663
43.10000 198.691
43.11000 200.123
43.12000 199.328
43.13000 198.657
43.14000 197.806
43.15000 196.673
43.16000 195.537
43.17000 196.252
43.18000 198.891
43.19000 201.516
43.20000 203.801
43.21000 205.828
43.22000 207.699
43.23000 204.991
43.24000 200.162
43.25000 195.823
43.26000 198.144
43.27000 202.574
43.28000 206.581
43.29000 208.308
43.30000 209.402
43.31000 209.760
43.32000 206.456
43.33000 202.653
43.34000 199.296
43.35000 197.423
43.36000 195.668
43.37000 194.435
43.38000 199.556
43.39000 203.619
43.40000 204.997
43.41000 202.222
43.42000 199.399
43.43000 195.323
43.44000 189.968
43.45000 184.642
43.46000 185.299
43.47000 189.911
43.48000 194.435
43.49000 196.495
43.50000 197.429
43.51000 198.063
43.52000 194.706
43.53000 190.105
43.54000 185.950
43.55000 189.071
43.56000 193.152
43.57000 196.934
43.58000 199.251
43.59000 201.371
43.60000 202.925
43.61000 202.622
43.62000 202.174
43.63000 201.860
43.64000 199.512
43.65000 197.680
43.66000 196.712
43.67000 197.058
43.68000 197.418
43.69000 198.454
43.70000 200.169
43.71000 201.873
43.72000 202.774
43.73000 203.138
43.74000 203.499
43.75000 203.768
43.76000 203.996
43.77000 204.043
43.78000 201.742
43.79000 198.719
43.80000 195.997
43.81000 198.590
43.82000 201.827
43.83000 203.998
43.84000 201.042
43.85000 197.412
43.86000 195.602
43.87000 199.671
43.88000 204.188
43.89000 207.332
43.90000 200.598
43.91000 195.253
43.92000 192.586
43.93000 193.940
43.94000 195.334
43.95000 194.782
43.96000 192.308
43.97000 189.850
43.98000 190.847
43.99000 194.045
44.00000 197.181
44.01000 198.667
44.02000 199.422
44.03000 200.117
44.04000 200.054
44.05000 199.763
44.06000 199.500
44.07000 193.564
44.08000 187.359
44.09000 183.351
44.10000 189.757
44.11000 197.507
44.12000 201.453
44.13000 193.290
44.14000 184.226
44.15000 177.950
44.16000 182.405
44.17000 186.038
44.18000 190.941
44.19000 197.724
44.20000 204.524
44.21000 208.519
44.22000 209.792
44.23000 211.055
44.24000 210.389
44.25000 208.514
44.26000 206.468
44.27000 200.042
44.28000 191.702
44.29000 184.140
44.30000 186.214
44.31000 191.163
44.32000 195.603
44.33000 199.564
44.34000 202.944
44.35000 205.502
44.36000 204.229
44.37000 202.470
44.38000 201.339
44.39000 202.181
44.40000 203.166
44.41000 203.844
44.42000 199.764
44.43000 196.581
44.44000 195.234
44.45000 196.561
44.46000 197.911
44.47000 199.036
44.48000 199.944
44.49000 200.846
44.50000 197.872
44.51000 192.538
44.52000 187.510
44.53000 189.998
44.54000 195.723
44.55000 201.479
44.56000 207.598
44.57000 213.824
44.58000 219.398
44.59000 215.231
44.60000 209.928
44.61000 206.031
44.62000 208.601
44.63000 211.975
44.64000 215.329
44.65000 218.624
44.66000 221.915
44.67000 224.172
44.68000 227.591
44.69000 230.181
44.70000 230.068
44.71000 226.077
44.72000 222.057
44.73000 219.717
44.74000 218.955
44.75000 218.199
44.76000 219.495
44.77000 222.025
44.78000 224.814
44.79000 233.809
44.80000 245.437
44.81000 256.037
44.82000 254.464
44.83000 249.364
44.84000 244.809
44.85000 249.828
44.86000 255.810
44.87000 260.603
44.88000 260.023
44.89000 258.787
44.90000 258.427
44.91000 260.737
44.92000 263.232
44.93000 264.935
44.94000 277.743
44.95000 287.579
44.96000 295.805
44.97000 301.757
44.98000 307.694
44.99000 313.729
45.00000 319.856
45.01000 325.930
45.02000 326.702
45.03000 324.269
45.04000 321.943
45.05000 322.077
45.06000 323.241
45.07000 324.710
45.08000 329.711
45.09000 335.720
45.10000 341.074
45.11000 340.660
45.12000 339.346
45.13000 338.666
45.14000 340.808
45.15000 343.288
45.16000 345.264
45.17000 345.724
45.18000 346.082
45.19000 346.325
45.20000 342.461
45.21000 339.485
45.22000 336.711
45.23000 334.215
45.24000 331.719
45.25000 326.789
45.26000 319.646
45.27000 312.569
45.28000 309.065
45.29000 307.746
45.30000 306.657
45.31000 310.702
45.32000 316.865
45.33000 321.980
45.34000 315.233
45.35000 305.152
45.36000 296.187
45.37000 290.675
45.38000 286.452
45.39000 282.332
45.40000 278.671
45.41000 275.064
45.42000 271.887
45.43000 269.981
45.44000 268.160
45.45000 266.930
45.46000 269.647
45.47000 271.754
45.48000 270.322
45.49000 264.041
45.50000 257.732
45.51000 252.030
45.52000 246.873
45.53000 241.765
45.54000 239.663
45.55000 239.356
45.56000 239.153
45.57000 241.218
45.58000 244.204
45.59000 246.642
45.60000 243.010
45.61000 237.697
45.62000 232.983
45.63000 229.626
45.64000 226.933
45.65000 224.058
45.66000 220.393
45.67000 216.638
45.68000 215.220
45.69000 220.620
45.70000 226.457
45.71000 230.380
45.72000 226.336
45.73000 223.168
45.74000 221.686
45.75000 222.478
45.76000 223.279
45.77000 220.809
45.78000 215.464
45.79000 210.175
45.80000 209.426
45.81000 211.300
45.82000 213.050
45.83000 212.216
45.84000 210.345
45.85000 208.518
45.86000 207.163
45.87000 205.937
45.88000 204.852
45.89000 200.568
45.90000 196.364
45.91000 193.306
45.92000 195.117
45.93000 197.478
45.94000 200.427
45.95000 205.066
45.96000 209.812
45.97000 212.984
45.98000 199.816
45.99000 189.732
46.00000 184.961
46.01000 187.245
46.02000 189.561
46.03000 189.851
46.04000 188.391
46.05000 186.946
46.06000 187.562
46.07000 189.327
46.08000 191.068
46.09000 192.323
46.10000 193.387
46.11000 194.539
46.12000 196.640
46.13000 198.994
46.14000 201.074
46.15000 197.007
46.16000 192.552
46.17000 189.128
46.18000 190.017
46.19000 191.383
46.20000 192.259
46.21000 191.744
46.22000 191.145
46.23000 190.747
46.24000 182.283
46.25000 175.869
46.26000 172.541
46.27000 173.245
46.28000 173.969
46.29000 175.916
46.30000 178.906
46.31000 181.860
46.32000 183.079
46.33000 183.303
46.34000 183.514
46.35000 183.440
46.36000 183.254
46.37000 182.990
46.38000 181.902
46.39000 180.596
46.40000 179.446
46.41000 178.076
46.42000 176.862
46.43000 176.320
46.44000 178.543
46.45000 181.066
46.46000 182.464
46.47000 180.723
46.48000 178.796
46.49000 177.521
46.50000 179.591
46.51000 181.179
46.52000 182.242
46.53000 182.628
46.54000 183.010
46.55000 182.725
46.56000 181.880
46.57000 181.046
46.58000 180.051
46.59000 178.994
46.60000 178.043
46.61000 179.125
46.62000 180.986
46.63000 182.717
46.64000 183.119
46.65000 183.173
46.66000 183.221
46.67000 176.931
46.68000 170.583
46.69000 166.133
46.70000 169.386
46.71000 173.458
46.72000 176.691
46.73000 177.616
46.74000 178.408
46.75000 178.930
46.76000 182.606
46.77000 185.368
46.78000 186.254
46.79000 184.765
46.80000 183.268
46.81000 182.054
46.82000 181.075
46.83000 180.108
46.84000 180.966
46.85000 182.783
46.86000 184.236
46.87000 178.869
46.88000 170.924
46.89000 163.900
46.90000 166.055
46.91000 170.567
46.92000 174.523
46.93000 176.232
46.94000 177.373
46.95000 177.458
46.96000 173.324
46.97000 168.750
46.98000 165.107
46.99000 163.985
47.00000 163.004
47.01000 162.362
47.02000 169.513
47.03000 174.897
47.04000 175.161
47.05000 169.041
47.06000 162.913
47.07000 161.005
47.08000 162.519
47.09000 164.012
47.10000 166.856
47.11000 170.336
47.12000 173.648
47.13000 173.907
47.14000 173.028
47.15000 172.132
47.16000 171.063
47.17000 169.950
47.18000 168.977
47.19000 170.321
47.20000 171.802
47.21000 172.774
47.22000 171.741
47.23000 170.504
47.24000 169.240
47.25000 167.904
47.26000 166.565
47.27000 165.693
47.28000 165.182
47.29000 164.814
47.30000 163.812
47.31000 162.033
47.32000 160.258
47.33000 160.409
47.34000 162.098
47.35000 163.762
47.36000 163.527
47.37000 162.308
47.38000 161.195
47.39000 161.949
47.40000 163.389
47.41000 164.792
47.42000 165.833
47.43000 166.785
47.44000 167.615
47.45000 167.569
47.46000 167.407
47.47000 167.421
47.48000 168.118
47.49000 168.883
47.50000 168.558
47.51000 165.360
47.52000 162.010
47.53000 159.841
47.54000 159.410
47.55000 159.120
47.56000 161.912
47.57000 168.427
47.58000 174.930
47.59000 175.885
47.60000 172.479
47.61000 169.124
47.62000 165.040
47.63000 160.705
47.64000 156.822
47.65000 160.719
47.66000 167.434
47.67000 173.261
47.68000 170.780
47.69000 166.261
47.70000 162.327
47.71000 166.242
47.72000 170.662
47.73000 173.731
47.74000 171.643
47.75000 169.051
47.76000 168.516
47.77000 173.321
47.78000 178.400
47.79000 181.672
47.80000 178.497
47.81000 176.088
47.82000 171.923
47.83000 165.670
47.84000 159.418
47.85000 154.134
47.86000 149.600
47.87000 145.139
47.88000 151.838
47.89000 163.964
47.90000 175.150
47.91000 170.560
47.92000 160.341
47.93000 151.300
47.94000 153.076
47.95000 157.467
47.96000 161.279
47.97000 160.697
47.98000 159.610
47.99000 159.290
48.00000 161.854
48.01000 164.695
48.02000 166.500
48.03000 165.654
48.04000 164.676
48.05000 164.050
48.06000 165.169
48.07000 166.007
48.08000 166.088
48.09000 165.283
48.10000 164.481
48.11000 164.746
48.12000 165.823
48.13000 166.882
48.14000 165.654
48.15000 163.330
48.16000 161.127
48.17000 160.910
48.18000 161.391
48.19000 162.251
48.20000 166.522
48.21000 171.603
48.22000 176.005
48.23000 167.018
48.24000 157.605
48.25000 150.735
48.26000 153.283
48.27000 156.714
48.28000 159.216
48.29000 159.374
48.30000 159.420
48.31000 159.448
48.32000 159.452
48.33000 159.454
48.34000 160.255
48.35000 161.976
48.36000 163.694
48.37000 164.531
48.38000 164.706
48.39000 164.879
48.40000 164.184
48.41000 163.088
48.42000 161.943
48.43000 160.014
48.44000 157.813
48.45000 156.421
48.46000 162.161
48.47000 169.573
48.48000 175.976
48.49000 172.101
48.50000 167.479
48.51000 163.541
48.52000 162.100
48.53000 160.888
48.54000 159.139
48.55000 156.052
48.56000 152.902
48.57000 150.908
48.58000 159.400
48.59000 165.684
48.60000 166.716
48.61000 161.800
48.62000 156.893
48.63000 154.703
48.64000 154.520
48.65000 154.339
48.66000 156.348
48.67000 159.341
48.68000 161.994
48.69000 159.389
48.70000 154.989
48.71000 151.256
48.72000 153.306
48.73000 156.689
48.74000 159.604
48.75000 162.914
48.76000 165.770
48.77000 167.193
48.78000 163.465
48.79000 159.273
48.80000 156.011
48.81000 155.026
48.82000 154.144
48.83000 153.589
48.84000 157.881
48.85000 161.041
48.86000 162.000
48.87000 160.505
48.88000 159.017
48.89000 158.746
48.90000 159.360
48.91000 159.963
48.92000 159.120
48.93000 157.624
48.94000 156.244
48.95000 156.624
48.96000 157.598
48.97000 158.306
48.98000 156.768
48.99000 154.719
49.00000 152.959
49.01000 157.317
49.02000 161.765
49.03000 164.622
49.04000 161.839
49.05000 158.561
49.06000 155.646
49.07000 153.610
49.08000 151.612
49.09000 150.363
49.10000 163.608
49.11000 173.324
49.12000 174.275
49.13000 165.621
49.14000 157.016
49.15000 156.636
49.16000 162.144
49.17000 167.542
49.18000 166.588
49.19000 162.706
49.20000 158.813
49.21000 154.754
49.22000 150.640
49.23000 146.731
49.24000 144.526
49.25000 142.701
49.26000 141.137
49.27000 149.880
49.28000 158.522
49.29000 165.170
49.30000 164.859
49.31000 163.951
49.32000 162.463
49.33000 159.597
49.34000 156.672
49.35000 154.852
49.36000 159.800
49.37000 163.433
49.38000 164.503
49.39000 162.811
49.40000 161.123
49.41000 159.970
49.42000 159.194
49.43000 158.434
49.44000 155.037
49.45000 150.560
49.46000 146.702
49.47000 151.728
49.48000 159.659
49.49000 166.623
49.50000 165.697
49.51000 163.033
49.52000 160.755
49.53000 158.476
49.54000 156.554
49.55000 154.318
49.56000 151.003
49.57000 147.597
49.58000 145.976
49.59000 148.547
49.60000 151.291
49.61000 152.988
49.62000 154.897
49.63000 156.271
49.64000 158.219
49.65000 160.777
49.66000 163.319
49.67000 163.866
49.68000 163.026
49.69000 162.205
49.70000 158.561
49.71000 153.789
49.72000 149.287
49.73000 148.571
49.74000 149.076
49.75000 149.842
49.76000 152.707
49.77000 156.027
49.78000 158.857
49.79000 159.060
49.80000 158.922
49.81000 158.785
49.82000 158.653
49.83000 158.521
49.84000 157.804
49.85000 155.733
49.86000 153.608
49.87000 152.302
49.88000 156.011
49.89000 158.714
49.90000 161.644
49.91000 164.812
49.92000 167.948
49.93000 167.489
49.94000 164.570
49.95000 161.718
49.96000 158.646
49.97000 155.605
49.98000 152.894
49.99000 154.716
50.00000 157.976
50.01000 160.947
50.02000 161.637
50.03000 161.842
50.04000 162.016
50.05000 157.411
50.06000 152.995
50.07000 149.203
50.08000 147.490
50.09000 145.944
50.10000 145.463
50.11000 147.410
50.12000 149.452
50.13000 150.700
50.14000 148.394
50.15000 146.715
50.16000 149.271
50.17000 156.166
50.18000 163.024
50.19000 165.788
50.20000 165.796
50.21000 165.803
50.22000 163.936
50.23000 161.330
50.24000 159.151
50.25000 162.691
50.26000 168.020
50.27000 172.297
50.28000 168.461
50.29000 162.922
50.30000 158.225
50.31000 161.449
50.32000 165.044
50.33000 167.296
50.34000 165.133
50.35000 162.623
50.36000 160.443
50.37000 159.003
50.38000 157.591
50.39000 156.733
50.40000 161.612
50.41000 165.137
50.42000 167.176
50.43000 167.717
50.44000 168.287
50.45000 171.689
50.46000 176.972
50.47000 182.125
50.48000 188.597
50.49000 195.350
50.50000 201.537
50.51000 200.360
50.52000 196.912
50.53000 194.011
50.54000 195.248
50.55000 197.341
50.56000 199.111
50.57000 202.868
50.58000 206.230
50.59000 209.819
50.60000 214.140
50.61000 218.518
50.62000 220.156
50.63000 215.726
50.64000 211.077
50.65000 208.271
50.66000 220.885
50.67000 229.975
50.68000 233.430
50.69000 231.299
50.70000 229.217
50.71000 231.672
50.72000 237.093
50.73000 242.376
50.74000 241.062
50.75000 237.008
50.76000 233.046
50.77000 230.270
50.78000 227.854
50.79000 225.912
50.80000 227.497
50.81000 229.799
50.82000 231.740
50.83000 229.547
50.84000 227.268
50.85000 225.603
50.86000 225.896
50.87000 226.335
50.88000 224.621
50.89000 218.206
50.90000 211.626
50.91000 207.681
50.92000 218.424
50.93000 226.152
50.94000 224.839
50.95000 214.717
50.96000 204.646
50.97000 198.933
50.98000 196.025
50.99000 193.194
51.00000 191.040
51.01000 189.272
51.02000 187.400
51.03000 184.247
51.04000 180.711
51.05000 177.269
51.06000 174.519
51.07000 171.907
51.08000 169.711
51.09000 172.644
51.10000 175.633
51.11000 176.709
51.12000 171.763
51.13000 166.378
51.14000 162.964
51.15000 163.790
51.16000 164.760
51.17000 165.338
51.18000 162.496
51.19000 160.462
51.20000 159.615
51.21000 159.906
51.22000 160.197
51.23000 160.456
51.24000 160.695
51.25000 160.928
51.26000 159.769
51.27000 158.094
51.28000 156.494
51.29000 155.805
51.30000 155.385
51.31000 154.779
51.32000 152.840
51.33000 150.639
51.34000 148.794
51.35000 152.327
51.36000 155.823
51.37000 158.415
51.38000 158.199
51.39000 157.784
51.40000 157.103
51.41000 155.856
51.42000 154.592
51.43000 153.843
51.44000 152.180
51.45000 150.999
51.46000 149.198
51.47000 146.813
51.48000 144.462
51.49000 144.715
51.50000 146.596
51.51000 148.424
51.52000 149.730
51.53000 150.759
51.54000 151.637
51.55000 150.715
51.56000 149.270
51.57000 147.740
51.58000 145.614
51.59000 143.373
51.60000 141.500
51.61000 141.777
51.62000 142.226
51.63000 143.333
51.64000 146.451
51.65000 149.710
51.66000 152.242
51.67000 153.255
51.68000 154.220
51.69000 154.788
51.70000 158.440
51.71000 161.030
51.72000 160.348
51.73000 156.634
51.74000 152.967
51.75000 152.616
51.76000 154.308
51.77000 155.950
51.78000 152.432
51.79000 147.039
51.80000 142.134
51.81000 142.901
51.82000 145.291
51.83000 147.289
51.84000 146.575
51.85000 145.344
51.86000 144.319
51.87000 143.576
51.88000 142.989
51.89000 143.015
51.90000 144.890
51.91000 146.889
51.92000 148.117
51.93000 147.754
51.94000 147.343
51.95000 147.103
51.96000 147.095
51.97000 147.089
51.98000 145.055
51.99000 141.171
52.00000 137.336
52.01000 136.776
52.02000 138.201
52.03000 139.584
52.04000 142.090
52.05000 144.905
52.06000 147.508
52.07000 147.701
52.08000 147.214
52.09000 146.473
52.10000 144.002
52.11000 141.207
52.12000 138.885
52.13000 138.646
52.14000 138.651
52.15000 138.959
52.16000 140.166
52.17000 141.432
52.18000 142.770
52.19000 144.255
52.20000 145.743
52.21000 146.607
52.22000 142.183
52.23000 139.055
52.24000 136.688
52.25000 135.002
52.26000 133.367
52.27000 134.991
52.28000 138.563
52.29000 142.022
52.30000 143.280
52.31000 143.620
52.32000 143.891
52.33000 143.386
52.34000 142.666
52.35000 141.856
52.36000 140.448
52.37000 138.928
52.38000 137.670
52.39000 142.509
52.40000 147.086
52.41000 148.982
52.42000 143.035
52.43000 136.582
52.44000 133.525
52.45000 137.262
52.46000 141.189
52.47000 143.453
52.48000 144.408
52.49000 145.071
52.50000 145.794
52.51000 146.571
52.52000 147.359
52.53000 148.902
52.54000 150.888
52.55000 152.810
52.56000 150.263
52.57000 146.162
52.58000 142.482
52.59000 143.402
52.60000 145.580
52.61000 147.649
52.62000 148.996
52.63000 150.212
52.64000 151.216
52.65000 143.940
52.66000 137.170
52.67000 132.873
52.68000 135.705
52.69000 138.985
52.70000 142.536
52.71000 146.620
52.72000 150.719
52.73000 153.065
52.74000 145.854
52.75000 140.788
52.76000 138.764
52.77000 139.381
52.78000 139.962
52.79000 138.498
52.80000 135.847
52.81000 133.285
52.82000 132.921
52.83000 133.400
52.84000 133.919
52.85000 134.874
52.86000 135.946
52.87000 137.010
52.88000 138.029
52.89000 139.040
52.90000 139.872
52.91000 143.072
52.92000 145.921
52.93000 145.952
52.94000 137.977
52.95000 129.513
52.96000 124.530
52.97000 126.317
52.98000 128.277
52.99000 129.391
53.00000 138.076
53.01000 144.144
53.02000 145.912
53.03000 144.008
53.04000 142.147
53.05000 142.639
53.06000 144.477
53.07000 146.251
53.08000 144.507
53.09000 141.572
53.10000 138.869
53.11000 138.583
53.12000 138.938
53.13000 139.126
53.14000 138.253
53.15000 137.193
53.16000 136.323
53.17000 138.442
53.18000 140.449
53.19000 141.673
53.20000 140.703
53.21000 139.602
53.22000 140.232
53.23000 144.176
53.24000 148.201
53.25000 150.474
53.26000 155.426
53.27000 158.870
53.28000 159.462
53.29000 157.657
53.30000 155.845
53.31000 153.633
53.32000 151.196
53.33000 148.847
53.34000 148.760
53.35000 149.496
53.36000 150.185
53.37000 150.386
53.38000 150.459
53.39000 150.565
53.40000 150.880
53.41000 151.232
53.42000 151.519
53.43000 156.601
53.44000 161.185
53.45000 163.121
53.46000 157.750
53.47000 151.955
53.48000 148.974
53.49000 151.305
53.50000 153.762
53.51000 155.139
53.52000 150.682
53.53000 147.585
53.54000 147.876
53.55000 150.969
53.56000 154.018
53.57000 154.879
53.58000 154.526
53.59000 154.186
53.60000 149.111
53.61000 142.660
53.62000 137.001
53.63000 139.255
53.64000 143.548
53.65000 147.135
53.66000 146.402
53.67000 144.935
53.68000 143.739
53.69000 145.632
53.70000 147.444
53.71000 149.388
53.72000 151.691
53.73000 154.014
53.74000 154.359
53.75000 151.024
53.76000 147.606
53.77000 145.703
53.78000 144.471
53.79000 143.626
53.80000 144.814
53.81000 147.658
53.82000 150.440
53.83000 150.338
53.84000 148.658
53.85000 147.042
53.86000 142.609
53.87000 137.466
53.88000 133.235
53.89000 137.933
53.90000 144.899
53.91000 150.713
53.92000 149.610
53.93000 147.352
53.94000 145.516
53.95000 145.132
53.96000 144.941
53.97000 145.041
53.98000 145.921
53.99000 146.844
54.00000 147.187
54.01000 146.468
54.02000 145.726
54.03000 145.317
54.04000 136.200
54.05000 129.913
54.06000 129.610
54.07000 134.100
54.08000 138.487
54.09000 138.286
54.10000 135.612
54.11000 133.043
54.12000 137.240
54.13000 143.502
54.14000 148.940
54.15000 146.470
54.16000 142.024
54.17000 138.700
54.18000 142.006
54.19000 146.400
54.20000 149.962
54.21000 143.793
54.22000 137.972
54.23000 133.759
54.24000 133.796
54.25000 134.060
54.26000 135.480
54.27000 138.987
54.28000 142.537
54.29000 144.484
54.30000 144.596
54.31000 144.668
54.32000 144.126
54.33000 143.099
54.34000 142.016
54.35000 138.506
54.36000 133.708
54.37000 129.105
54.38000 128.405
54.39000 129.075
54.40000 129.853
54.41000 131.644
54.42000 133.685
54.43000 135.666
54.44000 137.305
54.45000 138.889
54.46000 140.168
54.47000 138.343
54.48000 136.610
54.49000 134.943
54.50000 133.446
54.51000 131.958
54.52000 133.678
54.53000 141.108
54.54000 148.650
54.55000 152.756
54.56000 142.317
54.57000 135.157
54.58000 133.647
54.59000 136.525
54.60000 139.399
54.61000 142.101
54.62000 144.712
54.63000 147.214
54.64000 142.717
54.65000 136.184
54.66000 130.366
54.67000 131.136
54.68000 133.503
54.69000 135.746
54.70000 137.283
54.71000 138.708
54.72000 139.855
54.73000 139.345
54.74000 138.802
54.75000 137.720
54.76000 135.258
54.77000 132.726
54.78000 131.877
54.79000 133.981
54.80000 136.140
54.81000 137.307
54.82000 137.145
54.83000 137.048
54.84000 140.456
54.85000 146.545
54.86000 152.492
54.87000 152.902
54.88000 150.454
54.89000 148.113
54.90000 143.541
54.91000 138.550
54.92000 134.081
54.93000 134.331
54.94000 135.708
54.95000 137.266
54.96000 139.842
54.97000 142.577
54.98000 144.772
54.99000 139.665
55.00000 134.971
55.01000 132.258
55.02000 134.559
55.03000 137.104
55.04000 139.392
55.05000 141.237
55.06000 143.073
55.07000 144.058
55.08000 148.228
55.09000 151.069
55.10000 152.085
55.11000 151.728
55.12000 151.384
55.13000 151.497
55.14000 151.844
55.15000 152.174
55.16000 150.283
55.17000 147.805
55.18000 145.529
55.19000 145.029
55.20000 144.948
55.21000 144.669
55.22000 143.296
55.23000 141.755
55.24000 140.522
55.25000 141.406
55.26000 142.277
55.27000 143.294
55.28000 144.672
55.29000 146.067
55.30000 149.137
55.31000 155.063
55.32000 161.035
55.33000 164.214
55.34000 160.771
55.35000 158.425
55.36000 156.657
55.37000 155.318
55.38000 154.060
55.39000 155.718
55.40000 158.839
55.41000 161.816
55.42000 163.228
55.43000 164.041
55.44000 164.939
55.45000 166.572
55.46000 168.376
55.47000 170.318
55.48000 173.009
55.49000 175.813
55.50000 178.048
55.51000 181.011
55.52000 183.454
55.53000 185.559
55.54000 186.831
55.55000 188.064
55.56000 190.469
55.57000 194.839
55.58000 199.239
55.59000 201.563
55.60000 213.378
55.61000 221.367
55.62000 223.094
55.63000 220.252
55.64000 217.590
55.65000 221.176
55.66000 227.846
55.67000 234.204
55.68000 242.601
55.69000 251.024
55.70000 260.019
55.71000 273.879
55.72000 288.847
55.73000 303.346
55.74000 315.333
55.75000 326.950
55.76000 336.180
55.77000 350.455
55.78000 362.310
55.79000 374.728
55.80000 388.509
55.81000 402.351
55.82000 415.988
55.83000 429.286
55.84000 442.578
55.85000 449.543
55.86000 463.430
55.87000 472.881
55.88000 488.948
55.89000 509.768
55.90000 530.152
55.91000 536.003
55.92000 534.782
55.93000 533.620
55.94000 538.768
55.95000 545.477
55.96000 551.723
55.97000 554.101
55.98000 555.612
55.99000 557.084
56.00000 558.354
56.01000 559.594
56.02000 560.575
56.03000 559.267
56.04000 558.057
56.05000 553.334
56.06000 540.224
56.07000 526.752
56.08000 514.868
56.09000 505.574
56.10000 496.316
56.11000 491.504
56.12000 477.642
56.13000 468.210
56.14000 449.389
56.15000 423.926
56.16000 398.772
56.17000 383.518
56.18000 373.013
56.19000 363.028
56.20000 355.996
56.21000 350.393
56.22000 344.024
56.23000 331.379
56.24000 317.347
56.25000 304.563
56.26000 298.229
56.27000 292.815
56.28000 288.543
56.29000 275.602
56.30000 264.633
56.31000 254.181
56.32000 244.948
56.33000 235.766
56.34000 229.454
56.35000 227.746
56.36000 226.100
56.37000 225.252
56.38000 222.339
56.39000 220.360
56.40000 216.252
56.41000 210.660
56.42000 205.215
56.43000 204.325
56.44000 205.588
56.45000 206.786
56.46000 200.879
56.47000 193.310
56.48000 186.610
56.49000 186.897
56.50000 188.704
56.51000 189.617
56.52000 185.973
56.53000 181.692
56.54000 178.326
56.55000 173.060
56.56000 168.719
56.57000 165.080
56.58000 163.070
56.59000 161.126
56.60000 159.682
56.61000 159.029
56.62000 158.386
56.63000 158.058
56.64000 159.967
56.65000 161.225
56.66000 159.606
56.67000 156.012
56.68000 152.507
56.69000 151.636
56.70000 151.993
56.71000 152.331
56.72000 152.286
56.73000 152.132
56.74000 151.509
56.75000 147.191
56.76000 142.082
56.77000 137.323
56.78000 134.312
56.79000 131.541
56.80000 129.371
56.81000 131.522
56.82000 133.519
56.83000 135.607
56.84000 137.901
56.85000 140.204
56.86000 140.940
56.87000 139.237
56.88000 137.506
56.89000 136.628
56.90000 135.859
56.91000 135.362
56.92000 136.744
56.93000 139.396
56.94000 141.986
56.95000 142.782
56.96000 142.754
56.97000 142.729
56.98000 138.462
56.99000 133.314
57.00000 129.127
57.01000 132.380
57.02000 137.201
57.03000 141.330
57.04000 142.051
57.05000 142.312
57.06000 142.516
57.07000 135.683
57.08000 129.792
57.09000 125.675
57.10000 125.560
57.11000 125.596
57.12000 126.208
57.13000 127.705
57.14000 129.211
57.15000 129.969
57.16000 135.192
57.17000 138.636
57.18000 137.557
57.19000 133.468
57.20000 129.521
57.21000 129.484
57.22000 131.217
57.23000 132.855
57.24000 130.876
57.25000 128.033
57.26000 125.919
57.27000 129.349
57.28000 133.930
57.29000 137.367
57.30000 135.257
57.31000 132.411
57.32000 130.198
57.33000 128.815
57.34000 127.764
57.35000 126.072
57.36000 122.954
57.37000 119.783
57.38000 117.967
57.39000 118.197
57.40000 118.448
57.41000 122.037
57.42000 128.946
57.43000 135.797
57.44000 137.243
57.45000 135.145
57.46000 133.029
57.47000 130.439
57.48000 127.637
57.49000 124.994
57.50000 124.259
57.51000 124.119
57.52000 124.080
57.53000 124.790
57.54000 125.654
57.55000 126.521
57.56000 127.402
57.57000 128.285
57.58000 128.969
57.59000 124.733
57.60000 121.073
57.61000 118.679
57.62000 119.054
57.63000 119.526
57.64000 120.825
57.65000 123.355
57.66000 125.896
57.67000 127.678
57.68000 128.717
57.69000 129.731
57.70000 128.610
57.71000 126.110
57.72000 123.658
57.73000 122.459
57.74000 121.813
57.75000 121.203
57.76000 122.740
57.77000 124.737
57.78000 126.414
57.79000 125.753
57.80000 124.623
57.81000 124.269
57.82000 127.560
57.83000 131.317
57.84000 134.218
57.85000 123.000
57.86000 113.283
57.87000 109.437
57.88000 118.259
57.89000 127.514
57.90000 131.356
57.91000 127.263
57.92000 123.102
57.93000 119.853
57.94000 117.482
57.95000 115.157
57.96000 116.664
57.97000 120.609
57.98000 124.508
57.99000 127.241
58.00000 129.469
58.01000 131.565
58.02000 130.707
58.03000 129.125
58.04000 127.322
58.05000 123.930
58.06000 120.225
58.07000 117.573
58.08000 119.788
58.09000 122.614
58.10000 124.787
58.11000 124.816
58.12000 124.717
58.13000 124.984
58.14000 126.028
58.15000 127.097
58.16000 126.451
58.17000 123.330
58.18000 120.189
58.19000 120.229
58.20000 123.276
58.21000 126.287
58.22000 126.592
58.23000 125.201
58.24000 123.886
58.25000 124.435
58.26000 125.780
58.27000 127.043
58.28000 128.627
58.29000 130.157
58.30000 131.424
58.31000 130.836
58.32000 129.887
58.33000 129.012
58.34000 128.473
58.35000 127.976
58.36000 127.595
58.37000 127.353
58.38000 127.169
58.39000 126.364
58.40000 124.257
58.41000 122.109
58.42000 120.231
58.43000 118.739
58.44000 117.249
58.45000 118.140
58.46000 121.243
58.47000 124.325
58.48000 125.890
58.49000 126.518
58.50000 126.977
58.51000 123.479
58.52000 118.315
58.53000 113.473
58.54000 113.387
58.55000 114.553
58.56000 115.521
58.57000 115.121
58.58000 114.459
58.59000 114.912
58.60000 120.357
58.61000 126.405
58.62000 131.023
58.63000 126.304
58.64000 122.084
58.65000 121.289
58.66000 127.575
58.67000 134.076
58.68000 135.478
58.69000 129.741
58.70000 123.956
58.71000 118.714
58.72000 113.972
58.73000 109.328
58.74000 111.430
58.75000 117.637
58.76000 123.525
58.77000 122.179
58.78000 117.831
58.79000 113.761
58.80000 116.155
58.81000 119.996
58.82000 123.467
58.83000 124.419
58.84000 124.898
58.85000 125.190
58.86000 124.658
58.87000 124.028
58.88000 123.549
58.89000 125.050
58.90000 126.334
58.91000 127.150
58.92000 127.011
58.93000 126.843
58.94000 126.959
58.95000 127.465
58.96000 127.973
58.97000 125.318
58.98000 119.822
58.99000 114.396
59.00000 113.591
59.01000 115.555
59.02000 117.462
59.03000 118.106
59.04000 118.232
59.05000 118.351
59.06000 119.298
59.07000 120.367
59.08000 121.494
59.09000 123.005
59.10000 124.588
59.11000 124.985
59.12000 120.229
59.13000 114.874
59.14000 110.818
59.15000 110.206
59.16000 109.901
59.17000 110.782
59.18000 114.042
59.19000 117.369
59.20000 119.685
59.21000 120.628
59.22000 121.563
59.23000 119.530
59.24000 114.876
59.25000 110.320
59.26000 111.720
59.27000 116.639
59.28000 121.524
59.29000 125.713
59.30000 129.621
59.31000 133.267
59.32000 125.569
59.33000 115.770
59.34000 107.693
59.35000 110.936
59.36000 116.241
59.37000 120.464
59.38000 120.054
59.39000 119.116
59.40000 118.409
59.41000 115.582
59.42000 113.262
59.43000 112.313
59.44000 114.076
59.45000 115.913
59.46000 117.503
59.47000 118.765
59.48000 120.024
59.49000 118.841
59.50000 115.535
59.51000 112.350
59.52000 116.145
59.53000 124.001
59.54000 131.560
59.55000 132.999
59.56000 132.005
59.57000 131.079
59.58000 129.468
59.59000 127.843
59.60000 126.167
59.61000 124.153
59.62000 122.079
59.63000 120.477
59.64000 120.865
59.65000 121.474
59.66000 121.932
59.67000 123.815
59.68000 125.356
59.69000 126.585
59.70000 127.204
59.71000 127.808
59.72000 125.647
59.73000 119.847
59.74000 114.035
59.75000 112.976
59.76000 115.985
59.77000 118.931
59.78000 118.484
59.79000 116.090
59.80000 113.758
59.81000 112.670
59.82000 112.070
59.83000 111.512
59.84000 112.266
59.85000 113.262
59.86000 114.691
59.87000 118.866
59.88000 123.525
59.89000 127.331
59.90000 127.596
59.91000 127.474
59.92000 127.382
59.93000 120.447
59.94000 114.716
59.95000 111.241
59.96000 112.100
59.97000 113.067
59.98000 114.903
59.99000 117.863
60.00000 120.825
60.01000 122.785
60.02000 123.897
60.03000 124.957
60.04000 123.345
60.05000 120.224
60.06000 117.214
60.07000 116.360
60.08000 116.339
60.09000 116.320
60.10000 117.948
60.11000 119.807
60.12000 121.198
60.13000 119.677
60.14000 117.651
60.15000 115.972
60.16000 115.715
60.17000 115.610
60.18000 115.531
60.19000 113.236
60.20000 111.347
60.21000 111.216
60.22000 114.414
60.23000 117.691
60.24000 120.241
60.25000 121.863
60.26000 123.480
60.27000 121.987
60.28000 117.925
60.29000 113.975
60.30000 115.583
60.31000 120.285
60.32000 124.804
60.33000 125.860
60.34000 125.597
60.35000 125.354
60.36000 122.668
60.37000 119.681
60.38000 117.642
60.39000 121.418
60.40000 126.184
60.41000 129.817
60.42000 128.890
60.43000 127.484
60.44000 126.440
60.45000 126.852
60.46000 127.236
60.47000 126.022
60.48000 121.825
60.49000 117.560
60.50000 116.391
60.51000 119.109
60.52000 121.836
60.53000 123.574
60.54000 124.501
60.55000 125.335
60.56000 121.761
60.57000 115.769
60.58000 110.205
60.59000 112.538
60.60000 117.832
60.61000 122.730
60.62000 123.045
60.63000 122.279
60.64000 121.273
60.65000 118.813
60.66000 116.110
60.67000 114.781
60.68000 118.894
60.69000 123.567
60.70000 127.023
60.71000 124.617
60.72000 122.501
60.73000 121.248
60.74000 121.585
60.75000 121.956
60.76000 122.653
60.77000 123.753
60.78000 124.853
60.79000 126.237
60.80000 127.843
60.81000 129.419
60.82000 129.675
60.83000 129.215
60.84000 128.622
60.85000 125.624
60.86000 121.738
60.87000 118.149
60.88000 117.266
60.89000 117.083
60.90000 116.962
60.91000 117.209
60.92000 117.517
60.93000 117.418
60.94000 115.726
60.95000 113.874
60.96000 112.511
60.97000 117.518
60.98000 121.658
60.99000 124.210
61.00000 123.883
61.01000 123.496
61.02000 123.246
61.03000 123.163
61.04000 123.080
61.05000 122.748
61.06000 122.221
61.07000 121.656
61.08000 119.390
61.09000 116.219
61.10000 113.279
61.11000 114.361
61.12000 116.908
61.13000 119.255
61.14000 121.779
61.15000 124.078
61.16000 125.980
61.17000 125.571
61.18000 124.788
61.19000 124.694
61.20000 127.243
61.21000 130.054
61.22000 132.114
61.23000 126.716
61.24000 122.245
61.25000 119.192
61.26000 118.671
61.27000 118.200
61.28000 118.973
61.29000 121.235
61.30000 123.495
61.31000 125.706
61.32000 127.865
61.33000 129.932
61.34000 128.213
61.35000 124.506
61.36000 121.237
61.37000 125.421
61.38000 132.280
61.39000 138.591
61.40000 136.772
61.41000 133.379
61.42000 130.643
61.43000 131.682
61.44000 133.322
61.45000 135.306
61.46000 138.592
61.47000 142.005
61.48000 144.496
61.49000 153.440
61.50000 160.587
61.51000 170.928
61.52000 186.890
61.53000 202.957
61.54000 220.204
61.55000 238.840
61.56000 257.434
61.57000 276.234
61.58000 295.077
61.59000 313.741
61.60000 325.339
61.61000 333.280
61.62000 341.179
61.63000 348.381
61.64000 355.335
61.65000 361.722
61.66000 358.970
61.67000 354.561
61.68000 351.402
61.69000 355.295
61.70000 360.290
61.71000 363.985
61.72000 362.835
61.73000 361.226
61.74000 360.056
61.75000 344.210
61.76000 331.463
61.77000 314.934
61.78000 291.847
61.79000 268.643
61.80000 245.962
61.81000 223.889
61.82000 201.877
61.83000 189.289
61.84000 183.856
61.85000 178.349
61.86000 170.040
61.87000 160.303
61.88000 151.062
61.89000 149.808
61.90000 151.339
61.91000 152.743
61.92000 148.861
61.93000 144.293
61.94000 140.429
61.95000 140.466
61.96000 141.104
61.97000 140.679
61.98000 136.356
61.99000 131.671
62.00000 128.281
62.01000 130.422
62.02000 132.269
62.03000 134.180
62.04000 136.199
62.05000 138.220
62.06000 135.507
62.07000 127.395
62.08000 119.301
62.09000 118.316
62.10000 122.583
62.11000 126.793
62.12000 128.904
62.13000 129.960
62.14000 131.006
62.15000 131.884
62.16000 132.705
62.17000 133.456
62.18000 136.435
62.19000 139.544
62.20000 141.663
62.21000 138.384
62.22000 134.289
62.23000 131.574
62.24000 133.850
62.25000 136.578
62.26000 138.544
62.27000 133.134
62.28000 128.727
62.29000 127.758
62.30000 132.576
62.31000 137.487
62.32000 139.130
62.33000 137.107
62.34000 135.088
62.35000 131.593
62.36000 127.055
62.37000 122.787
62.38000 127.943
62.39000 137.767
62.40000 146.697
62.41000 141.975
62.42000 132.627
62.43000 124.091
62.44000 127.160
62.45000 132.241
62.46000 136.351
62.47000 135.259
62.48000 133.394
62.49000 132.370
62.50000 134.341
62.51000 136.576
62.52000 138.181
62.53000 139.382
62.54000 140.287
62.55000 139.221
62.56000 134.886
62.57000 130.501
62.58000 131.069
62.59000 137.105
62.60000 143.122
62.61000 144.985
62.62000 143.863
62.63000 142.727
62.64000 141.108
62.65000 139.254
62.66000 137.432
62.67000 136.082
62.68000 134.890
62.69000 133.803
62.70000 132.607
62.71000 131.525
62.72000 130.729
62.73000 131.441
62.74000 132.373
62.75000 133.780
62.76000 136.858
62.77000 140.081
62.78000 142.382
62.79000 137.262
62.80000 133.108
62.81000 132.229
62.82000 136.703
62.83000 141.254
62.84000 143.096
62.85000 141.996
62.86000 140.900
62.87000 140.196
62.88000 139.774
62.89000 139.296
62.90000 137.026
62.91000 133.893
62.92000 131.105
62.93000 133.327
62.94000 137.197
62.95000 140.717
62.96000 140.074
62.97000 138.689
62.98000 137.599
62.99000 138.042
63.00000 138.704
63.01000 138.063
63.02000 132.911
63.03000 127.377
63.04000 123.441
63.05000 132.312
63.06000 139.477
63.07000 143.492
63.08000 142.436
63.09000 141.313
63.10000 140.434
63.11000 139.817
63.12000 139.202
63.13000 137.150
63.14000 134.124
63.15000 131.193
63.16000 131.181
63.17000 132.554
63.18000 134.085
63.19000 137.842
63.20000 142.322
63.21000 146.388
63.22000 144.495
63.23000 141.676
63.24000 139.212
63.25000 138.562
63.26000 138.167
63.27000 137.769
63.28000 137.360
63.29000 136.949
63.30000 136.659
63.31000 143.005
63.32000 148.033
63.33000 149.119
63.34000 143.954
63.35000 138.709
63.36000 138.785
63.37000 144.449
63.38000 150.086
63.39000 145.400
63.40000 133.746
63.41000 122.567
63.42000 125.644
63.43000 135.385
63.44000 144.550
63.45000 145.752
63.46000 144.410
63.47000 143.193
63.48000 141.491
63.49000 139.899
63.50000 138.776
63.51000 140.006
63.52000 141.560
63.53000 143.359
63.54000 145.978
63.55000 148.662
63.56000 150.554
63.57000 147.724
63.58000 145.437
63.59000 141.634
63.60000 135.463
63.61000 129.264
63.62000 131.311
63.63000 141.875
63.64000 152.382
63.65000 154.080
63.66000 149.857
63.67000 145.790
63.68000 146.242
63.69000 148.775
63.70000 151.297
63.71000 153.671
63.72000 156.000
63.73000 158.104
63.74000 158.297
63.75000 158.111
63.76000 157.873
63.77000 157.374
63.78000 156.840
63.79000 155.283
63.80000 150.340
63.81000 145.128
63.82000 141.473
63.83000 142.859
63.84000 144.053
63.85000 144.391
63.86000 143.411
63.87000 142.417
63.88000 143.283
63.89000 146.037
63.90000 148.776
63.91000 149.549
63.92000 149.016
63.93000 148.433
63.94000 146.447
63.95000 143.824
63.96000 141.227
63.97000 138.964
63.98000 136.806
63.99000 134.859
64.00000 137.161
64.01000 139.961
64.02000 143.243
64.03000 148.874
64.04000 154.818
64.05000 158.311
64.06000 153.805
64.07000 148.682
64.08000 145.105
64.09000 154.360
64.10000 161.706
64.11000 164.068
64.12000 158.872
64.13000 153.599
64.14000 152.484
64.15000 155.522
64.16000 158.541
64.17000 160.295
64.18000 161.203
64.19000 162.106
64.20000 162.841
64.21000 163.502
64.22000 164.138
64.23000 164.455
64.24000 164.674
64.25000 164.871
64.26000 161.439
64.27000 157.779
64.28000 154.997
64.29000 156.426
64.30000 158.406
64.31000 160.863
64.32000 164.858
64.33000 168.969
64.34000 171.824
64.35000 168.615
64.36000 166.034
64.37000 163.726
64.38000 161.825
64.39000 159.928
64.40000 160.446
64.41000 163.333
64.42000 166.202
64.43000 166.266
64.44000 164.541
64.45000 162.881
64.46000 162.932
64.47000 163.737
64.48000 164.663
64.49000 167.110
64.50000 170.016
64.51000 172.626
64.52000 173.062
64.53000 173.061
64.54000 173.273
64.55000 174.490
64.56000 175.835
64.57000 177.583
64.58000 180.603
64.59000 183.718
64.60000 185.871
64.61000 179.813
64.62000 175.045
64.63000 171.930
64.64000 171.243
64.65000 170.578
64.66000 168.406
64.67000 164.780
64.68000 161.179
64.69000 165.544
64.70000 174.838
64.71000 183.861
64.72000 186.024
64.73000 185.204
64.74000 184.321
64.75000 182.647
64.76000 180.739
64.77000 179.029
64.78000 179.244
64.79000 179.766
64.80000 180.606
64.81000 182.924
64.82000 185.428
64.83000 187.894
64.84000 190.239
64.85000 192.576
64.86000 194.183
64.87000 193.613
64.88000 193.131
64.89000 193.688
64.90000 195.750
64.91000 197.824
64.92000 197.822
64.93000 195.849
64.94000 193.892
64.95000 196.871
64.96000 202.849
64.97000 208.606
64.98000 208.992
64.99000 207.077
65.00000 205.574
65.01000 209.030
65.02000 213.937
65.03000 218.326
65.04000 217.477
65.05000 215.845
65.06000 214.287
65.07000 213.065
65.08000 211.884
65.09000 211.017
65.10000 211.116
65.11000 211.283
65.12000 211.397
65.13000 217.555
65.14000 222.310
65.15000 227.636
65.16000 233.777
65.17000 239.922
65.18000 240.096
65.19000 234.695
65.20000 229.340
65.21000 233.797
65.22000 244.140
65.23000 254.314
65.24000 260.478
65.25000 264.950
65.26000 269.537
65.27000 275.479
65.28000 281.812
65.29000 287.464
65.30000 291.396
65.31000 294.531
65.32000 298.343
65.33000 305.196
65.34000 312.419
65.35000 317.456
65.36000 315.871
65.37000 313.832
65.38000 312.443
65.39000 337.061
65.40000 356.052
65.41000 372.180
65.42000 384.286
65.43000 396.361
65.44000 401.500
65.45000 400.271
65.46000 399.053
65.47000 407.306
65.48000 421.067
65.49000 434.855
65.50000 449.275
65.51000 463.957
65.52000 478.462
65.53000 490.934
65.54000 502.828
65.55000 513.420
65.56000 525.373
65.57000 535.982
65.58000 546.590
65.59000 557.194
65.60000 567.799
65.61000 581.589
65.62000 604.895
65.63000 628.837
65.64000 645.064
65.65000 714.747
65.66000 767.878
65.67000 836.358
65.68000 926.074
65.69000 1015.945
65.70000 1139.220
65.71000 1292.665
65.72000 1444.660
65.73000 1584.873
65.74000 1715.286
65.75000 1846.133
65.76000 1986.570
65.77000 2130.943
65.78000 2272.012
65.79000 2375.982
65.80000 2469.574
65.81000 2552.729
65.82000 2595.571
65.83000 2626.229
65.84000 2652.760
65.85000 2661.300
65.86000 2667.742
65.87000 2666.057
65.88000 2640.446
65.89000 2613.276
65.90000 2594.954
65.91000 2493.308
65.92000 2415.925
65.93000 2317.671
65.94000 2190.984
65.95000 2064.111
65.96000 1911.476
65.97000 1735.952
65.98000 1562.191
65.99000 1396.276
66.00000 1238.472
66.01000 1082.264
66.02000 960.315
66.03000 852.223
66.04000 748.192
66.05000 688.793
66.06000 641.693
66.07000 599.940
66.08000 558.076
66.09000 521.814
66.10000 490.669
66.11000 481.489
66.12000 474.819
66.13000 467.988
66.14000 460.689
66.15000 453.361
66.16000 448.444
66.17000 449.447
66.18000 450.311
66.19000 452.070
66.20000 455.029
66.21000 458.000
66.22000 466.818
66.23000 480.746
66.24000 494.526
66.25000 517.984
66.26000 546.435
66.27000 574.932
66.28000 604.388
66.29000 634.227
66.30000 663.755
66.31000 689.942
66.32000 715.223
66.33000 737.582
66.34000 751.664
66.35000 762.548
66.36000 773.157
66.37000 782.602
66.38000 791.917
66.39000 796.602
66.40000 788.047
66.41000 778.674
66.42000 772.418
66.43000 779.412
66.44000 784.851
66.45000 784.737
66.46000 777.290
66.47000 769.803
66.48000 757.355
66.49000 740.640
66.50000 724.114
66.51000 687.130
66.52000 639.536
66.53000 593.040
66.54000 568.769
66.55000 553.232
66.56000 537.326
66.57000 517.549
66.58000 496.735
66.59000 478.370
66.60000 457.385
66.61000 438.884
66.62000 423.899
66.63000 423.555
66.64000 424.818
66.65000 422.824
66.66000 411.652
66.67000 399.926
66.68000 392.141
66.69000 404.031
66.70000 413.185
66.71000 416.718
66.72000 412.941
66.73000 409.142
66.74000 410.417
66.75000 415.985
66.76000 421.486
66.77000 416.231
66.78000 405.161
66.79000 394.803
66.80000 398.433
66.81000 407.479
66.82000 415.599
66.83000 414.172
66.84000 410.231
66.85000 406.761
66.86000 409.602
66.87000 412.993
66.88000 416.560
66.89000 420.849
66.90000 425.215
66.91000 429.193
66.92000 432.093
66.93000 434.930
66.94000 436.804
66.95000 438.861
66.96000 440.381
66.97000 438.879
66.98000 433.507
66.99000 428.138
67.00000 430.695
67.01000 439.855
67.02000 448.899
67.03000 446.164
67.04000 437.094
67.05000 428.487
67.06000 428.705
67.07000 432.293
67.08000 435.438
67.09000 434.105
67.10000 431.610
67.11000 429.419
67.12000 433.691
67.13000 438.312
67.14000 440.836
67.15000 434.893
67.16000 428.057
67.17000 425.222
67.18000 433.339
67.19000 442.082
67.20000 447.825
67.21000 457.801
67.22000 465.215
67.23000 468.575
67.24000 466.830
67.25000 465.067
67.26000 462.774
67.27000 460.046
67.28000 457.355
67.29000 461.660
67.30000 469.594
67.31000 477.258
67.32000 479.938
67.33000 480.743
67.34000 481.224
67.35000 478.498
67.36000 474.953
67.37000 471.848
67.38000 468.943
67.39000 466.480
67.40000 466.537
67.41000 476.609
67.42000 487.716
67.43000 494.562
67.44000 489.911
67.45000 484.623
67.46000 481.167
67.47000 493.078
67.48000 502.072
67.49000 504.401
67.50000 498.465
67.51000 492.516
67.52000 490.356
67.53000 491.252
67.54000 492.136
67.55000 493.687
67.56000 495.545
67.57000 497.220
67.58000 495.565
67.59000 492.675
67.60000 490.033
67.61000 489.789
67.62000 490.149
67.63000 490.463
67.64000 497.321
67.65000 504.120
67.66000 509.791
67.67000 511.044
67.68000 511.850
67.69000 513.301
67.70000 516.464
67.71000 519.720
67.72000 521.836
67.73000 526.628
67.74000 530.181
67.75000 530.369
67.76000 526.447
67.77000 522.535
67.78000 524.608
67.79000 531.434
67.80000 538.159
67.81000 538.402
67.82000 535.275
67.83000 532.120
67.84000 528.464
67.85000 524.623
67.86000 522.073
67.87000 531.758
67.88000 544.477
67.89000 555.564
67.90000 562.618
67.91000 568.087
67.92000 572.635
67.93000 573.635
67.94000 574.282
67.95000 572.984
67.96000 566.589
67.97000 559.926
67.98000 555.620
67.99000 554.906
68.00000 554.436
68.01000 560.064
68.02000 573.017
68.03000 585.963
68.04000 593.100
68.05000 595.695
68.06000 598.251
68.07000 598.943
68.08000 598.663
68.09000 598.820
68.10000 606.426
68.11000 616.717
68.12000 625.661
68.13000 622.092
68.14000 615.467
68.15000 609.706
68.16000 613.052
68.17000 617.148
68.18000 621.737
68.19000 628.201
68.20000 634.847
68.21000 640.691
68.22000 644.466
68.23000 648.135
68.24000 650.493
68.25000 638.197
68.26000 629.024
68.27000 629.875
68.28000 642.577
68.29000 655.301
68.30000 668.467
68.31000 681.973
68.32000 695.261
68.33000 708.343
68.34000 720.904
68.35000 732.682
68.36000 731.462
68.37000 725.626
68.38000 720.935
68.39000 726.669
68.40000 734.909
68.41000 742.058
68.42000 753.852
68.43000 764.518
68.44000 773.984
68.45000 778.961
68.46000 783.511
68.47000 790.544
68.48000 803.898
68.49000 817.564
68.50000 826.299
68.51000 837.274
68.52000 845.292
68.53000 862.316
68.54000 889.814
68.55000 917.323
68.56000 943.915
68.57000 969.811
68.58000 995.268
68.59000 1029.732
68.60000 1067.505
68.61000 1105.894
68.62000 1154.252
68.63000 1206.099
68.64000 1259.050
68.65000 1321.858
68.66000 1387.001
68.67000 1443.367
68.68000 1499.506
68.69000 1547.201
68.70000 1600.020
68.71000 1671.721
68.72000 1745.179
68.73000 1808.452
68.74000 1846.163
68.75000 1882.646
68.76000 1905.831
68.77000 2049.805
68.78000 2155.863
68.79000 2236.955
68.80000 2289.470
68.81000 2342.177
68.82000 2438.039
68.83000 2566.090
68.84000 2691.863
68.85000 2863.724
68.86000 3052.092
68.87000 3251.157
68.88000 3618.844
68.89000 4044.682
68.90000 4530.661
68.91000 5543.195
68.92000 6678.476
68.93000 7658.290
68.94000 10704.262
68.95000 13554.740
68.96000 16777.305
68.97000 21350.773
68.98000 26047.262
68.99000 30821.465
69.00000 35787.898
69.01000 40763.293
69.02000 43906.953
69.03000 49023.211
69.04000 52753.566
69.05000 55598.574
69.06000 57446.598
69.07000 59290.551
69.08000 60576.957
69.09000 61453.879
69.10000 62314.496
69.11000 63144.438
69.12000 63930.016
69.13000 64722.816
69.14000 65626.531
69.15000 66567.953
69.16000 67419.852
69.17000 67503.188
69.18000 67410.125
69.19000 67330.008
69.20000 64423.969
69.21000 61606.063
69.22000 58483.730
69.23000 54272.547
69.24000 49964.348
69.25000 45999.195
69.26000 42870.434
69.27000 39779.480
69.28000 37837.805
69.29000 35534.863
69.30000 33865.934
69.31000 32638.018
69.32000 31898.654
69.33000 31160.152
69.34000 30508.203
69.35000 29918.850
69.36000 29340.941
69.37000 28216.230
69.38000 26875.316
69.39000 25476.592
69.40000 23212.209
69.41000 20657.865
69.42000 18096.768
69.43000 15478.807
69.44000 12847.997
69.45000 10589.267
69.46000 8628.345
69.47000 7007.340
69.48000 5541.445
69.49000 4622.118
69.50000 3750.424
69.51000 3023.560
69.52000 2644.749
69.53000 2281.186
69.54000 2054.140
69.55000 1831.288
69.56000 1670.585
69.57000 1543.250
69.58000 1452.275
69.59000 1361.523
69.60000 1300.467
69.61000 1260.559
69.62000 1221.460
69.63000 1165.078
69.64000 1102.835
69.65000 1042.581
69.66000 1011.368
69.67000 989.742
69.68000 968.417
69.69000 949.568
69.70000 931.269
69.71000 915.601
69.72000 869.696
69.73000 827.291
69.74000 791.345
69.75000 777.822
69.76000 766.210
69.77000 754.376
69.78000 742.018
69.79000 729.639
69.80000 721.953
69.81000 703.396
69.82000 689.934
69.83000 677.299
69.84000 665.551
69.85000 653.833
69.86000 646.092
69.87000 641.142
69.88000 636.295
69.89000 632.324
69.90000 628.909
69.91000 624.907
69.92000 612.559
69.93000 597.495
69.94000 584.264
69.95000 585.888
69.96000 590.765
69.97000 594.931
69.98000 588.379
69.99000 581.587
70.00000 575.029
