20.00000 493.179
20.01000 499.570
20.02000 506.873
20.03000 510.752
20.04000 501.129
20.05000 490.125
20.06000 481.999
20.07000 487.948
20.08000 493.156
20.09000 494.765
20.10000 489.785
20.11000 484.665
20.12000 478.907
20.13000 472.367
20.14000 465.836
20.15000 465.868
20.16000 471.129
20.17000 476.276
20.18000 476.340
20.19000 473.668
20.20000 471.612
20.21000 480.514
20.22000 493.449
20.23000 505.387
20.24000 501.396
20.25000 494.253
20.26000 487.862
20.27000 485.906
20.28000 484.677
20.29000 483.607
20.30000 483.157
20.31000 482.770
20.32000 482.485
20.33000 469.693
20.34000 459.282
20.35000 453.531
20.36000 456.188
20.37000 459.015
20.38000 464.402
20.39000 472.886
20.40000 481.360
20.41000 484.568
20.42000 483.632
20.43000 482.708
20.44000 482.284
20.45000 482.125
20.46000 481.862
20.47000 479.804
20.48000 477.095
20.49000 474.599
20.50000 479.422
20.51000 485.349
20.52000 489.246
20.53000 481.371
20.54000 471.600
20.55000 462.787
20.56000 457.636
20.57000 452.845
20.58000 449.337
20.59000 459.539
20.60000 467.962
20.61000 473.107
20.62000 472.423
20.63000 471.626
20.64000 471.881
20.65000 473.391
20.66000 474.900
20.67000 473.482
20.68000 469.814
20.69000 466.301
20.70000 469.083
20.71000 475.156
20.72000 480.511
20.73000 473.777
20.74000 462.722
20.75000 452.556
20.76000 457.618
20.77000 465.434
20.78000 472.028
20.79000 471.644
20.80000 470.156
20.81000 469.293
20.82000 470.784
20.83000 472.501
20.84000 473.754
20.85000 487.897
20.86000 499.292
20.87000 501.712
20.88000 488.408
20.89000 474.814
20.90000 466.514
20.91000 464.420
20.92000 462.341
20.93000 462.847
20.94000 465.309
20.95000 467.882
20.96000 474.751
20.97000 483.834
20.98000 492.099
20.99000 486.971
21.00000 477.123
21.01000 468.085
21.02000 469.077
21.03000 472.095
21.04000 475.559
21.05000 481.518
21.06000 487.866
21.07000 492.432
21.08000 490.380
21.09000 487.705
21.10000 485.763
21.11000 477.684
21.12000 471.242
21.13000 466.508
21.14000 464.723
21.15000 462.990
21.16000 465.703
21.17000 473.543
21.18000 481.367
21.19000 484.224
21.20000 483.353
21.21000 482.405
21.22000 478.565
21.23000 473.257
21.24000 468.403
21.25000 470.807
21.26000 475.732
21.27000 480.243
21.28000 481.179
21.29000 481.265
21.30000 480.144
21.31000 472.359
21.32000 463.556
21.33000 457.031
21.34000 458.833
21.35000 461.402
21.36000 463.259
21.37000 465.306
21.38000 466.883
21.39000 470.125
21.40000 476.201
21.41000 482.323
21.42000 484.384
21.43000 481.835
21.44000 479.289
21.45000 478.510
21.46000 479.034
21.47000 479.536
21.48000 479.233
21.49000 478.529
21.50000 477.489
21.51000 471.247
21.52000 463.224
21.53000 455.889
21.54000 455.576
21.55000 456.742
21.56000 458.269
21.57000 461.758
21.58000 465.541
21.59000 468.739
21.60000 469.829
21.61000 470.729
21.62000 471.377
21.63000 472.453
21.64000 473.291
21.65000 475.018
21.66000 478.233
21.67000 481.472
21.68000 478.854
21.69000 469.696
21.70000 460.566
21.71000 458.889
21.72000 462.610
21.73000 466.457
21.74000 474.607
21.75000 484.880
21.76000 494.581
21.77000 495.617
21.78000 493.730
21.79000 492.008
21.80000 493.724
21.81000 495.941
21.82000 497.654
21.83000 496.676
21.84000 495.301
21.85000 496.965
21.86000 509.416
21.87000 522.818
21.88000 532.421
21.89000 531.106
21.90000 529.730
21.91000 531.767
21.92000 539.437
21.93000 547.191
21.94000 553.310
21.95000 557.633
21.96000 561.938
21.97000 567.941
21.98000 575.094
21.99000 582.067
22.00000 583.011
22.01000 581.026
22.02000 579.581
22.03000 586.118
22.04000 595.309
22.05000 603.679
22.06000 603.061
22.07000 600.731
22.08000 598.774
22.09000 598.783
22.10000 599.076
22.11000 598.238
22.12000 593.438
22.13000 588.298
22.14000 584.631
22.15000 591.709
22.16000 597.460
22.17000 600.321
22.18000 598.484
22.19000 596.580
22.20000 594.933
22.21000 593.563
22.22000 592.200
22.23000 588.967
22.24000 584.459
22.25000 580.026
22.26000 577.969
22.27000 577.051
22.28000 575.775
22.29000 569.351
22.30000 561.240
22.31000 553.868
22.32000 547.334
22.33000 541.722
22.34000 536.740
22.35000 535.014
22.36000 533.753
22.37000 531.658
22.38000 526.691
22.39000 521.482
22.40000 517.783
22.41000 517.358
22.42000 517.138
22.43000 515.554
22.44000 511.785
22.45000 507.986
22.46000 506.605
22.47000 507.793
22.48000 508.976
22.49000 499.845
22.50000 483.716
22.51000 468.169
22.52000 470.547
22.53000 481.387
22.54000 491.163
22.55000 485.973
22.56000 475.951
22.57000 466.859
22.58000 470.881
22.59000 476.944
22.60000 481.032
22.61000 475.078
22.62000 467.719
22.63000 461.519
22.64000 459.251
22.65000 457.306
22.66000 455.932
22.67000 458.153
22.68000 459.950
22.69000 459.755
22.70000 456.415
22.71000 453.036
22.72000 451.220
22.73000 451.036
22.74000 450.854
22.75000 455.308
22.76000 462.847
22.77000 469.925
22.78000 463.308
22.79000 450.318
22.80000 438.032
22.81000 435.403
22.82000 435.847
22.83000 436.249
22.84000 437.919
22.85000 439.629
22.86000 441.687
22.87000 445.486
22.88000 449.524
22.89000 452.275
22.90000 450.726
22.91000 448.830
22.92000 447.496
22.93000 448.107
22.94000 448.627
22.95000 447.279
22.96000 443.023
22.97000 438.734
22.98000 434.229
22.99000 429.500
23.00000 424.798
23.01000 427.960
23.02000 436.322
23.03000 444.409
23.04000 444.617
23.05000 441.212
23.06000 437.918
23.07000 436.117
23.08000 434.785
23.09000 433.582
23.10000 436.958
23.11000 440.775
23.12000 443.939
23.13000 443.890
23.14000 443.407
23.15000 441.287
23.16000 433.772
23.17000 425.832
23.18000 420.272
23.19000 437.172
23.20000 450.594
23.21000 454.131
23.22000 442.525
23.23000 430.755
23.24000 425.743
23.25000 427.559
23.26000 429.364
23.27000 431.274
23.28000 433.228
23.29000 435.284
23.30000 440.179
23.31000 446.357
23.32000 452.234
23.33000 454.176
23.34000 454.903
23.35000 455.559
23.36000 456.126
23.37000 456.608
23.38000 455.408
23.39000 446.060
23.40000 435.634
23.41000 427.808
23.42000 428.424
23.43000 429.689
23.44000 430.570
23.45000 434.096
23.46000 436.829
23.47000 440.077
23.48000 444.105
23.49000 448.140
23.50000 447.980
23.51000 443.653
23.52000 439.354
23.53000 438.006
23.54000 438.582
23.55000 439.136
23.56000 439.097
23.57000 438.794
23.58000 437.984
23.59000 430.694
23.60000 421.431
23.61000 413.098
23.62000 414.172
23.63000 416.794
23.64000 419.798
23.65000 424.623
23.66000 429.686
23.67000 433.149
23.68000 431.495
23.69000 429.458
23.70000 428.045
23.71000 433.410
23.72000 437.629
23.73000 437.732
23.74000 431.715
23.75000 425.641
23.76000 426.342
23.77000 433.662
23.78000 440.930
23.79000 440.984
23.80000 436.455
23.81000 432.038
23.82000 430.509
23.83000 430.250
23.84000 429.953
23.85000 429.198
23.86000 428.305
23.87000 427.503
23.88000 431.203
23.89000 435.230
23.90000 438.582
23.91000 438.775
23.92000 438.564
23.93000 437.473
23.94000 433.611
23.95000 429.545
23.96000 426.738
23.97000 438.640
23.98000 447.959
23.99000 449.574
24.00000 439.909
24.01000 430.146
24.02000 425.505
24.03000 425.785
24.04000 426.062
24.05000 422.968
24.06000 417.819
24.07000 412.856
24.08000 412.547
24.09000 414.252
24.10000 416.104
24.11000 419.738
24.12000 423.899
24.13000 427.627
24.14000 431.817
24.15000 435.556
24.16000 437.192
24.17000 429.116
24.18000 419.825
24.19000 412.776
24.20000 412.695
24.21000 413.111
24.22000 413.398
24.23000 417.283
24.24000 420.285
24.25000 424.955
24.26000 432.029
24.27000 439.120
24.28000 438.172
24.29000 429.630
24.30000 421.155
24.31000 417.025
24.32000 415.640
24.33000 414.339
24.34000 415.076
24.35000 416.683
24.36000 418.512
24.37000 422.989
24.38000 428.237
24.39000 432.928
24.40000 427.730
24.41000 421.525
24.42000 417.310
24.43000 422.137
24.44000 428.074
24.45000 431.663
24.46000 428.059
24.47000 423.953
24.48000 421.146
24.49000 421.322
24.50000 421.524
24.51000 422.669
24.52000 425.154
24.53000 427.647
24.54000 427.242
24.55000 424.144
24.56000 421.072
24.57000 417.169
24.58000 412.834
24.59000 408.702
24.60000 409.306
24.61000 411.903
24.62000 414.322
24.63000 414.666
24.64000 414.414
24.65000 414.190
24.66000 420.870
24.67000 427.828
24.68000 432.085
24.69000 424.243
24.70000 414.945
24.71000 408.900
24.72000 412.672
24.73000 417.113
24.74000 420.133
24.75000 412.546
24.76000 406.641
24.77000 404.965
24.78000 409.203
24.79000 413.478
24.80000 411.684
24.81000 404.344
24.82000 397.072
24.83000 400.337
24.84000 409.815
24.85000 418.900
24.86000 419.086
24.87000 415.583
24.88000 412.573
24.89000 415.172
24.90000 419.357
24.91000 423.082
24.92000 418.680
24.93000 413.531
24.94000 411.234
24.95000 421.505
24.96000 433.261
24.97000 440.486
24.98000 434.237
24.99000 427.096
25.00000 422.262
25.01000 410.162
25.02000 400.989
25.03000 399.364
25.04000 408.136
25.05000 416.966
25.06000 416.587
25.07000 407.931
25.08000 399.359
25.09000 400.629
25.10000 407.642
25.11000 414.156
25.12000 409.724
25.13000 400.820
25.14000 393.250
25.15000 400.568
25.16000 412.032
25.17000 422.210
25.18000 419.039
25.19000 414.150
25.20000 409.627
25.21000 406.693
25.22000 403.943
25.23000 402.509
25.24000 404.930
25.25000 407.601
25.26000 409.399
25.27000 401.038
25.28000 394.610
25.29000 395.256
25.30000 405.494
25.31000 415.780
25.32000 419.475
25.33000 417.342
25.34000 415.231
25.35000 415.134
25.36000 416.200
25.37000 417.227
25.38000 417.403
25.39000 417.237
25.40000 416.527
25.41000 409.880
25.42000 401.605
25.43000 394.274
25.44000 399.930
25.45000 406.868
25.46000 411.717
25.47000 407.638
25.48000 402.545
25.49000 400.612
25.50000 407.806
25.51000 415.575
25.52000 420.779
25.53000 412.552
25.54000 406.179
25.55000 400.510
25.56000 395.782
25.57000 391.065
25.58000 392.402
25.59000 399.006
25.60000 405.539
25.61000 404.255
25.62000 398.562
25.63000 393.392
25.64000 398.989
25.65000 408.860
25.66000 417.672
25.67000 415.167
25.68000 409.604
25.69000 404.687
25.70000 403.056
25.71000 402.155
25.72000 400.773
25.73000 397.371
25.74000 393.745
25.75000 391.815
25.76000 394.714
25.77000 397.910
25.78000 400.039
25.79000 392.701
25.80000 387.088
25.81000 389.599
25.82000 402.789
25.83000 416.009
25.84000 417.044
25.85000 407.649
25.86000 398.362
25.87000 396.121
25.88000 397.871
25.89000 399.725
25.90000 403.674
25.91000 408.443
25.92000 412.655
25.93000 411.049
25.94000 407.894
25.95000 405.112
25.96000 404.102
25.97000 403.501
25.98000 401.566
25.99000 394.106
26.00000 386.042
26.01000 381.471
26.02000 386.699
26.03000 392.513
26.04000 396.367
26.05000 404.345
26.06000 410.314
26.07000 410.764
26.08000 404.071
26.09000 397.366
26.10000 399.054
26.11000 407.812
26.12000 416.463
26.13000 416.645
26.14000 412.165
26.15000 407.579
26.16000 400.941
26.17000 393.511
26.18000 386.725
26.19000 386.522
26.20000 388.045
26.21000 389.386
26.22000 387.642
26.23000 385.682
26.24000 383.315
26.25000 379.286
26.26000 375.079
26.27000 372.376
26.28000 373.828
26.29000 375.523
26.30000 376.640
26.31000 379.648
26.32000 381.898
26.33000 387.272
26.34000 396.625
26.35000 405.974
26.36000 406.680
26.37000 400.223
26.38000 393.849
26.39000 387.564
26.40000 381.493
26.41000 375.716
26.42000 375.500
26.43000 377.398
26.44000 379.727
26.45000 386.390
26.46000 394.172
26.47000 401.002
26.48000 398.248
26.49000 394.482
26.50000 391.693
26.51000 392.827
26.52000 394.373
26.53000 396.373
26.54000 399.612
26.55000 402.921
26.56000 405.091
26.57000 392.803
26.58000 383.524
26.59000 377.431
26.60000 375.331
26.61000 373.256
26.62000 375.640
26.63000 381.663
26.64000 387.604
26.65000 383.982
26.66000 375.364
26.67000 367.404
26.68000 371.562
26.69000 380.260
26.70000 388.418
26.71000 391.279
26.72000 392.792
26.73000 394.116
26.74000 389.474
26.75000 384.638
26.76000 381.934
26.77000 387.666
26.78000 394.265
26.79000 398.098
26.80000 394.501
26.81000 390.495
26.82000 387.881
26.83000 386.155
26.84000 384.902
26.85000 385.645
26.86000 388.851
26.87000 392.051
26.88000 391.127
26.89000 386.889
26.90000 382.712
26.91000 382.365
26.92000 384.036
26.93000 385.766
26.94000 388.552
26.95000 391.728
26.96000 394.572
26.97000 394.208
26.98000 393.040
26.99000 392.021
27.00000 389.311
27.01000 386.753
27.02000 384.939
27.03000 386.026
27.04000 387.403
27.05000 387.856
27.06000 385.857
27.07000 383.728
27.08000 382.346
27.09000 376.057
27.10000 371.378
27.11000 372.376
27.12000 380.272
27.13000 388.158
27.14000 388.276
27.15000 382.254
27.16000 376.322
27.17000 377.865
27.18000 383.219
27.19000 387.996
27.20000 382.725
27.21000 373.797
27.22000 366.208
27.23000 371.247
27.24000 379.402
27.25000 386.506
27.26000 381.485
27.27000 375.520
27.28000 370.670
27.29000 370.101
27.30000 369.954
27.31000 371.411
27.32000 377.056
27.33000 382.918
27.34000 386.701
27.35000 374.072
27.36000 364.609
27.37000 365.232
27.38000 377.913
27.39000 390.570
27.40000 390.678
27.41000 381.023
27.42000 371.519
27.43000 373.825
27.44000 382.057
27.45000 389.749
27.46000 388.278
27.47000 383.522
27.48000 379.122
27.49000 378.018
27.50000 377.714
27.51000 377.451
27.52000 374.339
27.53000 371.299
27.54000 370.253
27.55000 376.746
27.56000 383.966
27.57000 389.229
27.58000 389.459
27.59000 389.435
27.60000 389.419
27.61000 387.851
27.62000 386.686
27.63000 383.433
27.64000 377.723
27.65000 372.013
27.66000 367.069
27.67000 362.711
27.68000 358.424
27.69000 359.343
27.70000 362.834
27.71000 366.498
27.72000 373.004
27.73000 380.515
27.74000 387.047
27.75000 384.705
27.76000 380.240
27.77000 376.370
27.78000 372.821
27.79000 369.842
27.80000 367.875
27.81000 369.677
27.82000 371.834
27.83000 373.752
27.84000 375.063
27.85000 376.345
27.86000 377.163
27.87000 375.901
27.88000 374.957
27.89000 373.902
27.90000 372.720
27.91000 371.546
27.92000 371.884
27.93000 373.362
27.94000 374.816
27.95000 374.661
27.96000 373.720
27.97000 373.030
27.98000 376.370
27.99000 381.114
28.00000 385.852
28.01000 390.542
28.02000 395.220
28.03000 399.265
28.04000 396.656
28.05000 393.572
28.06000 391.290
28.07000 391.947
28.08000 392.876
28.09000 391.816
28.10000 385.783
28.11000 379.514
28.12000 375.537
28.13000 370.338
28.14000 366.550
28.15000 364.728
28.16000 365.146
28.17000 365.587
28.18000 369.803
28.19000 376.822
28.20000 383.714
28.21000 384.229
28.22000 381.636
28.23000 379.326
28.24000 381.432
28.25000 385.055
28.26000 387.862
28.27000 383.571
28.28000 377.634
28.29000 372.513
28.30000 375.873
28.31000 379.807
28.32000 383.322
28.33000 385.320
28.34000 387.181
28.35000 387.116
28.36000 382.308
28.37000 377.281
28.38000 374.110
28.39000 373.999
28.40000 373.954
28.41000 376.709
28.42000 382.601
28.43000 388.471
28.44000 390.257
28.45000 389.057
28.46000 387.880
28.47000 383.900
28.48000 378.726
28.49000 373.674
28.50000 370.474
28.51000 367.900
28.52000 365.577
28.53000 365.396
28.54000 365.705
28.55000 365.970
28.56000 364.328
28.57000 362.699
28.58000 361.781
28.59000 363.399
28.60000 365.242
28.61000 365.941
28.62000 363.863
28.63000 361.661
28.64000 360.280
28.65000 368.861
28.66000 375.170
28.67000 376.124
28.68000 371.176
28.69000 366.244
28.70000 364.265
28.71000 364.412
28.72000 364.556
28.73000 363.448
28.74000 361.793
28.75000 360.323
28.76000 361.586
28.77000 363.761
28.78000 365.538
28.79000 363.974
28.80000 361.658
28.81000 359.672
28.82000 357.151
28.83000 354.954
28.84000 353.824
28.85000 356.433
28.86000 359.366
28.87000 361.782
28.88000 362.963
28.89000 364.091
28.90000 364.794
28.91000 359.300
28.92000 355.277
28.93000 355.861
28.94000 361.441
28.95000 366.963
28.96000 364.094
28.97000 355.276
28.98000 346.639
28.99000 352.353
29.00000 364.474
29.01000 375.722
29.02000 374.313
29.03000 368.745
29.04000 363.493
29.05000 360.834
29.06000 358.750
29.07000 356.967
29.08000 354.108
29.09000 351.566
29.10000 350.694
29.11000 355.587
29.12000 360.968
29.13000 362.821
29.14000 356.352
29.15000 349.532
29.16000 345.306
29.17000 346.352
29.18000 347.155
29.19000 348.859
29.20000 351.523
29.21000 354.174
29.22000 355.040
29.23000 354.660
29.24000 354.288
29.25000 353.518
29.26000 352.597
29.27000 351.687
29.28000 350.940
29.29000 350.246
29.30000 349.695
29.31000 350.294
29.32000 351.144
29.33000 351.869
29.34000 360.518
29.35000 368.736
29.36000 373.459
29.37000 366.283
29.38000 358.122
29.39000 353.450
29.40000 356.886
29.41000 360.652
29.42000 362.972
29.43000 369.125
29.44000 373.574
29.45000 370.970
29.46000 360.969
29.47000 351.033
29.48000 348.883
29.49000 352.087
29.50000 355.220
29.51000 359.470
29.52000 364.045
29.53000 367.891
29.54000 361.680
29.55000 352.260
29.56000 344.596
29.57000 350.819
29.58000 360.023
29.59000 367.855
29.60000 372.093
29.61000 375.238
29.62000 376.098
29.63000 369.292
29.64000 361.865
29.65000 358.096
29.66000 362.711
29.67000 367.655
29.68000 370.683
29.69000 369.304
29.70000 368.280
29.71000 368.340
29.72000 369.517
29.73000 370.696
29.74000 372.064
29.75000 373.560
29.76000 375.021
29.77000 378.780
29.78000 383.390
29.79000 387.097
29.80000 378.627
29.81000 366.328
29.82000 356.704
29.83000 367.835
29.84000 383.351
29.85000 396.518
29.86000 397.145
29.87000 396.247
29.88000 395.713
29.89000 396.384
29.90000 397.150
29.91000 400.705
29.92000 410.555
29.93000 420.646
29.94000 426.785
29.95000 414.535
29.96000 405.641
29.97000 401.942
29.98000 403.513
29.99000 405.182
30.00000 416.859
30.01000 435.212
30.02000 453.122
30.03000 457.383
30.04000 455.540
30.05000 453.394
30.06000 447.253
30.07000 439.875
30.08000 434.288
30.09000 442.349
30.10000 453.246
30.11000 462.469
30.12000 467.952
30.13000 472.125
30.14000 473.172
30.15000 464.033
30.16000 454.107
30.17000 446.238
30.18000 442.944
30.19000 439.818
30.20000 437.927
30.21000 430.815
30.22000 425.708
30.23000 419.839
30.24000 413.208
30.25000 406.635
30.26000 405.483
30.27000 407.893
30.28000 410.242
30.29000 408.416
30.30000 404.890
30.31000 401.328
30.32000 397.314
30.33000 393.161
30.34000 389.767
30.35000 392.045
30.36000 395.482
30.37000 398.384
30.38000 400.166
30.39000 401.532
30.40000 400.456
30.41000 391.535
30.42000 382.024
30.43000 375.603
30.44000 375.961
30.45000 376.561
30.46000 376.921
30.47000 384.536
30.48000 389.998
30.49000 391.814
30.50000 390.056
30.51000 388.341
30.52000 390.528
30.53000 395.241
30.54000 399.831
30.55000 396.199
30.56000 389.284
30.57000 383.279
30.58000 388.708
30.59000 397.578
30.60000 404.969
30.61000 401.504
30.62000 395.854
30.63000 391.099
30.64000 391.336
30.65000 392.067
30.66000 394.513
30.67000 402.382
30.68000 410.651
30.69000 413.307
30.70000 403.822
30.71000 393.921
30.72000 388.009
30.73000 393.802
30.74000 397.983
30.75000 400.074
30.76000 400.149
30.77000 400.280
30.78000 405.009
30.79000 412.668
30.80000 420.121
30.81000 422.552
30.82000 422.790
30.83000 423.152
30.84000 425.020
30.85000 427.334
30.86000 429.712
30.87000 432.549
30.88000 435.476
30.89000 437.933
30.90000 439.259
30.91000 440.245
30.92000 441.885
30.93000 445.566
30.94000 449.393
30.95000 454.580
30.96000 462.664
30.97000 470.844
30.98000 475.696
30.99000 475.128
31.00000 474.697
31.01000 484.811
31.02000 504.922
31.03000 524.860
31.04000 531.380
31.05000 529.473
31.06000 527.620
31.07000 544.550
31.08000 568.284
31.09000 592.278
31.10000 619.370
31.11000 647.368
31.12000 673.996
31.13000 690.926
31.14000 705.967
31.15000 718.551
31.16000 789.536
31.17000 854.498
31.18000 918.189
31.19000 977.974
31.20000 1037.485
31.21000 1103.569
31.22000 1183.461
31.23000 1263.793
31.24000 1311.141
31.25000 1465.234
31.26000 1574.564
31.27000 1681.444
31.28000 1786.039
31.29000 1890.647
31.30000 1996.159
31.31000 2102.229
31.32000 2205.221
31.33000 2300.989
31.34000 2388.998
31.35000 2475.107
31.36000 2538.943
31.37000 2596.368
31.38000 2654.874
31.39000 2720.900
31.40000 2788.368
31.41000 2844.656
31.42000 2870.249
31.43000 2888.395
31.44000 2896.179
31.45000 2872.596
31.46000 2846.867
31.47000 2807.042
31.48000 2738.030
31.49000 2668.125
31.50000 2627.191
31.51000 2524.370
31.52000 2451.658
31.53000 2357.238
31.54000 2242.914
31.55000 2128.861
31.56000 2033.598
31.57000 1949.786
31.58000 1868.493
31.59000 1766.956
31.60000 1662.739
31.61000 1559.226
31.62000 1463.786
31.63000 1370.635
31.64000 1280.702
31.65000 1212.747
31.66000 1148.938
31.67000 1095.860
31.68000 1041.741
31.69000 996.841
31.70000 950.326
31.71000 898.997
31.72000 847.347
31.73000 800.989
31.74000 765.431
31.75000 730.191
31.76000 709.694
31.77000 673.005
31.78000 647.166
31.79000 626.846
31.80000 611.505
31.81000 596.151
31.82000 580.029
31.83000 563.445
31.84000 547.377
31.85000 534.641
31.86000 523.880
31.87000 512.074
31.88000 488.542
31.89000 461.736
31.90000 438.612
31.91000 440.191
31.92000 446.356
31.93000 451.469
31.94000 448.540
31.95000 445.346
31.96000 439.311
31.97000 424.924
31.98000 409.994
31.99000 399.817
32.00000 399.201
32.01000 398.855
32.02000 398.656
32.03000 395.856
32.04000 393.881
32.05000 389.599
32.06000 383.269
32.07000 376.959
32.08000 371.874
32.09000 367.514
32.10000 363.294
32.11000 359.880
32.12000 356.962
32.13000 354.368
32.14000 355.329
32.15000 357.268
32.16000 358.352
32.17000 353.802
32.18000 348.223
32.19000 343.610
32.20000 345.932
32.21000 348.499
32.22000 350.589
32.23000 351.294
32.24000 351.912
32.25000 353.344
32.26000 356.392
32.27000 359.484
32.28000 361.258
32.29000 349.328
32.30000 340.945
32.31000 337.864
32.32000 339.411
32.33000 340.949
32.34000 341.959
32.35000 342.660
32.36000 343.338
32.37000 342.011
32.38000 340.005
32.39000 338.382
32.40000 340.867
32.41000 344.466
32.42000 347.120
32.43000 343.651
32.44000 339.081
32.45000 335.315
32.46000 333.525
32.47000 332.234
32.48000 330.128
32.49000 325.695
32.50000 321.118
32.51000 320.940
32.52000 329.358
32.53000 338.000
32.54000 342.925
32.55000 351.253
32.56000 357.058
32.57000 353.920
32.58000 343.099
32.59000 332.423
32.60000 329.772
32.61000 331.731
32.62000 333.622
32.63000 331.253
32.64000 327.446
32.65000 324.081
32.66000 325.365
32.67000 327.890
32.68000 330.142
32.69000 330.651
32.70000 330.853
32.71000 331.019
32.72000 332.939
32.73000 334.675
32.74000 334.198
32.75000 327.493
32.76000 320.412
32.77000 314.598
32.78000 311.221
32.79000 307.905
32.80000 306.029
32.81000 314.983
32.82000 321.237
32.83000 324.257
32.84000 324.541
32.85000 324.769
32.86000 321.965
32.87000 317.445
32.88000 313.086
32.89000 313.095
32.90000 314.693
32.91000 316.126
32.92000 315.853
32.93000 315.132
32.94000 314.594
32.95000 315.198
32.96000 316.000
32.97000 316.657
32.98000 318.370
32.99000 319.868
33.00000 318.708
33.01000 310.174
33.02000 301.209
33.03000 295.669
33.04000 296.626
33.05000 297.739
33.06000 298.364
33.07000 295.945
33.08000 294.260
33.09000 292.988
33.10000 292.060
33.11000 291.217
33.12000 294.652
33.13000 300.472
33.14000 306.080
33.15000 309.270
33.16000 311.401
33.17000 313.081
33.18000 310.225
33.19000 306.193
33.20000 303.506
33.21000 309.086
33.22000 316.077
33.23000 321.786
33.24000 314.454
33.25000 307.330
33.26000 301.727
33.27000 300.283
33.28000 299.077
33.29000 298.641
33.30000 299.645
33.31000 300.682
33.32000 301.261
33.33000 304.197
33.34000 306.231
33.35000 306.835
33.36000 306.268
33.37000 305.600
33.38000 300.154
33.39000 292.082
33.40000 284.315
33.41000 286.468
33.42000 291.983
33.43000 297.322
33.44000 300.926
33.45000 304.087
33.46000 306.552
33.47000 304.815
33.48000 302.372
33.49000 300.383
33.50000 297.672
33.51000 295.397
33.52000 295.896
33.53000 303.868
33.54000 312.255
33.55000 313.675
33.56000 302.258
33.57000 290.561
33.58000 284.081
33.59000 288.239
33.60000 291.126
33.61000 292.497
33.62000 292.646
33.63000 292.896
33.64000 297.741
33.65000 305.074
33.66000 312.122
33.67000 308.165
33.68000 300.644
33.69000 293.680
33.70000 292.101
33.71000 291.877
33.72000 292.366
33.73000 297.097
33.74000 302.528
33.75000 306.935
33.76000 295.830
33.77000 285.498
33.78000 278.062
33.79000 278.313
33.80000 278.979
33.81000 278.073
33.82000 274.313
33.83000 270.494
33.84000 268.393
33.85000 279.581
33.86000 287.295
33.87000 291.295
33.88000 292.350
33.89000 293.481
33.90000 297.950
33.91000 304.201
33.92000 310.201
33.93000 301.932
33.94000 289.329
33.95000 277.845
33.96000 276.956
33.97000 278.690
33.98000 280.858
33.99000 285.559
34.00000 290.670
34.01000 294.805
34.02000 296.194
34.03000 297.104
34.04000 296.740
34.05000 293.042
34.06000 289.170
34.07000 284.499
34.08000 278.398
34.09000 272.269
34.10000 268.923
34.11000 278.419
34.12000 284.945
34.13000 287.906
34.14000 288.084
34.15000 288.270
34.16000 288.813
34.17000 289.544
34.18000 290.244
34.19000 289.416
34.20000 288.131
34.21000 287.056
34.22000 287.938
34.23000 289.298
34.24000 290.106
34.25000 287.741
34.26000 284.870
34.27000 282.556
34.28000 282.221
34.29000 282.105
34.30000 282.540
34.31000 284.395
34.32000 286.323
34.33000 286.253
34.34000 282.664
34.35000 279.007
34.36000 277.026
34.37000 280.247
34.38000 282.457
34.39000 284.012
34.40000 285.062
34.41000 286.018
34.42000 283.206
34.43000 278.441
34.44000 273.880
34.45000 274.949
34.46000 277.806
34.47000 281.127
34.48000 288.656
34.49000 297.197
34.50000 303.738
34.51000 298.982
34.52000 292.455
34.53000 287.211
34.54000 291.385
34.55000 295.494
34.56000 297.337
34.57000 293.419
34.58000 289.217
34.59000 285.412
34.60000 282.297
34.61000 279.195
34.62000 277.527
34.63000 274.725
34.64000 272.826
34.65000 274.270
34.66000 278.243
34.67000 282.054
34.68000 279.672
34.69000 274.126
34.70000 268.823
34.71000 269.643
34.72000 272.398
34.73000 275.142
34.74000 277.780
34.75000 280.393
34.76000 282.825
34.77000 284.249
34.78000 285.518
34.79000 286.534
34.80000 288.969
34.81000 291.046
34.82000 291.686
34.83000 288.727
34.84000 285.594
34.85000 281.416
34.86000 275.447
34.87000 269.448
34.88000 266.246
34.89000 277.528
34.90000 285.201
34.91000 287.845
34.92000 286.742
34.93000 285.621
34.94000 283.823
34.95000 281.684
34.96000 279.642
34.97000 278.940
34.98000 278.717
34.99000 278.274
35.00000 275.906
35.01000 273.090
35.02000 270.807
35.03000 271.435
35.04000 272.503
35.05000 273.356
35.06000 271.646
35.07000 270.078
35.08000 268.865
35.09000 268.532
35.10000 268.240
35.11000 271.847
35.12000 282.032
35.13000 292.324
35.14000 297.773
35.15000 289.279
35.16000 283.508
35.17000 279.674
35.18000 277.259
35.19000 274.803
35.20000 270.890
35.21000 266.255
35.22000 261.835
35.23000 263.995
35.24000 268.071
35.25000 271.204
35.26000 266.256
35.27000 259.457
35.28000 254.805
35.29000 261.700
35.30000 270.312
35.31000 277.164
35.32000 271.192
35.33000 265.461
35.34000 263.716
35.35000 271.680
35.36000 280.081
35.37000 282.522
35.38000 275.058
35.39000 267.443
35.40000 263.442
35.41000 261.673
35.42000 260.499
35.43000 263.049
35.44000 268.288
35.45000 273.472
35.46000 276.767
35.47000 279.138
35.48000 281.396
35.49000 280.980
35.50000 279.767
35.51000 278.556
35.52000 277.365
35.53000 276.179
35.54000 274.763
35.55000 272.136
35.56000 269.332
35.57000 267.110
35.58000 266.139
35.59000 265.446
35.60000 264.778
35.61000 264.169
35.62000 263.564
35.63000 261.974
35.64000 258.772
35.65000 255.547
35.66000 253.866
35.67000 256.025
35.68000 257.491
35.69000 259.614
35.70000 262.204
35.71000 264.773
35.72000 266.667
35.73000 268.236
35.74000 269.727
35.75000 267.947
35.76000 265.305
35.77000 262.609
35.78000 259.475
35.79000 256.244
35.80000 254.328
35.81000 259.257
35.82000 265.167
35.83000 269.836
35.84000 270.720
35.85000 271.172
35.86000 271.187
35.87000 270.170
35.88000 269.109
35.89000 269.265
35.90000 271.382
35.91000 273.526
35.92000 274.635
35.93000 273.475
35.94000 272.697
35.95000 272.392
35.96000 272.420
35.97000 272.320
35.98000 268.248
35.99000 262.289
36.00000 256.630
36.01000 257.706
36.02000 260.720
36.03000 263.109
36.04000 260.437
36.05000 256.658
36.06000 254.639
36.07000 261.626
36.08000 269.882
36.09000 276.382
36.10000 271.367
36.11000 266.581
36.12000 262.150
36.13000 258.548
36.14000 254.981
36.15000 251.297
36.16000 247.431
36.17000 243.562
36.18000 241.577
36.19000 250.780
36.20000 256.929
36.21000 258.147
36.22000 255.965
36.23000 253.873
36.24000 254.524
36.25000 256.459
36.26000 258.293
36.27000 257.144
36.28000 255.205
36.29000 252.844
36.30000 247.137
36.31000 240.710
36.32000 236.061
36.33000 240.364
36.34000 245.907
36.35000 250.255
36.36000 255.242
36.37000 259.271
36.38000 261.225
36.39000 258.408
36.40000 255.401
36.41000 255.280
36.42000 259.675
36.43000 264.125
36.44000 266.388
36.45000 264.688
36.46000 263.527
36.47000 259.994
36.48000 254.848
36.49000 249.995
36.50000 253.664
36.51000 261.267
36.52000 268.465
36.53000 271.701
36.54000 273.530
36.55000 274.728
36.56000 271.016
36.57000 266.263
36.58000 261.619
36.59000 257.510
36.60000 253.474
36.61000 250.319
36.62000 260.096
36.63000 268.717
36.64000 273.012
36.65000 267.502
36.66000 261.617
36.67000 256.031
36.68000 250.909
36.69000 245.791
36.70000 243.210
36.71000 248.403
36.72000 251.876
36.73000 255.400
36.74000 258.958
36.75000 262.474
36.76000 264.822
36.77000 266.638
36.78000 268.355
36.79000 264.511
36.80000 259.392
36.81000 255.319
36.82000 259.246
36.83000 264.841
36.84000 269.804
36.85000 271.679
36.86000 273.142
36.87000 274.282
36.88000 275.163
36.89000 275.848
36.90000 276.497
36.91000 277.064
36.92000 277.628
36.93000 278.529
36.94000 279.942
36.95000 281.359
36.96000 282.068
36.97000 288.361
36.98000 292.545
36.99000 295.674
37.00000 298.107
37.01000 300.330
37.02000 296.867
37.03000 290.856
37.04000 285.180
37.05000 286.092
37.06000 288.778
37.07000 291.304
37.08000 292.620
37.09000 293.687
37.10000 293.963
37.11000 290.442
37.12000 286.423
37.13000 283.304
37.14000 281.295
37.15000 279.764
37.16000 278.113
37.17000 276.196
37.18000 274.269
37.19000 271.275
37.20000 266.686
37.21000 262.081
37.22000 261.256
37.23000 264.149
37.24000 267.027
37.25000 268.588
37.26000 269.294
37.27000 270.021
37.28000 271.298
37.29000 272.817
37.30000 274.250
37.31000 268.147
37.32000 260.476
37.33000 253.578
37.34000 252.382
37.35000 252.338
37.36000 253.041
37.37000 257.278
37.38000 261.970
37.39000 265.597
37.40000 267.816
37.41000 269.494
37.42000 270.253
37.43000 269.018
37.44000 267.715
37.45000 266.439
37.46000 265.204
37.47000 263.970
37.48000 261.717
37.49000 258.481
37.50000 255.300
37.51000 256.747
37.52000 261.153
37.53000 265.488
37.54000 268.003
37.55000 269.727
37.56000 271.349
37.57000 266.383
37.58000 260.052
37.59000 254.504
37.60000 254.624
37.61000 255.871
37.62000 257.380
37.63000 260.114
37.64000 263.003
37.65000 265.227
37.66000 261.720
37.67000 258.614
37.68000 256.307
37.69000 255.708
37.70000 255.166
37.71000 252.439
37.72000 246.539
37.73000 240.614
37.74000 242.045
37.75000 250.472
37.76000 258.807
37.77000 259.944
37.78000 256.545
37.79000 253.242
37.80000 252.280
37.81000 252.324
37.82000 252.366
37.83000 255.502
37.84000 259.192
37.85000 262.994
37.86000 267.586
37.87000 272.334
37.88000 275.425
37.89000 270.935
37.90000 265.505
37.91000 261.339
37.92000 253.760
37.93000 247.581
37.94000 245.548
37.95000 252.253
37.96000 259.238
37.97000 262.178
37.98000 259.335
37.99000 256.448
38.00000 257.368
38.01000 261.848
38.02000 266.315
38.03000 269.793
38.04000 272.657
38.05000 275.467
38.06000 277.023
38.07000 278.049
38.08000 279.011
38.09000 274.943
38.10000 269.913
38.11000 265.582
38.12000 266.122
38.13000 267.599
38.14000 268.871
38.15000 269.217
38.16000 269.451
38.17000 269.629
38.18000 269.972
38.19000 270.250
38.20000 269.339
38.21000 265.957
38.22000 262.499
38.23000 262.358
38.24000 266.888
38.25000 271.449
38.26000 273.852
38.27000 274.268
38.28000 274.752
38.29000 279.942
38.30000 288.009
38.31000 295.767
38.32000 296.448
38.33000 294.177
38.34000 292.050
38.35000 298.159
38.36000 305.848
38.37000 312.906
38.38000 315.645
38.39000 317.565
38.40000 320.703
38.41000 329.245
38.42000 338.430
38.43000 345.425
38.44000 355.836
38.45000 364.211
38.46000 372.644
38.47000 381.195
38.48000 389.749
38.49000 398.949
38.50000 409.044
38.51000 419.141
38.52000 441.003
38.53000 473.484
38.54000 505.881
38.55000 532.721
38.56000 556.213
38.57000 579.901
38.58000 607.944
38.59000 637.777
38.60000 665.676
38.61000 702.708
38.62000 738.662
38.63000 775.213
38.64000 815.785
38.65000 857.107
38.66000 897.486
38.67000 933.751
38.68000 969.535
38.69000 996.680
38.70000 1031.364
38.71000 1058.998
38.72000 1087.980
38.73000 1119.685
38.74000 1151.468
38.75000 1166.755
38.76000 1159.524
38.77000 1152.165
38.78000 1139.065
38.79000 1120.875
38.80000 1102.717
38.81000 1086.546
38.82000 1071.554
38.83000 1055.893
38.84000 1025.795
38.85000 989.848
38.86000 956.287
38.87000 916.910
38.88000 879.755
38.89000 842.109
38.90000 801.207
38.91000 759.709
38.92000 719.728
38.93000 686.272
38.94000 653.564
38.95000 628.849
38.96000 569.791
38.97000 521.775
38.98000 483.540
38.99000 464.759
39.00000 446.510
39.01000 430.995
39.02000 419.151
39.03000 407.334
39.04000 392.500
39.05000 375.051
39.06000 357.703
39.07000 346.328
39.08000 338.446
39.09000 330.508
39.10000 321.405
39.11000 311.836
39.12000 302.917
39.13000 295.370
39.14000 288.877
39.15000 283.441
39.16000 284.887
39.17000 287.572
39.18000 289.649
39.19000 289.148
39.20000 288.358
39.21000 287.763
39.22000 283.061
39.23000 279.182
39.24000 275.155
39.25000 270.837
39.26000 266.512
39.27000 261.197
39.28000 254.574
39.29000 247.950
39.30000 246.097
39.31000 248.353
39.32000 250.632
39.33000 254.179
39.34000 258.458
39.35000 262.468
39.36000 261.031
39.37000 257.449
39.38000 254.116
39.39000 252.945
39.40000 252.410
39.41000 251.380
39.42000 247.187
39.43000 242.433
39.44000 239.198
39.45000 242.298
39.46000 246.096
39.47000 248.943
39.48000 247.541
39.49000 246.246
39.50000 244.668
39.51000 242.542
39.52000 240.404
39.53000 237.175
39.54000 232.526
39.55000 227.875
39.56000 227.567
39.57000 230.935
39.58000 234.264
39.59000 235.507
39.60000 235.567
39.61000 235.671
39.62000 236.649
39.63000 237.965
39.64000 239.187
39.65000 242.428
39.66000 245.831
39.67000 248.732
39.68000 248.480
39.69000 247.679
39.70000 246.333
39.71000 242.748
39.72000 238.922
39.73000 236.066
39.74000 236.561
39.75000 237.101
39.76000 236.169
39.77000 232.435
39.78000 228.633
39.79000 226.544
39.80000 226.654
39.81000 226.771
39.82000 229.228
39.83000 233.623
39.84000 237.979
39.85000 240.370
39.86000 241.660
39.87000 242.632
39.88000 237.503
39.89000 230.039
39.90000 223.119
39.91000 227.131
39.92000 233.303
39.93000 238.511
39.94000 237.774
39.95000 236.017
39.96000 234.742
39.97000 235.411
39.98000 236.286
39.99000 236.936
40.00000 235.996
40.01000 235.194
40.02000 233.906
40.03000 231.707
40.04000 229.487
40.05000 229.177
40.06000 231.280
40.07000 233.388
40.08000 232.168
40.09000 228.228
40.10000 224.354
40.11000 223.679
40.12000 224.766
40.13000 225.854
40.14000 226.937
40.15000 228.017
40.16000 229.018
40.17000 233.014
40.18000 237.297
40.19000 240.817
40.20000 239.712
40.21000 237.829
40.22000 234.627
40.23000 226.176
40.24000 217.181
40.25000 210.520
40.26000 216.342
40.27000 221.400
40.28000 224.396
40.29000 223.579
40.30000 222.677
40.31000 224.257
40.32000 228.919
40.33000 233.583
40.34000 232.265
40.35000 226.135
40.36000 220.085
40.37000 217.724
40.38000 217.368
40.39000 217.010
40.40000 216.618
40.41000 216.214
40.42000 215.840
40.43000 214.851
40.44000 213.824
40.45000 213.733
40.46000 219.221
40.47000 225.634
40.48000 228.628
40.49000 218.206
40.50000 206.422
40.51000 197.732
40.52000 210.575
40.53000 221.427
40.54000 227.843
40.55000 226.175
40.56000 224.337
40.57000 223.583
40.58000 224.155
40.59000 224.728
40.60000 224.081
40.61000 222.469
40.62000 220.955
40.63000 223.758
40.64000 228.872
40.65000 233.513
40.66000 229.838
40.67000 223.118
40.68000 216.919
40.69000 215.111
40.70000 214.469
40.71000 214.124
40.72000 215.529
40.73000 217.219
40.74000 218.693
40.75000 219.336
40.76000 219.895
40.77000 220.307
40.78000 219.864
40.79000 219.487
40.80000 219.004
40.81000 218.331
40.82000 217.654
40.83000 218.066
40.84000 219.789
40.85000 221.511
40.86000 219.582
40.87000 214.817
40.88000 210.282
40.89000 215.393
40.90000 225.595
40.91000 235.071
40.92000 232.134
40.93000 224.717
40.94000 217.888
40.95000 217.469
40.96000 218.496
40.97000 219.331
40.98000 219.054
40.99000 218.600
41.00000 218.417
41.01000 219.266
41.02000 220.215
41.03000 220.909
41.04000 217.720
41.05000 215.108
41.06000 213.081
41.07000 212.090
41.08000 211.119
41.09000 211.983
41.10000 215.021
41.11000 218.055
41.12000 218.713
41.13000 217.545
41.14000 216.345
41.15000 213.840
41.16000 210.657
41.17000 207.708
41.18000 208.678
41.19000 211.042
41.20000 213.214
41.21000 211.215
41.22000 208.533
41.23000 207.036
41.24000 212.253
41.25000 218.527
41.26000 222.075
41.27000 215.406
41.28000 207.762
41.29000 202.197
41.30000 201.953
41.31000 201.969
41.32000 203.762
41.33000 208.652
41.34000 213.599
41.35000 217.070
41.36000 218.819
41.37000 220.562
41.38000 221.249
41.39000 221.137
41.40000 220.954
41.41000 218.070
41.42000 213.802
41.43000 209.727
41.44000 208.782
41.45000 208.934
41.46000 209.073
41.47000 211.935
41.48000 215.060
41.49000 217.661
41.50000 217.337
41.51000 216.561
41.52000 214.933
41.53000 210.160
41.54000 205.093
41.55000 201.420
41.56000 202.686
41.57000 203.841
41.58000 204.580
41.59000 204.603
41.60000 204.614
41.61000 205.254
41.62000 206.616
41.63000 207.975
41.64000 208.360
41.65000 208.021
41.66000 207.594
41.67000 203.929
41.68000 198.628
41.69000 193.834
41.70000 197.043
41.71000 203.017
41.72000 208.486
41.73000 211.813
41.74000 214.329
41.75000 215.644
41.76000 210.375
41.77000 204.106
41.78000 199.956
41.79000 203.517
41.80000 207.782
41.81000 210.860
41.82000 210.228
41.83000 209.610
41.84000 209.563
41.85000 210.483
41.86000 211.418
41.87000 213.178
41.88000 215.868
41.89000 218.551
41.90000 218.926
41.91000 217.615
41.92000 216.317
41.93000 215.499
41.94000 214.920
41.95000 214.461
41.96000 215.858
41.97000 217.888
41.98000 219.742
41.99000 220.823
42.00000 221.625
42.01000 221.405
42.02000 215.673
42.03000 209.119
42.04000 203.648
42.05000 202.065
42.06000 200.829
42.07000 199.940
42.08000 210.640
42.09000 219.230
42.10000 221.092
42.11000 211.737
42.12000 202.209
42.13000 197.144
42.14000 197.033
42.15000 196.926
42.16000 196.960
42.17000 197.094
42.18000 197.259
42.19000 198.510
42.20000 200.293
42.21000 201.873
42.22000 200.406
42.23000 197.916
42.24000 195.646
42.25000 196.385
42.26000 197.644
42.27000 198.822
42.28000 199.569
42.29000 200.253
42.30000 200.815
42.31000 200.947
42.32000 201.040
42.33000 201.107
42.34000 208.295
42.35000 214.023
42.36000 214.838
42.37000 207.584
42.38000 200.213
42.39000 195.742
42.40000 194.437
42.41000 193.139
42.42000 196.690
42.43000 203.635
42.44000 210.328
42.45000 208.759
42.46000 203.194
42.47000 198.045
42.48000 198.992
42.49000 201.956
42.50000 204.653
42.51000 203.698
42.52000 202.133
42.53000 201.468
42.54000 205.510
42.55000 210.229
42.56000 212.847
42.57000 208.154
42.58000 202.836
42.59000 199.049
42.60000 191.945
42.61000 186.425
42.62000 184.679
42.63000 189.042
42.64000 193.488
42.65000 194.184
42.66000 190.850
42.67000 187.529
42.68000 188.504
42.69000 192.456
42.70000 196.343
42.71000 198.186
42.72000 199.054
42.73000 200.065
42.74000 203.116
42.75000 206.832
42.76000 210.207
42.77000 201.331
42.78000 191.113
42.79000 183.222
42.80000 187.285
42.81000 193.040
42.82000 197.545
42.83000 197.768
42.84000 197.633
42.85000 197.537
42.86000 197.934
42.87000 198.250
42.88000 199.355
42.89000 201.717
42.90000 204.094
42.91000 205.887
42.92000 207.061
42.93000 208.230
42.94000 208.800
42.95000 208.955
42.96000 208.987
42.97000 205.264
42.98000 199.779
42.99000 194.900
43.00000 198.470
43.01000 204.755
43.02000 210.452
43.03000 209.522
43.04000 207.438
43.05000 205.450
43.06000 203.948
43.07000 202.513
43.08000 201.113
43.09000 199.829
43.10000 198.555
43.11000 197.655
43.12000 194.036
43.13000 191.207
43.14000 191.017
43.15000 194.969
43.16000 198.972
43.17000 198.361
43.18000 192.957
43.19000 187.581
43.20000 188.666
43.21000 194.089
43.22000 199.316
43.23000 198.828
43.24000 195.693
43.25000 192.759
43.26000 192.547
43.27000 193.198
43.28000 193.786
43.29000 195.098
43.30000 196.388
43.31000 197.798
43.32000 199.808
43.33000 201.901
43.34000 203.469
43.35000 203.296
43.36000 202.984
43.37000 202.764
43.38000 205.076
43.39000 206.901
43.40000 206.751
43.41000 203.547
43.42000 200.308
43.43000 199.432
43.44000 200.969
43.45000 202.499
43.46000 203.867
43.47000 205.110
43.48000 206.284
43.49000 205.507
43.50000 203.840
43.51000 202.325
43.52000 202.839
43.53000 203.986
43.54000 205.022
43.55000 206.872
43.56000 208.647
43.57000 209.318
43.58000 204.585
43.59000 199.128
43.60000 193.412
43.61000 186.850
43.62000 180.221
43.63000 175.586
43.64000 183.135
43.65000 189.184
43.66000 194.657
43.67000 199.254
43.68000 203.842
43.69000 202.856
43.70000 196.272
43.71000 189.728
43.72000 192.554
43.73000 201.449
43.74000 210.007
43.75000 209.394
43.76000 204.655
43.77000 200.122
43.78000 198.260
43.79000 197.219
43.80000 196.281
43.81000 200.978
43.82000 206.118
43.83000 210.282
43.84000 209.746
43.85000 208.593
43.86000 205.864
43.87000 198.045
43.88000 189.838
43.89000 184.127
43.90000 187.072
43.91000 189.527
43.92000 191.851
43.93000 193.976
43.94000 196.100
43.95000 197.969
43.96000 199.585
43.97000 201.191
43.98000 198.746
43.99000 193.737
44.00000 188.929
44.01000 189.393
44.02000 192.195
44.03000 194.945
44.04000 197.042
44.05000 198.941
44.06000 200.648
44.07000 198.532
44.08000 196.001
44.09000 194.696
44.10000 199.209
44.11000 204.472
44.12000 207.926
44.13000 205.616
44.14000 202.877
44.15000 200.980
44.16000 195.530
44.17000 191.335
44.18000 189.704
44.19000 191.865
44.20000 194.060
44.21000 196.192
44.22000 198.261
44.23000 200.315
44.24000 198.323
44.25000 193.809
44.26000 189.553
44.27000 191.875
44.28000 197.070
44.29000 201.871
44.30000 201.777
44.31000 200.224
44.32000 198.830
44.33000 199.402
44.34000 200.244
44.35000 200.299
44.36000 196.678
44.37000 192.591
44.38000 189.779
44.39000 190.966
44.40000 192.444
44.41000 193.462
44.42000 194.886
44.43000 195.966
44.44000 196.637
44.45000 196.715
44.46000 196.788
44.47000 196.865
44.48000 196.945
44.49000 197.025
44.50000 196.457
44.51000 195.494
44.52000 194.588
44.53000 195.070
44.54000 196.149
44.55000 197.154
44.56000 197.252
44.57000 197.084
44.58000 196.933
44.59000 202.688
44.60000 208.722
44.61000 212.246
44.62000 204.244
44.63000 194.809
44.64000 189.284
44.65000 195.846
44.66000 203.265
44.67000 208.352
44.68000 203.653
44.69000 199.894
44.70000 198.263
44.71000 199.684
44.72000 201.129
44.73000 203.421
44.74000 206.508
44.75000 209.569
44.76000 207.448
44.77000 202.196
44.78000 197.313
44.79000 201.245
44.80000 208.919
44.81000 216.219
44.82000 219.094
44.83000 220.686
44.84000 222.108
44.85000 225.624
44.86000 229.039
44.87000 231.488
44.88000 229.566
44.89000 227.112
44.90000 225.919
44.91000 228.566
44.92000 231.478
44.93000 233.465
44.94000 239.032
44.95000 243.278
44.96000 248.458
44.97000 254.957
44.98000 261.463
44.99000 262.270
45.00000 257.813
45.01000 253.395
45.02000 250.636
45.03000 248.927
45.04000 247.697
45.05000 257.501
45.06000 271.922
45.07000 285.608
45.08000 290.781
45.09000 293.523
45.10000 295.967
45.11000 292.139
45.12000 287.773
45.13000 284.879
45.14000 288.534
45.15000 292.972
45.16000 296.499
45.17000 297.293
45.18000 297.902
45.19000 298.315
45.20000 295.198
45.21000 292.793
45.22000 293.575
45.23000 298.787
45.24000 304.028
45.25000 306.603
45.26000 306.758
45.27000 306.911
45.28000 307.264
45.29000 307.727
45.30000 307.777
45.31000 298.587
45.32000 285.586
45.33000 273.305
45.34000 269.188
45.35000 267.366
45.36000 265.745
45.37000 268.063
45.38000 270.714
45.39000 272.491
45.40000 270.436
45.41000 267.931
45.42000 265.629
45.43000 263.926
45.44000 262.263
45.45000 261.139
45.46000 259.572
45.47000 258.396
45.48000 255.628
45.49000 250.682
45.50000 245.726
45.51000 246.839
45.52000 253.375
45.53000 259.846
45.54000 258.978
45.55000 253.851
45.56000 248.944
45.57000 248.800
45.58000 250.594
45.59000 251.691
45.60000 245.078
45.61000 236.330
45.62000 228.569
45.63000 228.101
45.64000 228.858
45.65000 229.048
45.66000 226.792
45.67000 224.255
45.68000 222.282
45.69000 221.951
45.70000 221.725
45.71000 221.573
45.72000 219.260
45.73000 217.498
45.74000 217.592
45.75000 220.192
45.76000 222.803
45.77000 222.780
45.78000 220.442
45.79000 218.128
45.80000 213.204
45.81000 206.891
45.82000 200.957
45.83000 202.969
45.84000 208.166
45.85000 212.970
45.86000 213.523
45.87000 212.915
45.88000 212.377
45.89000 206.342
45.90000 200.263
45.91000 195.149
45.92000 194.134
45.93000 193.582
45.94000 193.152
45.95000 193.073
45.96000 193.016
45.97000 192.978
45.98000 202.242
45.99000 209.294
46.00000 211.587
46.01000 207.564
46.02000 203.510
46.03000 200.157
46.04000 197.408
46.05000 194.690
46.06000 191.805
46.07000 188.893
46.08000 186.024
46.09000 184.031
46.10000 182.384
46.11000 181.072
46.12000 183.307
46.13000 186.495
46.14000 189.311
46.15000 190.216
46.16000 190.704
46.17000 191.614
46.18000 194.290
46.19000 197.162
46.20000 197.698
46.21000 191.620
46.22000 185.139
46.23000 180.829
46.24000 181.485
46.25000 182.063
46.26000 182.298
46.27000 182.083
46.28000 181.867
46.29000 181.918
46.30000 182.198
46.31000 182.474
46.32000 184.292
46.33000 186.923
46.34000 189.264
46.35000 185.857
46.36000 180.211
46.37000 175.061
46.38000 175.043
46.39000 176.386
46.40000 177.569
46.41000 181.550
46.42000 185.402
46.43000 188.037
46.44000 185.658
46.45000 182.736
46.46000 180.960
46.47000 182.384
46.48000 183.998
46.49000 185.066
46.50000 181.828
46.51000 179.360
46.52000 174.323
46.53000 165.980
46.54000 157.640
46.55000 157.809
46.56000 165.105
46.57000 172.310
46.58000 174.663
46.59000 174.303
46.60000 174.016
46.61000 175.163
46.62000 176.860
46.63000 178.204
46.64000 175.966
46.65000 172.793
46.66000 170.004
46.67000 172.607
46.68000 175.642
46.69000 178.968
46.70000 183.467
46.71000 188.092
46.72000 188.771
46.73000 178.593
46.74000 167.789
46.75000 160.678
46.76000 165.656
46.77000 169.531
46.78000 173.284
46.79000 176.884
46.80000 180.478
46.81000 181.834
46.82000 181.345
46.83000 180.863
46.84000 180.361
46.85000 179.863
46.86000 179.311
46.87000 177.757
46.88000 175.822
46.89000 174.179
46.90000 175.435
46.91000 177.436
46.92000 179.190
46.93000 178.890
46.94000 178.335
46.95000 178.376
46.96000 180.801
46.97000 183.474
46.98000 185.774
46.99000 187.064
47.00000 188.298
47.01000 189.105
47.02000 171.330
47.03000 157.963
47.04000 153.918
47.05000 161.498
47.06000 169.102
47.07000 172.713
47.08000 173.084
47.09000 173.451
47.10000 171.717
47.11000 168.919
47.12000 166.221
47.13000 165.364
47.14000 165.193
47.15000 165.315
47.16000 168.303
47.17000 172.017
47.18000 175.264
47.19000 173.426
47.20000 171.126
47.21000 169.356
47.22000 169.670
47.23000 170.197
47.24000 170.014
47.25000 167.937
47.26000 165.756
47.27000 164.337
47.28000 163.293
47.29000 162.533
47.30000 162.497
47.31000 163.350
47.32000 164.203
47.33000 164.254
47.34000 163.665
47.35000 163.085
47.36000 164.068
47.37000 165.837
47.38000 167.512
47.39000 167.536
47.40000 166.954
47.41000 166.417
47.42000 166.322
47.43000 166.337
47.44000 166.350
47.45000 164.736
47.46000 163.128
47.47000 162.243
47.48000 164.163
47.49000 166.363
47.50000 167.849
47.51000 167.455
47.52000 166.961
47.53000 166.641
47.54000 167.405
47.55000 167.981
47.56000 167.058
47.57000 164.327
47.58000 161.605
47.59000 162.588
47.60000 166.484
47.61000 170.320
47.62000 170.484
47.63000 168.756
47.64000 167.228
47.65000 169.124
47.66000 172.260
47.67000 174.289
47.68000 165.955
47.69000 155.078
47.70000 145.611
47.71000 149.647
47.72000 154.946
47.73000 159.946
47.74000 163.803
47.75000 167.549
47.76000 169.309
47.77000 165.915
47.78000 162.256
47.79000 159.899
47.80000 160.055
47.81000 160.205
47.82000 161.420
47.83000 163.903
47.84000 166.377
47.85000 166.126
47.86000 163.767
47.87000 161.445
47.88000 158.321
47.89000 154.890
47.90000 151.824
47.91000 154.868
47.92000 160.093
47.93000 164.738
47.94000 164.058
47.95000 162.092
47.96000 160.385
47.97000 159.906
47.98000 159.663
47.99000 160.199
48.00000 163.664
48.01000 167.409
48.02000 169.055
48.03000 165.328
48.04000 161.333
48.05000 158.774
48.06000 157.817
48.07000 157.141
48.08000 156.855
48.09000 157.024
48.10000 157.200
48.11000 158.808
48.12000 161.507
48.13000 164.160
48.14000 162.740
48.15000 159.341
48.16000 156.189
48.17000 157.054
48.18000 159.333
48.19000 161.365
48.20000 161.177
48.21000 160.461
48.22000 159.841
48.23000 159.850
48.24000 159.942
48.25000 160.289
48.26000 161.582
48.27000 162.964
48.28000 164.250
48.29000 165.290
48.30000 166.318
48.31000 166.973
48.32000 168.043
48.33000 168.827
48.34000 169.028
48.35000 168.558
48.36000 168.084
48.37000 166.751
48.38000 164.776
48.39000 162.835
48.40000 162.599
48.41000 163.205
48.42000 163.659
48.43000 161.684
48.44000 158.869
48.45000 156.412
48.46000 157.123
48.47000 158.576
48.48000 159.831
48.49000 157.334
48.50000 154.728
48.51000 153.108
48.52000 155.087
48.53000 157.397
48.54000 160.307
48.55000 164.712
48.56000 169.186
48.57000 172.019
48.58000 167.648
48.59000 164.392
48.60000 160.121
48.61000 154.700
48.62000 149.325
48.63000 152.515
48.64000 162.030
48.65000 171.371
48.66000 169.643
48.67000 162.645
48.68000 156.049
48.69000 155.695
48.70000 157.474
48.71000 158.930
48.72000 157.592
48.73000 155.610
48.74000 153.902
48.75000 149.344
48.76000 145.119
48.77000 143.219
48.78000 149.678
48.79000 156.888
48.80000 161.668
48.81000 160.496
48.82000 159.052
48.83000 158.143
48.84000 153.892
48.85000 150.778
48.86000 150.318
48.87000 152.814
48.88000 155.299
48.89000 155.563
48.90000 154.210
48.91000 152.884
48.92000 151.580
48.93000 150.333
48.94000 149.386
48.95000 152.953
48.96000 158.040
48.97000 162.838
48.98000 165.182
48.99000 166.969
49.00000 168.504
49.01000 169.065
49.02000 169.418
49.03000 169.596
49.04000 169.152
49.05000 168.653
49.06000 167.970
49.07000 166.841
49.08000 165.693
49.09000 164.974
49.10000 153.552
49.11000 145.193
49.12000 144.218
49.13000 151.335
49.14000 158.428
49.15000 161.066
49.16000 160.516
49.17000 159.976
49.18000 159.677
49.19000 159.501
49.20000 159.358
49.21000 159.703
49.22000 160.210
49.23000 160.630
49.24000 160.329
49.25000 159.868
49.26000 159.472
49.27000 155.238
49.28000 151.194
49.29000 148.542
49.30000 150.751
49.31000 153.376
49.32000 155.695
49.33000 157.281
49.34000 158.836
49.35000 159.803
49.36000 159.487
49.37000 159.246
49.38000 158.694
49.39000 157.807
49.40000 156.931
49.41000 157.582
49.42000 159.309
49.43000 161.000
49.44000 162.337
49.45000 163.459
49.46000 164.368
49.47000 162.211
49.48000 159.050
49.49000 155.886
49.50000 152.689
49.51000 149.485
49.52000 146.747
49.53000 150.021
49.54000 153.500
49.55000 156.171
49.56000 156.063
49.57000 155.720
49.58000 155.710
49.59000 156.480
49.60000 157.282
49.61000 157.778
49.62000 153.361
49.63000 150.140
49.64000 149.932
49.65000 152.919
49.66000 155.892
49.67000 157.011
49.68000 156.844
49.69000 156.681
49.70000 158.435
49.71000 160.985
49.72000 163.435
49.73000 164.481
49.74000 165.075
49.75000 164.910
49.76000 158.675
49.77000 151.125
49.78000 144.688
49.79000 147.701
49.80000 151.346
49.81000 153.099
49.82000 148.440
49.83000 143.255
49.84000 139.795
49.85000 140.323
49.86000 141.011
49.87000 141.434
49.88000 144.626
49.89000 146.939
49.90000 151.451
49.91000 158.256
49.92000 165.000
49.93000 164.699
49.94000 159.578
49.95000 154.573
49.96000 153.842
49.97000 155.043
49.98000 156.081
49.99000 154.894
50.00000 153.000
50.01000 151.596
50.02000 154.046
50.03000 157.318
50.04000 160.100
50.05000 159.359
50.06000 158.332
50.07000 157.880
50.08000 159.351
50.09000 160.976
50.10000 162.212
50.11000 162.563
50.12000 162.879
50.13000 163.073
50.14000 160.581
50.15000 158.777
50.16000 156.336
50.17000 153.244
50.18000 150.187
50.19000 150.861
50.20000 154.050
50.21000 157.163
50.22000 155.219
50.23000 151.142
50.24000 147.136
50.25000 144.076
50.26000 141.311
50.27000 139.336
50.28000 143.451
50.29000 148.845
50.30000 153.419
50.31000 162.277
50.32000 170.185
50.33000 175.448
50.34000 172.012
50.35000 167.894
50.36000 165.558
50.37000 167.225
50.38000 169.043
50.39000 170.146
50.40000 169.239
50.41000 168.577
50.42000 167.704
50.43000 166.621
50.44000 165.524
50.45000 163.046
50.46000 159.651
50.47000 156.339
50.48000 157.715
50.49000 161.051
50.50000 164.316
50.51000 166.648
50.52000 168.693
50.53000 171.238
50.54000 177.574
50.55000 184.693
50.56000 190.712
50.57000 188.484
50.58000 185.710
50.59000 184.965
50.60000 190.797
50.61000 197.134
50.62000 201.466
50.63000 201.360
50.64000 201.093
50.65000 200.932
50.66000 207.541
50.67000 212.295
50.68000 217.684
50.69000 223.704
50.70000 229.681
50.71000 231.711
50.72000 231.163
50.73000 230.628
50.74000 231.251
50.75000 232.336
50.76000 233.169
50.77000 230.769
50.78000 227.387
50.79000 224.725
50.80000 227.415
50.81000 231.192
50.82000 234.378
50.83000 231.860
50.84000 229.141
50.85000 227.935
50.86000 231.562
50.87000 235.550
50.88000 235.978
50.89000 228.632
50.90000 221.013
50.91000 216.446
50.92000 207.342
50.93000 200.846
50.94000 197.476
50.95000 197.153
50.96000 196.826
50.97000 196.138
50.98000 195.218
50.99000 194.322
51.00000 194.252
51.01000 194.529
51.02000 194.673
51.03000 193.149
51.04000 191.126
51.05000 189.358
51.06000 189.449
51.07000 189.913
51.08000 190.303
51.09000 186.175
51.10000 182.256
51.11000 178.709
51.12000 176.330
51.13000 174.036
51.14000 171.081
51.15000 166.703
51.16000 162.276
51.17000 159.639
51.18000 166.374
51.19000 171.203
51.20000 171.237
51.21000 166.675
51.22000 162.133
51.23000 159.215
51.24000 157.328
51.25000 155.492
51.26000 155.402
51.27000 156.033
51.28000 156.612
51.29000 156.541
51.30000 156.279
51.31000 156.521
51.32000 160.368
51.33000 164.925
51.34000 168.745
51.35000 167.794
51.36000 166.506
51.37000 165.207
51.38000 163.868
51.39000 162.526
51.40000 160.357
51.41000 156.433
51.42000 152.452
51.43000 150.096
51.44000 152.822
51.45000 154.777
51.46000 154.627
51.47000 152.495
51.48000 150.406
51.49000 151.628
51.50000 154.917
51.51000 158.114
51.52000 158.946
51.53000 158.780
51.54000 158.509
51.55000 156.978
51.56000 155.081
51.57000 152.918
51.58000 148.879
51.59000 144.477
51.60000 140.798
51.61000 144.390
51.62000 148.112
51.63000 149.906
51.64000 145.805
51.65000 141.295
51.66000 138.897
51.67000 140.913
51.68000 143.067
51.69000 144.334
51.70000 151.425
51.71000 156.454
51.72000 156.061
51.73000 150.641
51.74000 145.234
51.75000 140.718
51.76000 136.752
51.77000 132.902
51.78000 136.708
51.79000 143.368
51.80000 149.296
51.81000 146.717
51.82000 141.702
51.83000 137.728
51.84000 140.953
51.85000 145.550
51.86000 149.381
51.87000 151.272
51.88000 152.645
51.89000 153.255
51.90000 151.566
51.91000 149.722
51.92000 148.182
51.93000 147.271
51.94000 146.378
51.95000 145.857
51.96000 136.062
51.97000 129.131
51.98000 129.865
51.99000 137.586
52.00000 145.224
52.01000 147.228
52.02000 145.817
52.03000 144.448
52.04000 142.914
52.05000 141.395
52.06000 139.749
52.07000 136.651
52.08000 133.142
52.09000 130.179
52.10000 130.916
52.11000 132.348
52.12000 133.538
52.13000 139.304
52.14000 144.521
52.15000 148.511
52.16000 148.862
52.17000 148.972
52.18000 148.868
52.19000 148.328
52.20000 147.776
52.21000 147.455
52.22000 143.971
52.23000 141.511
52.24000 138.546
52.25000 135.127
52.26000 131.773
52.27000 132.559
52.28000 135.817
52.29000 138.972
52.30000 137.915
52.31000 135.289
52.32000 132.972
52.33000 134.092
52.34000 136.168
52.35000 137.908
52.36000 137.410
52.37000 136.498
52.38000 135.743
52.39000 136.105
52.40000 136.510
52.41000 136.017
52.42000 132.895
52.43000 129.603
52.44000 128.602
52.45000 132.184
52.46000 135.893
52.47000 138.032
52.48000 139.410
52.49000 140.372
52.50000 141.475
52.51000 142.702
52.52000 143.898
52.53000 143.238
52.54000 141.487
52.55000 139.793
52.56000 140.402
52.57000 141.852
52.58000 143.252
52.59000 144.110
52.60000 144.819
52.61000 145.477
52.62000 145.789
52.63000 146.039
52.64000 146.245
52.65000 145.037
52.66000 143.909
52.67000 143.116
52.68000 143.288
52.69000 143.521
52.70000 143.519
52.71000 143.053
52.72000 142.574
52.73000 142.300
52.74000 142.903
52.75000 143.327
52.76000 144.197
52.77000 145.455
52.78000 146.680
52.79000 146.096
52.80000 144.462
52.81000 142.883
52.82000 143.500
52.83000 144.902
52.84000 146.001
52.85000 143.859
52.86000 140.843
52.87000 138.959
52.88000 144.364
52.89000 151.069
52.90000 156.591
52.91000 151.824
52.92000 146.963
52.93000 142.660
52.94000 139.939
52.95000 137.316
52.96000 135.794
52.97000 136.412
52.98000 137.085
52.99000 137.467
53.00000 135.185
53.01000 133.591
53.02000 134.630
53.03000 137.917
53.04000 141.191
53.05000 143.733
53.06000 145.858
53.07000 147.909
53.08000 148.166
53.09000 147.748
53.10000 147.375
53.11000 147.470
53.12000 147.690
53.13000 147.605
53.14000 145.584
53.15000 143.223
53.16000 141.284
53.17000 143.015
53.18000 144.764
53.19000 145.496
53.20000 143.384
53.21000 141.102
53.22000 141.127
53.23000 145.573
53.24000 150.128
53.25000 152.699
53.26000 150.612
53.27000 149.147
53.28000 147.038
53.29000 144.389
53.30000 141.714
53.31000 137.771
53.32000 133.114
53.33000 128.623
53.34000 133.791
53.35000 142.145
53.36000 149.848
53.37000 150.897
53.38000 150.205
53.39000 149.641
53.40000 149.868
53.41000 150.233
53.42000 150.531
53.43000 153.311
53.44000 155.805
53.45000 157.851
53.46000 158.657
53.47000 159.391
53.48000 158.630
53.49000 155.046
53.50000 151.395
53.51000 149.348
53.52000 148.065
53.53000 147.175
53.54000 145.511
53.55000 143.206
53.56000 140.973
53.57000 142.274
53.58000 145.536
53.59000 148.678
53.60000 150.362
53.61000 151.424
53.62000 152.329
53.63000 151.673
53.64000 150.613
53.65000 149.415
53.66000 147.373
53.67000 145.187
53.68000 143.403
53.69000 143.162
53.70000 143.097
53.71000 142.565
53.72000 140.761
53.73000 138.886
53.74000 137.474
53.75000 136.923
53.76000 136.391
53.77000 136.095
53.78000 140.639
53.79000 143.790
53.80000 146.620
53.81000 149.189
53.82000 151.668
53.83000 149.888
53.84000 145.780
53.85000 141.829
53.86000 142.278
53.87000 144.241
53.88000 145.897
53.89000 144.546
53.90000 142.432
53.91000 140.776
53.92000 141.871
53.93000 143.426
53.94000 144.690
53.95000 139.682
53.96000 135.070
53.97000 131.552
53.98000 130.970
53.99000 130.549
54.00000 131.564
54.01000 135.212
54.02000 138.917
54.03000 140.965
54.04000 148.598
54.05000 153.852
54.06000 152.180
54.07000 144.958
54.08000 137.921
54.09000 139.188
54.10000 144.929
54.11000 150.444
54.12000 149.075
54.13000 145.420
54.14000 141.815
54.15000 138.680
54.16000 135.662
54.17000 133.002
54.18000 132.451
54.19000 132.247
54.20000 132.081
54.21000 128.260
54.22000 124.849
54.23000 124.438
54.24000 131.959
54.25000 139.903
54.26000 145.517
54.27000 146.920
54.28000 148.238
54.29000 148.961
54.30000 141.157
54.31000 135.792
54.32000 135.634
54.33000 139.582
54.34000 143.423
54.35000 142.670
54.36000 139.479
54.37000 136.416
54.38000 135.299
54.39000 134.914
54.40000 134.772
54.41000 136.912
54.42000 139.614
54.43000 141.847
54.44000 141.359
54.45000 140.431
54.46000 139.682
54.47000 139.968
54.48000 140.283
54.49000 139.833
54.50000 137.393
54.51000 134.850
54.52000 133.325
54.53000 133.611
54.54000 133.933
54.55000 134.108
54.56000 142.204
54.57000 147.749
54.58000 147.991
54.59000 144.116
54.60000 140.317
54.61000 139.658
54.62000 140.642
54.63000 141.585
54.64000 141.927
54.65000 142.046
54.66000 142.251
54.67000 143.255
54.68000 144.452
54.69000 145.452
54.70000 145.323
54.71000 145.015
54.72000 144.767
54.73000 141.777
54.74000 139.137
54.75000 137.465
54.76000 138.281
54.77000 139.221
54.78000 139.496
54.79000 138.602
54.80000 137.686
54.81000 137.192
54.82000 132.166
54.83000 128.738
54.84000 128.956
54.85000 131.962
54.86000 134.915
54.87000 135.784
54.88000 135.578
54.89000 135.382
54.90000 135.252
54.91000 135.154
54.92000 135.092
54.93000 135.352
54.94000 135.689
54.95000 136.328
54.96000 138.655
54.97000 141.245
54.98000 143.325
54.99000 143.676
55.00000 143.828
55.01000 143.690
55.02000 142.816
55.03000 141.907
55.04000 141.323
55.05000 141.302
55.06000 141.291
55.07000 141.285
55.08000 141.147
55.09000 141.052
55.10000 140.978
55.11000 140.920
55.12000 140.893
55.13000 142.033
55.14000 143.767
55.15000 145.425
55.16000 148.694
55.17000 152.257
55.18000 155.206
55.19000 152.731
55.20000 148.981
55.21000 145.627
55.22000 144.466
55.23000 143.641
55.24000 142.981
55.25000 148.187
55.26000 152.834
55.27000 155.854
55.28000 154.819
55.29000 153.591
55.30000 152.924
55.31000 153.210
55.32000 153.512
55.33000 153.673
55.34000 148.030
55.35000 144.200
55.36000 143.333
55.37000 144.661
55.38000 145.978
55.39000 146.915
55.40000 147.662
55.41000 148.374
55.42000 148.945
55.43000 149.430
55.44000 150.567
55.45000 157.366
55.46000 165.476
55.47000 171.896
55.48000 169.135
55.49000 164.992
55.50000 161.689
55.51000 163.307
55.52000 164.971
55.53000 167.381
55.54000 171.623
55.55000 175.950
55.56000 178.525
55.57000 178.160
55.58000 177.748
55.59000 177.531
55.60000 182.524
55.61000 185.908
55.62000 187.655
55.63000 188.210
55.64000 188.819
55.65000 191.321
55.66000 194.757
55.67000 198.033
55.68000 206.718
55.69000 216.464
55.70000 225.952
55.71000 233.255
55.72000 240.058
55.73000 247.063
55.74000 255.142
55.75000 263.380
55.76000 269.926
55.77000 279.305
55.78000 287.059
55.79000 297.753
55.80000 315.566
55.81000 333.697
55.82000 345.159
55.83000 345.594
55.84000 345.865
55.85000 346.007
55.86000 385.536
55.87000 412.258
55.88000 429.373
55.89000 439.588
55.90000 449.853
55.91000 461.797
55.92000 474.559
55.93000 486.706
55.94000 503.515
55.95000 520.511
55.96000 536.006
55.97000 538.972
55.98000 539.127
55.99000 540.269
56.00000 546.609
56.01000 553.703
56.02000 559.320
56.03000 552.328
56.04000 545.832
56.05000 543.968
56.06000 553.162
56.07000 562.833
56.08000 561.644
56.09000 542.764
56.10000 523.635
56.11000 513.692
56.12000 509.295
56.13000 506.264
56.14000 494.564
56.15000 476.730
56.16000 459.081
56.17000 447.349
56.18000 438.456
56.19000 430.003
56.20000 415.422
56.21000 400.089
56.22000 385.314
56.23000 375.117
56.24000 365.932
56.25000 356.614
56.26000 346.613
56.27000 336.514
56.28000 328.545
56.29000 314.744
56.30000 303.277
56.31000 294.214
56.32000 290.806
56.33000 287.635
56.34000 279.882
56.35000 264.775
56.36000 249.571
56.37000 241.732
56.38000 244.913
56.39000 247.001
56.40000 242.047
56.41000 232.185
56.42000 222.441
56.43000 216.323
56.44000 211.918
56.45000 207.738
56.46000 202.602
56.47000 197.577
56.48000 193.074
56.49000 192.754
56.50000 193.344
56.51000 193.415
56.52000 190.843
56.53000 187.901
56.54000 185.588
56.55000 174.329
56.56000 164.724
56.57000 158.222
56.58000 158.919
56.59000 159.908
56.60000 161.323
56.61000 163.412
56.62000 165.510
56.63000 166.582
56.64000 161.592
56.65000 158.239
56.66000 154.887
56.67000 151.536
56.68000 148.394
56.69000 151.456
56.70000 157.409
56.71000 163.051
56.72000 161.610
56.73000 158.204
56.74000 154.767
56.75000 151.086
56.76000 147.353
56.77000 144.172
56.78000 143.757
56.79000 143.723
56.80000 143.696
56.81000 148.863
56.82000 153.326
56.83000 155.052
56.84000 150.521
56.85000 145.744
56.86000 142.825
56.87000 142.800
56.88000 142.809
56.89000 142.813
56.90000 146.413
56.91000 148.787
56.92000 147.185
56.93000 142.897
56.94000 138.750
56.95000 138.645
56.96000 140.397
56.97000 142.055
56.98000 141.879
56.99000 141.187
57.00000 140.021
57.01000 135.184
57.02000 129.573
57.03000 125.307
57.04000 127.672
57.05000 130.933
57.06000 133.478
57.07000 135.550
57.08000 137.173
57.09000 137.705
57.10000 135.777
57.11000 133.755
57.12000 132.031
57.13000 130.762
57.14000 129.497
57.15000 128.861
57.16000 127.795
57.17000 127.102
57.18000 128.332
57.19000 130.841
57.20000 133.364
57.21000 136.257
57.22000 139.318
57.23000 142.210
57.24000 140.242
57.25000 137.053
57.26000 133.993
57.27000 131.906
57.28000 130.020
57.29000 127.734
57.30000 123.505
57.31000 119.019
57.32000 115.530
57.33000 121.915
57.34000 127.602
57.35000 131.809
57.36000 132.730
57.37000 133.531
57.38000 132.267
57.39000 127.884
57.40000 123.470
57.41000 120.760
57.42000 119.747
57.43000 118.758
57.44000 120.023
57.45000 122.767
57.46000 125.372
57.47000 124.248
57.48000 121.461
57.49000 118.832
57.50000 117.305
57.51000 116.214
57.52000 115.681
57.53000 119.306
57.54000 123.781
57.55000 127.211
57.56000 125.659
57.57000 123.458
57.58000 121.752
57.59000 119.477
57.60000 117.635
57.61000 117.200
57.62000 119.847
57.63000 122.602
57.64000 125.712
57.65000 129.349
57.66000 132.990
57.67000 132.384
57.68000 127.624
57.69000 122.890
57.70000 120.401
57.71000 119.363
57.72000 118.526
57.73000 122.900
57.74000 129.565
57.75000 135.843
57.76000 135.974
57.77000 134.404
57.78000 132.513
57.79000 128.278
57.80000 123.571
57.81000 120.506
57.82000 125.147
57.83000 130.772
57.84000 135.116
57.85000 130.480
57.86000 126.282
57.87000 124.597
57.88000 128.337
57.89000 132.262
57.90000 133.156
57.91000 129.608
57.92000 126.020
57.93000 123.064
57.94000 120.714
57.95000 118.386
57.96000 117.852
57.97000 118.458
57.98000 119.090
57.99000 120.356
58.00000 121.897
58.01000 123.346
58.02000 124.260
58.03000 124.950
58.04000 125.777
58.05000 127.592
58.06000 129.602
58.07000 130.309
58.08000 124.988
58.09000 118.913
58.10000 114.239
58.11000 119.058
58.12000 123.410
58.13000 124.347
58.14000 118.024
58.15000 111.461
58.16000 110.494
58.17000 117.605
58.18000 124.780
58.19000 127.168
58.20000 125.027
58.21000 122.937
58.22000 124.811
58.23000 129.168
58.24000 133.264
58.25000 131.046
58.26000 126.131
58.27000 121.515
58.28000 120.571
58.29000 120.687
58.30000 120.741
58.31000 120.358
58.32000 119.891
58.33000 120.005
58.34000 122.766
58.35000 125.853
58.36000 128.218
58.37000 136.348
58.38000 143.086
58.39000 145.144
58.40000 137.391
58.41000 129.327
58.42000 123.723
58.43000 121.616
58.44000 119.536
58.45000 119.844
58.46000 122.373
58.47000 124.874
58.48000 125.379
58.49000 124.651
58.50000 124.021
58.51000 125.676
58.52000 128.293
58.53000 130.746
58.54000 129.807
58.55000 128.063
58.56000 126.254
58.57000 123.983
58.58000 121.625
58.59000 120.111
58.60000 122.387
58.61000 125.120
58.62000 127.207
58.63000 126.974
58.64000 126.665
58.65000 125.493
58.66000 122.534
58.67000 119.522
58.68000 116.584
58.69000 113.751
58.70000 110.919
58.71000 111.316
58.72000 114.666
58.73000 118.020
58.74000 121.704
58.75000 125.590
58.76000 129.247
58.77000 127.718
58.78000 124.037
58.79000 120.591
58.80000 117.688
58.81000 115.189
58.82000 113.219
58.83000 114.862
58.84000 117.185
58.85000 118.997
58.86000 118.559
58.87000 117.854
58.88000 117.318
58.89000 114.446
58.90000 112.065
58.91000 110.929
58.92000 112.330
58.93000 113.806
58.94000 115.888
58.95000 118.806
58.96000 121.729
58.97000 122.263
58.98000 120.648
58.99000 119.081
59.00000 120.555
59.01000 123.853
59.02000 126.951
59.03000 125.676
59.04000 122.612
59.05000 119.749
59.06000 116.489
59.07000 113.431
59.08000 111.325
59.09000 115.591
59.10000 121.037
59.11000 124.858
59.12000 121.615
59.13000 117.552
59.14000 114.474
59.15000 114.906
59.16000 115.423
59.17000 116.491
59.18000 118.665
59.19000 120.870
59.20000 121.734
59.21000 120.778
59.22000 119.812
59.23000 118.188
59.24000 115.984
59.25000 113.810
59.26000 113.424
59.27000 114.095
59.28000 114.803
59.29000 116.310
59.30000 118.139
59.31000 119.845
59.32000 123.519
59.33000 127.338
59.34000 130.370
59.35000 128.231
59.36000 125.151
59.37000 122.835
59.38000 123.793
59.39000 125.124
59.40000 126.128
59.41000 119.971
59.42000 114.793
59.43000 112.775
59.44000 117.006
59.45000 121.406
59.46000 123.253
59.47000 121.688
59.48000 120.106
59.49000 120.563
59.50000 122.792
59.51000 124.972
59.52000 124.363
59.53000 122.132
59.54000 120.026
59.55000 120.506
59.56000 122.015
59.57000 123.420
59.58000 118.813
59.59000 113.175
59.60000 108.646
59.61000 111.290
59.62000 115.218
59.63000 118.142
59.64000 116.833
59.65000 115.051
59.66000 113.712
59.67000 119.310
59.68000 124.021
59.69000 125.478
59.70000 120.593
59.71000 115.543
59.72000 113.874
59.73000 116.653
59.74000 119.450
59.75000 120.540
59.76000 120.165
59.77000 119.819
59.78000 121.022
59.79000 123.113
59.80000 125.002
59.81000 122.833
59.82000 119.075
59.83000 115.579
59.84000 114.650
59.85000 114.427
59.86000 114.530
59.87000 116.697
59.88000 119.227
59.89000 121.726
59.90000 124.098
59.91000 126.457
59.92000 128.222
59.93000 123.410
59.94000 119.348
59.95000 115.599
59.96000 112.454
59.97000 109.323
59.98000 109.356
59.99000 113.489
60.00000 117.634
60.01000 120.806
60.02000 123.151
60.03000 125.456
60.04000 125.646
60.05000 124.642
60.06000 123.630
60.07000 122.457
60.08000 121.223
60.09000 120.077
60.10000 121.133
60.11000 122.606
60.12000 124.062
60.13000 125.412
60.14000 126.744
60.15000 127.331
60.16000 124.873
60.17000 122.089
60.18000 120.014
60.19000 122.370
60.20000 124.406
60.21000 126.045
60.22000 126.931
60.23000 127.800
60.24000 127.158
60.25000 124.589
60.26000 122.016
60.27000 122.236
60.28000 124.767
60.29000 127.295
60.30000 129.672
60.31000 131.965
60.32000 134.030
60.33000 131.787
60.34000 127.903
60.35000 124.304
60.36000 122.290
60.37000 120.846
60.38000 119.654
60.39000 120.005
60.40000 120.619
60.41000 120.245
60.42000 115.896
60.43000 111.129
60.44000 107.589
60.45000 108.392
60.46000 109.207
60.47000 110.476
60.48000 112.594
60.49000 114.731
60.50000 116.840
60.51000 118.912
60.52000 120.981
60.53000 123.619
60.54000 126.711
60.55000 129.744
60.56000 129.954
60.57000 128.617
60.58000 127.156
60.59000 123.410
60.60000 118.808
60.61000 114.550
60.62000 111.518
60.63000 109.075
60.64000 107.471
60.65000 110.928
60.66000 115.232
60.67000 119.060
60.68000 120.996
60.69000 122.738
60.70000 124.026
60.71000 120.169
60.72000 116.957
60.73000 116.680
60.74000 121.799
60.75000 127.036
60.76000 127.579
60.77000 122.321
60.78000 117.056
60.79000 114.399
60.80000 113.840
60.81000 113.309
60.82000 114.025
60.83000 115.416
60.84000 116.746
60.85000 116.994
60.86000 116.843
60.87000 116.702
60.88000 116.585
60.89000 116.485
60.90000 116.372
60.91000 116.186
60.92000 115.987
60.93000 115.329
60.94000 112.877
60.95000 110.243
60.96000 108.304
60.97000 113.321
60.98000 117.493
60.99000 120.233
61.00000 120.381
61.01000 120.475
61.02000 119.407
61.03000 116.926
61.04000 114.445
61.05000 116.302
61.06000 121.565
61.07000 126.691
61.08000 125.884
61.09000 121.917
61.10000 118.258
61.11000 119.966
61.12000 123.630
61.13000 127.008
61.14000 125.993
61.15000 124.112
61.16000 122.215
61.17000 120.218
61.18000 118.205
61.19000 116.623
61.20000 116.693
61.21000 116.927
61.22000 117.099
61.23000 120.026
61.24000 122.398
61.25000 122.756
61.26000 119.517
61.27000 116.208
61.28000 115.999
61.29000 119.502
61.30000 123.005
61.31000 124.684
61.32000 124.940
61.33000 125.187
61.34000 125.013
61.35000 124.619
61.36000 124.355
61.37000 126.309
61.38000 129.059
61.39000 131.589
61.40000 131.841
61.41000 131.570
61.42000 131.468
61.43000 132.329
61.44000 133.344
61.45000 133.481
61.46000 130.295
61.47000 126.787
61.48000 124.226
61.49000 134.163
61.50000 142.311
61.51000 153.164
61.52000 168.777
61.53000 184.480
61.54000 200.963
61.55000 218.366
61.56000 235.728
61.57000 250.017
61.58000 261.876
61.59000 273.671
61.60000 282.956
61.61000 290.942
61.62000 298.779
61.63000 304.140
61.64000 308.626
61.65000 312.745
61.66000 322.991
61.67000 333.442
61.68000 342.741
61.69000 345.543
61.70000 347.328
61.71000 347.709
61.72000 342.850
61.73000 337.496
61.74000 333.604
61.75000 330.364
61.76000 327.895
61.77000 317.296
61.78000 292.597
61.79000 267.647
61.80000 245.435
61.81000 226.399
61.82000 207.418
61.83000 195.242
61.84000 188.254
61.85000 181.288
61.86000 175.219
61.87000 169.607
61.88000 163.996
61.89000 158.400
61.90000 152.809
61.91000 147.685
61.92000 142.342
61.93000 137.537
61.94000 133.891
61.95000 136.672
61.96000 140.441
61.97000 142.031
61.98000 135.614
61.99000 128.456
62.00000 123.274
62.01000 125.660
62.02000 127.768
62.03000 129.114
62.04000 129.158
62.05000 129.179
62.06000 129.269
62.07000 129.437
62.08000 129.605
62.09000 128.953
62.10000 127.702
62.11000 126.484
62.12000 126.488
62.13000 127.106
62.14000 127.762
62.15000 129.029
62.16000 130.505
62.17000 131.855
62.18000 132.186
62.19000 132.271
62.20000 132.561
62.21000 133.974
62.22000 135.556
62.23000 136.515
62.24000 135.217
62.25000 133.716
62.26000 132.634
62.27000 127.100
62.28000 122.703
62.29000 121.581
62.30000 125.974
62.31000 130.454
62.32000 130.900
62.33000 126.816
62.34000 122.743
62.35000 123.699
62.36000 128.299
62.37000 132.793
62.38000 133.571
62.39000 132.509
62.40000 131.545
62.41000 132.071
62.42000 133.103
62.43000 134.045
62.44000 132.928
62.45000 131.518
62.46000 130.519
62.47000 131.718
62.48000 133.244
62.49000 134.817
62.50000 136.562
62.51000 138.322
62.52000 139.584
62.53000 141.749
62.54000 143.435
62.55000 141.460
62.56000 133.412
62.57000 125.273
62.58000 123.465
62.59000 128.646
62.60000 133.812
62.61000 136.821
62.62000 138.262
62.63000 139.638
62.64000 138.844
62.65000 136.990
62.66000 135.090
62.67000 132.518
62.68000 129.720
62.69000 127.171
62.70000 129.995
62.71000 133.570
62.72000 136.514
62.73000 136.128
62.74000 135.256
62.75000 134.223
62.76000 132.623
62.77000 130.974
62.78000 129.796
62.79000 130.828
62.80000 131.688
62.81000 133.911
62.82000 138.360
62.83000 142.841
62.84000 143.092
62.85000 138.751
62.86000 134.426
62.87000 135.616
62.88000 140.669
62.89000 145.527
62.90000 144.065
62.91000 139.561
62.92000 135.177
62.93000 132.523
62.94000 130.438
62.95000 128.541
62.96000 131.261
62.97000 134.572
62.98000 137.284
62.99000 136.890
63.00000 136.052
63.01000 134.600
63.02000 131.030
63.03000 127.280
63.04000 124.613
63.05000 125.229
63.06000 125.803
63.07000 127.094
63.08000 129.538
63.09000 131.998
63.10000 134.984
63.11000 138.534
63.12000 142.067
63.13000 140.627
63.14000 135.764
63.15000 131.036
63.16000 130.540
63.17000 132.050
63.18000 133.455
63.19000 133.370
63.20000 132.802
63.21000 132.287
63.22000 138.773
63.23000 145.849
63.24000 151.445
63.25000 149.482
63.26000 146.457
63.27000 143.464
63.28000 140.585
63.29000 137.714
63.30000 135.683
63.31000 131.786
63.32000 128.767
63.33000 127.835
63.34000 130.211
63.35000 132.629
63.36000 134.263
63.37000 135.075
63.38000 135.883
63.39000 136.428
63.40000 136.789
63.41000 137.123
63.42000 136.657
63.43000 135.818
63.44000 135.303
63.45000 139.286
63.46000 144.705
63.47000 149.614
63.48000 143.994
63.49000 137.046
63.50000 130.921
63.51000 128.927
63.52000 127.504
63.53000 127.391
63.54000 131.680
63.55000 136.327
63.56000 139.600
63.57000 139.904
63.58000 140.046
63.59000 141.449
63.60000 144.822
63.61000 148.219
63.62000 150.296
63.63000 151.011
63.64000 151.723
63.65000 152.374
63.66000 152.978
63.67000 153.453
63.68000 150.218
63.69000 145.274
63.70000 140.721
63.71000 141.451
63.72000 143.844
63.73000 146.007
63.74000 147.921
63.75000 149.558
63.76000 150.732
63.77000 149.621
63.78000 148.200
63.79000 146.944
63.80000 146.235
63.81000 145.569
63.82000 145.102
63.83000 154.322
63.84000 161.579
63.85000 161.319
63.86000 149.490
63.87000 137.533
63.88000 135.982
63.89000 145.000
63.90000 153.965
63.91000 155.744
63.92000 152.764
63.93000 149.888
63.94000 149.895
63.95000 151.211
63.96000 152.564
63.97000 154.409
63.98000 156.406
63.99000 158.207
64.00000 152.523
64.01000 146.162
64.02000 141.383
64.03000 144.300
64.04000 148.242
64.05000 151.417
64.06000 152.088
64.07000 152.566
64.08000 152.899
64.09000 154.208
64.10000 155.224
64.11000 154.652
64.12000 151.676
64.13000 148.675
64.14000 150.292
64.15000 156.520
64.16000 162.710
64.17000 164.559
64.18000 163.568
64.19000 162.566
64.20000 161.252
64.21000 159.800
64.22000 158.626
64.23000 161.030
64.24000 164.529
64.25000 167.678
64.26000 168.083
64.27000 167.945
64.28000 166.934
64.29000 161.734
64.30000 155.988
64.31000 151.262
64.32000 149.814
64.33000 148.615
64.34000 147.782
64.35000 153.260
64.36000 157.558
64.37000 161.041
64.38000 163.306
64.39000 165.559
64.40000 165.645
64.41000 163.603
64.42000 161.574
64.43000 160.759
64.44000 160.729
64.45000 160.695
64.46000 160.533
64.47000 160.315
64.48000 160.012
64.49000 158.626
64.50000 156.914
64.51000 155.377
64.52000 159.732
64.53000 164.583
64.54000 169.086
64.55000 171.942
64.56000 174.587
64.57000 176.676
64.58000 177.004
64.59000 177.203
64.60000 177.341
64.61000 172.378
64.62000 168.514
64.63000 167.450
64.64000 170.505
64.65000 173.595
64.66000 174.032
64.67000 171.907
64.68000 169.798
64.69000 171.320
64.70000 175.097
64.71000 178.687
64.72000 177.555
64.73000 174.369
64.74000 171.487
64.75000 172.323
64.76000 174.263
64.77000 176.002
64.78000 176.157
64.79000 176.018
64.80000 175.789
64.81000 175.147
64.82000 174.452
64.83000 173.703
64.84000 172.785
64.85000 171.854
64.86000 171.214
64.87000 179.506
64.88000 185.950
64.89000 190.542
64.90000 192.453
64.91000 194.342
64.92000 198.354
64.93000 204.381
64.94000 210.361
64.95000 208.353
64.96000 201.443
64.97000 194.797
64.98000 194.577
64.99000 197.112
65.00000 199.567
65.01000 201.066
65.02000 202.284
65.03000 203.374
65.04000 202.899
65.05000 202.218
65.06000 201.771
65.07000 202.395
65.08000 203.150
65.09000 203.373
65.10000 201.958
65.11000 200.428
65.12000 199.381
65.13000 203.186
65.14000 206.151
65.15000 209.282
65.16000 212.647
65.17000 216.013
65.18000 216.446
65.19000 214.139
65.20000 211.851
65.21000 213.121
65.22000 216.531
65.23000 219.974
65.24000 224.191
65.25000 228.736
65.26000 233.326
65.27000 238.449
65.28000 243.726
65.29000 248.435
65.30000 251.326
65.31000 253.539
65.32000 255.321
65.33000 255.167
65.34000 254.777
65.35000 257.082
65.36000 267.555
65.37000 278.587
65.38000 286.102
65.39000 296.955
65.40000 305.140
65.41000 316.607
65.42000 332.683
65.43000 348.788
65.44000 356.301
65.45000 355.926
65.46000 355.554
65.47000 362.200
65.48000 372.917
65.49000 383.341
65.50000 387.077
65.51000 388.028
65.52000 389.976
65.53000 403.367
65.54000 420.007
65.55000 434.824
65.56000 451.049
65.57000 465.378
65.58000 479.614
65.59000 493.441
65.60000 507.219
65.61000 524.012
65.62000 549.807
65.63000 576.204
65.64000 594.096
65.65000 648.379
65.66000 689.653
65.67000 740.339
65.68000 804.048
65.69000 867.860
65.70000 965.229
65.71000 1092.905
65.72000 1219.374
65.73000 1367.228
65.74000 1524.662
65.75000 1681.813
65.76000 1832.675
65.77000 1980.957
65.78000 2124.383
65.79000 2213.260
65.80000 2286.879
65.81000 2352.288
65.82000 2375.676
65.83000 2389.186
65.84000 2404.584
65.85000 2428.210
65.86000 2452.796
65.87000 2471.118
65.88000 2471.002
65.89000 2469.686
65.90000 2468.797
65.91000 2402.327
65.92000 2351.490
65.93000 2273.900
65.94000 2159.866
65.95000 2045.601
65.96000 1907.847
65.97000 1749.220
65.98000 1592.188
65.99000 1430.623
66.00000 1269.902
66.01000 1111.306
66.02000 998.350
66.03000 903.853
66.04000 810.992
66.05000 736.104
66.06000 666.170
66.07000 604.175
66.08000 559.048
66.09000 522.647
66.10000 491.244
66.11000 481.285
66.12000 473.778
66.13000 465.454
66.14000 454.759
66.15000 443.913
66.16000 436.637
66.17000 441.635
66.18000 445.593
66.19000 450.477
66.20000 456.601
66.21000 462.727
66.22000 464.806
66.23000 463.349
66.24000 461.907
66.25000 477.884
66.26000 503.439
66.27000 529.072
66.28000 556.358
66.29000 584.303
66.30000 611.870
66.31000 635.364
66.32000 657.753
66.33000 677.555
66.34000 690.459
66.35000 700.540
66.36000 709.839
66.37000 715.839
66.38000 721.469
66.39000 726.898
66.40000 731.749
66.41000 736.565
66.42000 739.780
66.43000 749.477
66.44000 756.787
66.45000 756.794
66.46000 747.158
66.47000 737.469
66.48000 722.502
66.49000 702.993
66.50000 683.705
66.51000 651.941
66.52000 613.925
66.53000 576.487
66.54000 550.751
66.55000 529.613
66.56000 508.827
66.57000 491.746
66.58000 475.656
66.59000 461.458
66.60000 443.986
66.61000 428.414
66.62000 416.390
66.63000 419.133
66.64000 423.498
66.65000 424.490
66.66000 415.979
66.67000 406.894
66.68000 400.862
66.69000 406.824
66.70000 411.452
66.71000 407.522
66.72000 392.465
66.73000 377.378
66.74000 372.179
66.75000 375.348
66.76000 378.479
66.77000 380.044
66.78000 380.704
66.79000 381.549
66.80000 386.049
66.81000 391.964
66.82000 397.285
66.83000 396.485
66.84000 394.071
66.85000 391.947
66.86000 385.899
66.87000 380.105
66.88000 377.705
66.89000 389.217
66.90000 402.227
66.91000 410.922
66.92000 407.634
66.93000 403.643
66.94000 401.006
66.95000 403.669
66.96000 405.727
66.97000 407.917
66.98000 410.276
66.99000 412.628
67.00000 411.727
67.01000 408.117
67.02000 404.552
67.03000 409.420
67.04000 418.749
67.05000 427.382
67.06000 422.740
67.07000 413.030
67.08000 404.497
67.09000 407.831
67.10000 414.245
67.11000 419.877
67.12000 420.526
67.13000 420.352
67.14000 421.587
67.15000 428.514
67.16000 436.040
67.17000 439.850
67.18000 433.489
67.19000 426.547
67.20000 421.986
67.21000 426.770
67.22000 430.450
67.23000 436.030
67.24000 444.005
67.25000 451.972
67.26000 453.697
67.27000 450.305
67.28000 446.959
67.29000 445.512
67.30000 445.121
67.31000 444.696
67.32000 443.625
67.33000 442.312
67.34000 441.427
67.35000 444.783
67.36000 449.222
67.37000 453.111
67.38000 454.962
67.39000 456.257
67.40000 458.182
67.41000 462.615
67.42000 467.307
67.43000 469.623
67.44000 465.531
67.45000 461.083
67.46000 458.176
67.47000 467.742
67.48000 474.966
67.49000 478.885
67.50000 478.703
67.51000 478.502
67.52000 475.551
67.53000 470.382
67.54000 465.284
67.55000 469.293
67.56000 477.986
67.57000 486.085
67.58000 483.462
67.59000 476.864
67.60000 471.260
67.61000 475.277
67.62000 481.716
67.63000 487.344
67.64000 488.760
67.65000 489.377
67.66000 491.045
67.67000 496.824
67.68000 503.021
67.69000 507.250
67.70000 506.247
67.71000 504.962
67.72000 504.127
67.73000 514.297
67.74000 521.918
67.75000 519.370
67.76000 504.412
67.77000 489.469
67.78000 488.492
67.79000 498.606
67.80000 508.572
67.81000 517.252
67.82000 525.008
67.83000 532.203
67.84000 529.560
67.85000 523.320
67.86000 518.363
67.87000 525.570
67.88000 535.794
67.89000 544.707
67.90000 538.273
67.91000 530.641
67.92000 527.052
67.93000 539.050
67.94000 552.594
67.95000 559.272
67.96000 547.953
67.97000 535.690
67.98000 527.764
67.99000 542.609
68.00000 553.794
68.01000 565.036
68.02000 576.348
68.03000 587.618
68.04000 587.739
68.05000 579.144
68.06000 570.682
68.07000 570.405
68.08000 574.314
68.09000 578.442
68.10000 586.314
68.11000 595.535
68.12000 603.648
68.13000 601.469
68.14000 596.778
68.15000 592.698
68.16000 588.669
68.17000 585.239
68.18000 585.225
68.19000 598.191
68.20000 612.418
68.21000 621.751
68.22000 618.445
68.23000 614.494
68.24000 611.955
68.25000 611.431
68.26000 611.076
68.27000 618.547
68.28000 635.269
68.29000 651.974
68.30000 660.783
68.31000 663.515
68.32000 666.203
68.33000 673.689
68.34000 683.346
68.35000 692.316
68.36000 689.859
68.37000 683.344
68.38000 677.630
68.39000 679.200
68.40000 682.521
68.41000 685.402
68.42000 702.810
68.43000 719.578
68.44000 733.945
68.45000 739.330
68.46000 743.861
68.47000 749.813
68.48000 759.381
68.49000 769.129
68.50000 775.359
68.51000 802.313
68.52000 822.203
68.53000 836.473
68.54000 844.204
68.55000 851.996
68.56000 874.933
68.57000 909.343
68.58000 943.169
68.59000 971.761
68.60000 996.814
68.61000 1022.492
68.62000 1058.275
68.63000 1097.593
68.64000 1138.408
68.65000 1192.596
68.66000 1249.949
68.67000 1299.576
68.68000 1367.140
68.69000 1426.932
68.70000 1485.835
68.71000 1541.469
68.72000 1596.799
68.73000 1647.870
68.74000 1688.256
68.75000 1728.127
68.76000 1753.465
68.77000 1858.739
68.78000 1936.185
68.79000 2010.915
68.80000 2082.538
68.81000 2154.225
68.82000 2239.087
68.83000 2333.777
68.84000 2426.783
68.85000 2558.170
68.86000 2703.707
68.87000 2857.440
68.88000 3140.357
68.89000 3467.824
68.90000 3831.490
68.91000 4512.087
68.92000 5266.565
68.93000 5917.725
68.94000 8068.803
68.95000 10087.069
68.96000 12442.852
68.97000 16024.025
68.98000 19716.791
68.99000 23656.520
69.00000 28207.143
69.01000 32786.246
69.02000 35679.516
69.03000 41006.223
69.04000 44894.480
69.05000 47958.109
69.06000 50093.137
69.07000 52223.555
69.08000 53692.188
69.09000 54674.785
69.10000 55639.113
69.11000 56541.656
69.12000 57382.336
69.13000 58228.203
69.14000 59153.766
69.15000 60106.414
69.16000 60992.305
69.17000 61305.047
69.18000 61486.234
69.19000 61642.207
69.20000 59660.844
69.21000 57713.004
69.22000 55396.152
69.23000 51759.418
69.24000 48005.090
69.25000 44441.105
69.26000 41341.203
69.27000 38262.281
69.28000 36328.160
69.29000 33701.305
69.30000 31794.531
69.31000 30389.477
69.32000 29540.225
69.33000 28693.041
69.34000 28115.760
69.35000 27733.668
69.36000 27358.998
69.37000 26520.164
69.38000 25493.514
69.39000 24418.994
69.40000 22627.703
69.41000 20596.318
69.42000 18526.807
69.43000 16136.237
69.44000 13673.115
69.45000 11558.356
69.46000 9499.173
69.47000 7765.133
69.48000 6182.208
69.49000 5131.776
69.50000 4127.752
69.51000 3285.743
69.52000 2833.084
69.53000 2397.483
69.54000 2125.450
69.55000 1865.173
69.56000 1677.554
69.57000 1538.167
69.58000 1451.340
69.59000 1364.643
69.60000 1293.354
69.61000 1233.040
69.62000 1173.947
69.63000 1128.440
69.64000 1090.981
69.65000 1054.032
69.66000 1024.520
69.67000 997.463
69.68000 970.183
69.69000 941.063
69.70000 911.534
69.71000 886.248
69.72000 856.322
69.73000 830.505
69.74000 804.698
69.75000 778.927
69.76000 753.158
69.77000 733.845
69.78000 729.824
69.79000 726.452
69.80000 724.359
69.81000 692.585
69.82000 669.427
69.83000 654.268
69.84000 647.681
69.85000 641.091
69.86000 633.723
69.87000 625.811
69.88000 618.066
69.89000 610.223
69.90000 602.645
69.91000 595.459
69.92000 593.870
69.93000 594.102
69.94000 593.351
69.95000 584.633
69.96000 574.172
69.97000 565.237
69.98000 551.040
69.99000 538.457
70.00000 529.450
