20.00000 519.174
20.01000 507.564
20.02000 494.294
20.03000 483.203
20.04000 480.705
20.05000 479.086
20.06000 477.890
20.07000 481.596
20.08000 484.677
20.09000 484.902
20.10000 479.897
20.11000 474.781
20.12000 475.280
20.13000 482.687
20.14000 490.100
20.15000 491.095
20.16000 486.973
20.17000 482.887
20.18000 480.381
20.19000 478.726
20.20000 477.355
20.21000 481.033
20.22000 486.569
20.23000 491.678
20.24000 495.064
20.25000 497.713
20.26000 498.670
20.27000 489.646
20.28000 478.986
20.29000 470.934
20.30000 473.011
20.31000 476.102
20.32000 478.375
20.33000 472.753
20.34000 468.078
20.35000 468.361
20.36000 477.588
20.37000 486.998
20.38000 489.482
20.39000 483.580
20.40000 477.672
20.41000 475.270
20.42000 475.629
20.43000 476.059
20.44000 479.533
20.45000 484.620
20.46000 489.522
20.47000 491.212
20.48000 491.737
20.49000 492.221
20.50000 493.180
20.51000 494.142
20.52000 494.233
20.53000 489.275
20.54000 483.504
20.55000 479.045
20.56000 479.606
20.57000 480.658
20.58000 481.430
20.59000 484.313
20.60000 486.623
20.61000 488.006
20.62000 487.740
20.63000 487.443
20.64000 484.984
20.65000 479.950
20.66000 474.922
20.67000 470.861
20.68000 467.569
20.69000 464.411
20.70000 466.776
20.71000 472.028
20.72000 477.080
20.73000 478.784
20.74000 479.290
20.75000 479.756
20.76000 475.423
20.77000 470.514
20.78000 466.486
20.79000 467.484
20.80000 469.278
20.81000 470.505
20.82000 469.595
20.83000 468.480
20.84000 467.667
20.85000 471.094
20.86000 473.898
20.87000 472.091
20.88000 462.204
20.89000 452.167
20.90000 447.670
20.91000 449.667
20.92000 451.670
20.93000 453.674
20.94000 455.668
20.95000 457.698
20.96000 461.157
20.97000 465.353
20.98000 469.602
20.99000 474.707
21.00000 480.114
21.01000 485.076
21.02000 488.326
21.03000 490.861
21.04000 492.888
21.05000 492.074
21.06000 490.819
21.07000 489.693
21.08000 489.054
21.09000 488.460
21.10000 488.029
21.11000 488.499
21.12000 488.894
21.13000 488.245
21.14000 485.794
21.15000 483.311
21.16000 485.978
21.17000 494.586
21.18000 503.177
21.19000 503.384
21.20000 497.332
21.21000 491.403
21.22000 490.052
21.23000 491.025
21.24000 491.897
21.25000 491.146
21.26000 489.832
21.27000 488.628
21.28000 487.063
21.29000 485.595
21.30000 483.521
21.31000 478.101
21.32000 472.171
21.33000 468.048
21.34000 470.534
21.35000 473.630
21.36000 475.867
21.37000 478.722
21.38000 480.935
21.39000 481.471
21.40000 479.154
21.41000 476.789
21.42000 476.385
21.43000 478.208
21.44000 480.026
21.45000 480.500
21.46000 479.983
21.47000 479.364
21.48000 475.056
21.49000 468.904
21.50000 463.391
21.51000 467.813
21.52000 475.635
21.53000 482.786
21.54000 479.801
21.55000 475.065
21.56000 471.444
21.57000 473.868
21.58000 477.202
21.59000 480.143
21.60000 481.676
21.61000 483.082
21.62000 484.094
21.63000 486.461
21.64000 488.322
21.65000 491.912
21.66000 498.402
21.67000 504.937
21.68000 506.652
21.69000 502.986
21.70000 499.328
21.71000 496.156
21.72000 493.361
21.73000 490.734
21.74000 493.899
21.75000 499.921
21.76000 506.011
21.77000 513.153
21.78000 520.650
21.79000 527.491
21.80000 527.502
21.81000 526.131
21.82000 526.551
21.83000 536.524
21.84000 547.908
21.85000 555.788
21.86000 551.230
21.87000 545.577
21.88000 541.527
21.89000 562.520
21.90000 579.413
21.91000 595.328
21.92000 609.628
21.93000 623.905
21.94000 631.801
21.95000 632.690
21.96000 633.572
21.97000 638.315
21.98000 645.760
21.99000 652.980
22.00000 652.729
22.01000 648.848
22.02000 646.107
22.03000 660.221
22.04000 679.938
22.05000 697.895
22.06000 693.486
22.07000 685.142
22.08000 677.073
22.09000 670.448
22.10000 664.033
22.11000 657.972
22.12000 653.149
22.13000 648.432
22.14000 645.068
22.15000 651.211
22.16000 656.207
22.17000 655.006
22.18000 643.723
22.19000 632.299
22.20000 627.734
22.21000 630.581
22.22000 633.419
22.23000 626.758
22.24000 613.519
22.25000 600.271
22.26000 586.710
22.27000 572.998
22.28000 559.547
22.29000 549.837
22.30000 541.354
22.31000 533.643
22.32000 531.160
22.33000 529.984
22.34000 528.188
22.35000 523.188
22.36000 517.732
22.37000 513.827
22.38000 515.269
22.39000 517.161
22.40000 518.504
22.41000 507.833
22.42000 499.332
22.43000 492.649
22.44000 488.879
22.45000 485.149
22.46000 483.222
22.47000 483.212
22.48000 483.202
22.49000 478.420
22.50000 470.407
22.51000 462.590
22.52000 460.845
22.53000 461.965
22.54000 463.237
22.55000 466.641
22.56000 470.733
22.57000 474.445
22.58000 479.472
22.59000 484.160
22.60000 487.287
22.61000 482.476
22.62000 476.556
22.63000 471.318
22.64000 468.401
22.65000 465.674
22.66000 463.747
22.67000 464.168
22.68000 464.561
22.69000 465.532
22.70000 467.417
22.71000 469.314
22.72000 468.068
22.73000 463.539
22.74000 459.033
22.75000 454.218
22.76000 449.251
22.77000 444.417
22.78000 443.526
22.79000 444.469
22.80000 445.359
22.81000 445.529
22.82000 445.470
22.83000 445.416
22.84000 441.489
22.85000 437.300
22.86000 433.942
22.87000 434.739
22.88000 436.107
22.89000 436.430
22.90000 433.261
22.91000 429.810
22.92000 427.382
22.93000 437.013
22.94000 444.668
22.95000 448.072
22.96000 444.862
22.97000 441.576
22.98000 443.795
22.99000 451.672
23.00000 459.505
23.01000 456.154
23.02000 445.393
23.03000 434.908
23.04000 432.336
23.05000 433.393
23.06000 434.642
23.07000 438.452
23.08000 443.067
23.09000 447.235
23.10000 457.131
23.11000 466.892
23.12000 473.014
23.13000 461.218
23.14000 447.007
23.15000 435.952
23.16000 435.296
23.17000 435.458
23.18000 435.571
23.19000 433.315
23.20000 431.542
23.21000 433.487
23.22000 441.130
23.23000 448.834
23.24000 453.386
23.25000 454.753
23.26000 456.112
23.27000 452.093
23.28000 444.601
23.29000 437.233
23.30000 433.260
23.31000 430.823
23.32000 428.730
23.33000 431.140
23.34000 434.943
23.35000 438.370
23.36000 450.909
23.37000 463.572
23.38000 472.351
23.39000 462.320
23.40000 449.799
23.41000 439.720
23.42000 437.569
23.43000 436.027
23.44000 434.953
23.45000 444.141
23.46000 451.357
23.47000 452.082
23.48000 443.010
23.49000 433.839
23.50000 429.103
23.51000 428.774
23.52000 428.446
23.53000 430.105
23.54000 433.021
23.55000 435.685
23.56000 431.622
23.57000 424.563
23.58000 418.358
23.59000 423.081
23.60000 431.130
23.61000 438.372
23.62000 438.602
23.63000 437.551
23.64000 435.553
23.65000 429.041
23.66000 421.942
23.67000 417.956
23.68000 423.926
23.69000 430.642
23.70000 435.302
23.71000 441.093
23.72000 445.484
23.73000 445.925
23.74000 440.495
23.75000 435.009
23.76000 430.240
23.77000 426.171
23.78000 422.130
23.79000 420.943
23.80000 421.587
23.81000 422.233
23.82000 422.917
23.83000 423.616
23.84000 424.285
23.85000 424.576
23.86000 424.752
23.87000 424.911
23.88000 425.520
23.89000 426.133
23.90000 426.955
23.91000 428.760
23.92000 430.690
23.93000 432.211
23.94000 432.441
23.95000 432.575
23.96000 432.668
23.97000 429.176
23.98000 426.461
23.99000 425.227
24.00000 426.163
24.01000 427.118
24.02000 424.554
24.03000 418.610
24.04000 412.711
24.05000 414.777
24.06000 421.787
24.07000 428.546
24.08000 429.053
24.09000 426.853
24.10000 424.723
24.11000 423.443
24.12000 422.416
24.13000 421.495
24.14000 425.701
24.15000 430.256
24.16000 433.294
24.17000 429.324
24.18000 424.476
24.19000 421.391
24.20000 423.782
24.21000 426.564
24.22000 428.476
24.23000 428.642
24.24000 428.724
24.25000 426.281
24.26000 420.199
24.27000 414.089
24.28000 413.902
24.29000 419.311
24.30000 424.677
24.31000 424.387
24.32000 420.625
24.33000 417.080
24.34000 418.807
24.35000 422.783
24.36000 426.276
24.37000 424.010
24.38000 420.067
24.39000 416.542
24.40000 423.182
24.41000 430.690
24.42000 437.134
24.43000 438.738
24.44000 439.748
24.45000 438.641
24.46000 431.051
24.47000 423.008
24.48000 417.511
24.49000 421.488
24.50000 424.689
24.51000 425.767
24.52000 423.832
24.53000 421.876
24.54000 422.071
24.55000 424.264
24.56000 426.439
24.57000 427.207
24.58000 427.109
24.59000 427.005
24.60000 426.748
24.61000 426.426
24.62000 426.221
24.63000 427.386
24.64000 428.945
24.65000 430.335
24.66000 427.923
24.67000 425.193
24.68000 422.680
24.69000 421.140
24.70000 419.717
24.71000 417.880
24.72000 414.794
24.73000 411.623
24.74000 409.466
24.75000 406.988
24.76000 405.130
24.77000 407.169
24.78000 414.656
24.79000 422.178
24.80000 426.343
24.81000 427.441
24.82000 428.529
24.83000 423.486
24.84000 414.890
24.85000 406.530
24.86000 403.499
24.87000 402.678
24.88000 402.434
24.89000 408.790
24.90000 417.010
24.91000 424.326
24.92000 424.210
24.93000 422.897
24.94000 421.453
24.95000 419.432
24.96000 417.344
24.97000 414.496
24.98000 409.393
24.99000 404.141
25.00000 400.586
25.01000 407.689
25.02000 413.212
25.03000 417.091
25.04000 418.703
25.05000 420.295
25.06000 414.372
25.07000 401.694
25.08000 389.138
25.09000 392.509
25.10000 405.146
25.11000 417.413
25.12000 421.563
25.13000 422.396
25.14000 422.966
25.15000 420.596
25.16000 417.406
25.17000 414.575
25.18000 410.657
25.19000 407.087
25.20000 403.831
25.21000 401.933
25.22000 400.193
25.23000 399.224
25.24000 400.517
25.25000 401.957
25.26000 402.926
25.27000 405.414
25.28000 407.295
25.29000 410.063
25.30000 414.034
25.31000 418.008
25.32000 417.782
25.33000 413.843
25.34000 409.945
25.35000 403.317
25.36000 395.260
25.37000 387.638
25.38000 389.272
25.39000 394.633
25.40000 399.935
25.41000 404.590
25.42000 409.069
25.43000 413.036
25.44000 410.648
25.45000 407.581
25.46000 405.806
25.47000 409.551
25.48000 413.923
25.49000 414.816
25.50000 405.660
25.51000 395.871
25.52000 389.313
25.53000 393.976
25.54000 397.659
25.55000 397.720
25.56000 392.943
25.57000 388.151
25.58000 391.123
25.59000 400.849
25.60000 410.470
25.61000 414.752
25.62000 415.905
25.63000 416.980
25.64000 416.460
25.65000 415.308
25.66000 414.107
25.67000 412.392
25.68000 410.538
25.69000 408.899
25.70000 403.921
25.71000 399.104
25.72000 395.394
25.73000 396.335
25.74000 397.794
25.75000 400.534
25.76000 406.918
25.77000 413.525
25.78000 417.929
25.79000 406.068
25.80000 396.976
25.81000 388.821
25.82000 381.898
25.83000 374.987
25.84000 371.916
25.85000 372.134
25.86000 372.349
25.87000 379.540
25.88000 390.457
25.89000 400.993
25.90000 403.885
25.91000 403.788
25.92000 403.534
25.93000 401.640
25.94000 399.310
25.95000 397.255
25.96000 396.991
25.97000 397.036
25.98000 397.380
25.99000 398.969
26.00000 400.694
26.01000 401.141
26.02000 398.002
26.03000 394.650
26.04000 392.427
26.05000 395.345
26.06000 397.594
26.07000 398.595
26.08000 397.979
26.09000 397.349
26.10000 392.236
26.11000 383.347
26.12000 374.566
26.13000 372.807
26.14000 374.954
26.15000 377.037
26.16000 377.847
26.17000 378.166
26.18000 378.338
26.19000 377.000
26.20000 375.265
26.21000 373.739
26.22000 383.131
26.23000 392.841
26.24000 400.376
26.25000 399.040
26.26000 396.755
26.27000 395.735
26.28000 398.212
26.29000 400.892
26.30000 402.659
26.31000 396.584
26.32000 391.969
26.33000 388.329
26.34000 385.929
26.35000 383.542
26.36000 384.664
26.37000 388.695
26.38000 392.675
26.39000 395.189
26.40000 396.843
26.41000 398.530
26.42000 400.840
26.43000 403.386
26.44000 405.149
26.45000 399.071
26.46000 390.968
26.47000 383.856
26.48000 387.182
26.49000 391.565
26.50000 395.818
26.51000 399.551
26.52000 403.229
26.53000 404.714
26.54000 400.223
26.55000 395.393
26.56000 392.226
26.57000 399.250
26.58000 404.586
26.59000 402.936
26.60000 392.524
26.61000 382.108
26.62000 381.155
26.63000 387.919
26.64000 394.593
26.65000 397.139
26.66000 397.417
26.67000 397.386
26.68000 391.677
26.69000 383.841
26.70000 376.392
26.71000 372.745
26.72000 370.064
26.73000 367.717
26.74000 387.133
26.75000 406.903
26.76000 420.891
26.77000 411.997
26.78000 400.752
26.79000 394.305
26.80000 400.747
26.81000 407.898
26.82000 412.563
26.83000 397.090
26.84000 385.416
26.85000 378.113
26.86000 376.206
26.87000 374.331
26.88000 378.287
26.89000 386.925
26.90000 395.440
26.91000 395.190
26.92000 390.352
26.93000 385.831
26.94000 386.994
26.95000 390.255
26.96000 392.973
26.97000 390.468
26.98000 386.654
26.99000 383.323
27.00000 382.296
27.01000 381.741
27.02000 381.999
27.03000 385.426
27.04000 389.173
27.05000 391.582
27.06000 390.449
27.07000 389.126
27.08000 388.268
27.09000 373.790
27.10000 362.982
27.11000 361.612
27.12000 371.706
27.13000 381.800
27.14000 384.362
27.15000 380.970
27.16000 377.629
27.17000 377.620
27.18000 379.333
27.19000 380.808
27.20000 378.162
27.21000 374.016
27.22000 370.122
27.23000 368.602
27.24000 367.667
27.25000 366.853
27.26000 373.415
27.27000 380.040
27.28000 385.081
27.29000 384.046
27.30000 382.411
27.31000 382.047
27.32000 384.999
27.33000 388.124
27.34000 390.141
27.35000 388.156
27.36000 386.648
27.37000 385.477
27.38000 384.708
27.39000 383.937
27.40000 382.543
27.41000 380.665
27.42000 378.817
27.43000 380.446
27.44000 383.790
27.45000 386.828
27.46000 384.678
27.47000 380.667
27.48000 376.841
27.49000 374.728
27.50000 373.032
27.51000 371.558
27.52000 371.770
27.53000 372.180
27.54000 373.763
27.55000 379.781
27.56000 386.228
27.57000 389.964
27.58000 386.726
27.59000 383.136
27.60000 380.833
27.61000 378.239
27.62000 376.344
27.63000 375.596
27.64000 376.198
27.65000 376.803
27.66000 377.575
27.67000 378.475
27.68000 379.361
27.69000 376.871
27.70000 372.774
27.71000 368.925
27.72000 369.184
27.73000 370.895
27.74000 373.096
27.75000 379.735
27.76000 387.435
27.77000 394.110
27.78000 390.915
27.79000 386.883
27.80000 383.188
27.81000 380.747
27.82000 378.424
27.83000 375.586
27.84000 371.440
27.85000 367.231
27.86000 364.545
27.87000 371.360
27.88000 376.440
27.89000 380.339
27.90000 382.870
27.91000 385.410
27.92000 389.899
27.93000 395.860
27.94000 401.717
27.95000 400.688
27.96000 396.305
27.97000 391.865
27.98000 386.526
27.99000 380.874
28.00000 376.149
28.01000 379.663
28.02000 385.118
28.03000 389.835
28.04000 391.466
28.05000 392.450
28.06000 393.180
28.07000 392.975
28.08000 392.683
28.09000 388.680
28.10000 375.405
28.11000 361.688
28.12000 352.986
28.13000 373.401
28.14000 388.572
28.15000 392.891
28.16000 384.850
28.17000 376.835
28.18000 376.018
28.19000 380.546
28.20000 384.992
28.21000 383.200
28.22000 378.450
28.23000 373.940
28.24000 373.201
28.25000 373.757
28.26000 374.364
28.27000 375.414
28.28000 376.568
28.29000 377.563
28.30000 382.586
28.31000 387.361
28.32000 389.420
28.33000 381.665
28.34000 373.022
28.35000 368.259
28.36000 373.055
28.37000 378.293
28.38000 381.597
28.39000 387.560
28.40000 391.909
28.41000 389.598
28.42000 379.824
28.43000 370.088
28.44000 367.673
28.45000 370.609
28.46000 373.490
28.47000 372.518
28.48000 369.744
28.49000 367.262
28.50000 369.214
28.51000 372.667
28.52000 376.088
28.53000 379.241
28.54000 382.333
28.55000 384.992
28.56000 376.097
28.57000 367.117
28.58000 361.422
28.59000 367.421
28.60000 374.454
28.61000 379.087
28.62000 377.891
28.63000 376.435
28.64000 375.521
28.65000 366.527
28.66000 359.941
28.67000 356.984
28.68000 358.026
28.69000 359.076
28.70000 361.043
28.71000 363.668
28.72000 366.242
28.73000 362.696
28.74000 356.412
28.75000 350.719
28.76000 353.815
28.77000 359.841
28.78000 364.632
28.79000 359.080
28.80000 351.201
28.81000 344.443
28.82000 346.593
28.83000 349.506
28.84000 351.941
28.85000 352.702
28.86000 353.317
28.87000 354.147
28.88000 355.487
28.89000 356.850
28.90000 357.700
28.91000 367.292
28.92000 374.295
28.93000 376.158
28.94000 372.447
28.95000 368.759
28.96000 368.844
28.97000 371.603
28.98000 374.305
28.99000 375.512
29.00000 375.981
29.01000 375.684
29.02000 364.274
29.03000 349.211
29.04000 336.648
29.05000 344.610
29.06000 357.117
29.07000 367.818
29.08000 371.055
29.09000 372.886
29.10000 374.252
29.11000 374.010
29.12000 373.632
29.13000 372.424
29.14000 369.258
29.15000 366.010
29.16000 363.997
29.17000 360.900
29.18000 358.662
29.19000 361.874
29.20000 370.898
29.21000 379.846
29.22000 378.756
29.23000 370.660
29.24000 362.737
29.25000 360.710
29.26000 361.445
29.27000 362.341
29.28000 365.503
29.29000 369.400
29.30000 372.886
29.31000 373.065
29.32000 372.522
29.33000 372.059
29.34000 373.239
29.35000 374.425
29.36000 374.056
29.37000 368.386
29.38000 362.279
29.39000 357.913
29.40000 357.597
29.41000 357.446
29.42000 357.353
29.43000 359.448
29.44000 360.972
29.45000 361.262
29.46000 360.259
29.47000 359.286
29.48000 361.902
29.49000 366.987
29.50000 371.958
29.51000 371.252
29.52000 368.036
29.53000 365.019
29.54000 364.760
29.55000 365.381
29.56000 365.813
29.57000 364.758
29.58000 363.384
29.59000 362.214
29.60000 360.177
29.61000 358.364
29.62000 356.846
29.63000 356.315
29.64000 355.863
29.65000 356.913
29.66000 361.401
29.67000 366.024
29.68000 368.854
29.69000 370.309
29.70000 371.338
29.71000 373.126
29.72000 375.696
29.73000 378.234
29.74000 377.176
29.75000 373.682
29.76000 370.270
29.77000 374.924
29.78000 382.931
29.79000 390.524
29.80000 392.525
29.81000 392.769
29.82000 393.099
29.83000 394.107
29.84000 395.258
29.85000 396.234
29.86000 403.541
29.87000 410.387
29.88000 414.779
29.89000 411.056
29.90000 406.691
29.91000 405.280
29.92000 410.540
29.93000 416.052
29.94000 419.407
29.95000 433.869
29.96000 444.285
29.97000 455.572
29.98000 467.744
29.99000 479.815
30.00000 481.581
30.01000 476.473
30.02000 471.488
30.03000 473.257
30.04000 477.875
30.05000 482.290
30.06000 484.032
30.07000 484.945
30.08000 485.029
30.09000 478.795
30.10000 471.247
30.11000 464.859
30.12000 463.473
30.13000 462.870
30.14000 462.204
30.15000 461.334
30.16000 460.448
30.17000 457.229
30.18000 448.814
30.19000 440.209
30.20000 435.005
30.21000 439.067
30.22000 442.030
30.23000 440.409
30.24000 434.218
30.25000 428.085
30.26000 427.333
30.27000 430.117
30.28000 432.831
30.29000 431.848
30.30000 429.331
30.31000 426.733
30.32000 423.087
30.33000 419.120
30.34000 414.877
30.35000 408.572
30.36000 401.846
30.37000 396.168
30.38000 397.269
30.39000 398.927
30.40000 400.357
30.41000 401.056
30.42000 401.700
30.43000 400.347
30.44000 394.614
30.45000 388.725
30.46000 385.186
30.47000 387.610
30.48000 389.373
30.49000 390.867
30.50000 392.096
30.51000 393.234
30.52000 386.374
30.53000 374.336
30.54000 362.612
30.55000 372.371
30.56000 390.696
30.57000 407.651
30.58000 407.406
30.59000 401.984
30.60000 396.912
30.61000 394.410
30.62000 392.425
30.63000 390.755
30.64000 386.976
30.65000 383.599
30.66000 383.000
30.67000 391.191
30.68000 400.028
30.69000 404.560
30.70000 399.784
30.71000 394.690
30.72000 391.648
30.73000 391.555
30.74000 391.507
30.75000 394.925
30.76000 401.683
30.77000 408.427
30.78000 414.021
30.79000 418.881
30.80000 423.610
30.81000 421.529
30.82000 416.733
30.83000 412.947
30.84000 421.550
30.85000 433.827
30.86000 444.691
30.87000 445.375
30.88000 444.044
30.89000 442.926
30.90000 452.905
30.91000 462.373
30.92000 468.723
30.93000 465.352
30.94000 461.283
30.95000 462.644
30.96000 475.576
30.97000 488.889
30.98000 496.788
30.99000 503.414
31.00000 508.096
31.01000 521.049
31.02000 541.843
31.03000 562.551
31.04000 576.634
31.05000 586.556
31.06000 596.200
31.07000 609.527
31.08000 623.694
31.09000 639.826
31.10000 679.508
31.11000 726.069
31.12000 773.573
31.13000 827.744
31.14000 883.214
31.15000 929.628
31.16000 1004.785
31.17000 1070.177
31.18000 1140.489
31.19000 1225.909
31.20000 1312.389
31.21000 1407.979
31.22000 1522.708
31.23000 1638.044
31.24000 1706.026
31.25000 1863.923
31.26000 1975.856
31.27000 2106.814
31.28000 2255.508
31.29000 2404.098
31.30000 2545.086
31.31000 2681.372
31.32000 2813.701
31.33000 2919.964
31.34000 3010.391
31.35000 3100.571
31.36000 3187.860
31.37000 3274.317
31.38000 3356.066
31.39000 3405.087
31.40000 3447.831
31.41000 3483.492
31.42000 3504.806
31.43000 3521.043
31.44000 3518.265
31.45000 3457.923
31.46000 3393.645
31.47000 3324.413
31.48000 3244.924
31.49000 3165.120
31.50000 3118.392
31.51000 2952.674
31.52000 2835.407
31.53000 2719.452
31.54000 2604.699
31.55000 2489.783
31.56000 2363.646
31.57000 2230.669
31.58000 2101.690
31.59000 1984.635
31.60000 1878.388
31.61000 1771.018
31.62000 1650.781
31.63000 1526.896
31.64000 1408.471
31.65000 1327.339
31.66000 1253.243
31.67000 1191.608
31.68000 1113.266
31.69000 1046.776
31.70000 983.864
31.71000 931.625
31.72000 880.098
31.73000 830.461
31.74000 784.678
31.75000 739.009
31.76000 712.445
31.77000 681.059
31.78000 658.991
31.79000 638.120
31.80000 618.328
31.81000 598.576
31.82000 581.412
31.83000 565.802
31.84000 550.677
31.85000 535.191
31.86000 520.395
31.87000 505.447
31.88000 488.793
31.89000 471.663
31.90000 455.883
31.91000 449.156
31.92000 444.110
31.93000 439.925
31.94000 422.063
31.95000 405.991
31.96000 395.987
31.97000 403.826
31.98000 412.824
31.99000 415.271
32.00000 404.538
32.01000 393.433
32.02000 387.016
32.03000 381.816
32.04000 378.178
32.05000 375.504
32.06000 373.686
32.07000 371.899
32.08000 372.020
32.09000 373.271
32.10000 374.481
32.11000 376.579
32.12000 378.900
32.13000 380.472
32.14000 373.818
32.15000 364.900
32.16000 357.511
32.17000 360.195
32.18000 364.718
32.19000 368.458
32.20000 361.719
32.21000 355.176
32.22000 350.289
32.23000 350.206
32.24000 350.426
32.25000 349.789
32.26000 347.452
32.27000 345.068
32.28000 343.701
32.29000 344.786
32.30000 345.553
32.31000 345.898
32.32000 345.876
32.33000 345.902
32.34000 348.800
32.35000 353.371
32.36000 357.791
32.37000 357.180
32.38000 354.713
32.39000 351.562
32.40000 341.067
32.41000 328.580
32.42000 318.664
32.43000 325.388
32.44000 335.101
32.45000 343.108
32.46000 340.797
32.47000 337.945
32.48000 336.850
32.49000 340.772
32.50000 345.005
32.51000 346.108
32.52000 341.099
32.53000 335.930
32.54000 332.985
32.55000 335.892
32.56000 337.937
32.57000 338.697
32.58000 338.354
32.59000 338.029
32.60000 338.727
32.61000 340.013
32.62000 341.254
32.63000 341.755
32.64000 341.954
32.65000 342.291
32.66000 344.082
32.67000 346.263
32.68000 347.358
32.69000 341.547
32.70000 334.516
32.71000 328.738
32.72000 323.982
32.73000 320.166
32.74000 317.229
32.75000 316.762
32.76000 316.444
32.77000 318.627
32.78000 325.626
32.79000 332.746
32.80000 336.775
32.81000 334.969
32.82000 333.695
32.83000 331.775
32.84000 329.308
32.85000 326.819
32.86000 323.129
32.87000 318.759
32.88000 314.544
32.89000 318.538
32.90000 325.282
32.91000 331.187
32.92000 328.471
32.93000 323.486
32.94000 319.331
32.95000 320.366
32.96000 322.302
32.97000 323.888
32.98000 327.726
32.99000 331.072
33.00000 331.988
33.01000 326.166
33.02000 319.949
33.03000 316.012
33.04000 316.401
33.05000 316.895
33.06000 317.172
33.07000 324.891
33.08000 330.250
33.09000 328.084
33.10000 319.658
33.11000 311.395
33.12000 311.247
33.13000 315.625
33.14000 319.843
33.15000 319.499
33.16000 317.542
33.17000 315.473
33.18000 312.281
33.19000 308.797
33.20000 306.494
33.21000 311.445
33.22000 317.634
33.23000 322.689
33.24000 321.640
33.25000 320.255
33.26000 317.446
33.27000 310.742
33.28000 303.816
33.29000 300.938
33.30000 305.628
33.31000 310.491
33.32000 313.204
33.33000 309.160
33.34000 306.352
33.35000 306.259
33.36000 308.388
33.37000 310.587
33.38000 316.190
33.39000 323.662
33.40000 330.852
33.41000 324.818
33.42000 314.497
33.43000 305.326
33.44000 307.496
33.45000 312.560
33.46000 316.697
33.47000 315.234
33.48000 312.831
33.49000 310.875
33.50000 309.833
33.51000 309.059
33.52000 307.530
33.53000 303.964
33.54000 300.286
33.55000 300.334
33.56000 307.250
33.57000 314.315
33.58000 318.229
33.59000 310.391
33.60000 304.966
33.61000 302.457
33.62000 302.297
33.63000 302.213
33.64000 305.579
33.65000 310.814
33.66000 315.845
33.67000 306.031
33.68000 291.692
33.69000 279.135
33.70000 283.805
33.71000 292.806
33.72000 300.404
33.73000 299.671
33.74000 297.562
33.75000 295.851
33.76000 298.281
33.77000 300.603
33.78000 303.520
33.79000 308.019
33.80000 312.603
33.81000 311.933
33.82000 301.723
33.83000 291.314
33.84000 285.590
33.85000 291.899
33.86000 296.245
33.87000 294.648
33.88000 288.340
33.89000 282.150
33.90000 281.115
33.91000 282.831
33.92000 284.478
33.93000 290.736
33.94000 298.162
33.95000 304.855
33.96000 304.613
33.97000 302.654
33.98000 300.870
33.99000 300.112
34.00000 299.520
34.01000 299.042
34.02000 289.550
34.03000 281.100
34.04000 274.552
34.05000 272.982
34.06000 271.673
34.07000 273.094
34.08000 279.401
34.09000 285.805
34.10000 289.301
34.11000 289.029
34.12000 288.837
34.13000 288.774
34.14000 288.812
34.15000 288.820
34.16000 287.603
34.17000 285.742
34.18000 283.959
34.19000 282.584
34.20000 281.438
34.21000 280.354
34.22000 279.843
34.23000 279.472
34.24000 279.019
34.25000 278.099
34.26000 277.104
34.27000 276.302
34.28000 281.305
34.29000 285.825
34.30000 287.814
34.31000 283.275
34.32000 278.403
34.33000 278.156
34.34000 286.062
34.35000 294.123
34.36000 298.490
34.37000 289.197
34.38000 282.860
34.39000 287.207
34.40000 299.763
34.41000 311.892
34.42000 307.019
34.43000 293.332
34.44000 280.228
34.45000 279.965
34.46000 283.964
34.47000 287.331
34.48000 284.945
34.49000 281.177
34.50000 278.708
34.51000 283.574
34.52000 289.589
34.53000 294.423
34.54000 296.984
34.55000 298.885
34.56000 298.700
34.57000 293.212
34.58000 287.461
34.59000 283.921
34.60000 284.222
34.61000 284.591
34.62000 284.790
34.63000 290.324
34.64000 294.091
34.65000 293.563
34.66000 289.786
34.67000 286.070
34.68000 284.689
34.69000 284.500
34.70000 284.320
34.71000 281.791
34.72000 278.674
34.73000 275.564
34.74000 272.522
34.75000 269.497
34.76000 267.296
34.77000 269.671
34.78000 272.751
34.79000 275.218
34.80000 285.058
34.81000 293.573
34.82000 298.841
34.83000 295.968
34.84000 292.705
34.85000 291.400
34.86000 293.449
34.87000 295.556
34.88000 296.680
34.89000 290.219
34.90000 285.827
34.91000 284.553
34.92000 285.600
34.93000 286.687
34.94000 289.208
34.95000 292.452
34.96000 295.549
34.97000 293.010
34.98000 288.846
34.99000 285.190
35.00000 285.968
35.01000 287.778
35.02000 288.866
35.03000 286.003
35.04000 282.542
35.05000 279.779
35.06000 278.333
35.07000 277.262
35.08000 276.984
35.09000 278.665
35.10000 280.437
35.11000 281.516
35.12000 281.426
35.13000 281.318
35.14000 281.260
35.15000 286.111
35.16000 289.379
35.17000 287.102
35.18000 280.757
35.19000 274.526
35.20000 272.248
35.21000 271.932
35.22000 271.631
35.23000 270.646
35.24000 269.518
35.25000 268.300
35.26000 266.323
35.27000 264.170
35.28000 263.041
35.29000 267.412
35.30000 272.602
35.31000 276.730
35.32000 271.354
35.33000 266.341
35.34000 263.605
35.35000 266.411
35.36000 269.468
35.37000 273.003
35.38000 277.334
35.39000 281.676
35.40000 283.958
35.41000 273.281
35.42000 266.078
35.43000 265.151
35.44000 268.756
35.45000 272.334
35.46000 274.996
35.47000 277.209
35.48000 279.316
35.49000 283.335
35.50000 287.650
35.51000 290.847
35.52000 284.646
35.53000 276.325
35.54000 268.686
35.55000 264.659
35.56000 261.160
35.57000 258.386
35.58000 263.921
35.59000 268.953
35.60000 274.276
35.61000 280.295
35.62000 286.345
35.63000 287.636
35.64000 281.136
35.65000 274.523
35.66000 271.077
35.67000 269.305
35.68000 268.106
35.69000 266.622
35.70000 264.934
35.71000 263.394
35.72000 266.654
35.73000 272.227
35.74000 277.527
35.75000 275.716
35.76000 271.875
35.77000 269.155
35.78000 275.684
35.79000 284.268
35.80000 289.958
35.81000 280.589
35.82000 269.059
35.83000 259.950
35.84000 260.839
35.85000 262.235
35.86000 264.050
35.87000 266.853
35.88000 269.699
35.89000 269.870
35.90000 265.728
35.91000 261.527
35.92000 259.354
35.93000 260.809
35.94000 261.805
35.95000 264.690
35.96000 268.899
35.97000 272.975
35.98000 272.932
35.99000 270.930
36.00000 269.030
36.01000 266.437
36.02000 263.835
36.03000 261.951
36.04000 265.872
36.05000 271.064
36.06000 275.311
36.07000 274.723
36.08000 273.453
36.09000 272.453
36.10000 271.637
36.11000 270.995
36.12000 270.099
36.13000 268.608
36.14000 267.094
36.15000 266.696
36.16000 268.075
36.17000 269.476
36.18000 270.194
36.19000 270.085
36.20000 269.976
36.21000 265.550
36.22000 258.145
36.23000 250.976
36.24000 250.937
36.25000 254.237
36.26000 257.366
36.27000 258.369
36.28000 258.666
36.29000 258.727
36.30000 256.920
36.31000 254.710
36.32000 254.159
36.33000 261.961
36.34000 270.919
36.35000 277.947
36.36000 271.817
36.37000 266.060
36.38000 261.467
36.39000 259.550
36.40000 257.739
36.41000 257.781
36.42000 260.726
36.43000 263.706
36.44000 265.221
36.45000 261.812
36.46000 259.552
36.47000 260.222
36.48000 262.883
36.49000 265.390
36.50000 263.421
36.51000 259.386
36.52000 255.566
36.53000 255.048
36.54000 255.530
36.55000 256.099
36.56000 257.340
36.57000 258.725
36.58000 260.598
36.59000 264.896
36.60000 269.524
36.61000 273.141
36.62000 265.328
36.63000 258.367
36.64000 256.443
36.65000 265.927
36.66000 275.848
36.67000 280.132
36.68000 275.722
36.69000 271.215
36.70000 268.942
36.71000 266.601
36.72000 265.051
36.73000 265.020
36.74000 266.007
36.75000 266.865
36.76000 264.132
36.77000 259.765
36.78000 255.636
36.79000 257.946
36.80000 261.907
36.81000 265.501
36.82000 266.292
36.83000 266.498
36.84000 266.829
36.85000 267.766
36.86000 268.785
36.87000 269.578
36.88000 261.622
36.89000 254.745
36.90000 252.919
36.91000 262.376
36.92000 272.250
36.93000 277.410
36.94000 275.405
36.95000 273.327
36.96000 272.287
36.97000 268.431
36.98000 265.884
36.99000 265.708
37.00000 267.095
37.01000 268.610
37.02000 273.606
37.03000 280.163
37.04000 286.353
37.05000 287.749
37.06000 287.682
37.07000 287.396
37.08000 285.462
37.09000 283.190
37.10000 281.258
37.11000 280.958
37.12000 280.871
37.13000 280.804
37.14000 280.161
37.15000 279.616
37.16000 278.008
37.17000 274.064
37.18000 270.037
37.19000 268.082
37.20000 269.228
37.21000 270.404
37.22000 270.516
37.23000 269.580
37.24000 268.608
37.25000 264.368
37.26000 258.006
37.27000 251.886
37.28000 252.071
37.29000 255.043
37.30000 257.845
37.31000 260.628
37.32000 263.172
37.33000 265.224
37.34000 263.645
37.35000 261.333
37.36000 259.375
37.37000 259.083
37.38000 259.006
37.39000 258.946
37.40000 268.476
37.41000 276.599
37.42000 279.806
37.43000 272.348
37.44000 264.523
37.45000 260.086
37.46000 260.644
37.47000 261.247
37.48000 259.279
37.49000 254.823
37.50000 250.458
37.51000 253.750
37.52000 261.938
37.53000 269.803
37.54000 269.479
37.55000 265.588
37.56000 261.926
37.57000 260.505
37.58000 259.815
37.59000 259.603
37.60000 262.851
37.61000 266.787
37.62000 269.781
37.63000 268.393
37.64000 266.452
37.65000 264.956
37.66000 263.716
37.67000 262.748
37.68000 260.649
37.69000 256.133
37.70000 251.536
37.71000 250.964
37.72000 256.235
37.73000 261.554
37.74000 265.081
37.75000 266.904
37.76000 268.683
37.77000 267.105
37.78000 263.411
37.79000 259.847
37.80000 259.456
37.81000 260.427
37.82000 261.339
37.83000 262.727
37.84000 264.120
37.85000 264.965
37.86000 261.910
37.87000 258.092
37.88000 256.133
37.89000 262.686
37.90000 270.292
37.91000 276.128
37.92000 270.519
37.93000 265.449
37.94000 261.443
37.95000 259.681
37.96000 257.991
37.97000 258.230
37.98000 261.226
37.99000 264.243
38.00000 266.510
38.01000 268.073
38.02000 269.664
38.03000 273.328
38.04000 278.279
38.05000 282.882
38.06000 279.236
38.07000 272.099
38.08000 265.404
38.09000 270.614
38.10000 278.495
38.11000 284.954
38.12000 281.489
38.13000 276.115
38.14000 271.270
38.15000 268.812
38.16000 266.645
38.17000 264.987
38.18000 274.799
38.19000 283.159
38.20000 286.378
38.21000 278.918
38.22000 271.128
38.23000 267.350
38.24000 269.220
38.25000 271.129
38.26000 276.646
38.27000 285.477
38.28000 294.226
38.29000 297.233
38.30000 296.728
38.31000 296.422
38.32000 300.651
38.33000 306.772
38.34000 312.506
38.35000 314.064
38.36000 314.402
38.37000 314.710
38.38000 314.824
38.39000 314.900
38.40000 316.660
38.41000 325.890
38.42000 336.010
38.43000 343.717
38.44000 362.004
38.45000 376.956
38.46000 389.106
38.47000 395.519
38.48000 401.761
38.49000 416.118
38.50000 441.725
38.51000 467.395
38.52000 488.185
38.53000 504.541
38.54000 520.969
38.55000 542.092
38.56000 566.044
38.57000 589.940
38.58000 612.581
38.59000 634.706
38.60000 655.397
38.61000 677.276
38.62000 697.447
38.63000 717.580
38.64000 737.455
38.65000 757.281
38.66000 778.147
38.67000 803.552
38.68000 829.488
38.69000 849.162
38.70000 852.717
38.71000 854.682
38.72000 850.751
38.73000 834.924
38.74000 818.757
38.75000 805.474
38.76000 796.130
38.77000 786.813
38.78000 776.630
38.79000 765.691
38.80000 754.652
38.81000 737.437
38.82000 716.556
38.83000 695.580
38.84000 672.570
38.85000 648.735
38.86000 626.482
38.87000 601.308
38.88000 577.755
38.89000 554.814
38.90000 535.930
38.91000 517.790
38.92000 498.640
38.93000 475.153
38.94000 451.169
38.95000 433.046
38.96000 426.553
38.97000 422.043
38.98000 412.603
38.99000 393.358
39.00000 373.844
39.01000 356.557
39.02000 342.264
39.03000 327.994
39.04000 325.370
39.05000 332.937
39.06000 340.254
39.07000 332.842
39.08000 316.816
39.09000 301.235
39.10000 294.962
39.11000 292.407
39.12000 290.025
39.13000 286.717
39.14000 283.495
39.15000 280.722
39.16000 280.875
39.17000 281.554
39.18000 281.194
39.19000 276.434
39.20000 271.179
39.21000 267.225
39.22000 268.955
39.23000 270.585
39.24000 270.257
39.25000 266.092
39.26000 261.827
39.27000 259.103
39.28000 258.419
39.29000 257.745
39.30000 254.899
39.31000 250.189
39.32000 245.498
39.33000 241.821
39.34000 238.730
39.35000 235.906
39.36000 238.503
39.37000 243.234
39.38000 247.636
39.39000 252.397
39.40000 256.785
39.41000 260.009
39.42000 255.792
39.43000 250.257
39.44000 246.194
39.45000 248.268
39.46000 251.018
39.47000 253.079
39.48000 247.165
39.49000 242.171
39.50000 239.078
39.51000 239.656
39.52000 240.327
39.53000 242.496
39.54000 246.618
39.55000 250.744
39.56000 252.353
39.57000 251.828
39.58000 251.268
39.59000 248.780
39.60000 245.199
39.61000 241.662
39.62000 239.009
39.63000 236.700
39.64000 234.554
39.65000 236.729
39.66000 239.720
39.67000 241.931
39.68000 239.255
39.69000 235.726
39.70000 233.607
39.71000 237.279
39.72000 241.577
39.73000 244.785
39.74000 246.937
39.75000 248.564
39.76000 247.798
39.77000 242.476
39.78000 237.043
39.79000 231.981
39.80000 227.395
39.81000 222.815
39.82000 225.890
39.83000 235.326
39.84000 244.600
39.85000 245.727
39.86000 242.295
39.87000 239.012
39.88000 238.583
39.89000 239.244
39.90000 239.857
39.91000 234.693
39.92000 228.690
39.93000 224.257
39.94000 229.516
39.95000 236.435
39.96000 241.656
39.97000 240.010
39.98000 237.638
39.99000 235.874
40.00000 234.856
40.01000 234.097
40.02000 233.211
40.03000 232.086
40.04000 230.956
40.05000 229.255
40.06000 226.833
40.07000 224.412
40.08000 223.836
40.09000 224.773
40.10000 225.689
40.11000 225.596
40.12000 224.947
40.13000 224.329
40.14000 224.286
40.15000 224.458
40.16000 224.618
40.17000 221.321
40.18000 217.561
40.19000 215.178
40.20000 221.145
40.21000 228.519
40.22000 235.053
40.23000 238.239
40.24000 241.079
40.25000 243.182
40.26000 238.787
40.27000 235.095
40.28000 232.924
40.29000 233.566
40.30000 234.270
40.31000 233.977
40.32000 232.444
40.33000 230.910
40.34000 230.242
40.35000 230.275
40.36000 230.329
40.37000 231.324
40.38000 232.832
40.39000 234.137
40.40000 231.777
40.41000 228.055
40.42000 224.617
40.43000 223.861
40.44000 223.789
40.45000 224.024
40.46000 226.088
40.47000 228.454
40.48000 230.545
40.49000 231.557
40.50000 232.460
40.51000 233.126
40.52000 226.815
40.53000 221.634
40.54000 218.423
40.55000 218.801
40.56000 219.255
40.57000 221.408
40.58000 225.641
40.59000 229.872
40.60000 227.763
40.61000 220.643
40.62000 213.683
40.63000 213.759
40.64000 217.604
40.65000 221.201
40.66000 220.453
40.67000 218.114
40.68000 215.956
40.69000 217.125
40.70000 218.913
40.71000 221.102
40.72000 225.652
40.73000 230.587
40.74000 234.350
40.75000 233.587
40.76000 232.373
40.77000 231.482
40.78000 222.153
40.79000 214.597
40.80000 210.093
40.81000 211.068
40.82000 212.153
40.83000 214.642
40.84000 218.821
40.85000 222.996
40.86000 225.450
40.87000 226.549
40.88000 227.538
40.89000 223.867
40.90000 217.739
40.91000 212.017
40.92000 213.257
40.93000 217.010
40.94000 220.465
40.95000 222.606
40.96000 224.234
40.97000 225.778
40.98000 226.842
40.99000 227.829
41.00000 228.418
41.01000 227.497
41.02000 226.429
41.03000 225.648
41.04000 222.851
41.05000 220.614
41.06000 218.513
41.07000 216.654
41.08000 214.799
41.09000 214.862
41.10000 217.198
41.11000 219.532
41.12000 220.396
41.13000 220.129
41.14000 219.929
41.15000 222.432
41.16000 226.341
41.17000 229.947
41.18000 228.502
41.19000 225.261
41.20000 222.283
41.21000 223.100
41.22000 224.647
41.23000 224.990
41.24000 218.515
41.25000 210.967
41.26000 205.837
41.27000 209.768
41.28000 214.563
41.29000 218.055
41.30000 220.244
41.31000 221.880
41.32000 222.980
41.33000 223.146
41.34000 223.295
41.35000 222.092
41.36000 219.311
41.37000 216.535
41.38000 213.466
41.39000 210.195
41.40000 207.138
41.41000 212.278
41.42000 221.621
41.43000 229.977
41.44000 222.324
41.45000 209.057
41.46000 196.889
41.47000 204.332
41.48000 215.111
41.49000 223.756
41.50000 220.506
41.51000 215.416
41.52000 210.578
41.53000 206.671
41.54000 202.850
41.55000 200.081
41.56000 207.547
41.57000 213.663
41.58000 216.841
41.59000 214.972
41.60000 213.017
41.61000 211.917
41.62000 211.797
41.63000 211.680
41.64000 211.106
41.65000 210.199
41.66000 209.332
41.67000 209.947
41.68000 211.311
41.69000 212.964
41.70000 219.199
41.71000 227.018
41.72000 234.175
41.73000 219.777
41.74000 202.489
41.75000 189.209
41.76000 197.918
41.77000 209.968
41.78000 219.611
41.79000 220.501
41.80000 220.591
41.81000 220.655
41.82000 218.418
41.83000 216.620
41.84000 216.261
41.85000 218.339
41.86000 220.456
41.87000 217.882
41.88000 210.014
41.89000 202.166
41.90000 201.318
41.91000 205.587
41.92000 209.773
41.93000 210.981
41.94000 210.708
41.95000 210.274
41.96000 207.367
41.97000 203.617
41.98000 200.191
41.99000 201.482
42.00000 203.592
42.01000 205.291
42.02000 204.773
42.03000 203.923
42.04000 203.385
42.05000 203.963
42.06000 204.640
42.07000 205.127
42.08000 207.253
42.09000 208.937
42.10000 210.479
42.11000 211.782
42.12000 213.082
42.13000 211.279
42.14000 206.031
42.15000 200.800
42.16000 200.500
42.17000 203.746
42.18000 206.839
42.19000 204.720
42.20000 200.044
42.21000 195.821
42.22000 198.391
42.23000 203.240
42.24000 207.663
42.25000 212.933
42.26000 217.775
42.27000 222.112
42.28000 223.762
42.29000 225.018
42.30000 225.363
42.31000 222.490
42.32000 219.336
42.33000 217.080
42.34000 208.822
42.35000 202.316
42.36000 201.481
42.37000 209.963
42.38000 218.580
42.39000 218.923
42.40000 210.229
42.41000 201.565
42.42000 199.864
42.43000 203.099
42.44000 206.222
42.45000 205.674
42.46000 203.351
42.47000 201.334
42.48000 203.821
42.49000 207.796
42.50000 211.414
42.51000 210.489
42.52000 208.773
42.53000 207.153
42.54000 206.029
42.55000 204.977
42.56000 204.601
42.57000 206.580
42.58000 208.761
42.59000 210.313
42.60000 212.418
42.61000 214.040
42.62000 213.220
42.63000 208.451
42.64000 203.628
42.65000 202.384
42.66000 204.985
42.67000 207.576
42.68000 207.026
42.69000 204.298
42.70000 201.639
42.71000 201.147
42.72000 201.687
42.73000 202.171
42.74000 201.838
42.75000 201.239
42.76000 200.694
42.77000 206.110
42.78000 212.049
42.79000 216.279
42.80000 211.728
42.81000 205.935
42.82000 201.992
42.83000 204.387
42.84000 207.313
42.85000 209.387
42.86000 206.751
42.87000 204.599
42.88000 203.532
42.89000 204.196
42.90000 204.881
42.91000 205.307
42.92000 205.458
42.93000 205.609
42.94000 205.696
42.95000 205.739
42.96000 205.908
42.97000 209.913
42.98000 215.720
42.99000 221.199
43.00000 222.107
43.01000 221.546
43.02000 221.038
43.03000 214.844
43.04000 208.297
43.05000 203.017
43.06000 204.139
43.07000 206.150
43.08000 206.940
43.09000 203.611
43.10000 199.946
43.11000 197.359
43.12000 199.965
43.13000 202.101
43.14000 203.979
43.15000 205.454
43.16000 206.923
43.17000 208.932
43.18000 211.502
43.19000 214.058
43.20000 209.626
43.21000 200.544
43.22000 191.756
43.23000 191.616
43.24000 195.480
43.25000 199.193
43.26000 200.840
43.27000 201.834
43.28000 202.733
43.29000 201.713
43.30000 200.456
43.31000 200.334
43.32000 205.863
43.33000 212.162
43.34000 216.659
43.35000 215.161
43.36000 213.185
43.37000 211.796
43.38000 205.908
43.39000 201.317
43.40000 199.356
43.41000 201.462
43.42000 203.615
43.43000 203.362
43.44000 200.654
43.45000 197.960
43.46000 199.804
43.47000 204.631
43.48000 209.294
43.49000 209.342
43.50000 207.283
43.51000 205.237
43.52000 203.369
43.53000 201.557
43.54000 199.922
43.55000 200.275
43.56000 200.950
43.57000 201.640
43.58000 202.395
43.59000 203.160
43.60000 202.979
43.61000 199.700
43.62000 196.179
43.63000 193.718
43.64000 196.365
43.65000 198.509
43.66000 199.290
43.67000 197.994
43.68000 196.675
43.69000 199.866
43.70000 207.587
43.71000 215.261
43.72000 214.024
43.73000 206.996
43.74000 200.206
43.75000 199.940
43.76000 202.608
43.77000 204.873
43.78000 201.906
43.79000 197.332
43.80000 193.210
43.81000 194.405
43.82000 196.414
43.83000 198.155
43.84000 198.603
43.85000 198.881
43.86000 199.552
43.87000 201.495
43.88000 203.534
43.89000 204.954
43.90000 197.301
43.91000 191.283
43.92000 189.547
43.93000 194.240
43.94000 198.995
43.95000 201.648
43.96000 202.226
43.97000 202.799
43.98000 202.242
43.99000 200.969
44.00000 199.674
44.01000 197.812
44.02000 195.699
44.03000 193.566
44.04000 191.177
44.05000 188.711
44.06000 186.494
44.07000 188.389
44.08000 190.778
44.09000 192.431
44.10000 190.599
44.11000 188.316
44.12000 186.556
44.13000 186.462
44.14000 186.492
44.15000 186.512
44.16000 194.769
44.17000 201.198
44.18000 203.993
44.19000 201.413
44.20000 198.783
44.21000 196.709
44.22000 195.173
44.23000 193.648
44.24000 193.011
44.25000 192.945
44.26000 193.033
44.27000 197.041
44.28000 202.761
44.29000 208.092
44.30000 208.608
44.31000 207.686
44.32000 206.860
44.33000 205.885
44.34000 205.007
44.35000 203.888
44.36000 201.639
44.37000 199.247
44.38000 198.079
44.39000 200.751
44.40000 203.701
44.41000 205.735
44.42000 202.545
44.43000 200.018
44.44000 201.680
44.45000 209.442
44.46000 217.256
44.47000 217.022
44.48000 209.106
44.49000 201.251
44.50000 203.781
44.51000 212.722
44.52000 221.362
44.53000 222.581
44.54000 220.603
44.55000 218.895
44.56000 220.451
44.57000 222.966
44.58000 225.217
44.59000 221.341
44.60000 216.908
44.61000 214.226
44.62000 219.582
44.63000 225.937
44.64000 230.208
44.65000 228.037
44.66000 225.410
44.67000 223.607
44.68000 232.455
44.69000 239.343
44.70000 240.111
44.71000 232.100
44.72000 224.023
44.73000 227.262
44.74000 241.127
44.75000 254.879
44.76000 265.462
44.77000 273.918
44.78000 281.940
44.79000 279.615
44.80000 272.897
44.81000 266.825
44.82000 268.388
44.83000 272.164
44.84000 275.536
44.85000 288.445
44.86000 301.293
44.87000 311.723
44.88000 311.227
44.89000 309.397
44.90000 309.404
44.91000 315.008
44.92000 320.998
44.93000 325.086
44.94000 328.637
44.95000 331.280
44.96000 334.378
44.97000 338.119
44.98000 341.867
44.99000 351.412
45.00000 366.312
45.01000 381.083
45.02000 384.505
45.03000 381.032
45.04000 377.585
45.05000 374.737
45.06000 372.139
45.07000 370.147
45.08000 375.162
45.09000 382.176
45.10000 388.427
45.11000 388.279
45.12000 387.093
45.13000 385.330
45.14000 380.998
45.15000 376.359
45.16000 371.046
45.17000 363.711
45.18000 356.240
45.19000 351.168
45.20000 346.715
45.21000 343.406
45.22000 341.723
45.23000 342.302
45.24000 342.893
45.25000 340.533
45.26000 335.490
45.27000 330.494
45.28000 325.758
45.29000 321.270
45.30000 316.698
45.31000 310.243
45.32000 303.011
45.33000 295.838
45.34000 289.338
45.35000 283.027
45.36000 277.416
45.37000 275.355
45.38000 274.143
45.39000 272.554
45.40000 269.316
45.41000 265.885
45.42000 263.263
45.43000 263.035
45.44000 262.963
45.45000 262.915
45.46000 260.519
45.47000 258.684
45.48000 256.148
45.49000 252.649
45.50000 249.147
45.51000 247.830
45.52000 248.466
45.53000 249.095
45.54000 244.577
45.55000 237.153
45.56000 229.934
45.57000 227.138
45.58000 226.140
45.59000 225.196
45.60000 224.839
45.61000 224.646
45.62000 224.474
45.63000 222.992
45.64000 221.500
45.65000 219.638
45.66000 216.177
45.67000 212.533
45.68000 210.893
45.69000 215.100
45.70000 219.682
45.71000 222.762
45.72000 216.802
45.73000 212.189
45.74000 210.737
45.75000 213.549
45.76000 216.379
45.77000 214.309
45.78000 207.930
45.79000 201.618
45.80000 197.281
45.81000 194.173
45.82000 191.339
45.83000 194.269
45.84000 199.508
45.85000 204.268
45.86000 203.836
45.87000 201.987
45.88000 200.351
45.89000 195.749
45.90000 191.305
45.91000 188.045
45.92000 189.815
45.93000 192.153
45.94000 193.376
45.95000 191.393
45.96000 189.209
45.97000 187.749
45.98000 189.608
45.99000 191.050
46.00000 188.219
46.01000 179.710
46.02000 171.186
46.03000 171.362
46.04000 179.064
46.05000 186.682
46.06000 187.339
46.07000 184.053
46.08000 180.957
46.09000 181.778
46.10000 184.145
46.11000 186.134
46.12000 184.112
46.13000 181.012
46.14000 178.274
46.15000 179.542
46.16000 181.251
46.17000 182.593
46.18000 182.396
46.19000 182.029
46.20000 182.153
46.21000 183.670
46.22000 185.272
46.23000 186.338
46.24000 189.444
46.25000 191.781
46.26000 191.390
46.27000 187.435
46.28000 183.465
46.29000 179.948
46.30000 176.817
46.31000 173.723
46.32000 174.462
46.33000 177.314
46.34000 179.819
46.35000 175.442
46.36000 168.387
46.37000 162.293
46.38000 166.189
46.39000 172.730
46.40000 178.492
46.41000 174.526
46.42000 169.642
46.43000 165.995
46.44000 167.447
46.45000 169.451
46.46000 171.536
46.47000 173.845
46.48000 176.167
46.49000 177.704
46.50000 179.060
46.51000 180.057
46.52000 180.620
46.53000 180.624
46.54000 180.626
46.55000 180.434
46.56000 180.082
46.57000 179.734
46.58000 177.839
46.59000 175.148
46.60000 172.599
46.61000 172.799
46.62000 174.054
46.63000 175.485
46.64000 178.702
46.65000 182.384
46.66000 185.621
46.67000 176.261
46.68000 166.348
46.69000 159.517
46.70000 165.192
46.71000 172.196
46.72000 176.190
46.73000 171.901
46.74000 167.135
46.75000 163.998
46.76000 168.676
46.77000 172.255
46.78000 174.199
46.79000 174.072
46.80000 173.938
46.81000 173.738
46.82000 173.486
46.83000 173.237
46.84000 173.666
46.85000 174.450
46.86000 175.298
46.87000 177.341
46.88000 179.837
46.89000 181.606
46.90000 176.140
46.91000 168.816
46.92000 162.394
46.93000 166.135
46.94000 170.823
46.95000 174.674
46.96000 175.181
46.97000 175.340
46.98000 174.538
46.99000 171.130
47.00000 167.576
47.01000 165.250
47.02000 170.192
47.03000 173.943
47.04000 174.858
47.05000 172.238
47.06000 169.612
47.07000 168.554
47.08000 168.768
47.09000 168.979
47.10000 169.622
47.11000 170.477
47.12000 171.171
47.13000 168.934
47.14000 165.604
47.15000 162.760
47.16000 164.652
47.17000 167.744
47.18000 170.447
47.19000 169.850
47.20000 168.868
47.21000 168.036
47.22000 167.791
47.23000 167.606
47.24000 167.715
47.25000 168.609
47.26000 169.547
47.27000 170.157
47.28000 166.158
47.29000 163.154
47.30000 162.769
47.31000 165.599
47.32000 168.434
47.33000 170.209
47.34000 171.138
47.35000 172.053
47.36000 172.881
47.37000 173.640
47.38000 174.097
47.39000 169.217
47.40000 162.377
47.41000 156.770
47.42000 162.951
47.43000 172.069
47.44000 180.025
47.45000 174.109
47.46000 167.109
47.47000 161.999
47.48000 164.214
47.49000 167.161
47.50000 168.714
47.51000 166.593
47.52000 164.278
47.53000 162.778
47.54000 157.135
47.55000 152.945
47.56000 152.002
47.57000 154.983
47.58000 157.968
47.59000 159.635
47.60000 160.267
47.61000 160.890
47.62000 164.619
47.63000 169.829
47.64000 174.796
47.65000 175.565
47.66000 174.813
47.67000 173.853
47.68000 170.948
47.69000 167.566
47.70000 164.621
47.71000 165.938
47.72000 167.646
47.73000 168.275
47.74000 164.782
47.75000 160.886
47.76000 159.059
47.77000 162.605
47.78000 166.428
47.79000 168.889
47.80000 175.793
47.81000 180.896
47.82000 181.129
47.83000 175.574
47.84000 170.024
47.85000 168.349
47.86000 169.673
47.87000 170.976
47.88000 171.255
47.89000 171.009
47.90000 170.569
47.91000 166.864
47.92000 161.995
47.93000 157.918
47.94000 161.107
47.95000 166.054
47.96000 170.348
47.97000 170.897
47.98000 170.861
47.99000 170.474
48.00000 168.764
48.01000 166.927
48.02000 164.443
48.03000 160.304
48.04000 156.082
48.05000 153.378
48.06000 158.102
48.07000 161.642
48.08000 165.587
48.09000 170.006
48.10000 174.407
48.11000 174.409
48.12000 171.062
48.13000 167.770
48.14000 167.513
48.15000 168.772
48.16000 169.952
48.17000 169.828
48.18000 169.245
48.19000 168.560
48.20000 166.945
48.21000 165.110
48.22000 163.521
48.23000 166.227
48.24000 169.095
48.25000 170.769
48.26000 168.015
48.27000 164.846
48.28000 163.383
48.29000 166.223
48.30000 169.271
48.31000 171.212
48.32000 171.320
48.33000 171.375
48.34000 168.846
48.35000 163.343
48.36000 157.858
48.37000 156.701
48.38000 158.790
48.39000 160.843
48.40000 163.205
48.41000 165.638
48.42000 167.848
48.43000 166.516
48.44000 163.956
48.45000 161.833
48.46000 163.562
48.47000 166.193
48.48000 168.466
48.49000 167.576
48.50000 166.411
48.51000 165.068
48.52000 163.077
48.53000 161.027
48.54000 160.337
48.55000 163.031
48.56000 165.884
48.57000 167.690
48.58000 173.828
48.59000 178.331
48.60000 178.356
48.61000 173.310
48.62000 168.261
48.63000 163.700
48.64000 159.500
48.65000 155.377
48.66000 154.972
48.67000 156.372
48.68000 157.712
48.69000 158.136
48.70000 158.245
48.71000 158.390
48.72000 158.839
48.73000 159.357
48.74000 159.804
48.75000 158.427
48.76000 157.030
48.77000 156.147
48.78000 157.116
48.79000 158.251
48.80000 159.739
48.81000 162.090
48.82000 164.480
48.83000 165.985
48.84000 162.190
48.85000 159.385
48.86000 158.922
48.87000 161.069
48.88000 163.201
48.89000 162.621
48.90000 160.070
48.91000 157.567
48.92000 158.445
48.93000 160.892
48.94000 163.328
48.95000 165.574
48.96000 167.757
48.97000 169.597
48.98000 168.532
48.99000 166.807
49.00000 165.324
49.01000 160.732
49.02000 156.460
49.03000 152.558
49.04000 149.963
49.05000 147.483
49.06000 146.713
49.07000 150.076
49.08000 153.621
49.09000 155.840
49.10000 158.709
49.11000 160.788
49.12000 161.537
49.13000 160.829
49.14000 160.112
49.15000 158.188
49.16000 155.399
49.17000 152.666
49.18000 155.232
49.19000 160.174
49.20000 164.635
49.21000 162.007
49.22000 157.027
49.23000 152.716
49.24000 153.966
49.25000 156.459
49.26000 158.596
49.27000 156.094
49.28000 153.414
49.29000 152.326
49.30000 156.795
49.31000 161.741
49.32000 164.901
49.33000 163.806
49.34000 162.528
49.35000 161.733
49.36000 162.890
49.37000 163.742
49.38000 163.458
49.39000 161.948
49.40000 160.436
49.41000 158.676
49.42000 156.741
49.43000 154.846
49.44000 156.864
49.45000 160.600
49.46000 164.062
49.47000 163.568
49.48000 161.782
49.49000 160.191
49.50000 160.201
49.51000 160.564
49.52000 160.873
49.53000 163.483
49.54000 165.959
49.55000 168.077
49.56000 168.970
49.57000 169.759
49.58000 168.212
49.59000 161.182
49.60000 153.923
49.61000 149.435
49.62000 152.929
49.63000 155.515
49.64000 157.699
49.65000 159.458
49.66000 161.201
49.67000 161.060
49.68000 159.609
49.69000 158.190
49.70000 157.869
49.71000 158.058
49.72000 158.282
49.73000 159.002
49.74000 159.881
49.75000 160.045
49.76000 154.476
49.77000 147.665
49.78000 141.858
49.79000 150.089
49.80000 158.661
49.81000 165.226
49.82000 164.991
49.83000 164.198
49.84000 163.699
49.85000 163.882
49.86000 164.092
49.87000 164.221
49.88000 160.814
49.89000 158.341
49.90000 156.982
49.91000 156.785
49.92000 156.579
49.93000 155.397
49.94000 153.545
49.95000 151.735
49.96000 150.945
49.97000 150.642
49.98000 150.365
49.99000 150.444
50.00000 150.637
50.01000 150.971
50.02000 152.422
50.03000 154.112
50.04000 155.548
50.05000 159.848
50.06000 163.788
50.07000 167.015
50.08000 167.862
50.09000 168.517
50.10000 167.067
50.11000 160.817
50.12000 154.379
50.13000 150.447
50.14000 161.279
50.15000 169.148
50.16000 170.666
50.17000 165.672
50.18000 160.705
50.19000 158.739
50.20000 158.794
50.21000 158.847
50.22000 157.583
50.23000 155.796
50.24000 154.496
50.25000 159.690
50.26000 166.916
50.27000 172.924
50.28000 169.536
50.29000 164.176
50.30000 159.631
50.31000 163.912
50.32000 168.495
50.33000 171.749
50.34000 170.635
50.35000 169.178
50.36000 168.823
50.37000 170.942
50.38000 173.154
50.39000 174.498
50.40000 179.672
50.41000 183.393
50.42000 184.082
50.43000 181.714
50.44000 179.380
50.45000 180.506
50.46000 183.927
50.47000 187.265
50.48000 191.489
50.49000 195.907
50.50000 200.208
50.51000 202.981
50.52000 205.284
50.53000 208.047
50.54000 214.299
50.55000 221.272
50.56000 227.168
50.57000 230.083
50.58000 232.193
50.59000 233.188
50.60000 230.569
50.61000 227.674
50.62000 228.462
50.63000 237.407
50.64000 246.648
50.65000 252.223
50.66000 255.246
50.67000 257.379
50.68000 257.468
50.69000 255.531
50.70000 253.588
50.71000 251.112
50.72000 248.288
50.73000 245.537
50.74000 249.591
50.75000 256.347
50.76000 262.276
50.77000 257.649
50.78000 249.816
50.79000 242.718
50.80000 241.090
50.81000 240.575
50.82000 240.140
50.83000 238.871
50.84000 237.720
50.85000 236.689
50.86000 236.037
50.87000 235.413
50.88000 233.614
50.89000 229.251
50.90000 224.799
50.91000 222.129
50.92000 223.585
50.93000 224.646
50.94000 224.110
50.95000 222.019
50.96000 219.864
50.97000 212.190
50.98000 200.965
50.99000 190.035
51.00000 187.575
51.01000 188.769
51.02000 190.220
51.03000 194.869
51.04000 200.477
51.05000 204.851
51.06000 200.231
51.07000 193.810
51.08000 188.413
51.09000 181.157
51.10000 174.912
51.11000 170.503
51.12000 171.871
51.13000 173.660
51.14000 173.506
51.15000 169.171
51.16000 164.695
51.17000 162.028
51.18000 157.973
51.19000 155.091
51.20000 155.413
51.21000 158.804
51.22000 162.164
51.23000 162.893
51.24000 161.954
51.25000 161.041
51.26000 161.532
51.27000 162.578
51.28000 163.530
51.29000 163.345
51.30000 162.825
51.31000 162.225
51.32000 161.052
51.33000 159.767
51.34000 158.690
51.35000 162.058
51.36000 165.322
51.37000 166.986
51.38000 163.692
51.39000 160.044
51.40000 156.361
51.41000 152.601
51.42000 148.839
51.43000 146.612
51.44000 154.873
51.45000 160.771
51.46000 161.537
51.47000 157.467
51.48000 153.436
51.49000 152.465
51.50000 153.404
51.51000 154.317
51.52000 155.894
51.53000 157.662
51.54000 158.956
51.55000 154.624
51.56000 148.657
51.57000 143.185
51.58000 141.196
51.59000 139.881
51.60000 138.782
51.61000 144.198
51.62000 149.358
51.63000 153.043
51.64000 152.220
51.65000 151.085
51.66000 150.043
51.67000 149.196
51.68000 148.355
51.69000 147.860
51.70000 151.791
51.71000 154.584
51.72000 154.692
51.73000 152.311
51.74000 149.957
51.75000 149.640
51.76000 150.577
51.77000 151.486
51.78000 149.209
51.79000 145.781
51.80000 142.725
51.81000 143.994
51.82000 146.502
51.83000 148.500
51.84000 146.974
51.85000 144.777
51.86000 142.945
51.87000 147.265
51.88000 151.458
51.89000 154.423
51.90000 153.694
51.91000 152.713
51.92000 152.893
51.93000 155.462
51.94000 158.102
51.95000 159.645
51.96000 156.041
51.97000 153.482
51.98000 153.103
51.99000 154.712
52.00000 156.295
52.01000 156.082
52.02000 154.780
52.03000 153.518
52.04000 150.522
52.05000 147.005
52.06000 143.785
52.07000 143.938
52.08000 145.042
52.09000 146.422
52.10000 149.664
52.11000 153.256
52.12000 156.241
52.13000 157.281
52.14000 157.953
52.15000 157.029
52.16000 151.371
52.17000 145.401
52.18000 141.738
52.19000 142.760
52.20000 143.919
52.21000 144.591
52.22000 139.772
52.23000 136.370
52.24000 137.784
52.25000 143.517
52.26000 149.160
52.27000 149.019
52.28000 145.422
52.29000 141.938
52.30000 144.115
52.31000 148.358
52.32000 152.067
52.33000 149.839
52.34000 145.961
52.35000 142.822
52.36000 144.614
52.37000 147.315
52.38000 149.554
52.39000 149.420
52.40000 149.084
52.41000 148.629
52.42000 147.825
52.43000 146.999
52.44000 146.512
52.45000 146.702
52.46000 146.912
52.47000 147.033
52.48000 143.062
52.49000 140.265
52.50000 136.961
52.51000 133.207
52.52000 129.525
52.53000 130.130
52.54000 133.259
52.55000 136.285
52.56000 135.868
52.57000 134.168
52.58000 132.814
52.59000 135.244
52.60000 138.710
52.61000 141.660
52.62000 141.239
52.63000 140.205
52.64000 139.351
52.65000 139.660
52.66000 140.023
52.67000 140.839
52.68000 142.964
52.69000 145.172
52.70000 146.142
52.71000 144.671
52.72000 143.136
52.73000 142.257
52.74000 140.541
52.75000 139.341
52.76000 139.638
52.77000 141.232
52.78000 142.731
52.79000 138.722
52.80000 131.518
52.81000 124.557
52.82000 131.838
52.83000 144.025
52.84000 154.954
52.85000 152.476
52.86000 146.381
52.87000 141.734
52.88000 146.410
52.89000 152.750
52.90000 157.970
52.91000 153.250
52.92000 148.458
52.93000 144.499
52.94000 142.905
52.95000 141.455
52.96000 139.834
52.97000 137.881
52.98000 135.918
52.99000 134.803
53.00000 137.809
53.01000 139.919
53.02000 143.714
53.03000 148.948
53.04000 154.041
53.05000 151.466
53.06000 144.510
53.07000 137.795
53.08000 139.571
53.09000 144.366
53.10000 148.683
53.11000 148.004
53.12000 145.999
53.13000 143.790
53.14000 140.293
53.15000 136.570
53.16000 133.514
53.17000 138.453
53.18000 143.222
53.19000 147.403
53.20000 149.938
53.21000 152.374
53.22000 153.595
53.23000 152.488
53.24000 151.324
53.25000 150.666
53.26000 152.759
53.27000 154.218
53.28000 154.250
53.29000 153.083
53.30000 151.941
53.31000 152.048
53.32000 152.860
53.33000 153.642
53.34000 156.156
53.35000 159.147
53.36000 161.551
53.37000 157.962
53.38000 152.804
53.39000 148.978
53.40000 153.425
53.41000 159.301
53.42000 164.109
53.43000 159.802
53.44000 155.476
53.45000 151.962
53.46000 150.688
53.47000 149.544
53.48000 149.559
53.49000 151.760
53.50000 154.012
53.51000 155.275
53.52000 153.511
53.53000 152.283
53.54000 152.213
53.55000 153.101
53.56000 153.963
53.57000 153.584
53.58000 152.516
53.59000 151.487
53.60000 152.804
53.61000 154.875
53.62000 156.683
53.63000 155.863
53.64000 154.366
53.65000 152.722
53.66000 150.182
53.67000 147.489
53.68000 145.293
53.69000 146.057
53.70000 146.936
53.71000 146.804
53.72000 143.926
53.73000 140.892
53.74000 140.381
53.75000 144.565
53.76000 148.853
53.77000 151.240
53.78000 143.299
53.79000 137.802
53.80000 138.522
53.81000 144.305
53.82000 149.929
53.83000 148.131
53.84000 142.274
53.85000 136.641
53.86000 133.290
53.87000 130.948
53.88000 129.222
53.89000 133.528
53.90000 139.365
53.91000 144.445
53.92000 144.974
53.93000 144.744
53.94000 144.556
53.95000 146.212
53.96000 147.717
53.97000 148.303
53.98000 146.424
53.99000 144.410
54.00000 144.033
54.01000 146.656
54.02000 149.344
54.03000 150.829
54.04000 145.353
54.05000 141.566
54.06000 138.829
54.07000 136.932
54.08000 135.046
54.09000 133.652
54.10000 132.523
54.11000 131.439
54.12000 136.254
54.13000 142.794
54.14000 149.049
54.15000 152.563
54.16000 155.392
54.17000 157.262
54.18000 153.466
54.19000 148.741
54.20000 144.910
54.21000 144.055
54.22000 143.602
54.23000 142.872
54.24000 141.412
54.25000 139.913
54.26000 138.554
54.27000 137.449
54.28000 136.350
54.29000 135.746
54.30000 147.368
54.31000 155.349
54.32000 153.344
54.33000 143.465
54.34000 133.805
54.35000 133.549
54.36000 138.285
54.37000 142.829
54.38000 141.076
54.39000 137.301
54.40000 133.929
54.41000 134.349
54.42000 135.703
54.43000 137.143
54.44000 139.082
54.45000 141.102
54.46000 142.733
54.47000 140.762
54.48000 138.871
54.49000 138.352
54.50000 141.405
54.51000 144.644
54.52000 146.171
54.53000 144.648
54.54000 143.066
54.55000 142.205
54.56000 141.660
54.57000 141.287
54.58000 141.129
54.59000 141.139
54.60000 141.199
54.61000 143.382
54.62000 146.675
54.63000 149.830
54.64000 145.997
54.65000 140.088
54.66000 134.662
54.67000 133.690
54.68000 133.798
54.69000 133.830
54.70000 133.425
54.71000 132.951
54.72000 132.570
54.73000 135.622
54.74000 138.368
54.75000 142.072
54.76000 148.237
54.77000 154.525
54.78000 158.315
54.79000 157.721
54.80000 157.046
54.81000 156.681
54.82000 154.039
54.83000 152.226
54.84000 149.973
54.85000 147.385
54.86000 144.833
54.87000 143.687
54.88000 143.268
54.89000 142.867
54.90000 144.701
54.91000 147.143
54.92000 149.184
54.93000 147.591
54.94000 145.130
54.95000 143.165
54.96000 143.983
54.97000 145.235
54.98000 146.241
54.99000 145.173
55.00000 144.150
55.01000 143.231
55.02000 142.574
55.03000 141.929
55.04000 142.439
55.05000 144.945
55.06000 147.486
55.07000 148.849
55.08000 151.375
55.09000 153.085
55.10000 151.670
55.11000 147.903
55.12000 144.271
55.13000 145.701
55.14000 149.704
55.15000 153.530
55.16000 149.642
55.17000 143.532
55.18000 138.689
55.19000 145.067
55.20000 154.083
55.21000 160.892
55.22000 155.501
55.23000 148.242
55.24000 142.435
55.25000 144.246
55.26000 146.278
55.27000 148.398
55.28000 150.737
55.29000 153.087
55.30000 154.441
55.31000 154.098
55.32000 153.728
55.33000 153.531
55.34000 158.115
55.35000 161.238
55.36000 164.087
55.37000 166.733
55.38000 169.321
55.39000 169.823
55.40000 169.280
55.41000 168.761
55.42000 166.840
55.43000 164.609
55.44000 163.467
55.45000 171.786
55.46000 182.296
55.47000 191.165
55.48000 191.114
55.49000 189.721
55.50000 188.611
55.51000 191.156
55.52000 193.475
55.53000 196.063
55.54000 199.311
55.55000 202.589
55.56000 205.011
55.57000 205.998
55.58000 206.961
55.59000 207.470
55.60000 224.566
55.61000 236.167
55.62000 244.990
55.63000 251.787
55.64000 258.603
55.65000 266.095
55.66000 273.921
55.67000 281.380
55.68000 290.186
55.69000 298.772
55.70000 307.961
55.71000 322.284
55.72000 337.778
55.73000 351.785
55.74000 357.844
55.75000 362.728
55.76000 366.609
55.77000 390.799
55.78000 411.723
55.79000 428.502
55.80000 435.239
55.81000 441.528
55.82000 452.583
55.83000 471.518
55.84000 490.571
55.85000 500.554
55.86000 510.682
55.87000 517.577
55.88000 529.844
55.89000 545.971
55.90000 561.764
55.91000 566.392
55.92000 565.587
55.93000 564.822
55.94000 572.953
55.95000 583.221
55.96000 592.944
55.97000 598.112
55.98000 602.258
55.99000 604.889
56.00000 599.556
56.01000 593.067
56.02000 587.929
56.03000 585.254
56.04000 583.275
56.05000 578.609
56.06000 567.526
56.07000 556.165
56.08000 543.219
56.09000 527.691
56.10000 512.126
56.11000 504.036
56.12000 488.608
56.13000 478.126
56.14000 459.357
56.15000 434.727
56.16000 410.362
56.17000 394.550
56.18000 382.839
56.19000 371.708
56.20000 364.432
56.21000 358.876
56.22000 353.286
56.23000 347.413
56.24000 341.478
56.25000 334.589
56.26000 322.762
56.27000 310.232
56.28000 300.345
56.29000 285.621
56.30000 273.481
56.31000 261.629
56.32000 250.453
56.33000 239.304
56.34000 232.495
56.35000 232.649
56.36000 232.895
56.37000 233.022
56.38000 222.215
56.39000 214.947
56.40000 209.324
56.41000 204.847
56.42000 200.470
56.43000 199.164
56.44000 199.311
56.45000 199.450
56.46000 197.472
56.47000 195.014
56.48000 192.535
56.49000 189.875
56.50000 187.177
56.51000 184.396
56.52000 181.194
56.53000 177.934
56.54000 175.371
56.55000 172.603
56.56000 170.373
56.57000 168.566
56.58000 167.740
56.59000 166.954
56.60000 164.772
56.61000 160.384
56.62000 155.968
56.63000 153.709
56.64000 153.477
56.65000 153.311
56.66000 151.974
56.67000 149.834
56.68000 147.788
56.69000 148.546
56.70000 150.610
56.71000 152.566
56.72000 153.856
56.73000 154.850
56.74000 155.972
56.75000 158.111
56.76000 160.468
56.77000 161.426
56.78000 155.379
56.79000 148.368
56.80000 142.875
56.81000 142.980
56.82000 143.423
56.83000 143.779
56.84000 143.933
56.85000 144.080
56.86000 144.105
56.87000 143.942
56.88000 143.777
56.89000 143.694
56.90000 145.213
56.91000 146.204
56.92000 144.303
56.93000 140.447
56.94000 136.670
56.95000 135.178
56.96000 134.735
56.97000 134.316
56.98000 135.894
56.99000 137.922
57.00000 139.935
57.01000 141.832
57.02000 143.704
57.03000 145.348
57.04000 145.868
57.05000 146.235
57.06000 146.522
57.07000 144.209
57.08000 142.200
57.09000 139.977
57.10000 137.272
57.11000 134.548
57.12000 132.673
57.13000 132.100
57.14000 131.541
57.15000 131.260
57.16000 130.712
57.17000 130.366
57.18000 131.992
57.19000 134.932
57.20000 137.835
57.21000 139.731
57.22000 141.173
57.23000 142.534
57.24000 139.064
57.25000 134.504
57.26000 130.642
57.27000 132.075
57.28000 134.605
57.29000 136.774
57.30000 137.184
57.31000 137.360
57.32000 137.498
57.33000 136.648
57.34000 135.910
57.35000 136.311
57.36000 139.241
57.37000 142.263
57.38000 142.817
57.39000 139.642
57.40000 136.429
57.41000 133.504
57.42000 130.866
57.43000 128.231
57.44000 125.940
57.45000 123.874
57.46000 121.805
57.47000 119.668
57.48000 117.500
57.49000 115.455
57.50000 120.084
57.51000 126.191
57.52000 131.508
57.53000 130.921
57.54000 129.128
57.55000 128.178
57.56000 131.248
57.57000 134.841
57.58000 137.625
57.59000 131.952
57.60000 126.940
57.61000 124.337
57.62000 127.009
57.63000 129.867
57.64000 130.067
57.65000 126.313
57.66000 122.520
57.67000 121.655
57.68000 123.654
57.69000 125.632
57.70000 125.778
57.71000 124.742
57.72000 123.786
57.73000 124.905
57.74000 126.937
57.75000 128.852
57.76000 128.866
57.77000 128.358
57.78000 128.027
57.79000 128.995
57.80000 130.225
57.81000 131.072
57.82000 130.120
57.83000 128.938
57.84000 128.026
57.85000 131.437
57.86000 134.392
57.87000 136.100
57.88000 135.111
57.89000 134.031
57.90000 131.317
57.91000 126.206
57.92000 121.075
57.93000 119.573
57.94000 121.561
57.95000 123.553
57.96000 125.853
57.97000 128.348
57.98000 130.709
57.99000 129.704
58.00000 127.242
58.01000 124.925
58.02000 122.623
58.03000 120.524
58.04000 119.257
58.05000 123.976
58.06000 129.879
58.07000 135.158
58.08000 137.557
58.09000 139.595
58.10000 141.162
58.11000 136.221
58.12000 131.942
58.13000 128.957
58.14000 128.724
58.15000 128.581
58.16000 127.880
58.17000 126.371
58.18000 124.855
58.19000 123.419
58.20000 122.057
58.21000 120.720
58.22000 121.275
58.23000 123.015
58.24000 124.782
58.25000 127.164
58.26000 129.809
58.27000 132.293
58.28000 129.667
58.29000 125.914
58.30000 122.564
58.31000 122.061
58.32000 122.111
58.33000 122.550
58.34000 124.757
58.35000 127.182
58.36000 129.039
58.37000 125.708
58.38000 122.791
58.39000 120.514
58.40000 119.579
58.41000 118.687
58.42000 119.482
58.43000 122.674
58.44000 125.883
58.45000 127.070
58.46000 126.375
58.47000 125.668
58.48000 124.103
58.49000 122.008
58.50000 119.906
58.51000 117.618
58.52000 115.253
58.53000 113.036
58.54000 119.486
58.55000 127.628
58.56000 134.672
58.57000 134.101
58.58000 132.073
58.59000 130.158
58.60000 128.752
58.61000 127.408
58.62000 126.382
58.63000 127.164
58.64000 127.877
58.65000 127.411
58.66000 124.510
58.67000 121.534
58.68000 121.545
58.69000 125.739
58.70000 129.961
58.71000 130.485
58.72000 127.629
58.73000 124.819
58.74000 125.169
58.75000 127.443
58.76000 129.433
58.77000 124.984
58.78000 117.863
58.79000 111.196
58.80000 111.634
58.81000 113.859
58.82000 116.046
58.83000 117.972
58.84000 119.850
58.85000 121.140
58.86000 119.839
58.87000 118.231
58.88000 117.008
58.89000 120.779
58.90000 124.007
58.91000 126.741
58.92000 128.470
58.93000 130.169
58.94000 129.980
58.95000 127.187
58.96000 124.378
58.97000 122.620
58.98000 121.807
58.99000 121.006
59.00000 120.973
59.01000 121.400
59.02000 121.795
59.03000 121.478
59.04000 120.870
59.05000 120.302
59.06000 121.859
59.07000 123.811
59.08000 125.406
59.09000 124.618
59.10000 123.388
59.11000 122.582
59.12000 123.618
59.13000 124.867
59.14000 125.813
59.15000 128.377
59.16000 130.471
59.17000 130.945
59.18000 128.165
59.19000 125.293
59.20000 123.194
59.21000 122.141
59.22000 121.095
59.23000 121.109
59.24000 122.060
59.25000 122.986
59.26000 122.363
59.27000 120.827
59.28000 119.381
59.29000 119.848
59.30000 121.086
59.31000 122.242
59.32000 122.910
59.33000 123.394
59.34000 123.847
59.35000 124.098
59.36000 124.313
59.37000 123.827
59.38000 120.347
59.39000 116.527
59.40000 113.644
59.41000 117.515
59.42000 120.883
59.43000 120.774
59.44000 113.786
59.45000 106.612
59.46000 105.768
59.47000 113.385
59.48000 121.040
59.49000 122.271
59.50000 117.912
59.51000 113.625
59.52000 113.463
59.53000 115.701
59.54000 117.858
59.55000 118.329
59.56000 118.130
59.57000 117.944
59.58000 117.859
59.59000 117.806
59.60000 117.820
59.61000 118.268
59.62000 118.794
59.63000 118.909
59.64000 117.294
59.65000 115.486
59.66000 114.127
59.67000 119.697
59.68000 124.385
59.69000 126.915
59.70000 125.241
59.71000 123.457
59.72000 120.303
59.73000 115.346
59.74000 110.385
59.75000 112.626
59.76000 121.023
59.77000 129.327
59.78000 132.496
59.79000 132.721
59.80000 132.693
59.81000 127.582
59.82000 120.480
59.83000 113.876
59.84000 116.041
59.85000 120.106
59.86000 123.392
59.87000 121.726
59.88000 119.187
59.89000 116.457
59.90000 112.934
59.91000 109.325
59.92000 106.623
59.93000 111.761
59.94000 116.137
59.95000 118.838
59.96000 118.324
59.97000 117.729
59.98000 119.171
59.99000 123.253
60.00000 127.342
60.01000 128.346
60.02000 126.753
60.03000 125.175
60.04000 124.355
60.05000 123.963
60.06000 123.418
60.07000 119.877
60.08000 115.179
60.09000 110.817
60.10000 108.762
60.11000 107.456
60.12000 106.401
60.13000 106.919
60.14000 107.709
60.15000 109.634
60.16000 116.197
60.17000 123.257
60.18000 128.521
60.19000 120.435
60.20000 113.532
60.21000 110.439
60.22000 114.559
60.23000 118.850
60.24000 120.560
60.25000 118.977
60.26000 117.384
60.27000 116.278
60.28000 115.579
60.29000 114.917
60.30000 116.165
60.31000 118.474
60.32000 120.626
60.33000 119.791
60.34000 117.818
60.35000 115.990
60.36000 116.266
60.37000 117.004
60.38000 117.506
60.39000 116.566
60.40000 115.380
60.41000 115.048
60.42000 118.148
60.43000 121.609
60.44000 124.178
60.45000 117.283
60.46000 111.506
60.47000 107.918
60.48000 108.415
60.49000 109.004
60.50000 112.821
60.51000 120.691
60.52000 128.562
60.53000 130.038
60.54000 126.301
60.55000 122.618
60.56000 121.456
60.57000 121.676
60.58000 121.822
60.59000 120.591
60.60000 118.844
60.61000 117.227
60.62000 118.951
60.63000 121.264
60.64000 123.009
60.65000 121.328
60.66000 119.073
60.67000 117.841
60.68000 120.662
60.69000 123.901
60.70000 126.296
60.71000 123.056
60.72000 120.302
60.73000 118.143
60.74000 117.078
60.75000 116.036
60.76000 116.124
60.77000 117.609
60.78000 119.095
60.79000 118.746
60.80000 116.930
60.81000 115.213
60.82000 117.943
60.83000 123.076
60.84000 127.912
60.85000 127.418
60.86000 124.953
60.87000 122.677
60.88000 123.229
60.89000 124.361
60.90000 125.198
60.91000 124.285
60.92000 123.083
60.93000 121.359
60.94000 117.593
60.95000 113.622
60.96000 110.697
60.97000 116.073
60.98000 120.578
60.99000 122.546
61.00000 119.914
61.01000 117.186
61.02000 116.471
61.03000 118.202
61.04000 119.935
61.05000 123.295
61.06000 127.921
61.07000 132.452
61.08000 132.895
61.09000 131.162
61.10000 129.363
61.11000 126.437
61.12000 123.098
61.13000 120.022
61.14000 118.017
61.15000 116.459
61.16000 115.816
61.17000 120.503
61.18000 126.053
61.19000 129.792
61.20000 126.567
61.21000 122.654
61.22000 119.785
61.23000 122.922
61.24000 125.587
61.25000 126.582
61.26000 124.594
61.27000 122.547
61.28000 121.730
61.29000 122.386
61.30000 123.044
61.31000 122.947
61.32000 122.266
61.33000 121.599
61.34000 121.522
61.35000 121.756
61.36000 122.128
61.37000 124.841
61.38000 128.396
61.39000 131.667
61.40000 131.413
61.41000 130.420
61.42000 130.662
61.43000 137.980
61.44000 146.425
61.45000 152.854
61.46000 151.654
61.47000 149.718
61.48000 148.304
61.49000 149.285
61.50000 150.136
61.51000 158.541
61.52000 180.240
61.53000 202.189
61.54000 223.126
61.55000 242.872
61.56000 262.569
61.57000 287.269
61.58000 315.633
61.59000 343.833
61.60000 365.561
61.61000 383.940
61.62000 402.051
61.63000 415.724
61.64000 427.828
61.65000 438.943
61.66000 446.820
61.67000 453.156
61.68000 458.825
61.69000 460.738
61.70000 462.064
61.71000 462.600
61.72000 460.193
61.73000 457.508
61.74000 455.556
61.75000 439.286
61.76000 426.227
61.77000 408.357
61.78000 382.144
61.79000 355.783
61.80000 332.598
61.81000 313.094
61.82000 293.648
61.83000 272.580
61.84000 250.438
61.85000 228.394
61.86000 210.061
61.87000 193.619
61.88000 177.518
61.89000 166.885
61.90000 158.160
61.91000 150.162
61.92000 144.647
61.93000 140.257
61.94000 136.332
61.95000 134.984
61.96000 134.033
61.97000 133.891
61.98000 136.721
61.99000 139.826
62.00000 142.074
62.01000 141.667
62.02000 141.258
62.03000 141.170
62.04000 141.631
62.05000 142.102
62.06000 141.066
62.07000 138.311
62.08000 135.563
62.09000 134.664
62.10000 135.137
62.11000 135.636
62.12000 137.115
62.13000 139.085
62.14000 140.866
62.15000 139.679
62.16000 137.472
62.17000 135.453
62.18000 127.593
62.19000 119.397
62.20000 113.835
62.21000 122.635
62.22000 133.604
62.23000 142.474
62.24000 143.746
62.25000 144.330
62.26000 144.750
62.27000 143.662
62.28000 142.775
62.29000 141.861
62.30000 140.900
62.31000 139.939
62.32000 139.764
62.33000 140.472
62.34000 141.178
62.35000 137.034
62.36000 129.404
62.37000 122.088
62.38000 125.722
62.39000 134.781
62.40000 143.171
62.41000 141.355
62.42000 136.082
62.43000 131.266
62.44000 133.441
62.45000 136.790
62.46000 140.024
62.47000 142.638
62.48000 145.161
62.49000 146.347
62.50000 142.769
62.51000 138.770
62.52000 135.900
62.53000 140.541
62.54000 144.348
62.55000 147.114
62.56000 148.154
62.57000 149.169
62.58000 147.476
62.59000 142.794
62.60000 138.128
62.61000 135.924
62.62000 135.499
62.63000 135.131
62.64000 136.680
62.65000 139.165
62.66000 141.478
62.67000 141.224
62.68000 140.113
62.69000 139.101
62.70000 139.644
62.71000 140.436
62.72000 140.840
62.73000 139.199
62.74000 137.261
62.75000 135.657
62.76000 135.229
62.77000 134.902
62.78000 134.669
62.79000 142.060
62.80000 147.953
62.81000 150.865
62.82000 148.904
62.83000 146.873
62.84000 146.378
62.85000 147.552
62.86000 148.721
62.87000 146.337
62.88000 141.479
62.89000 136.732
62.90000 135.587
62.91000 136.176
62.92000 136.830
62.93000 138.441
62.94000 140.367
62.95000 142.118
62.96000 139.735
62.97000 136.816
62.98000 134.570
62.99000 135.819
63.00000 137.569
63.01000 139.134
63.02000 140.058
63.03000 140.928
63.04000 141.547
63.05000 142.656
63.06000 143.517
63.07000 146.073
63.08000 151.359
63.09000 156.681
63.10000 157.086
63.11000 152.239
63.12000 147.413
63.13000 142.759
63.14000 138.276
63.15000 133.988
63.16000 135.809
63.17000 140.526
63.18000 144.905
63.19000 144.498
63.20000 142.540
63.21000 140.762
63.22000 143.641
63.23000 147.080
63.24000 149.776
63.25000 148.674
63.26000 147.038
63.27000 145.292
63.28000 143.171
63.29000 141.020
63.30000 139.497
63.31000 141.684
63.32000 143.460
63.33000 144.821
63.34000 145.523
63.35000 146.216
63.36000 144.607
63.37000 140.580
63.38000 136.572
63.39000 137.088
63.40000 140.677
63.41000 144.092
63.42000 142.291
63.43000 138.054
63.44000 134.140
63.45000 134.698
63.46000 136.685
63.47000 138.485
63.48000 138.734
63.49000 138.659
63.50000 138.960
63.51000 141.143
63.52000 143.586
63.53000 145.089
63.54000 143.436
63.55000 141.527
63.56000 140.182
63.57000 145.242
63.58000 149.271
63.59000 150.805
63.60000 148.442
63.61000 146.032
63.62000 145.079
63.63000 145.632
63.64000 146.182
63.65000 146.664
63.66000 147.095
63.67000 147.597
63.68000 150.160
63.69000 153.672
63.70000 156.875
63.71000 155.897
63.72000 153.603
63.73000 151.529
63.74000 150.396
63.75000 149.575
63.76000 148.683
63.77000 147.439
63.78000 146.147
63.79000 145.323
63.80000 146.050
63.81000 146.899
63.82000 147.495
63.83000 148.083
63.84000 148.528
63.85000 148.656
63.86000 148.294
63.87000 147.927
63.88000 147.340
63.89000 146.529
63.90000 145.723
63.91000 145.109
63.92000 144.631
63.93000 144.244
63.94000 146.393
63.95000 149.694
63.96000 152.773
63.97000 152.939
63.98000 152.201
63.99000 151.535
64.00000 148.809
64.01000 146.038
64.02000 144.187
64.03000 146.816
64.04000 150.041
64.05000 153.403
64.06000 157.210
64.07000 161.052
64.08000 163.734
64.09000 161.721
64.10000 160.071
64.11000 159.914
64.12000 162.021
64.13000 164.152
64.14000 162.218
64.15000 156.226
64.16000 150.272
64.17000 151.124
64.18000 156.378
64.19000 161.607
64.20000 166.169
64.21000 170.432
64.22000 174.056
64.23000 169.463
64.24000 162.356
64.25000 155.958
64.26000 159.020
64.27000 163.404
64.28000 167.234
64.29000 168.410
64.30000 169.240
64.31000 168.947
64.32000 165.041
64.33000 160.861
64.34000 157.959
64.35000 161.985
64.36000 165.205
64.37000 167.128
64.38000 167.116
64.39000 167.085
64.40000 168.622
64.41000 171.698
64.42000 174.753
64.43000 174.198
64.44000 171.348
64.45000 168.604
64.46000 168.616
64.47000 169.845
64.48000 171.326
64.49000 175.972
64.50000 181.571
64.51000 186.601
64.52000 182.864
64.53000 178.047
64.54000 174.765
64.55000 178.724
64.56000 183.612
64.57000 186.559
64.58000 183.358
64.59000 179.704
64.60000 177.178
64.61000 176.874
64.62000 176.703
64.63000 177.624
64.64000 180.149
64.65000 182.688
64.66000 184.997
64.67000 187.085
64.68000 189.158
64.69000 189.429
64.70000 188.564
64.71000 187.759
64.72000 188.470
64.73000 189.839
64.74000 191.081
64.75000 190.751
64.76000 189.954
64.77000 189.240
64.78000 184.737
64.79000 180.146
64.80000 178.103
64.81000 187.882
64.82000 199.147
64.83000 207.111
64.84000 204.769
64.85000 201.684
64.86000 199.562
64.87000 199.884
64.88000 200.186
64.89000 200.298
64.90000 200.135
64.91000 199.969
64.92000 200.393
64.93000 201.376
64.94000 202.351
64.95000 205.006
64.96000 208.653
64.97000 212.099
64.98000 210.624
64.99000 207.040
65.00000 203.808
65.01000 204.798
65.02000 207.023
65.03000 209.013
65.04000 215.048
65.05000 220.999
65.06000 226.171
65.07000 227.787
65.08000 228.963
65.09000 230.390
65.10000 232.587
65.11000 234.837
65.12000 236.378
65.13000 249.158
65.14000 258.995
65.15000 263.461
65.16000 260.263
65.17000 257.009
65.18000 259.334
65.19000 266.869
65.20000 274.340
65.21000 277.369
65.22000 277.640
65.23000 278.042
65.24000 281.547
65.25000 286.363
65.26000 291.509
65.27000 300.534
65.28000 310.677
65.29000 319.729
65.30000 317.291
65.31000 313.247
65.32000 311.453
65.33000 319.776
65.34000 329.325
65.35000 338.766
65.36000 347.879
65.37000 356.970
65.38000 363.163
65.39000 373.702
65.40000 381.676
65.41000 389.222
65.42000 396.167
65.43000 403.110
65.44000 415.170
65.45000 431.926
65.46000 448.534
65.47000 455.933
65.48000 457.678
65.49000 459.811
65.50000 470.814
65.51000 485.509
65.52000 500.036
65.53000 512.623
65.54000 524.660
65.55000 535.379
65.56000 550.763
65.57000 564.895
65.58000 580.746
65.59000 604.200
65.60000 628.558
65.61000 654.005
65.62000 682.708
65.63000 711.629
65.64000 731.231
65.65000 777.703
65.66000 812.943
65.67000 880.063
65.68000 991.291
65.69000 1102.808
65.70000 1228.502
65.71000 1367.002
65.72000 1504.192
65.73000 1703.534
65.74000 1935.419
65.75000 2166.054
65.76000 2369.027
65.77000 2560.649
65.78000 2751.314
65.79000 2931.227
65.80000 3108.133
65.81000 3265.312
65.82000 3370.341
65.83000 3453.029
65.84000 3524.080
65.85000 3544.408
65.86000 3558.823
65.87000 3567.693
65.88000 3560.237
65.89000 3551.719
65.90000 3545.974
65.91000 3481.939
65.92000 3433.068
65.93000 3342.195
65.94000 3194.101
65.95000 3045.645
65.96000 2860.582
65.97000 2642.992
65.98000 2427.588
65.99000 2196.845
66.00000 1962.168
66.01000 1729.739
66.02000 1545.607
66.03000 1381.008
66.04000 1219.858
66.05000 1096.602
66.06000 983.788
66.07000 883.783
66.08000 811.265
66.09000 752.831
66.10000 699.577
66.11000 668.550
66.12000 640.063
66.13000 615.131
66.14000 600.512
66.15000 586.547
66.16000 577.178
66.17000 569.855
66.18000 564.460
66.19000 561.541
66.20000 561.945
66.21000 562.370
66.22000 567.126
66.23000 575.667
66.24000 584.116
66.25000 595.905
66.26000 609.333
66.27000 623.766
66.28000 659.148
66.29000 702.881
66.30000 746.017
66.31000 782.728
66.32000 817.695
66.33000 848.621
66.34000 884.059
66.35000 915.386
66.36000 946.049
66.37000 973.909
66.38000 1001.455
66.39000 1020.326
66.40000 1014.393
66.41000 1006.926
66.42000 1001.942
66.43000 1009.162
66.44000 1014.748
66.45000 1008.675
66.46000 987.204
66.47000 965.660
66.48000 942.746
66.49000 918.653
66.50000 894.832
66.51000 866.303
66.52000 835.807
66.53000 805.214
66.54000 772.655
66.55000 739.323
66.56000 705.414
66.57000 665.440
66.58000 623.843
66.59000 587.139
66.60000 564.442
66.61000 546.999
66.62000 529.404
66.63000 511.176
66.64000 492.879
66.65000 480.962
66.66000 487.022
66.67000 494.165
66.68000 498.908
66.69000 490.082
66.70000 483.306
66.71000 478.733
66.72000 477.023
66.73000 475.326
66.74000 474.105
66.75000 473.288
66.76000 472.482
66.77000 475.795
66.78000 481.304
66.79000 486.401
66.80000 483.400
66.81000 477.262
66.82000 472.078
66.83000 476.716
66.84000 483.941
66.85000 490.301
66.86000 495.154
66.87000 499.106
66.88000 500.860
66.89000 493.601
66.90000 485.372
66.91000 481.290
66.92000 488.726
66.93000 496.838
66.94000 502.195
66.95000 496.086
66.96000 491.376
66.97000 491.578
66.98000 498.064
66.99000 504.561
67.00000 504.663
67.01000 499.439
67.02000 494.281
67.03000 490.850
67.04000 488.448
67.05000 486.474
67.06000 492.668
67.07000 501.980
67.08000 510.766
67.09000 514.252
67.10000 516.363
67.11000 518.217
67.12000 519.821
67.13000 521.163
67.14000 522.662
67.15000 524.790
67.16000 526.984
67.17000 526.494
67.18000 518.653
67.19000 510.392
67.20000 504.965
67.21000 510.909
67.22000 515.475
67.23000 517.027
67.24000 514.780
67.25000 512.540
67.26000 518.053
67.27000 529.921
67.28000 541.632
67.29000 545.662
67.30000 545.472
67.31000 545.130
67.32000 541.990
67.33000 537.796
67.34000 534.354
67.35000 538.336
67.36000 544.215
67.37000 549.365
67.38000 551.635
67.39000 553.166
67.40000 554.315
67.41000 553.947
67.42000 553.422
67.43000 553.305
67.44000 554.290
67.45000 555.336
67.46000 556.020
67.47000 561.065
67.48000 564.839
67.49000 568.245
67.50000 571.192
67.51000 574.142
67.52000 578.676
67.53000 584.488
67.54000 590.218
67.55000 589.896
67.56000 586.393
67.57000 583.147
67.58000 584.529
67.59000 587.627
67.60000 590.954
67.61000 596.498
67.62000 602.601
67.63000 607.934
67.64000 608.018
67.65000 607.348
67.66000 606.261
67.67000 603.542
67.68000 600.658
67.69000 598.127
67.70000 596.533
67.71000 594.990
67.72000 593.987
67.73000 603.706
67.74000 610.991
67.75000 613.571
67.76000 610.406
67.77000 607.238
67.78000 606.988
67.79000 609.057
67.80000 611.095
67.81000 616.799
67.82000 624.234
67.83000 631.357
67.84000 632.990
67.85000 632.616
67.86000 632.542
67.87000 635.306
67.88000 638.775
67.89000 641.799
67.90000 634.385
67.91000 626.597
67.92000 624.119
67.93000 642.115
67.94000 662.142
67.95000 677.942
67.96000 682.666
67.97000 686.808
67.98000 689.485
67.99000 679.616
68.00000 672.218
68.01000 670.118
68.02000 674.384
68.03000 678.676
68.04000 686.506
68.05000 697.103
68.06000 707.535
68.07000 702.290
68.08000 689.204
68.09000 676.967
68.10000 679.223
68.11000 686.701
68.12000 693.839
68.13000 697.818
68.14000 701.025
68.15000 703.814
68.16000 709.031
68.17000 713.813
68.18000 720.423
68.19000 733.973
68.20000 748.198
68.21000 758.730
68.22000 759.724
68.23000 760.231
68.24000 760.557
68.25000 760.587
68.26000 760.604
68.27000 763.985
68.28000 771.343
68.29000 778.721
68.30000 789.273
68.31000 802.268
68.32000 815.052
68.33000 815.191
68.34000 808.972
68.35000 803.622
68.36000 812.706
68.37000 826.914
68.38000 841.070
68.39000 854.738
68.40000 868.290
68.41000 880.046
68.42000 883.774
68.43000 885.875
68.44000 888.995
68.45000 895.923
68.46000 903.212
68.47000 913.671
68.48000 932.198
68.49000 951.124
68.50000 963.220
68.51000 967.070
68.52000 969.765
68.53000 987.093
68.54000 1021.446
68.55000 1055.809
68.56000 1087.530
68.57000 1117.249
68.58000 1146.463
68.59000 1185.754
68.60000 1228.723
68.61000 1272.084
68.62000 1321.799
68.63000 1373.736
68.64000 1427.101
68.65000 1493.222
68.66000 1562.362
68.67000 1622.188
68.68000 1702.637
68.69000 1773.734
68.70000 1851.769
68.71000 1955.376
68.72000 2061.363
68.73000 2159.102
68.74000 2236.142
68.75000 2312.187
68.76000 2360.512
68.77000 2494.318
68.78000 2592.552
68.79000 2690.113
68.80000 2786.901
68.81000 2883.854
68.82000 3012.536
68.83000 3164.886
68.84000 3314.527
68.85000 3532.813
68.86000 3776.984
68.87000 4029.661
68.88000 4416.401
68.89000 4849.377
68.90000 5333.778
68.91000 6268.450
68.92000 7308.083
68.93000 8205.349
68.94000 10929.158
68.95000 13475.440
68.96000 16488.277
68.97000 21195.004
68.98000 26055.986
68.99000 31345.154
69.00000 37693.488
69.01000 44091.195
69.02000 48133.539
69.03000 56382.156
69.04000 62408.414
69.05000 67447.242
69.06000 71374.133
69.07000 75292.672
69.08000 77925.969
69.09000 79615.328
69.10000 81273.281
69.11000 82622.375
69.12000 83775.281
69.13000 84932.180
69.14000 86150.438
69.15000 87389.547
69.16000 88547.367
69.17000 89007.227
69.18000 89306.891
69.19000 89564.844
69.20000 87442.680
69.21000 85344.961
69.22000 82838.781
69.23000 78871.641
69.24000 74774.328
69.25000 70490.047
69.26000 65749.906
69.27000 60989.156
69.28000 57998.543
69.29000 52965.066
69.30000 49303.461
69.31000 46607.723
69.32000 44981.969
69.33000 43359.629
69.34000 42167.480
69.35000 41286.434
69.36000 40422.504
69.37000 39149.867
69.38000 37731.629
69.39000 36256.680
69.40000 33932.598
69.41000 31324.086
69.42000 28666.613
69.43000 25596.846
69.44000 22433.910
69.45000 19718.311
69.46000 16404.432
69.47000 13528.743
69.48000 10862.979
69.49000 8936.935
69.50000 7075.358
69.51000 5512.997
69.52000 4669.705
69.53000 3857.914
69.54000 3350.949
69.55000 2834.848
69.56000 2462.481
69.57000 2191.403
69.58000 2030.700
69.59000 1870.251
69.60000 1739.031
69.61000 1628.628
69.62000 1520.463
69.63000 1446.047
69.64000 1390.147
69.65000 1335.039
69.66000 1291.505
69.67000 1251.791
69.68000 1211.386
69.69000 1165.277
69.70000 1117.898
69.71000 1077.328
69.72000 1050.323
69.73000 1029.180
69.74000 1006.251
69.75000 977.123
69.76000 947.466
69.77000 919.558
69.78000 895.790
69.79000 872.198
69.80000 857.552
69.81000 835.897
69.82000 820.243
69.83000 802.102
69.84000 781.295
69.85000 760.566
69.86000 750.195
69.87000 747.090
69.88000 744.049
69.89000 740.280
69.90000 736.327
69.91000 731.968
69.92000 721.832
69.93000 709.817
69.94000 697.587
69.95000 683.606
69.96000 669.242
69.97000 656.976
69.98000 642.990
69.99000 631.005
70.00000 620.572
