20.00000 495.129
20.01000 505.350
20.02000 517.031
20.03000 524.700
20.04000 516.547
20.05000 506.776
20.06000 499.560
20.07000 498.522
20.08000 497.980
20.09000 496.455
20.10000 493.130
20.11000 489.767
20.12000 492.016
20.13000 501.167
20.14000 510.321
20.15000 505.146
20.16000 488.578
20.17000 472.276
20.18000 467.878
20.19000 469.887
20.20000 471.939
20.21000 474.745
20.22000 477.828
20.23000 480.674
20.24000 483.063
20.25000 485.103
20.26000 488.196
20.27000 497.503
20.28000 507.829
20.29000 512.231
20.30000 493.623
20.31000 472.709
20.32000 457.329
20.33000 457.455
20.34000 458.190
20.35000 464.818
20.36000 482.078
20.37000 499.555
20.38000 507.011
20.39000 502.337
20.40000 497.645
20.41000 496.653
20.42000 498.567
20.43000 500.376
20.44000 497.728
20.45000 492.715
20.46000 487.649
20.47000 481.672
20.48000 475.364
20.49000 469.552
20.50000 475.465
20.51000 483.337
20.52000 489.500
20.53000 485.755
20.54000 480.414
20.55000 475.433
20.56000 471.831
20.57000 468.364
20.58000 465.826
20.59000 476.039
20.60000 484.433
20.61000 488.705
20.62000 485.647
20.63000 482.447
20.64000 478.196
20.65000 472.693
20.66000 467.199
20.67000 465.184
20.68000 465.862
20.69000 466.567
20.70000 468.352
20.71000 470.701
20.72000 472.798
20.73000 470.654
20.74000 466.994
20.75000 463.629
20.76000 467.096
20.77000 471.672
20.78000 475.164
20.79000 472.475
20.80000 468.808
20.81000 466.014
20.82000 466.513
20.83000 467.329
20.84000 467.923
20.85000 473.051
20.86000 477.177
20.87000 479.961
20.88000 480.396
20.89000 480.788
20.90000 480.764
20.91000 480.254
20.92000 479.745
20.93000 475.319
20.94000 467.950
20.95000 460.779
20.96000 461.370
20.97000 465.959
20.98000 470.243
20.99000 469.533
21.00000 467.064
21.01000 464.798
21.02000 478.815
21.03000 494.777
21.04000 507.277
21.05000 500.354
21.06000 490.409
21.07000 483.229
21.08000 486.308
21.09000 490.352
21.10000 493.288
21.11000 480.328
21.12000 469.768
21.13000 465.986
21.14000 473.904
21.15000 482.027
21.16000 483.874
21.17000 478.481
21.18000 473.093
21.19000 472.530
21.20000 475.569
21.21000 478.457
21.22000 475.639
21.23000 469.925
21.24000 464.905
21.25000 470.952
21.26000 480.844
21.27000 489.905
21.28000 480.498
21.29000 468.262
21.30000 458.944
21.31000 465.723
21.32000 474.962
21.33000 481.483
21.34000 478.063
21.35000 473.728
21.36000 470.595
21.37000 476.836
21.38000 481.964
21.39000 484.407
21.40000 482.283
21.41000 480.082
21.42000 479.606
21.43000 481.088
21.44000 482.568
21.45000 484.886
21.46000 487.803
21.47000 490.543
21.48000 486.917
21.49000 480.105
21.50000 473.923
21.51000 477.527
21.52000 484.481
21.53000 490.839
21.54000 488.520
21.55000 484.676
21.56000 481.754
21.57000 483.834
21.58000 486.666
21.59000 487.855
21.60000 483.129
21.61000 477.871
21.62000 474.086
21.63000 476.653
21.64000 478.842
21.65000 482.153
21.66000 487.346
21.67000 492.569
21.68000 491.699
21.69000 484.026
21.70000 476.375
21.71000 472.301
21.72000 470.846
21.73000 469.558
21.74000 474.066
21.75000 481.432
21.76000 488.751
21.77000 495.365
21.78000 501.741
21.79000 507.560
21.80000 508.502
21.81000 508.352
21.82000 507.189
21.83000 500.613
21.84000 493.239
21.85000 490.658
21.86000 505.089
21.87000 521.018
21.88000 532.431
21.89000 528.299
21.90000 524.614
21.91000 525.473
21.92000 533.836
21.93000 542.311
21.94000 552.598
21.95000 564.876
21.96000 577.107
21.97000 578.384
21.98000 571.861
21.99000 565.537
22.00000 565.780
22.01000 569.215
22.02000 572.876
22.03000 579.872
22.04000 587.976
22.05000 595.358
22.06000 586.187
22.07000 574.780
22.08000 567.146
22.09000 579.321
22.10000 594.368
22.11000 605.199
22.12000 601.284
22.13000 596.099
22.14000 592.400
22.15000 600.577
22.16000 607.203
22.17000 608.220
22.18000 600.113
22.19000 591.877
22.20000 586.216
22.21000 583.335
22.22000 580.468
22.23000 580.260
22.24000 581.915
22.25000 583.464
22.26000 581.658
22.27000 578.244
22.28000 574.221
22.29000 561.404
22.30000 545.708
22.31000 531.440
22.32000 534.507
22.33000 540.601
22.34000 544.613
22.35000 537.875
22.36000 529.605
22.37000 522.889
22.38000 521.522
22.39000 520.605
22.40000 519.955
22.41000 521.984
22.42000 523.613
22.43000 519.654
22.44000 506.738
22.45000 493.704
22.46000 485.725
22.47000 483.117
22.48000 480.522
22.49000 480.193
22.50000 481.427
22.51000 482.770
22.52000 487.443
22.53000 493.688
22.54000 499.440
22.55000 498.247
22.56000 494.812
22.57000 491.695
22.58000 483.130
22.59000 474.527
22.60000 467.458
22.61000 468.187
22.62000 470.006
22.63000 470.935
22.64000 468.841
22.65000 466.497
22.66000 464.841
22.67000 471.222
22.68000 476.315
22.69000 475.535
22.70000 465.483
22.71000 455.317
22.72000 448.875
22.73000 446.325
22.74000 443.788
22.75000 443.771
22.76000 445.461
22.77000 447.262
22.78000 452.352
22.79000 458.972
22.80000 464.603
22.81000 456.651
22.82000 444.377
22.83000 433.265
22.84000 439.441
22.85000 448.137
22.86000 455.465
22.87000 455.946
22.88000 455.487
22.89000 454.714
22.90000 452.888
22.91000 450.978
22.92000 449.634
22.93000 453.988
22.94000 457.456
22.95000 457.647
22.96000 452.740
22.97000 447.774
22.98000 444.143
22.99000 441.884
23.00000 439.637
23.01000 438.701
23.02000 438.649
23.03000 438.822
23.04000 445.406
23.05000 454.931
23.06000 463.303
23.07000 456.231
23.08000 444.316
23.09000 433.552
23.10000 442.089
23.11000 453.167
23.12000 461.177
23.13000 454.083
23.14000 444.952
23.15000 437.626
23.16000 436.246
23.17000 435.334
23.18000 434.695
23.19000 435.606
23.20000 436.338
23.21000 437.411
23.22000 439.005
23.23000 440.605
23.24000 442.109
23.25000 443.514
23.26000 444.911
23.27000 442.337
23.28000 437.195
23.29000 432.482
23.30000 439.633
23.31000 452.148
23.32000 463.748
23.33000 463.379
23.34000 459.313
23.35000 455.648
23.36000 447.251
23.37000 439.021
23.38000 431.458
23.39000 427.128
23.40000 423.227
23.41000 421.422
23.42000 426.424
23.43000 431.950
23.44000 435.801
23.45000 433.169
23.46000 431.005
23.47000 431.095
23.48000 434.589
23.49000 438.116
23.50000 437.811
23.51000 433.697
23.52000 429.609
23.53000 430.567
23.54000 434.767
23.55000 438.741
23.56000 436.683
23.57000 431.938
23.58000 427.481
23.59000 426.696
23.60000 427.031
23.61000 427.331
23.62000 435.253
23.63000 443.555
23.64000 449.645
23.65000 445.189
23.66000 439.364
23.67000 434.856
23.68000 434.565
23.69000 434.591
23.70000 434.609
23.71000 428.808
23.72000 424.286
23.73000 422.892
23.74000 426.150
23.75000 429.452
23.76000 428.465
23.77000 423.291
23.78000 418.153
23.79000 418.115
23.80000 421.315
23.81000 424.595
23.82000 429.901
23.83000 436.097
23.84000 441.716
23.85000 440.125
23.86000 436.372
23.87000 433.003
23.88000 433.058
23.89000 433.707
23.90000 434.400
23.91000 435.301
23.92000 436.228
23.93000 435.684
23.94000 430.505
23.95000 424.986
23.96000 421.177
23.97000 426.794
23.98000 431.257
23.99000 436.117
24.00000 441.562
24.01000 447.010
24.02000 447.656
24.03000 443.688
24.04000 439.750
24.05000 438.539
24.06000 439.052
24.07000 439.360
24.08000 434.580
24.09000 427.598
24.10000 421.245
24.11000 422.584
24.12000 426.196
24.13000 429.431
24.14000 423.149
24.15000 416.024
24.16000 411.952
24.17000 421.980
24.18000 433.773
24.19000 441.992
24.20000 439.108
24.21000 435.430
24.22000 432.903
24.23000 426.596
24.24000 421.774
24.25000 419.035
24.26000 419.299
24.27000 419.587
24.28000 422.005
24.29000 426.433
24.30000 430.825
24.31000 433.959
24.32000 436.262
24.33000 438.438
24.34000 437.526
24.35000 435.297
24.36000 433.476
24.37000 436.515
24.38000 440.970
24.39000 444.952
24.40000 445.658
24.41000 445.718
24.42000 443.872
24.43000 433.351
24.44000 421.765
24.45000 413.165
24.46000 413.705
24.47000 414.882
24.48000 415.687
24.49000 404.830
24.50000 396.431
24.51000 395.897
24.52000 406.531
24.53000 417.246
24.54000 422.418
24.55000 422.440
24.56000 422.463
24.57000 417.498
24.58000 409.608
24.59000 402.307
24.60000 408.769
24.61000 421.018
24.62000 432.277
24.63000 431.977
24.64000 428.360
24.65000 425.135
24.66000 423.338
24.67000 422.013
24.68000 420.660
24.69000 419.180
24.70000 417.684
24.71000 416.772
24.72000 417.625
24.73000 418.597
24.74000 419.259
24.75000 426.341
24.76000 431.775
24.77000 433.924
24.78000 431.479
24.79000 429.002
24.80000 424.881
24.81000 419.256
24.82000 413.682
24.83000 411.715
24.84000 411.936
24.85000 412.065
24.86000 410.113
24.87000 407.299
24.88000 405.526
24.89000 415.636
24.90000 429.105
24.91000 441.091
24.92000 433.380
24.93000 423.468
24.94000 413.895
24.95000 405.818
24.96000 397.917
24.97000 393.092
24.98000 397.415
24.99000 402.344
25.00000 405.680
25.01000 409.742
25.02000 412.785
25.03000 412.772
25.04000 408.550
25.05000 404.302
25.06000 399.637
25.07000 394.597
25.08000 389.606
25.09000 396.456
25.10000 410.105
25.11000 423.004
25.12000 419.457
25.13000 409.189
25.14000 399.786
25.15000 400.016
25.16000 402.930
25.17000 405.517
25.18000 407.545
25.19000 409.212
25.20000 408.947
25.21000 400.295
25.22000 390.672
25.23000 385.002
25.24000 390.923
25.25000 397.592
25.26000 402.083
25.27000 399.233
25.28000 396.960
25.29000 399.899
25.30000 409.904
25.31000 419.938
25.32000 418.584
25.33000 407.161
25.34000 395.854
25.35000 398.937
25.36000 410.255
25.37000 421.215
25.38000 424.555
25.39000 424.827
25.40000 424.188
25.41000 413.594
25.42000 400.270
25.43000 388.466
25.44000 390.354
25.45000 394.142
25.46000 398.540
25.47000 405.543
25.48000 412.842
25.49000 414.501
25.50000 399.866
25.51000 384.204
25.52000 373.713
25.53000 383.297
25.54000 390.809
25.55000 396.044
25.56000 398.238
25.57000 400.417
25.58000 402.841
25.59000 405.477
25.60000 408.085
25.61000 405.905
25.62000 401.057
25.63000 396.578
25.64000 399.720
25.65000 405.886
25.66000 411.295
25.67000 408.625
25.68000 403.771
25.69000 399.481
25.70000 406.554
25.71000 414.418
25.72000 421.016
25.73000 422.286
25.74000 422.962
25.75000 423.066
25.76000 421.539
25.77000 419.913
25.78000 418.829
25.79000 409.246
25.80000 401.989
25.81000 397.057
25.82000 395.181
25.83000 393.326
25.84000 396.278
25.85000 403.345
25.86000 410.331
25.87000 409.594
25.88000 404.560
25.89000 399.518
25.90000 394.329
25.91000 389.083
25.92000 385.160
25.93000 395.067
25.94000 408.656
25.95000 420.639
25.96000 413.363
25.97000 404.168
25.98000 396.273
25.99000 393.764
26.00000 391.844
26.01000 390.748
26.02000 391.968
26.03000 393.326
26.04000 394.226
26.05000 385.503
26.06000 378.883
26.07000 377.795
26.08000 383.864
26.09000 389.954
26.10000 390.979
26.11000 387.739
26.12000 384.539
26.13000 387.693
26.14000 394.262
26.15000 400.368
26.16000 397.471
26.17000 391.101
26.18000 385.066
26.19000 382.465
26.20000 380.764
26.21000 379.267
26.22000 381.376
26.23000 383.728
26.24000 386.519
26.25000 391.098
26.26000 395.869
26.27000 398.977
26.28000 397.489
26.29000 395.733
26.30000 394.576
26.31000 389.548
26.32000 385.776
26.33000 382.746
26.34000 380.664
26.35000 378.602
26.36000 383.940
26.37000 395.414
26.38000 406.741
26.39000 405.007
26.40000 396.250
26.41000 387.902
26.42000 387.321
26.43000 389.691
26.44000 392.278
26.45000 397.035
26.46000 402.353
26.47000 407.020
26.48000 406.008
26.49000 404.308
26.50000 402.986
26.51000 403.181
26.52000 403.535
26.53000 402.112
26.54000 395.847
26.55000 389.308
26.56000 385.019
26.57000 388.771
26.58000 391.666
26.59000 390.619
26.60000 384.630
26.61000 378.643
26.62000 379.149
26.63000 384.952
26.64000 390.676
26.65000 388.994
26.66000 383.412
26.67000 378.246
26.68000 380.713
26.69000 386.039
26.70000 390.622
26.71000 387.895
26.72000 383.309
26.73000 379.295
26.74000 385.249
26.75000 391.784
26.76000 396.129
26.77000 391.805
26.78000 386.591
26.79000 382.991
26.80000 383.724
26.81000 384.695
26.82000 385.329
26.83000 392.197
26.84000 397.336
26.85000 396.323
26.86000 387.715
26.87000 379.108
26.88000 377.569
26.89000 381.707
26.90000 385.785
26.91000 388.321
26.92000 389.975
26.93000 391.488
26.94000 390.473
26.95000 388.524
26.96000 386.572
26.97000 384.587
26.98000 382.594
26.99000 380.853
27.00000 384.108
27.01000 387.597
27.02000 389.591
27.03000 385.763
27.04000 381.348
27.05000 377.453
27.06000 374.932
27.07000 372.486
27.08000 370.898
27.09000 371.938
27.10000 372.740
27.11000 375.960
27.12000 382.118
27.13000 388.264
27.14000 388.514
27.15000 384.106
27.16000 379.764
27.17000 382.020
27.18000 387.616
27.19000 392.649
27.20000 387.915
27.21000 379.625
27.22000 372.295
27.23000 374.014
27.24000 377.965
27.25000 381.408
27.26000 383.967
27.27000 386.032
27.28000 387.400
27.29000 386.089
27.30000 384.515
27.31000 383.259
27.32000 382.834
27.33000 382.453
27.34000 382.207
27.35000 388.575
27.36000 393.322
27.37000 392.084
27.38000 383.691
27.39000 375.301
27.40000 371.281
27.41000 370.662
27.42000 370.052
27.43000 368.100
27.44000 365.526
27.45000 363.370
27.46000 368.298
27.47000 375.766
27.48000 381.788
27.49000 374.451
27.50000 363.868
27.51000 354.672
27.52000 363.121
27.53000 372.717
27.54000 379.940
27.55000 378.191
27.56000 375.575
27.57000 372.444
27.58000 367.985
27.59000 363.458
27.60000 360.554
27.61000 375.512
27.62000 386.660
27.63000 390.413
27.64000 385.465
27.65000 380.522
27.66000 379.971
27.67000 382.786
27.68000 385.554
27.69000 387.499
27.70000 388.970
27.71000 390.250
27.72000 388.375
27.73000 385.384
27.74000 382.625
27.75000 381.959
27.76000 381.794
27.77000 381.651
27.78000 384.035
27.79000 386.400
27.80000 386.294
27.81000 376.981
27.82000 366.798
27.83000 360.855
27.84000 365.661
27.85000 370.994
27.86000 374.397
27.87000 383.607
27.88000 390.381
27.89000 391.664
27.90000 386.590
27.91000 381.514
27.92000 377.715
27.93000 374.877
27.94000 372.089
27.95000 372.005
27.96000 373.254
27.97000 374.286
27.98000 371.823
27.99000 368.142
28.00000 364.963
28.01000 366.233
28.02000 368.551
28.03000 370.556
28.04000 371.673
28.05000 372.506
28.06000 374.018
28.07000 378.022
28.08000 382.256
28.09000 384.089
28.10000 379.923
28.11000 375.472
28.12000 372.648
28.13000 376.374
28.14000 379.158
28.15000 377.555
28.16000 370.956
28.17000 364.388
28.18000 364.663
28.19000 370.017
28.20000 375.275
28.21000 376.979
28.22000 376.902
28.23000 376.800
28.24000 376.309
28.25000 375.685
28.26000 375.362
28.27000 377.670
28.28000 380.587
28.29000 383.103
28.30000 391.039
28.31000 398.464
28.32000 402.546
28.33000 394.550
28.34000 385.462
28.35000 378.273
28.36000 375.766
28.37000 373.475
28.38000 372.029
28.39000 368.048
28.40000 365.136
28.41000 363.132
28.42000 362.146
28.43000 361.179
28.44000 363.339
28.45000 367.785
28.46000 372.147
28.47000 372.895
28.48000 371.892
28.49000 370.710
28.50000 366.796
28.51000 361.957
28.52000 358.262
28.53000 364.329
28.54000 372.626
28.55000 379.763
28.56000 379.078
28.57000 377.518
28.58000 376.840
28.59000 379.308
28.60000 382.053
28.61000 382.283
28.62000 376.406
28.63000 370.255
28.64000 366.398
28.65000 367.556
28.66000 368.448
28.67000 371.893
28.68000 378.152
28.69000 384.358
28.70000 382.065
28.71000 373.653
28.72000 365.407
28.73000 359.726
28.74000 355.463
28.75000 351.572
28.76000 353.214
28.77000 356.701
28.78000 360.492
28.79000 366.823
28.80000 373.725
28.81000 379.646
28.82000 371.212
28.83000 362.321
28.84000 355.158
28.85000 354.060
28.86000 353.487
28.87000 355.208
28.88000 362.422
28.89000 369.873
28.90000 374.518
28.91000 368.355
28.92000 363.802
28.93000 363.317
28.94000 367.245
28.95000 371.150
28.96000 371.598
28.97000 369.594
28.98000 367.631
28.99000 362.604
29.00000 356.356
29.01000 350.195
29.02000 345.297
29.03000 340.815
29.04000 337.603
29.05000 344.820
29.06000 354.346
29.07000 362.497
29.08000 366.997
29.09000 370.351
29.10000 370.964
29.11000 362.097
29.12000 352.428
29.13000 348.023
29.14000 356.031
29.15000 364.561
29.16000 369.848
29.17000 364.850
29.18000 361.158
29.19000 361.256
29.20000 365.398
29.21000 369.518
29.22000 370.676
29.23000 369.765
29.24000 368.874
29.25000 364.693
29.26000 359.183
29.27000 354.313
29.28000 358.483
29.29000 365.582
29.30000 371.339
29.31000 366.281
29.32000 358.865
29.33000 352.537
29.34000 358.079
29.35000 364.148
29.36000 368.071
29.37000 364.691
29.38000 360.706
29.39000 358.825
29.40000 361.836
29.41000 365.045
29.42000 367.022
29.43000 372.606
29.44000 376.645
29.45000 376.339
29.46000 371.476
29.47000 366.636
29.48000 364.671
29.49000 364.681
29.50000 364.690
29.51000 364.551
29.52000 364.350
29.53000 364.130
29.54000 363.629
29.55000 363.040
29.56000 362.293
29.57000 360.309
29.58000 358.059
29.59000 356.144
29.60000 361.110
29.61000 366.080
29.62000 368.676
29.63000 363.303
29.64000 357.286
29.65000 353.622
29.66000 355.351
29.67000 357.291
29.68000 358.479
29.69000 362.672
29.70000 365.699
29.71000 368.007
29.72000 369.573
29.73000 371.137
29.74000 372.402
29.75000 373.464
29.76000 374.502
29.77000 373.500
29.78000 371.643
29.79000 370.567
29.80000 380.016
29.81000 392.776
29.82000 404.007
29.83000 403.376
29.84000 400.238
29.85000 397.576
29.86000 404.924
29.87000 412.223
29.88000 417.837
29.89000 417.880
29.90000 417.483
29.91000 414.771
29.92000 406.831
29.93000 398.692
29.94000 393.739
29.95000 412.439
29.96000 425.980
29.97000 429.099
29.98000 421.649
29.99000 414.308
30.00000 418.221
30.01000 429.638
30.02000 440.780
30.03000 448.957
30.04000 455.490
30.05000 461.695
30.06000 463.594
30.07000 464.159
30.08000 464.213
30.09000 460.381
30.10000 455.740
30.11000 451.813
30.12000 454.057
30.13000 456.623
30.14000 457.966
30.15000 455.329
30.16000 452.385
30.17000 447.703
30.18000 439.152
30.19000 430.459
30.20000 425.202
30.21000 417.288
30.22000 411.630
30.23000 409.478
30.24000 410.821
30.25000 412.140
30.26000 411.079
30.27000 408.455
30.28000 405.898
30.29000 403.065
30.30000 400.243
30.31000 398.065
30.32000 404.162
30.33000 412.785
30.34000 420.232
30.35000 418.877
30.36000 415.721
30.37000 413.057
30.38000 409.668
30.39000 406.758
30.40000 405.140
30.41000 407.673
30.42000 410.519
30.43000 412.126
30.44000 411.013
30.45000 409.804
30.46000 409.077
30.47000 398.072
30.48000 390.180
30.49000 388.672
30.50000 393.424
30.51000 398.105
30.52000 396.501
30.53000 390.830
30.54000 385.306
30.55000 388.208
30.56000 394.512
30.57000 400.483
30.58000 402.265
30.59000 402.788
30.60000 402.723
30.61000 398.348
30.62000 393.106
30.63000 388.694
30.64000 387.256
30.65000 386.373
30.66000 385.590
30.67000 385.122
30.68000 384.677
30.69000 385.659
30.70000 389.727
30.71000 393.900
30.72000 396.392
30.73000 384.736
30.74000 376.382
30.75000 378.489
30.76000 390.681
30.77000 402.799
30.78000 408.751
30.79000 410.772
30.80000 412.738
30.81000 412.384
30.82000 411.087
30.83000 410.256
30.84000 415.149
30.85000 421.738
30.86000 427.979
30.87000 431.718
30.88000 434.961
30.89000 437.682
30.90000 437.619
30.91000 437.275
30.92000 439.968
30.93000 452.127
30.94000 464.966
30.95000 473.726
30.96000 473.790
30.97000 473.568
30.98000 473.436
30.99000 482.808
31.00000 489.495
31.01000 500.236
31.02000 514.818
31.03000 529.336
31.04000 538.824
31.05000 545.152
31.06000 551.303
31.07000 571.748
31.08000 596.998
31.09000 622.446
31.10000 650.252
31.11000 678.748
31.12000 707.900
31.13000 741.690
31.14000 776.385
31.15000 805.415
31.16000 863.402
31.17000 914.549
31.18000 970.269
31.19000 1040.034
31.20000 1110.785
31.21000 1183.487
31.22000 1260.291
31.23000 1337.226
31.24000 1382.572
31.25000 1507.553
31.26000 1596.195
31.27000 1693.664
31.28000 1799.364
31.29000 1905.144
31.30000 2016.798
31.31000 2132.086
31.32000 2244.028
31.33000 2335.153
31.34000 2413.313
31.35000 2491.180
31.36000 2565.603
31.37000 2639.035
31.38000 2708.937
31.39000 2754.295
31.40000 2794.947
31.41000 2828.863
31.42000 2806.640
31.43000 2782.580
31.44000 2756.808
31.45000 2725.860
31.46000 2694.558
31.47000 2654.162
31.48000 2594.935
31.49000 2535.132
31.50000 2500.115
31.51000 2379.632
31.52000 2294.379
31.53000 2205.929
31.54000 2114.549
31.55000 2023.091
31.56000 1926.291
31.57000 1826.236
31.58000 1729.188
31.59000 1634.119
31.60000 1544.792
31.61000 1456.361
31.62000 1378.202
31.63000 1302.956
31.64000 1228.965
31.65000 1163.540
31.66000 1099.732
31.67000 1046.654
31.68000 979.409
31.69000 922.355
31.70000 872.301
31.71000 843.131
31.72000 815.355
31.73000 784.798
31.74000 748.569
31.75000 712.173
31.76000 691.002
31.77000 655.706
31.78000 630.853
31.79000 611.024
31.80000 595.727
31.81000 580.374
31.82000 561.373
31.83000 540.180
31.84000 519.648
31.85000 507.465
31.86000 499.175
31.87000 490.281
31.88000 474.628
31.89000 457.086
31.90000 441.209
31.91000 436.493
31.92000 433.849
31.93000 431.656
31.94000 422.189
31.95000 413.668
31.96000 408.130
31.97000 411.365
31.98000 415.170
31.99000 414.701
32.00000 405.634
32.01000 396.324
32.02000 390.945
32.03000 402.788
32.04000 411.150
32.05000 412.560
32.06000 407.802
32.07000 402.970
32.08000 393.576
32.09000 381.483
32.10000 369.779
32.11000 371.691
32.12000 378.695
32.13000 384.938
32.14000 382.821
32.15000 378.402
32.16000 374.845
32.17000 376.959
32.18000 380.109
32.19000 382.713
32.20000 369.852
32.21000 357.790
32.22000 348.802
32.23000 348.722
32.24000 349.205
32.25000 348.792
32.26000 346.602
32.27000 344.364
32.28000 343.079
32.29000 336.516
32.30000 331.912
32.31000 330.272
32.32000 331.221
32.33000 332.183
32.34000 333.935
32.35000 336.147
32.36000 338.286
32.37000 339.725
32.38000 340.820
32.39000 341.709
32.40000 340.390
32.41000 338.473
32.42000 336.757
32.43000 336.345
32.44000 336.167
32.45000 336.020
32.46000 331.099
32.47000 326.610
32.48000 324.699
32.49000 330.154
32.50000 336.063
32.51000 340.367
32.52000 341.532
32.53000 342.616
32.54000 343.234
32.55000 336.055
32.56000 331.029
32.57000 328.765
32.58000 328.874
32.59000 328.990
32.60000 329.515
32.61000 330.276
32.62000 331.010
32.63000 328.764
32.64000 325.545
32.65000 322.364
32.66000 319.578
32.67000 316.896
32.68000 314.455
32.69000 313.542
32.70000 312.898
32.71000 312.369
32.72000 314.791
32.73000 317.046
32.74000 319.250
32.75000 321.309
32.76000 323.360
32.77000 326.311
32.78000 330.997
32.79000 335.726
32.80000 338.403
32.81000 336.481
32.82000 335.127
32.83000 332.087
32.84000 327.622
32.85000 323.152
32.86000 318.403
32.87000 313.497
32.88000 308.765
32.89000 310.339
32.90000 314.114
32.91000 317.995
32.92000 322.954
32.93000 328.198
32.94000 331.293
32.95000 320.951
32.96000 308.276
32.97000 297.891
32.98000 305.598
32.99000 313.512
33.00000 318.793
33.01000 316.771
33.02000 314.321
33.03000 310.808
33.04000 305.278
33.05000 299.700
33.06000 296.565
33.07000 295.054
33.08000 294.012
33.09000 294.185
33.10000 295.367
33.11000 296.595
33.12000 300.097
33.13000 304.869
33.14000 309.466
33.15000 304.022
33.16000 295.313
33.17000 287.453
33.18000 288.159
33.19000 291.085
33.20000 293.975
33.21000 296.646
33.22000 299.279
33.23000 301.430
33.24000 304.098
33.25000 306.325
33.26000 306.406
33.27000 300.616
33.28000 294.492
33.29000 292.150
33.30000 296.880
33.31000 301.773
33.32000 304.503
33.33000 313.865
33.34000 320.340
33.35000 318.631
33.36000 310.224
33.37000 301.994
33.38000 302.227
33.39000 307.112
33.40000 311.812
33.41000 308.444
33.42000 302.442
33.43000 297.173
33.44000 299.138
33.45000 302.949
33.46000 305.802
33.47000 302.862
33.48000 298.950
33.49000 295.764
33.50000 297.435
33.51000 299.210
33.52000 299.692
33.53000 296.690
33.54000 293.495
33.55000 293.612
33.56000 299.830
33.57000 306.181
33.58000 309.699
33.59000 312.069
33.60000 313.687
33.61000 309.801
33.62000 301.480
33.63000 293.262
33.64000 289.702
33.65000 288.665
33.66000 287.669
33.67000 288.003
33.68000 288.777
33.69000 289.232
33.70000 286.591
33.71000 283.173
33.72000 281.342
33.73000 288.942
33.74000 298.099
33.75000 305.530
33.76000 308.060
33.77000 309.718
33.78000 310.835
33.79000 310.511
33.80000 310.109
33.81000 307.689
33.82000 301.602
33.83000 295.439
33.84000 292.050
33.85000 299.894
33.86000 305.298
33.87000 305.571
33.88000 301.776
33.89000 298.081
33.90000 298.762
33.91000 301.780
33.92000 304.676
33.93000 304.992
33.94000 304.407
33.95000 303.699
33.96000 301.830
33.97000 299.674
33.98000 297.867
33.99000 298.101
34.00000 298.665
34.01000 299.122
34.02000 299.140
34.03000 299.119
34.04000 297.792
34.05000 293.046
34.06000 288.121
34.07000 284.149
34.08000 281.881
34.09000 279.647
34.10000 278.428
34.11000 286.626
34.12000 292.254
34.13000 293.487
34.14000 291.290
34.15000 289.169
34.16000 290.244
34.17000 293.000
34.18000 295.642
34.19000 294.615
34.20000 292.423
34.21000 290.428
34.22000 290.261
34.23000 290.539
34.24000 291.040
34.25000 292.825
34.26000 294.814
34.27000 296.417
34.28000 292.721
34.29000 289.303
34.30000 287.077
34.31000 287.928
34.32000 288.935
34.33000 290.084
34.34000 291.484
34.35000 292.888
34.36000 293.649
34.37000 286.891
34.38000 282.263
34.39000 280.261
34.40000 280.276
34.41000 280.262
34.42000 279.062
34.43000 277.249
34.44000 275.512
34.45000 279.678
34.46000 285.512
34.47000 290.816
34.48000 291.299
34.49000 290.624
34.50000 289.528
34.51000 286.052
34.52000 282.203
34.53000 279.109
34.54000 282.473
34.55000 285.696
34.56000 287.405
34.57000 285.262
34.58000 282.930
34.59000 282.597
34.60000 285.738
34.61000 288.942
34.62000 290.665
34.63000 285.549
34.64000 282.053
34.65000 279.925
34.66000 278.832
34.67000 277.734
34.68000 276.463
34.69000 275.104
34.70000 273.804
34.71000 272.835
34.72000 272.040
34.73000 271.779
34.74000 276.278
34.75000 281.903
34.76000 286.474
34.77000 285.190
34.78000 283.003
34.79000 281.252
34.80000 284.095
34.81000 286.740
34.82000 288.536
34.83000 288.203
34.84000 287.768
34.85000 288.160
34.86000 289.968
34.87000 291.799
34.88000 292.776
34.89000 297.885
34.90000 301.336
34.91000 298.257
34.92000 290.314
34.93000 282.445
34.94000 277.304
34.95000 273.537
34.96000 269.941
34.97000 269.856
34.98000 270.901
34.99000 272.140
35.00000 275.076
35.01000 278.408
35.02000 281.234
35.03000 281.302
35.04000 280.951
35.05000 280.672
35.06000 282.152
35.07000 283.476
35.08000 283.884
35.09000 282.025
35.10000 280.061
35.11000 278.949
35.12000 279.272
35.13000 279.618
35.14000 279.801
35.15000 278.057
35.16000 276.873
35.17000 276.292
35.18000 276.152
35.19000 275.944
35.20000 273.311
35.21000 269.475
35.22000 265.817
35.23000 269.252
35.24000 274.672
35.25000 279.555
35.26000 279.832
35.27000 279.054
35.28000 277.957
35.29000 275.143
35.30000 272.074
35.31000 269.632
35.32000 267.732
35.33000 266.239
35.34000 267.060
35.35000 273.517
35.36000 280.229
35.37000 282.676
35.38000 278.036
35.39000 273.288
35.40000 270.793
35.41000 272.624
35.42000 273.869
35.43000 275.333
35.44000 276.957
35.45000 278.547
35.46000 278.984
35.47000 278.857
35.48000 278.737
35.49000 272.474
35.50000 264.771
35.51000 258.400
35.52000 263.225
35.53000 270.577
35.54000 276.333
35.55000 273.652
35.56000 269.737
35.57000 266.633
35.58000 267.949
35.59000 269.316
35.60000 270.186
35.61000 269.862
35.62000 269.486
35.63000 271.401
35.64000 277.068
35.65000 282.789
35.66000 285.770
35.67000 280.140
35.68000 276.340
35.69000 273.829
35.70000 272.235
35.71000 270.673
35.72000 270.158
35.73000 270.147
35.74000 270.137
35.75000 273.246
35.76000 277.071
35.77000 279.724
35.78000 272.722
35.79000 263.573
35.80000 256.633
35.81000 261.181
35.82000 267.377
35.83000 272.272
35.84000 277.985
35.85000 282.627
35.86000 282.774
35.87000 272.287
35.88000 261.350
35.89000 255.900
35.90000 259.299
35.91000 262.818
35.92000 264.638
35.93000 270.415
35.94000 274.267
35.95000 272.438
35.96000 266.631
35.97000 260.879
35.98000 256.866
35.99000 253.680
36.00000 250.655
36.01000 257.547
36.02000 266.886
36.03000 274.905
36.04000 272.243
36.05000 267.245
36.06000 263.518
36.07000 266.299
36.08000 269.996
36.09000 272.907
36.10000 280.204
36.11000 286.342
36.12000 286.456
36.13000 272.521
36.14000 258.010
36.15000 253.262
36.16000 264.027
36.17000 274.990
36.18000 280.613
36.19000 273.684
36.20000 269.068
36.21000 269.821
36.22000 274.277
36.23000 278.542
36.24000 277.030
36.25000 272.812
36.26000 268.814
36.27000 275.791
36.28000 285.460
36.29000 292.821
36.30000 281.847
36.31000 266.926
36.32000 254.686
36.33000 255.949
36.34000 259.081
36.35000 261.538
36.36000 254.432
36.37000 248.128
36.38000 244.320
36.39000 246.246
36.40000 248.400
36.41000 250.912
36.42000 253.986
36.43000 257.066
36.44000 258.633
36.45000 259.148
36.46000 259.492
36.47000 259.689
36.48000 259.786
36.49000 259.911
36.50000 260.858
36.51000 262.184
36.52000 263.440
36.53000 262.831
36.54000 261.728
36.55000 260.194
36.56000 255.287
36.57000 249.667
36.58000 246.249
36.59000 253.751
36.60000 262.736
36.61000 269.759
36.62000 262.592
36.63000 255.973
36.64000 252.714
36.65000 257.066
36.66000 261.710
36.67000 264.685
36.68000 265.086
36.69000 265.459
36.70000 265.648
36.71000 261.024
36.72000 257.959
36.73000 257.735
36.74000 259.412
36.75000 260.998
36.76000 260.055
36.77000 257.960
36.78000 255.979
36.79000 261.071
36.80000 267.770
36.81000 274.099
36.82000 277.610
36.83000 280.532
36.84000 282.025
36.85000 276.543
36.86000 270.131
36.87000 265.137
36.88000 271.998
36.89000 278.196
36.90000 281.565
36.91000 278.619
36.92000 275.440
36.93000 277.148
36.94000 286.281
36.95000 295.492
36.96000 300.099
36.97000 296.589
36.98000 294.271
36.99000 294.043
37.00000 295.193
37.01000 296.300
37.02000 296.255
37.03000 295.693
37.04000 295.162
37.05000 293.871
37.06000 292.473
37.07000 291.134
37.08000 290.237
37.09000 289.430
37.10000 288.844
37.11000 289.317
37.12000 289.930
37.13000 290.405
37.14000 292.455
37.15000 294.180
37.16000 294.068
37.17000 289.914
37.18000 285.616
37.19000 282.549
37.20000 281.323
37.21000 280.115
37.22000 279.320
37.23000 278.934
37.24000 278.546
37.25000 278.042
37.26000 277.463
37.27000 276.938
37.28000 277.845
37.29000 279.384
37.30000 280.835
37.31000 281.321
37.32000 281.499
37.33000 280.836
37.34000 273.970
37.35000 265.850
37.36000 259.482
37.37000 261.387
37.38000 264.355
37.39000 266.650
37.40000 261.281
37.41000 256.571
37.42000 254.385
37.43000 257.677
37.44000 261.158
37.45000 264.324
37.46000 267.025
37.47000 269.721
37.48000 268.081
37.49000 262.244
37.50000 256.491
37.51000 257.730
37.52000 263.442
37.53000 268.977
37.54000 270.008
37.55000 269.077
37.56000 268.202
37.57000 267.054
37.58000 265.930
37.59000 264.803
37.60000 263.644
37.61000 262.479
37.62000 260.903
37.63000 257.415
37.64000 253.685
37.65000 250.813
37.66000 253.958
37.67000 256.792
37.68000 259.864
37.69000 263.442
37.70000 267.037
37.71000 267.306
37.72000 262.747
37.73000 258.148
37.74000 254.434
37.75000 251.562
37.76000 248.752
37.77000 250.707
37.78000 255.664
37.79000 260.598
37.80000 264.973
37.81000 269.109
37.82000 272.994
37.83000 272.946
37.84000 271.849
37.85000 270.860
37.86000 270.629
37.87000 270.547
37.88000 269.814
37.89000 266.102
37.90000 262.022
37.91000 258.890
37.92000 261.402
37.93000 263.701
37.94000 263.069
37.95000 256.260
37.96000 249.253
37.97000 247.671
37.98000 253.844
37.99000 260.076
38.00000 265.719
38.01000 270.811
38.02000 275.775
38.03000 271.292
38.04000 260.945
38.05000 251.216
38.06000 256.128
38.07000 267.237
38.08000 277.658
38.09000 278.824
38.10000 277.452
38.11000 275.478
38.12000 269.310
38.13000 262.335
38.14000 257.446
38.15000 261.956
38.16000 267.609
38.17000 271.930
38.18000 279.202
38.19000 285.097
38.20000 288.477
38.21000 286.630
38.22000 284.623
38.23000 281.172
38.24000 275.690
38.25000 270.194
38.26000 271.557
38.27000 279.226
38.28000 286.815
38.29000 288.842
38.30000 287.469
38.31000 286.309
38.32000 290.054
38.33000 295.847
38.34000 301.272
38.35000 308.403
38.36000 315.330
38.37000 321.089
38.38000 318.835
38.39000 315.064
38.40000 313.228
38.41000 319.978
38.42000 327.752
38.43000 333.672
38.44000 345.497
38.45000 355.116
38.46000 367.539
38.47000 385.703
38.48000 404.036
38.49000 418.915
38.50000 429.004
38.51000 439.058
38.52000 457.836
38.53000 484.487
38.54000 511.150
38.55000 538.627
38.56000 566.596
38.57000 594.855
38.58000 629.587
38.59000 666.980
38.60000 701.948
38.61000 741.849
38.62000 779.339
38.63000 817.670
38.64000 861.671
38.65000 906.729
38.66000 950.514
38.67000 988.744
38.68000 1026.324
38.69000 1054.832
38.70000 1091.754
38.71000 1121.190
38.72000 1149.846
38.73000 1176.925
38.74000 1203.960
38.75000 1218.865
38.76000 1217.214
38.77000 1215.467
38.78000 1201.031
38.79000 1175.327
38.80000 1149.781
38.81000 1134.145
38.82000 1124.390
38.83000 1113.437
38.84000 1076.662
38.85000 1029.423
38.86000 985.320
38.87000 941.920
38.88000 902.750
38.89000 861.749
38.90000 808.627
38.91000 753.285
38.92000 704.022
38.93000 680.905
38.94000 660.785
38.95000 645.582
38.96000 600.259
38.97000 563.221
38.98000 528.665
38.99000 499.044
39.00000 469.559
39.01000 445.950
39.02000 430.241
39.03000 414.583
39.04000 397.810
39.05000 380.088
39.06000 362.451
39.07000 349.799
39.08000 340.063
39.09000 330.379
39.10000 321.801
39.11000 313.665
39.12000 306.082
39.13000 297.868
39.14000 290.278
39.15000 283.739
39.16000 284.034
39.17000 285.561
39.18000 285.026
39.19000 275.758
39.20000 265.508
39.21000 257.794
39.22000 259.243
39.23000 260.821
39.24000 260.591
39.25000 256.817
39.26000 252.951
39.27000 254.324
39.28000 262.630
39.29000 270.963
39.30000 270.654
39.31000 262.913
39.32000 255.237
39.33000 251.256
39.34000 249.404
39.35000 247.608
39.36000 246.928
39.37000 246.688
39.38000 246.465
39.39000 246.839
39.40000 247.321
39.41000 247.672
39.42000 247.186
39.43000 246.550
39.44000 246.609
39.45000 249.561
39.46000 252.832
39.47000 255.283
39.48000 253.780
39.49000 252.418
39.50000 249.463
39.51000 243.430
39.52000 237.318
39.53000 236.050
39.54000 241.092
39.55000 246.157
39.56000 245.907
39.57000 241.161
39.58000 236.517
39.59000 237.321
39.60000 241.220
39.61000 244.959
39.62000 245.552
39.63000 244.924
39.64000 244.341
39.65000 243.636
39.66000 242.972
39.67000 241.592
39.68000 235.714
39.69000 229.053
39.70000 224.391
39.71000 227.945
39.72000 232.385
39.73000 235.701
39.74000 231.326
39.75000 227.564
39.76000 225.422
39.77000 226.363
39.78000 227.380
39.79000 230.529
39.80000 236.415
39.81000 242.305
39.82000 241.459
39.83000 235.010
39.84000 228.596
39.85000 224.000
39.86000 220.422
39.87000 217.093
39.88000 218.522
39.89000 221.772
39.90000 224.785
39.91000 225.944
39.92000 226.553
39.93000 227.614
39.94000 231.461
39.95000 235.785
39.96000 238.779
39.97000 236.390
39.98000 233.432
39.99000 231.232
40.00000 223.949
40.01000 218.059
40.02000 216.464
40.03000 222.926
40.04000 229.574
40.05000 232.599
40.06000 231.049
40.07000 229.486
40.08000 229.031
40.09000 229.484
40.10000 229.896
40.11000 228.325
40.12000 225.662
40.13000 222.953
40.14000 219.409
40.15000 215.551
40.16000 211.979
40.17000 215.015
40.18000 219.266
40.19000 223.238
40.20000 225.514
40.21000 227.505
40.22000 228.982
40.23000 228.416
40.24000 227.638
40.25000 227.063
40.26000 226.168
40.27000 225.460
40.28000 224.689
40.29000 223.801
40.30000 222.911
40.31000 222.114
40.32000 221.435
40.33000 220.757
40.34000 224.613
40.35000 232.106
40.36000 239.459
40.37000 240.434
40.38000 237.942
40.39000 235.608
40.40000 236.150
40.41000 237.760
40.42000 239.248
40.43000 230.590
40.44000 220.524
40.45000 212.902
40.46000 219.855
40.47000 229.224
40.48000 236.027
40.49000 232.768
40.50000 228.487
40.51000 225.330
40.52000 221.608
40.53000 218.701
40.54000 217.049
40.55000 217.682
40.56000 218.362
40.57000 220.578
40.58000 224.671
40.59000 228.762
40.60000 231.032
40.61000 231.850
40.62000 232.607
40.63000 230.686
40.64000 227.332
40.65000 223.972
40.66000 220.521
40.67000 217.036
40.68000 213.821
40.69000 212.799
40.70000 212.371
40.71000 212.320
40.72000 214.481
40.73000 217.002
40.74000 218.553
40.75000 216.355
40.76000 213.784
40.77000 211.897
40.78000 216.388
40.79000 220.120
40.80000 221.741
40.81000 219.574
40.82000 217.332
40.83000 215.475
40.84000 214.081
40.85000 212.692
40.86000 213.248
40.87000 215.318
40.88000 217.392
40.89000 219.602
40.90000 221.885
40.91000 223.906
40.92000 221.464
40.93000 217.412
40.94000 213.680
40.95000 212.288
40.96000 211.554
40.97000 211.527
40.98000 215.578
40.99000 220.282
41.00000 223.948
41.01000 223.661
41.02000 222.990
41.03000 222.498
41.04000 215.740
41.05000 210.279
41.06000 207.825
41.07000 210.688
41.08000 213.652
41.09000 214.389
41.10000 212.485
41.11000 210.580
41.12000 212.354
41.13000 216.938
41.14000 221.397
41.15000 220.850
41.16000 217.700
41.17000 214.419
41.18000 208.956
41.19000 202.716
41.20000 196.983
41.21000 202.481
41.22000 209.804
41.23000 215.558
41.24000 212.411
41.25000 207.863
41.26000 205.076
41.27000 208.894
41.28000 213.341
41.29000 216.579
41.30000 214.396
41.31000 212.508
41.32000 210.693
41.33000 209.006
41.34000 207.322
41.35000 207.507
41.36000 209.873
41.37000 212.236
41.38000 214.463
41.39000 216.572
41.40000 218.635
41.41000 218.959
41.42000 218.392
41.43000 217.551
41.44000 212.269
41.45000 205.431
41.46000 199.158
41.47000 207.097
41.48000 217.177
41.49000 225.315
41.50000 222.624
41.51000 218.259
41.52000 214.239
41.53000 211.494
41.54000 208.868
41.55000 206.964
41.56000 206.067
41.57000 205.416
41.58000 205.193
41.59000 205.708
41.60000 206.235
41.61000 208.307
41.62000 212.150
41.63000 215.984
41.64000 213.470
41.65000 206.264
41.66000 199.261
41.67000 199.771
41.68000 204.074
41.69000 207.949
41.70000 205.046
41.71000 199.800
41.72000 194.997
41.73000 197.924
41.74000 202.134
41.75000 205.798
41.76000 206.468
41.77000 206.682
41.78000 206.950
41.79000 207.412
41.80000 207.893
41.81000 208.239
41.82000 211.538
41.83000 214.173
41.84000 213.516
41.85000 207.290
41.86000 200.972
41.87000 200.510
41.88000 206.656
41.89000 212.788
41.90000 213.999
41.91000 211.608
41.92000 209.289
41.93000 209.546
41.94000 211.086
41.95000 212.347
41.96000 209.321
41.97000 204.836
41.98000 200.738
41.99000 203.175
42.00000 206.674
42.01000 209.789
42.02000 210.824
42.03000 211.550
42.04000 212.187
42.05000 212.508
42.06000 212.801
42.07000 213.011
42.08000 210.281
42.09000 208.090
42.10000 208.052
42.11000 211.602
42.12000 215.209
42.13000 217.023
42.14000 216.848
42.15000 216.672
42.16000 214.389
42.17000 210.612
42.18000 206.955
42.19000 207.379
42.20000 209.804
42.21000 212.068
42.22000 211.889
42.23000 210.892
42.24000 209.982
42.25000 214.529
42.26000 219.655
42.27000 222.686
42.28000 214.596
42.29000 204.876
42.30000 197.337
42.31000 197.501
42.32000 198.338
42.33000 198.936
42.34000 195.836
42.35000 193.344
42.36000 193.629
42.37000 198.475
42.38000 203.387
42.39000 205.272
42.40000 203.850
42.41000 202.432
42.42000 200.609
42.43000 198.516
42.44000 196.548
42.45000 198.693
42.46000 202.826
42.47000 206.660
42.48000 206.109
42.49000 204.107
42.50000 202.285
42.51000 200.155
42.52000 198.209
42.53000 196.644
42.54000 197.065
42.55000 197.772
42.56000 198.415
42.57000 198.837
42.58000 199.240
42.59000 199.528
42.60000 205.498
42.61000 210.233
42.62000 213.046
42.63000 212.750
42.64000 212.412
42.65000 210.808
42.66000 207.844
42.67000 204.893
42.68000 204.179
42.69000 205.029
42.70000 205.722
42.71000 201.458
42.72000 194.832
42.73000 188.734
42.74000 190.194
42.75000 194.118
42.76000 197.681
42.77000 200.656
42.78000 203.170
42.79000 204.870
42.80000 202.388
42.81000 199.315
42.82000 196.406
42.83000 194.056
42.84000 191.753
42.85000 190.120
42.86000 193.897
42.87000 196.939
42.88000 199.257
42.89000 200.422
42.90000 201.573
42.91000 200.775
42.92000 197.919
42.93000 195.077
42.94000 195.995
42.95000 199.476
42.96000 202.899
42.97000 204.563
42.98000 205.401
42.99000 206.025
43.00000 203.652
43.01000 200.318
43.02000 197.295
43.03000 198.847
43.04000 201.088
43.05000 203.378
43.06000 205.915
43.07000 208.486
43.08000 209.889
43.09000 207.346
43.10000 204.480
43.11000 202.458
43.12000 203.499
43.13000 204.382
43.14000 205.378
43.15000 206.552
43.16000 207.728
43.17000 206.030
43.18000 201.347
43.19000 196.689
43.20000 194.620
43.21000 194.320
43.22000 194.050
43.23000 194.655
43.24000 195.666
43.25000 196.778
43.26000 199.286
43.27000 202.235
43.28000 204.902
43.29000 203.931
43.30000 202.395
43.31000 200.323
43.32000 195.586
43.33000 190.485
43.34000 187.961
43.35000 194.010
43.36000 200.744
43.37000 205.475
43.38000 205.234
43.39000 204.907
43.40000 205.292
43.41000 206.779
43.42000 208.278
43.43000 208.643
43.44000 207.847
43.45000 207.056
43.46000 203.420
43.47000 197.945
43.48000 192.803
43.49000 197.065
43.50000 205.617
43.51000 213.445
43.52000 211.651
43.53000 206.855
43.54000 202.526
43.55000 198.876
43.56000 195.794
43.57000 193.842
43.58000 197.421
43.59000 201.741
43.60000 204.456
43.61000 201.913
43.62000 198.958
43.63000 196.893
43.64000 197.088
43.65000 197.299
43.66000 195.366
43.67000 190.163
43.68000 184.925
43.69000 185.514
43.70000 191.955
43.71000 198.357
43.72000 199.348
43.73000 196.798
43.74000 194.274
43.75000 192.465
43.76000 190.977
43.77000 189.681
43.78000 190.868
43.79000 192.818
43.80000 194.575
43.81000 192.142
43.82000 189.250
43.83000 187.071
43.84000 188.330
43.85000 190.041
43.86000 191.653
43.87000 192.946
43.88000 194.214
43.89000 195.096
43.90000 192.968
43.91000 191.282
43.92000 190.537
43.93000 191.205
43.94000 191.888
43.95000 191.354
43.96000 189.618
43.97000 187.895
43.98000 190.952
43.99000 197.030
44.00000 202.735
44.01000 198.589
44.02000 190.075
44.03000 182.434
44.04000 185.857
44.05000 192.630
44.06000 198.718
44.07000 199.637
44.08000 199.523
44.09000 199.910
44.10000 202.670
44.11000 205.737
44.12000 206.547
44.13000 200.175
44.14000 193.269
44.15000 188.487
44.16000 191.850
44.17000 194.594
44.18000 197.857
44.19000 201.887
44.20000 205.923
44.21000 203.784
44.22000 195.649
44.23000 187.571
44.24000 188.794
44.25000 195.871
44.26000 202.583
44.27000 199.996
44.28000 193.346
44.29000 187.161
44.30000 186.740
44.31000 188.038
44.32000 189.203
44.33000 189.505
44.34000 189.619
44.35000 190.606
44.36000 195.667
44.37000 201.243
44.38000 205.432
44.39000 205.271
44.40000 204.793
44.41000 204.464
44.42000 200.655
44.43000 197.708
44.44000 194.445
44.45000 190.724
44.46000 186.999
44.47000 185.908
44.48000 187.332
44.49000 188.744
44.50000 193.609
44.51000 200.537
44.52000 207.018
44.53000 202.478
44.54000 193.192
44.55000 185.042
44.56000 190.659
44.57000 200.323
44.58000 208.973
44.59000 204.575
44.60000 198.503
44.61000 193.462
44.62000 193.159
44.63000 193.445
44.64000 194.480
44.65000 197.833
44.66000 201.351
44.67000 203.763
44.68000 196.307
44.69000 190.481
44.70000 189.463
44.71000 195.340
44.72000 201.271
44.73000 205.448
44.74000 207.979
44.75000 210.489
44.76000 211.410
44.77000 211.342
44.78000 211.379
44.79000 213.920
44.80000 217.524
44.81000 221.007
44.82000 223.065
44.83000 224.709
44.84000 226.178
44.85000 224.994
44.86000 223.517
44.87000 222.559
44.88000 223.948
44.89000 225.624
44.90000 227.306
44.91000 229.006
44.92000 230.709
44.93000 231.870
44.94000 230.758
44.95000 229.874
44.96000 235.440
44.97000 250.118
44.98000 264.857
44.99000 268.910
45.00000 263.094
45.01000 257.329
45.02000 255.485
45.03000 256.036
45.04000 256.615
45.05000 257.856
45.06000 259.373
45.07000 261.184
45.08000 266.397
45.09000 272.580
45.10000 278.090
45.11000 283.991
45.12000 289.187
45.13000 292.318
45.14000 286.264
45.15000 279.110
45.16000 273.583
45.17000 272.940
45.18000 272.627
45.19000 272.414
45.20000 274.565
45.21000 276.223
45.22000 279.505
45.23000 285.045
45.24000 290.599
45.25000 292.384
45.26000 290.745
45.27000 289.122
45.28000 286.194
45.29000 282.551
45.30000 279.037
45.31000 278.434
45.32000 279.030
45.33000 279.308
45.34000 275.990
45.35000 271.662
45.36000 267.813
45.37000 267.001
45.38000 266.790
45.39000 265.910
45.40000 262.105
45.41000 257.957
45.42000 255.710
45.43000 259.091
45.44000 262.841
45.45000 265.375
45.46000 262.058
45.47000 259.464
45.48000 256.239
45.49000 252.152
45.50000 248.060
45.51000 245.864
45.52000 245.360
45.53000 244.862
45.54000 242.018
45.55000 237.869
45.56000 233.847
45.57000 232.596
45.58000 232.470
45.59000 232.393
45.60000 232.841
45.61000 233.434
45.62000 233.961
45.63000 234.052
45.64000 234.061
45.65000 234.094
45.66000 234.229
45.67000 234.376
45.68000 233.450
45.69000 229.395
45.70000 225.139
45.71000 222.278
45.72000 218.050
45.73000 214.881
45.74000 213.349
45.75000 214.027
45.76000 214.713
45.77000 212.207
45.78000 206.895
45.79000 201.639
45.80000 201.953
45.81000 205.456
45.82000 208.899
45.83000 211.071
45.84000 212.734
45.85000 213.901
45.86000 209.688
45.87000 204.007
45.88000 198.978
45.89000 197.981
45.90000 197.749
45.91000 198.229
45.92000 201.738
45.93000 205.587
45.94000 207.125
45.95000 202.015
45.96000 196.491
45.97000 192.797
45.98000 192.389
45.99000 192.152
46.00000 191.600
46.01000 190.631
46.02000 189.661
46.03000 190.159
46.04000 191.925
46.05000 193.672
46.06000 192.189
46.07000 188.917
46.08000 185.823
46.09000 186.388
46.10000 188.398
46.11000 190.427
46.12000 192.663
46.13000 194.955
46.14000 196.978
46.15000 194.059
46.16000 190.779
46.17000 187.742
46.18000 185.720
46.19000 183.810
46.20000 182.734
46.21000 184.023
46.22000 185.456
46.23000 186.408
46.24000 182.902
46.25000 180.225
46.26000 181.099
46.27000 186.616
46.28000 192.148
46.29000 193.935
46.30000 192.534
46.31000 191.150
46.32000 189.144
46.33000 186.842
46.34000 184.645
46.35000 184.515
46.36000 185.191
46.37000 185.591
46.38000 183.137
46.39000 179.927
46.40000 177.099
46.41000 178.569
46.42000 180.483
46.43000 181.571
46.44000 179.255
46.45000 176.571
46.46000 175.323
46.47000 178.088
46.48000 181.091
46.49000 183.078
46.50000 181.034
46.51000 179.452
46.52000 177.887
46.53000 176.344
46.54000 174.800
46.55000 172.519
46.56000 169.621
46.57000 166.759
46.58000 169.767
46.59000 175.910
46.60000 181.756
46.61000 181.907
46.62000 179.872
46.63000 178.160
46.64000 179.730
46.65000 182.157
46.66000 184.290
46.67000 181.156
46.68000 177.683
46.69000 174.329
46.70000 171.462
46.71000 168.647
46.72000 167.927
46.73000 172.970
46.74000 178.346
46.75000 181.884
46.76000 178.340
46.77000 175.608
46.78000 174.264
46.79000 174.679
46.80000 175.100
46.81000 175.690
46.82000 176.421
46.83000 177.142
46.84000 180.279
46.85000 184.634
46.86000 188.737
46.87000 188.136
46.88000 185.757
46.89000 183.250
46.90000 179.479
46.91000 175.383
46.92000 171.791
46.93000 174.583
46.94000 177.907
46.95000 180.353
46.96000 179.293
46.97000 177.867
46.98000 175.823
46.99000 172.102
47.00000 168.286
47.01000 165.788
47.02000 172.336
47.03000 177.297
47.04000 178.837
47.05000 176.113
47.06000 173.390
47.07000 175.725
47.08000 182.165
47.09000 188.515
47.10000 187.532
47.11000 182.690
47.12000 177.886
47.13000 173.773
47.14000 169.917
47.15000 166.634
47.16000 168.924
47.17000 172.624
47.18000 175.861
47.19000 175.681
47.20000 175.040
47.21000 174.773
47.22000 175.983
47.23000 177.343
47.24000 177.316
47.25000 173.582
47.26000 169.645
47.27000 167.083
47.28000 169.253
47.29000 170.918
47.30000 172.281
47.31000 173.274
47.32000 174.266
47.33000 175.546
47.34000 177.055
47.35000 178.543
47.36000 177.112
47.37000 174.202
47.38000 171.357
47.39000 169.650
47.40000 168.362
47.41000 167.207
47.42000 167.325
47.43000 167.760
47.44000 168.140
47.45000 170.007
47.46000 171.812
47.47000 172.570
47.48000 169.268
47.49000 165.560
47.50000 163.625
47.51000 166.360
47.52000 169.343
47.53000 171.274
47.54000 171.696
47.55000 171.983
47.56000 171.334
47.57000 169.557
47.58000 167.777
47.59000 165.958
47.60000 164.108
47.61000 162.286
47.62000 161.764
47.63000 161.923
47.64000 162.224
47.65000 164.943
47.66000 168.537
47.67000 171.746
47.68000 171.349
47.69000 170.067
47.70000 168.950
47.71000 170.094
47.72000 171.381
47.73000 171.832
47.74000 169.096
47.75000 166.049
47.76000 161.517
47.77000 153.133
47.78000 144.550
47.79000 139.023
47.80000 150.361
47.81000 158.875
47.82000 163.631
47.83000 163.918
47.84000 164.201
47.85000 165.253
47.86000 166.901
47.87000 168.523
47.88000 166.242
47.89000 162.063
47.90000 158.347
47.91000 162.423
47.92000 169.278
47.93000 175.109
47.94000 171.541
47.95000 165.701
47.96000 160.631
47.97000 162.965
47.98000 165.951
47.99000 167.745
48.00000 165.058
48.01000 161.943
48.02000 160.598
48.03000 163.782
48.04000 167.193
48.05000 169.377
48.06000 164.787
48.07000 161.353
48.08000 159.944
48.09000 160.902
48.10000 161.863
48.11000 162.389
48.12000 162.585
48.13000 162.778
48.14000 162.367
48.15000 161.667
48.16000 160.998
48.17000 160.814
48.18000 160.801
48.19000 160.767
48.20000 160.542
48.21000 160.271
48.22000 160.037
48.23000 159.324
48.24000 158.654
48.25000 157.793
48.26000 156.221
48.27000 154.583
48.28000 155.605
48.29000 163.336
48.30000 171.393
48.31000 176.523
48.32000 171.735
48.33000 168.130
48.34000 165.750
48.35000 164.782
48.36000 163.830
48.37000 165.896
48.38000 170.225
48.39000 174.478
48.40000 172.643
48.41000 167.890
48.42000 163.399
48.43000 163.068
48.44000 164.178
48.45000 164.983
48.46000 163.092
48.47000 160.569
48.48000 158.390
48.49000 159.102
48.50000 160.081
48.51000 162.012
48.52000 167.422
48.53000 173.151
48.54000 176.256
48.55000 172.835
48.56000 169.107
48.57000 166.747
48.58000 160.653
48.59000 156.190
48.60000 154.955
48.61000 157.377
48.62000 159.801
48.63000 161.842
48.64000 163.599
48.65000 165.325
48.66000 166.339
48.67000 166.976
48.68000 167.605
48.69000 168.119
48.70000 168.593
48.71000 169.033
48.72000 169.178
48.73000 169.255
48.74000 169.320
48.75000 165.630
48.76000 162.025
48.77000 159.099
48.78000 158.614
48.79000 158.347
48.80000 157.644
48.81000 155.872
48.82000 154.050
48.83000 152.903
48.84000 159.943
48.85000 165.129
48.86000 166.806
48.87000 164.575
48.88000 162.366
48.89000 164.286
48.90000 169.207
48.91000 174.035
48.92000 171.811
48.93000 166.324
48.94000 161.046
48.95000 158.909
48.96000 157.830
48.97000 156.932
48.98000 157.563
48.99000 158.543
49.00000 159.384
49.01000 158.151
49.02000 156.850
49.03000 155.873
49.04000 156.043
49.05000 156.315
49.06000 156.892
49.07000 158.204
49.08000 159.550
49.09000 160.392
49.10000 152.962
49.11000 147.510
49.12000 146.303
49.13000 149.748
49.14000 153.174
49.15000 153.295
49.16000 151.050
49.17000 148.850
49.18000 149.639
49.19000 151.794
49.20000 153.911
49.21000 155.472
49.22000 156.848
49.23000 158.227
49.24000 159.636
49.25000 161.051
49.26000 162.264
49.27000 155.886
49.28000 149.574
49.29000 145.346
49.30000 148.387
49.31000 152.053
49.32000 154.356
49.33000 153.413
49.34000 152.332
49.35000 151.659
49.36000 153.462
49.37000 154.785
49.38000 153.496
49.39000 149.390
49.40000 145.321
49.41000 146.429
49.42000 151.188
49.43000 155.848
49.44000 153.798
49.45000 148.744
49.46000 144.171
49.47000 146.485
49.48000 151.051
49.49000 155.115
49.50000 155.085
49.51000 154.154
49.52000 153.358
49.53000 156.195
49.54000 159.021
49.55000 160.802
49.56000 158.988
49.57000 156.873
49.58000 155.063
49.59000 153.971
49.60000 152.908
49.61000 152.250
49.62000 152.725
49.63000 153.076
49.64000 153.067
49.65000 152.676
49.66000 152.276
49.67000 150.797
49.68000 148.569
49.69000 146.390
49.70000 148.827
49.71000 153.253
49.72000 157.461
49.73000 158.602
49.74000 158.755
49.75000 158.733
49.76000 157.308
49.77000 155.578
49.78000 154.103
49.79000 150.335
49.80000 146.895
49.81000 145.778
49.82000 152.528
49.83000 159.925
49.84000 164.306
49.85000 161.712
49.86000 158.838
49.87000 157.072
49.88000 153.177
49.89000 150.366
49.90000 148.016
49.91000 146.147
49.92000 144.320
49.93000 147.231
49.94000 153.383
49.95000 159.396
49.96000 158.670
49.97000 154.975
49.98000 151.599
49.99000 152.574
50.00000 154.932
50.01000 157.275
50.02000 159.497
50.03000 161.693
50.04000 163.560
50.05000 160.851
50.06000 158.049
50.07000 156.378
50.08000 158.481
50.09000 160.886
50.10000 161.510
50.11000 158.072
50.12000 154.476
50.13000 152.279
50.14000 154.565
50.15000 156.237
50.16000 157.440
50.17000 158.162
50.18000 158.867
50.19000 157.766
50.20000 155.447
50.21000 153.184
50.22000 156.982
50.23000 163.272
50.24000 168.888
50.25000 165.509
50.26000 159.316
50.27000 154.054
50.28000 155.968
50.29000 159.391
50.30000 162.292
50.31000 166.000
50.32000 169.199
50.33000 171.026
50.34000 168.339
50.35000 165.299
50.36000 163.265
50.37000 163.493
50.38000 163.805
50.39000 163.995
50.40000 157.785
50.41000 153.304
50.42000 153.242
50.43000 157.634
50.44000 162.005
50.45000 164.338
50.46000 165.317
50.47000 166.272
50.48000 172.187
50.49000 179.977
50.50000 187.178
50.51000 186.689
50.52000 183.831
50.53000 180.964
50.54000 178.042
50.55000 175.108
50.56000 172.628
50.57000 179.520
50.58000 186.321
50.59000 191.564
50.60000 191.759
50.61000 191.566
50.62000 194.912
50.63000 206.094
50.64000 217.561
50.65000 224.479
50.66000 217.965
50.67000 213.230
50.68000 212.428
50.69000 215.521
50.70000 218.610
50.71000 221.229
50.72000 223.541
50.73000 225.794
50.74000 224.739
50.75000 222.329
50.76000 219.821
50.77000 216.075
50.78000 211.952
50.79000 208.682
50.80000 211.742
50.81000 216.090
50.82000 219.756
50.83000 222.399
50.84000 224.495
50.85000 225.258
50.86000 221.764
50.87000 217.951
50.88000 214.609
50.89000 212.298
50.90000 210.023
50.91000 208.659
50.92000 213.910
50.93000 217.684
50.94000 214.975
50.95000 205.950
50.96000 196.966
50.97000 191.550
50.98000 188.432
50.99000 185.396
51.00000 183.289
51.01000 181.668
51.02000 180.199
51.03000 180.604
51.04000 181.570
51.05000 182.595
51.06000 184.057
51.07000 185.606
51.08000 186.908
51.09000 182.117
51.10000 177.478
51.11000 173.525
51.12000 171.731
51.13000 170.095
51.14000 168.680
51.15000 167.738
51.16000 166.812
51.17000 166.261
51.18000 163.480
51.19000 161.495
51.20000 160.227
51.21000 159.644
51.22000 159.096
51.23000 161.325
51.24000 165.316
51.25000 169.197
51.26000 169.918
51.27000 169.305
51.28000 168.727
51.29000 168.571
51.30000 168.539
51.31000 167.984
51.32000 163.674
51.33000 158.624
51.34000 154.391
51.35000 153.561
51.36000 153.223
51.37000 153.373
51.38000 155.036
51.39000 156.807
51.40000 156.754
51.41000 152.836
51.42000 148.791
51.43000 146.397
51.44000 152.707
51.45000 157.216
51.46000 159.137
51.47000 158.617
51.48000 158.110
51.49000 158.520
51.50000 159.502
51.51000 160.457
51.52000 158.362
51.53000 155.137
51.54000 151.876
51.55000 148.185
51.56000 144.369
51.57000 141.573
51.58000 145.949
51.59000 151.715
51.60000 156.534
51.61000 151.958
51.62000 147.203
51.63000 143.202
51.64000 141.503
51.65000 139.965
51.66000 140.253
51.67000 144.357
51.68000 148.580
51.69000 151.064
51.70000 152.780
51.71000 153.986
51.72000 154.105
51.73000 153.217
51.74000 152.341
51.75000 152.333
51.76000 152.859
51.77000 153.371
51.78000 151.889
51.79000 149.690
51.80000 147.381
51.81000 143.796
51.82000 139.845
51.83000 136.486
51.84000 137.212
51.85000 138.717
51.86000 139.972
51.87000 145.263
51.88000 150.051
51.89000 152.687
51.90000 148.846
51.91000 144.566
51.92000 143.296
51.93000 148.228
51.94000 153.348
51.95000 156.339
51.96000 146.805
51.97000 140.041
51.98000 139.432
51.99000 144.435
52.00000 149.355
52.01000 148.706
52.02000 144.680
52.03000 140.777
52.04000 143.933
52.05000 149.689
52.06000 154.690
52.07000 151.113
52.08000 145.115
52.09000 139.525
52.10000 136.694
52.11000 134.381
52.12000 132.458
52.13000 139.210
52.14000 145.641
52.15000 148.914
52.16000 142.815
52.17000 136.097
52.18000 132.610
52.19000 135.685
52.20000 138.951
52.21000 140.846
52.22000 144.171
52.23000 146.509
52.24000 146.939
52.25000 145.656
52.26000 144.358
52.27000 142.085
52.28000 139.230
52.29000 136.465
52.30000 135.950
52.31000 136.331
52.32000 136.779
52.33000 137.979
52.34000 139.387
52.35000 140.602
52.36000 140.535
52.37000 140.231
52.38000 139.979
52.39000 140.774
52.40000 141.531
52.41000 141.929
52.42000 141.277
52.43000 140.558
52.44000 140.681
52.45000 142.491
52.46000 144.349
52.47000 145.419
52.48000 147.524
52.49000 149.001
52.50000 149.511
52.51000 149.166
52.52000 148.749
52.53000 143.928
52.54000 136.514
52.55000 129.341
52.56000 128.706
52.57000 130.589
52.58000 132.390
52.59000 133.315
52.60000 134.000
52.61000 134.825
52.62000 136.570
52.63000 138.481
52.64000 140.060
52.65000 141.664
52.66000 142.988
52.67000 144.064
52.68000 144.423
52.69000 144.737
52.70000 144.232
52.71000 142.112
52.72000 139.948
52.73000 138.709
52.74000 141.618
52.75000 143.662
52.76000 144.045
52.77000 142.986
52.78000 141.943
52.79000 141.780
52.80000 142.129
52.81000 142.465
52.82000 143.991
52.83000 145.875
52.84000 147.309
52.85000 143.936
52.86000 139.267
52.87000 135.707
52.88000 139.276
52.89000 144.119
52.90000 148.107
52.91000 150.456
52.92000 152.237
52.93000 152.435
52.94000 148.131
52.95000 143.552
52.96000 141.315
52.97000 143.631
52.98000 146.064
52.99000 147.448
53.00000 140.959
53.01000 136.417
53.02000 133.530
53.03000 132.058
53.04000 130.609
53.05000 130.417
53.06000 130.943
53.07000 131.450
53.08000 131.914
53.09000 132.335
53.10000 133.069
53.11000 137.065
53.12000 141.927
53.13000 146.419
53.14000 148.570
53.15000 150.310
53.16000 151.738
53.17000 144.920
53.18000 138.585
53.19000 134.901
53.20000 138.641
53.21000 142.823
53.22000 145.258
53.23000 144.348
53.24000 143.355
53.25000 142.795
53.26000 145.646
53.27000 147.634
53.28000 147.998
53.29000 146.998
53.30000 145.959
53.31000 142.917
53.32000 138.746
53.33000 134.726
53.34000 134.658
53.35000 136.026
53.36000 137.723
53.37000 142.777
53.38000 148.709
53.39000 153.497
53.40000 151.164
53.41000 147.602
53.42000 144.686
53.43000 144.779
53.44000 145.117
53.45000 144.778
53.46000 142.566
53.47000 140.246
53.48000 139.828
53.49000 142.999
53.50000 146.254
53.51000 148.079
53.52000 148.093
53.53000 148.099
53.54000 148.072
53.55000 148.017
53.56000 147.961
53.57000 147.803
53.58000 147.588
53.59000 147.381
53.60000 148.763
53.61000 150.626
53.62000 151.978
53.63000 148.213
53.64000 143.129
53.65000 138.411
53.66000 135.926
53.67000 133.821
53.68000 132.104
53.69000 136.307
53.70000 140.250
53.71000 144.616
53.72000 150.129
53.73000 155.707
53.74000 158.071
53.75000 154.455
53.76000 150.706
53.77000 148.618
53.78000 147.942
53.79000 147.473
53.80000 145.424
53.81000 142.090
53.82000 138.875
53.83000 141.231
53.84000 146.636
53.85000 151.833
53.86000 149.097
53.87000 143.752
53.88000 138.912
53.89000 139.017
53.90000 140.379
53.91000 141.335
53.92000 139.855
53.93000 137.968
53.94000 136.434
53.95000 141.887
53.96000 146.922
53.97000 150.263
53.98000 149.059
53.99000 147.606
54.00000 146.575
54.01000 146.319
54.02000 146.079
54.03000 145.946
54.04000 140.449
54.05000 136.657
54.06000 135.838
54.07000 137.403
54.08000 138.928
54.09000 138.669
54.10000 137.448
54.11000 136.275
54.12000 134.342
54.13000 132.269
54.14000 130.489
54.15000 131.513
54.16000 133.237
54.17000 135.297
54.18000 139.332
54.19000 143.692
54.20000 147.227
54.21000 144.726
54.22000 142.195
54.23000 140.238
54.24000 139.798
54.25000 139.439
54.26000 139.003
54.27000 138.426
54.28000 137.847
54.29000 137.529
54.30000 142.323
54.31000 145.610
54.32000 143.144
54.33000 136.140
54.34000 129.334
54.35000 130.977
54.36000 137.107
54.37000 142.988
54.38000 143.464
54.39000 142.075
54.40000 140.975
54.41000 142.598
54.42000 144.893
54.43000 146.197
54.44000 141.750
54.45000 136.375
54.46000 132.032
54.47000 135.737
54.48000 139.392
54.49000 141.330
54.50000 138.791
54.51000 136.021
54.52000 135.789
54.53000 140.076
54.54000 144.452
54.55000 146.834
54.56000 145.175
54.57000 144.028
54.58000 142.055
54.59000 139.442
54.60000 136.899
54.61000 137.266
54.62000 139.155
54.63000 140.964
54.64000 140.558
54.65000 139.439
54.66000 138.394
54.67000 138.022
54.68000 137.814
54.69000 137.967
54.70000 140.178
54.71000 142.716
54.72000 144.760
54.73000 145.594
54.74000 146.177
54.75000 146.247
54.76000 145.002
54.77000 143.691
54.78000 141.849
54.79000 139.074
54.80000 136.283
54.81000 134.774
54.82000 135.924
54.83000 136.714
54.84000 137.460
54.85000 138.173
54.86000 138.936
54.87000 141.648
54.88000 145.366
54.89000 148.923
54.90000 144.917
54.91000 138.700
54.92000 133.078
54.93000 132.845
54.94000 133.898
54.95000 135.037
54.96000 136.659
54.97000 138.355
54.98000 139.717
54.99000 137.464
55.00000 135.363
55.01000 133.770
55.02000 133.459
55.03000 133.212
55.04000 133.078
55.05000 133.142
55.06000 133.210
55.07000 133.246
55.08000 137.421
55.09000 140.265
55.10000 141.213
55.11000 140.733
55.12000 140.321
55.13000 142.427
55.14000 145.813
55.15000 149.049
55.16000 150.400
55.17000 151.048
55.18000 151.446
55.19000 149.636
55.20000 147.307
55.21000 145.193
55.22000 144.275
55.23000 143.539
55.24000 142.950
55.25000 146.682
55.26000 150.021
55.27000 151.478
55.28000 148.240
55.29000 144.779
55.30000 142.387
55.31000 141.816
55.32000 141.276
55.33000 140.988
55.34000 145.766
55.35000 149.015
55.36000 151.064
55.37000 152.224
55.38000 153.394
55.39000 154.946
55.40000 156.690
55.41000 158.355
55.42000 159.799
55.43000 161.070
55.44000 162.343
55.45000 163.630
55.46000 164.920
55.47000 165.887
55.48000 165.097
55.49000 164.042
55.50000 163.200
55.51000 162.880
55.52000 162.660
55.53000 163.237
55.54000 165.775
55.55000 168.402
55.56000 171.541
55.57000 175.539
55.58000 179.551
55.59000 181.670
55.60000 180.876
55.61000 180.352
55.62000 182.475
55.63000 186.531
55.64000 190.520
55.65000 192.199
55.66000 192.739
55.67000 193.253
55.68000 202.099
55.69000 212.909
55.70000 223.123
55.71000 228.263
55.72000 232.246
55.73000 237.428
55.74000 249.022
55.75000 261.564
55.76000 271.530
55.77000 288.097
55.78000 301.909
55.79000 315.826
55.80000 329.996
55.81000 344.178
55.82000 356.721
55.83000 366.554
55.84000 376.347
55.85000 381.478
55.86000 398.379
55.87000 409.832
55.88000 421.641
55.89000 433.707
55.90000 445.817
55.91000 459.417
55.92000 473.741
55.93000 487.374
55.94000 507.056
55.95000 527.137
55.96000 545.542
55.97000 549.938
55.98000 551.189
55.99000 551.885
56.00000 549.657
56.01000 547.004
56.02000 544.904
56.03000 544.756
56.04000 544.772
56.05000 542.250
56.06000 533.667
56.07000 524.822
56.08000 519.174
56.09000 518.736
56.10000 518.371
56.11000 518.181
56.12000 499.799
56.13000 487.389
56.14000 476.362
56.15000 466.313
56.16000 456.039
56.17000 438.540
56.18000 417.576
56.19000 397.651
56.20000 393.457
56.21000 394.350
56.22000 393.938
56.23000 382.845
56.24000 369.392
56.25000 355.614
56.26000 340.151
56.27000 324.449
56.28000 312.059
56.29000 304.735
56.30000 299.202
56.31000 292.686
56.32000 283.854
56.33000 274.926
56.34000 267.929
56.35000 264.033
56.36000 260.177
56.37000 258.189
56.38000 250.219
56.39000 244.823
56.40000 236.023
56.41000 224.852
56.42000 213.840
56.43000 207.731
56.44000 203.941
56.45000 200.343
56.46000 193.452
56.47000 186.111
56.48000 179.389
56.49000 177.647
56.50000 176.988
56.51000 176.161
56.52000 174.480
56.53000 172.679
56.54000 171.264
56.55000 170.049
56.56000 169.089
56.57000 167.177
56.58000 163.056
56.59000 158.845
56.60000 156.176
56.61000 155.942
56.62000 155.740
56.63000 155.636
56.64000 162.157
56.65000 166.499
56.66000 166.312
56.67000 163.017
56.68000 159.691
56.69000 155.407
56.70000 150.679
56.71000 146.197
56.72000 147.491
56.73000 150.377
56.74000 152.666
56.75000 150.248
56.76000 146.822
56.77000 143.899
56.78000 143.501
56.79000 143.450
56.80000 143.409
56.81000 139.261
56.82000 135.681
56.83000 134.205
56.84000 137.542
56.85000 141.067
56.86000 142.949
56.87000 142.271
56.88000 141.563
56.89000 141.204
56.90000 136.685
56.91000 133.690
56.92000 134.305
56.93000 137.360
56.94000 140.285
56.95000 139.502
56.96000 137.017
56.97000 134.665
56.98000 133.960
56.99000 133.787
57.00000 133.465
57.01000 131.992
57.02000 130.275
57.03000 128.816
57.04000 128.623
57.05000 128.602
57.06000 128.585
57.07000 126.493
57.08000 124.694
57.09000 125.981
57.10000 134.223
57.11000 142.728
57.12000 146.846
57.13000 144.235
57.14000 141.551
57.15000 140.201
57.16000 137.773
57.17000 136.113
57.18000 130.595
57.19000 122.510
57.20000 114.746
57.21000 115.889
57.22000 121.062
57.23000 125.951
57.24000 125.546
57.25000 123.672
57.26000 122.103
57.27000 122.855
57.28000 124.090
57.29000 125.513
57.30000 127.853
57.31000 130.314
57.32000 132.229
57.33000 128.160
57.34000 124.555
57.35000 122.799
57.36000 125.150
57.37000 127.652
57.38000 130.503
57.39000 133.881
57.40000 137.265
57.41000 138.605
57.42000 137.913
57.43000 137.211
57.44000 135.635
57.45000 133.486
57.46000 131.330
57.47000 128.966
57.48000 126.511
57.49000 124.193
57.50000 122.995
57.51000 122.209
57.52000 121.238
57.53000 118.890
57.54000 116.261
57.55000 114.166
57.56000 114.619
57.57000 115.404
57.58000 116.012
57.59000 119.118
57.60000 121.734
57.61000 123.312
57.62000 122.617
57.63000 121.841
57.64000 121.533
57.65000 121.923
57.66000 122.320
57.67000 121.952
57.68000 120.835
57.69000 119.763
57.70000 122.658
57.71000 128.116
57.72000 133.372
57.73000 133.428
57.74000 131.197
57.75000 129.095
57.76000 128.890
57.77000 129.223
57.78000 129.153
57.79000 126.131
57.80000 122.515
57.81000 120.537
57.82000 126.253
57.83000 132.952
57.84000 138.125
57.85000 139.634
57.86000 140.617
57.87000 139.789
57.88000 135.054
57.89000 130.185
57.90000 127.257
57.91000 127.171
57.92000 127.111
57.93000 126.390
57.94000 125.034
57.95000 123.699
57.96000 124.046
57.97000 125.465
57.98000 126.674
57.99000 122.657
58.00000 116.374
58.01000 110.464
58.02000 112.478
58.03000 116.461
58.04000 119.769
58.05000 118.222
58.06000 115.717
58.07000 113.869
58.08000 115.063
58.09000 116.640
58.10000 117.852
58.11000 122.965
58.12000 127.232
58.13000 128.278
58.14000 122.474
58.15000 116.444
58.16000 113.814
58.17000 116.093
58.18000 118.412
58.19000 120.460
58.20000 122.252
58.21000 124.011
58.22000 123.278
58.23000 120.982
58.24000 118.765
58.25000 118.443
58.26000 118.930
58.27000 119.388
58.28000 122.600
58.29000 126.262
58.30000 129.341
58.31000 128.302
58.32000 126.461
58.33000 125.099
58.34000 125.922
58.35000 127.014
58.36000 127.851
58.37000 130.413
58.38000 132.532
58.39000 132.413
58.40000 127.602
58.41000 122.643
58.42000 120.619
58.43000 122.769
58.44000 124.950
58.45000 125.102
58.46000 123.367
58.47000 121.685
58.48000 123.847
58.49000 128.381
58.50000 132.717
58.51000 132.391
58.52000 130.103
58.53000 127.957
58.54000 128.959
58.55000 130.696
58.56000 131.589
58.57000 126.632
58.58000 120.556
58.59000 115.701
58.60000 116.321
58.61000 117.601
58.62000 118.578
58.63000 124.202
58.64000 128.885
58.65000 130.532
58.66000 125.907
58.67000 121.091
58.68000 119.322
58.69000 121.822
58.70000 124.350
58.71000 126.118
58.72000 127.189
58.73000 128.221
58.74000 126.584
58.75000 123.323
58.76000 120.153
58.77000 119.071
58.78000 118.855
58.79000 118.653
58.80000 116.681
58.81000 114.432
58.82000 112.851
58.83000 115.819
58.84000 119.644
58.85000 122.686
58.86000 122.274
58.87000 121.455
58.88000 120.831
58.89000 124.568
58.90000 127.735
58.91000 127.836
58.92000 121.693
58.93000 115.367
58.94000 113.332
58.95000 117.215
58.96000 121.132
58.97000 124.002
58.98000 125.927
58.99000 127.783
59.00000 125.192
59.01000 119.937
59.02000 114.802
59.03000 112.320
59.04000 110.925
59.05000 109.620
59.06000 111.964
59.07000 115.015
59.08000 117.704
59.09000 117.966
59.10000 117.778
59.11000 118.218
59.12000 121.386
59.13000 124.869
59.14000 127.508
59.15000 127.889
59.16000 128.074
59.17000 126.418
59.18000 121.071
59.19000 115.619
59.20000 111.853
59.21000 110.376
59.22000 108.914
59.23000 109.455
59.24000 111.767
59.25000 114.076
59.26000 116.254
59.27000 118.354
59.28000 120.358
59.29000 120.295
59.30000 119.399
59.31000 118.564
59.32000 121.863
59.33000 125.882
59.34000 129.094
59.35000 127.009
59.36000 123.958
59.37000 121.924
59.38000 124.236
59.39000 127.043
59.40000 129.160
59.41000 126.146
59.42000 123.530
59.43000 120.745
59.44000 117.622
59.45000 114.490
59.46000 115.906
59.47000 123.400
59.48000 130.920
59.49000 133.351
59.50000 131.353
59.51000 129.354
59.52000 127.388
59.53000 125.439
59.54000 123.537
59.55000 122.588
59.56000 122.018
59.57000 121.488
59.58000 124.171
59.59000 127.385
59.60000 129.759
59.61000 126.704
59.62000 122.676
59.63000 119.471
59.64000 119.737
59.65000 120.390
59.66000 120.881
59.67000 120.959
59.68000 121.000
59.69000 121.479
59.70000 122.813
59.71000 124.168
59.72000 124.739
59.73000 124.277
59.74000 123.811
59.75000 123.587
59.76000 123.572
59.77000 123.618
59.78000 127.084
59.79000 132.511
59.80000 137.552
59.81000 134.844
59.82000 129.101
59.83000 123.760
59.84000 118.558
59.85000 113.894
59.86000 110.179
59.87000 112.485
59.88000 115.853
59.89000 118.595
59.90000 118.740
59.91000 118.602
59.92000 118.498
59.93000 112.961
59.94000 108.385
59.95000 107.556
59.96000 113.924
59.97000 120.471
59.98000 121.721
59.99000 116.107
60.00000 110.470
60.01000 107.622
60.02000 107.129
60.03000 106.707
60.04000 110.069
60.05000 115.566
60.06000 120.841
60.07000 121.764
60.08000 121.007
60.09000 120.303
60.10000 121.097
60.11000 122.166
60.12000 122.664
60.13000 119.596
60.14000 115.911
60.15000 113.323
60.16000 115.216
60.17000 117.590
60.18000 119.360
60.19000 118.733
60.20000 118.136
60.21000 118.116
60.22000 119.187
60.23000 120.285
60.24000 121.008
60.25000 121.254
60.26000 121.498
60.27000 120.657
60.28000 118.921
60.29000 117.225
60.30000 117.529
60.31000 118.945
60.32000 120.179
60.33000 117.962
60.34000 114.433
60.35000 111.162
60.36000 113.447
60.37000 116.796
60.38000 120.089
60.39000 123.037
60.40000 125.925
60.41000 126.854
60.42000 119.899
60.43000 112.115
60.44000 106.336
60.45000 110.515
60.46000 114.202
60.47000 117.712
60.48000 120.892
60.49000 124.064
60.50000 125.624
60.51000 125.160
60.52000 124.691
60.53000 122.397
60.54000 118.626
60.55000 114.914
60.56000 113.978
60.57000 114.566
60.58000 115.126
60.59000 115.191
60.60000 115.070
60.61000 114.958
60.62000 114.735
60.63000 114.510
60.64000 114.988
60.65000 119.709
60.66000 125.142
60.67000 129.028
60.68000 126.790
60.69000 123.922
60.70000 121.801
60.71000 119.658
60.72000 117.995
60.73000 116.637
60.74000 115.841
60.75000 115.058
60.76000 116.625
60.77000 121.099
60.78000 125.573
60.79000 126.570
60.80000 124.779
60.81000 122.980
60.82000 120.863
60.83000 118.572
60.84000 116.311
60.85000 114.574
60.86000 113.031
60.87000 111.606
60.88000 114.927
60.89000 118.974
60.90000 122.093
60.91000 119.706
60.92000 116.412
60.93000 113.635
60.94000 112.874
60.95000 112.317
60.96000 111.906
60.97000 117.447
60.98000 121.983
60.99000 123.944
61.00000 121.238
61.01000 118.437
61.02000 116.580
61.03000 115.874
61.04000 115.172
61.05000 113.950
61.06000 112.324
61.07000 110.845
61.08000 115.693
61.09000 123.912
61.10000 131.761
61.11000 133.151
61.12000 132.188
61.13000 131.301
61.14000 129.062
61.15000 126.758
61.16000 124.639
61.17000 123.595
61.18000 122.725
61.19000 122.486
61.20000 124.674
61.21000 127.100
61.22000 128.880
61.23000 125.991
61.24000 123.572
61.25000 122.431
61.26000 123.572
61.27000 124.758
61.28000 125.828
61.29000 126.758
61.30000 127.686
61.31000 126.985
61.32000 125.024
61.33000 123.132
61.34000 124.116
61.35000 126.610
61.36000 129.060
61.37000 130.777
61.38000 132.230
61.39000 133.567
61.40000 135.928
61.41000 138.262
61.42000 139.512
61.43000 134.558
61.44000 128.616
61.45000 124.170
61.46000 125.382
61.47000 127.141
61.48000 128.425
61.49000 141.104
61.50000 151.323
61.51000 160.306
61.52000 167.116
61.53000 173.884
61.54000 185.202
61.55000 201.880
61.56000 218.526
61.57000 234.730
61.58000 250.499
61.59000 266.178
61.60000 278.316
61.61000 288.623
61.62000 298.669
61.63000 304.398
61.64000 308.600
61.65000 312.458
61.66000 318.131
61.67000 323.579
61.68000 327.886
61.69000 325.756
61.70000 322.620
61.71000 320.834
61.72000 324.084
61.73000 327.811
61.74000 330.521
61.75000 316.008
61.76000 304.191
61.77000 290.965
61.78000 275.294
61.79000 259.580
61.80000 243.743
61.81000 227.764
61.82000 211.827
61.83000 195.287
61.84000 178.407
61.85000 161.803
61.86000 155.715
61.87000 154.989
61.88000 153.937
61.89000 147.634
61.90000 139.499
61.91000 132.043
61.92000 132.522
61.93000 134.617
61.94000 136.296
61.95000 135.675
61.96000 134.701
61.97000 133.619
61.98000 132.147
61.99000 130.638
62.00000 129.546
62.01000 130.530
62.02000 131.361
62.03000 129.778
62.04000 124.069
62.05000 118.290
62.06000 115.598
62.07000 116.425
62.08000 117.254
62.09000 121.926
62.10000 129.398
62.11000 136.681
62.12000 137.059
62.13000 133.967
62.14000 131.152
62.15000 132.687
62.16000 135.716
62.17000 138.487
62.18000 134.275
62.19000 129.088
62.20000 124.983
62.21000 126.786
62.22000 129.481
62.23000 131.863
62.24000 133.114
62.25000 134.262
62.26000 135.089
62.27000 125.293
62.28000 117.411
62.29000 115.373
62.30000 123.173
62.31000 131.130
62.32000 134.872
62.33000 133.883
62.34000 132.893
62.35000 131.714
62.36000 130.405
62.37000 129.153
62.38000 129.874
62.39000 131.572
62.40000 133.211
62.41000 133.941
62.42000 134.363
62.43000 134.748
62.44000 136.001
62.45000 137.290
62.46000 138.211
62.47000 137.154
62.48000 135.803
62.49000 134.586
62.50000 133.844
62.51000 133.145
62.52000 132.643
62.53000 134.862
62.54000 136.652
62.55000 137.873
62.56000 138.151
62.57000 138.414
62.58000 138.673
62.59000 138.929
62.60000 139.184
62.61000 138.328
62.62000 136.685
62.63000 135.070
62.64000 134.338
62.65000 134.038
62.66000 133.734
62.67000 133.368
62.68000 132.981
62.69000 132.629
62.70000 134.884
62.71000 137.402
62.72000 140.007
62.73000 143.070
62.74000 146.199
62.75000 147.652
62.76000 143.215
62.77000 138.268
62.78000 134.734
62.79000 135.129
62.80000 135.560
62.81000 136.461
62.82000 138.128
62.83000 139.805
62.84000 140.330
62.85000 139.601
62.86000 138.875
62.87000 134.672
62.88000 128.066
62.89000 121.718
62.90000 123.724
62.91000 129.748
62.92000 135.508
62.93000 137.424
62.94000 138.076
62.95000 138.668
62.96000 135.130
62.97000 131.189
62.98000 128.853
62.99000 134.840
63.00000 142.018
63.01000 146.605
63.02000 142.223
63.03000 137.081
63.04000 133.424
63.05000 137.522
63.06000 140.891
63.07000 141.470
63.08000 137.558
63.09000 133.585
63.10000 132.824
63.11000 135.492
63.12000 138.149
63.13000 139.536
63.14000 140.030
63.15000 140.509
63.16000 140.520
63.17000 140.311
63.18000 139.986
63.19000 138.032
63.20000 135.550
63.21000 133.297
63.22000 138.377
63.23000 144.275
63.24000 149.067
63.25000 148.205
63.26000 146.549
63.27000 144.549
63.28000 141.375
63.29000 138.103
63.30000 135.788
63.31000 136.586
63.32000 137.289
63.33000 136.651
63.34000 133.887
63.35000 131.096
63.36000 131.884
63.37000 136.432
63.38000 140.957
63.39000 144.744
63.40000 147.985
63.41000 151.059
63.42000 149.119
63.43000 144.836
63.44000 140.862
63.45000 141.161
63.46000 142.826
63.47000 144.334
63.48000 139.265
63.49000 133.553
63.50000 129.490
63.51000 133.715
63.52000 139.084
63.53000 142.927
63.54000 141.645
63.55000 139.948
63.56000 138.752
63.57000 142.204
63.58000 144.962
63.59000 145.834
63.60000 143.760
63.61000 141.652
63.62000 140.511
63.63000 140.367
63.64000 140.225
63.65000 140.982
63.66000 142.332
63.67000 143.586
63.68000 142.082
63.69000 139.308
63.70000 136.832
63.71000 138.379
63.72000 141.192
63.73000 143.736
63.74000 143.923
63.75000 143.649
63.76000 142.781
63.77000 138.974
63.78000 134.769
63.79000 132.947
63.80000 139.014
63.81000 145.706
63.82000 150.399
63.83000 147.461
63.84000 145.017
63.85000 143.941
63.86000 144.968
63.87000 146.018
63.88000 145.214
63.89000 142.529
63.90000 139.860
63.91000 144.664
63.92000 154.328
63.93000 163.600
63.94000 161.920
63.95000 155.268
63.96000 148.969
63.97000 147.309
63.98000 147.089
63.99000 146.890
64.00000 146.374
64.01000 145.863
64.02000 145.726
64.03000 147.411
64.04000 149.339
64.05000 150.861
64.06000 151.059
64.07000 151.154
64.08000 151.221
64.09000 153.295
64.10000 154.917
64.11000 154.670
64.12000 151.587
64.13000 148.475
64.14000 148.073
64.15000 150.377
64.16000 152.667
64.17000 153.549
64.18000 153.506
64.19000 153.458
64.20000 153.302
64.21000 153.099
64.22000 153.034
64.23000 154.763
64.24000 157.040
64.25000 159.090
64.26000 157.041
64.27000 154.508
64.28000 153.099
64.29000 157.075
64.30000 161.755
64.31000 163.796
64.32000 157.352
64.33000 150.266
64.34000 145.345
64.35000 151.374
64.36000 156.211
64.37000 159.181
64.38000 159.363
64.39000 159.519
64.40000 159.684
64.41000 159.857
64.42000 160.029
64.43000 162.294
64.44000 165.860
64.45000 169.241
64.46000 167.784
64.47000 164.193
64.48000 160.876
64.49000 160.990
64.50000 162.137
64.51000 163.168
64.52000 168.834
64.53000 174.609
64.54000 178.587
64.55000 174.092
64.56000 168.511
64.57000 164.833
64.58000 167.182
64.59000 169.976
64.60000 171.908
64.61000 170.197
64.62000 168.816
64.63000 168.890
64.64000 171.104
64.65000 173.337
64.66000 176.202
64.67000 179.677
64.68000 183.127
64.69000 178.393
64.70000 168.596
64.71000 159.279
64.72000 162.051
64.73000 170.078
64.74000 177.593
64.75000 178.808
64.76000 178.152
64.77000 177.564
64.78000 179.054
64.79000 180.715
64.80000 182.327
64.81000 183.713
64.82000 185.071
64.83000 186.774
64.84000 189.554
64.85000 192.412
64.86000 194.378
64.87000 188.805
64.88000 184.435
64.89000 182.517
64.90000 184.151
64.91000 185.815
64.92000 188.755
64.93000 192.907
64.94000 197.027
64.95000 197.553
64.96000 195.850
64.97000 194.094
64.98000 191.047
64.99000 187.446
65.00000 184.508
65.01000 189.525
65.02000 196.869
65.03000 203.437
65.04000 202.783
65.05000 200.983
65.06000 200.349
65.07000 205.043
65.08000 210.394
65.09000 213.414
65.10000 209.262
65.11000 204.606
65.12000 201.419
65.13000 207.253
65.14000 211.838
65.15000 214.495
65.16000 214.402
65.17000 214.290
65.18000 215.806
65.19000 218.844
65.20000 221.857
65.21000 222.730
65.22000 222.286
65.23000 222.022
65.24000 226.017
65.25000 231.810
65.26000 237.466
65.27000 241.511
65.28000 245.091
65.29000 248.286
65.30000 259.879
65.31000 271.373
65.32000 281.607
65.33000 286.177
65.34000 290.060
65.35000 292.936
65.36000 292.763
65.37000 292.382
65.38000 292.122
65.39000 302.024
65.40000 309.655
65.41000 314.582
65.42000 315.707
65.43000 316.808
65.44000 321.961
65.45000 330.833
65.46000 339.627
65.47000 348.998
65.48000 358.533
65.49000 368.280
65.50000 382.863
65.51000 399.459
65.52000 415.464
65.53000 424.689
65.54000 431.990
65.55000 438.490
65.56000 445.382
65.57000 451.435
65.58000 460.193
65.59000 480.930
65.60000 503.090
65.61000 525.189
65.62000 547.100
65.63000 569.000
65.64000 583.843
65.65000 612.269
65.66000 633.762
65.67000 678.798
65.68000 756.404
65.69000 834.227
65.70000 926.973
65.71000 1033.199
65.72000 1138.420
65.73000 1277.575
65.74000 1433.878
65.75000 1589.441
65.76000 1728.609
65.77000 1861.050
65.78000 1989.348
65.79000 2071.127
65.80000 2139.892
65.81000 2200.989
65.82000 2259.697
65.83000 2310.230
65.84000 2353.305
65.85000 2363.865
65.86000 2370.635
65.87000 2374.267
65.88000 2368.662
65.89000 2362.454
65.90000 2358.269
65.91000 2264.485
65.92000 2192.820
65.93000 2114.240
65.94000 2026.241
65.95000 1938.158
65.96000 1816.085
65.97000 1663.810
65.98000 1513.065
65.99000 1359.458
66.00000 1207.494
66.01000 1057.146
66.02000 941.519
66.03000 839.937
66.04000 742.168
66.05000 686.311
66.06000 642.004
66.07000 602.728
66.08000 562.891
66.09000 528.312
66.10000 495.585
66.11000 470.808
66.12000 446.938
66.13000 428.795
66.14000 427.264
66.15000 426.787
66.16000 426.467
66.17000 432.873
66.18000 437.765
66.19000 440.781
66.20000 441.283
66.21000 441.773
66.22000 443.394
66.23000 446.004
66.24000 448.586
66.25000 464.771
66.26000 488.352
66.27000 511.873
66.28000 534.178
66.29000 555.997
66.30000 577.689
66.31000 598.006
66.32000 617.951
66.33000 635.591
66.34000 652.514
66.35000 667.028
66.36000 681.499
66.37000 695.789
66.38000 710.059
66.39000 722.030
66.40000 727.428
66.41000 732.419
66.42000 735.750
66.43000 726.603
66.44000 719.585
66.45000 710.137
66.46000 697.479
66.47000 684.816
66.48000 679.372
66.49000 680.136
66.50000 680.891
66.51000 652.677
66.52000 608.866
66.53000 565.781
66.54000 537.379
66.55000 514.747
66.56000 491.925
66.57000 467.097
66.58000 441.733
66.59000 419.352
66.60000 415.355
66.61000 414.712
66.62000 413.833
66.63000 411.974
66.64000 410.008
66.65000 406.177
66.66000 397.093
66.67000 387.692
66.68000 381.450
66.69000 387.785
66.70000 392.701
66.71000 396.184
66.72000 397.802
66.73000 399.407
66.74000 398.142
66.75000 394.449
66.76000 390.799
66.77000 387.677
66.78000 384.925
66.79000 382.102
66.80000 377.890
66.81000 373.141
66.82000 369.177
66.83000 373.308
66.84000 379.572
66.85000 385.086
66.86000 393.720
66.87000 401.622
66.88000 407.632
66.89000 405.890
66.90000 403.312
66.91000 401.091
66.92000 399.860
66.93000 398.687
66.94000 397.913
66.95000 394.051
66.96000 391.147
66.97000 390.413
66.98000 392.455
66.99000 394.506
67.00000 396.127
67.01000 397.391
67.02000 398.639
67.03000 406.090
67.04000 416.720
67.05000 426.915
67.06000 428.792
67.07000 427.495
67.08000 426.550
67.09000 429.158
67.10000 432.687
67.11000 435.787
67.12000 426.531
67.13000 416.758
67.14000 410.812
67.15000 420.306
67.16000 431.429
67.17000 438.352
67.18000 433.779
67.19000 428.549
67.20000 425.114
67.21000 424.194
67.22000 423.560
67.23000 423.861
67.24000 425.342
67.25000 426.820
67.26000 425.675
67.27000 422.379
67.28000 419.126
67.29000 425.790
67.30000 437.580
67.31000 448.720
67.32000 447.794
67.33000 442.327
67.34000 437.639
67.35000 440.648
67.36000 445.623
67.37000 449.981
67.38000 446.822
67.39000 443.026
67.40000 441.305
67.41000 447.827
67.42000 455.200
67.43000 459.813
67.44000 456.977
67.45000 453.728
67.46000 451.605
67.47000 451.924
67.48000 452.197
67.49000 454.884
67.50000 460.565
67.51000 466.242
67.52000 467.729
67.53000 465.835
67.54000 463.968
67.55000 468.367
67.56000 475.944
67.57000 483.054
67.58000 481.768
67.59000 477.369
67.60000 473.108
67.61000 470.195
67.62000 467.620
67.63000 465.371
67.64000 464.839
67.65000 464.627
67.66000 465.743
67.67000 472.057
67.68000 478.898
67.69000 483.956
67.70000 484.277
67.71000 484.342
67.72000 484.385
67.73000 490.709
67.74000 495.439
67.75000 497.262
67.76000 495.535
67.77000 493.816
67.78000 497.143
67.79000 504.477
67.80000 511.702
67.81000 511.591
67.82000 507.677
67.83000 503.911
67.84000 502.738
67.85000 502.514
67.86000 503.139
67.87000 511.827
67.88000 522.513
67.89000 531.829
67.90000 528.859
67.91000 524.613
67.92000 521.473
67.93000 522.596
67.94000 524.142
67.95000 525.277
67.96000 525.338
67.97000 525.342
67.98000 525.345
67.99000 526.961
68.00000 528.166
68.01000 536.177
68.02000 552.365
68.03000 568.526
68.04000 573.005
68.05000 568.353
68.06000 563.773
68.07000 562.749
68.08000 563.572
68.09000 564.380
68.10000 564.928
68.11000 565.383
68.12000 565.823
68.13000 566.127
68.14000 566.399
68.15000 566.635
68.16000 574.334
68.17000 581.922
68.18000 587.332
68.19000 584.474
68.20000 580.813
68.21000 580.899
68.22000 590.664
68.23000 600.922
68.24000 607.516
68.25000 609.834
68.26000 611.466
68.27000 613.672
68.28000 616.556
68.29000 619.445
68.30000 623.140
68.31000 627.454
68.32000 631.699
68.33000 638.811
68.34000 647.135
68.35000 655.522
68.36000 664.960
68.37000 674.771
68.38000 684.261
68.39000 690.822
68.40000 696.678
68.41000 701.758
68.42000 705.862
68.43000 709.227
68.44000 712.420
68.45000 714.974
68.46000 717.466
68.47000 722.486
68.48000 733.941
68.49000 745.714
68.50000 753.238
68.51000 777.023
68.52000 794.548
68.53000 814.196
68.54000 836.311
68.55000 858.423
68.56000 879.087
68.57000 898.652
68.58000 917.885
68.59000 946.326
68.60000 978.374
68.61000 1010.865
68.62000 1050.523
68.63000 1092.688
68.64000 1136.095
68.65000 1190.590
68.66000 1247.711
68.67000 1297.136
68.68000 1358.920
68.69000 1413.066
68.70000 1463.361
68.71000 1499.465
68.72000 1534.248
68.73000 1580.395
68.74000 1655.063
68.75000 1731.101
68.76000 1779.422
68.77000 1830.100
68.78000 1866.932
68.79000 1920.135
68.80000 1992.076
68.81000 2064.089
68.82000 2145.813
68.83000 2234.781
68.84000 2322.167
68.85000 2464.452
68.86000 2628.551
68.87000 2796.794
68.88000 3030.357
68.89000 3286.447
68.90000 3585.611
68.91000 4261.917
68.92000 5026.137
68.93000 5685.705
68.94000 7785.850
68.95000 9753.265
68.96000 12065.951
68.97000 15632.189
68.98000 19312.584
68.99000 23198.525
69.00000 27592.912
69.01000 32010.998
69.02000 34802.531
69.03000 39644.441
69.04000 43176.918
69.05000 45972.684
69.06000 47938.852
69.07000 49900.957
69.08000 51282.004
69.09000 52236.301
69.10000 53172.855
69.11000 53945.352
69.12000 54611.641
69.13000 55293.863
69.14000 56220.801
69.15000 57230.914
69.16000 58161.938
69.17000 58413.926
69.18000 58510.059
69.19000 58592.809
69.20000 56855.027
69.21000 55153.473
69.22000 53047.695
69.23000 49496.129
69.24000 45815.750
69.25000 42280.238
69.26000 39097.934
69.27000 35931.594
69.28000 33942.559
69.29000 31597.660
69.30000 29898.457
69.31000 28717.160
69.32000 28109.596
69.33000 27503.047
69.34000 26998.461
69.35000 26567.613
69.36000 26145.133
69.37000 25293.529
69.38000 24271.105
69.39000 23202.525
69.40000 21442.850
69.41000 19451.680
69.42000 17430.195
69.43000 15153.444
69.44000 12819.008
69.45000 10814.734
69.46000 8805.107
69.47000 7105.428
69.48000 5577.935
69.49000 4657.187
69.50000 3789.317
69.51000 3059.179
69.52000 2660.035
69.53000 2275.392
69.54000 2035.182
69.55000 1792.565
69.56000 1617.535
69.57000 1495.748
69.58000 1431.979
69.59000 1368.219
69.60000 1302.091
69.61000 1234.277
69.62000 1167.836
69.63000 1120.620
69.64000 1084.135
69.65000 1047.328
69.66000 1005.823
69.67000 962.767
69.68000 921.289
69.69000 892.854
69.70000 867.321
69.71000 845.456
69.72000 821.854
69.73000 801.727
69.74000 781.186
69.75000 759.215
69.76000 737.121
69.77000 718.289
69.78000 707.185
69.79000 696.409
69.80000 689.719
69.81000 682.206
69.82000 676.792
69.83000 668.158
69.84000 656.074
69.85000 644.023
69.86000 636.394
69.87000 631.866
69.88000 627.433
69.89000 616.873
69.90000 603.932
69.91000 591.079
69.92000 579.490
69.93000 568.311
69.94000 558.223
69.95000 556.974
69.96000 557.660
69.97000 558.246
69.98000 547.014
69.99000 536.149
70.00000 527.812
