20.00000 470.281
20.01000 473.770
20.02000 477.759
20.03000 481.839
20.04000 486.284
20.05000 490.766
20.06000 494.076
20.07000 505.559
20.08000 514.807
20.09000 515.526
20.10000 500.629
20.11000 485.398
20.12000 478.785
20.13000 482.774
20.14000 486.784
20.15000 487.223
20.16000 484.816
20.17000 482.454
20.18000 482.127
20.19000 482.895
20.20000 483.737
20.21000 485.904
20.22000 488.557
20.23000 491.007
20.24000 493.076
20.25000 494.845
20.26000 495.459
20.27000 489.256
20.28000 481.936
20.29000 477.139
20.30000 482.140
20.31000 488.123
20.32000 492.522
20.33000 489.042
20.34000 486.025
20.35000 485.721
20.36000 490.311
20.37000 495.002
20.38000 492.862
20.39000 482.454
20.40000 472.047
20.41000 469.883
20.42000 474.191
20.43000 478.394
20.44000 478.161
20.45000 475.574
20.46000 473.242
20.47000 475.307
20.48000 478.965
20.49000 482.336
20.50000 479.918
20.51000 476.480
20.52000 474.130
20.53000 478.090
20.54000 483.066
20.55000 485.821
20.56000 480.075
20.57000 473.494
20.58000 468.675
20.59000 477.727
20.60000 485.269
20.61000 489.439
20.62000 487.613
20.63000 485.672
20.64000 483.793
20.65000 481.990
20.66000 480.191
20.67000 478.065
20.68000 475.697
20.69000 473.369
20.70000 472.635
20.71000 472.735
20.72000 473.148
20.73000 478.839
20.74000 486.416
20.75000 493.383
20.76000 490.822
20.77000 486.473
20.78000 481.646
20.79000 474.100
20.80000 466.123
20.81000 460.704
20.82000 464.925
20.83000 470.073
20.84000 473.826
20.85000 472.034
20.86000 470.439
20.87000 471.731
20.88000 478.080
20.89000 484.523
20.90000 484.655
20.91000 477.388
20.92000 470.128
20.93000 467.236
20.94000 467.677
20.95000 468.186
20.96000 471.396
20.97000 475.998
20.98000 480.210
20.99000 478.049
21.00000 473.642
21.01000 469.598
21.02000 476.298
21.03000 484.558
21.04000 490.847
21.05000 486.080
21.06000 479.593
21.07000 475.581
21.08000 480.759
21.09000 486.802
21.10000 491.189
21.11000 487.759
21.12000 484.828
21.13000 480.924
21.14000 475.340
21.15000 469.727
21.16000 470.594
21.17000 478.936
21.18000 487.264
21.19000 489.517
21.20000 487.221
21.21000 484.936
21.22000 483.064
21.23000 481.401
21.24000 480.090
21.25000 484.391
21.26000 490.640
21.27000 496.365
21.28000 488.135
21.29000 477.890
21.30000 468.448
21.31000 463.431
21.32000 459.090
21.33000 457.110
21.34000 463.765
21.35000 471.214
21.36000 476.599
21.37000 469.429
21.38000 463.473
21.39000 461.661
21.40000 466.898
21.41000 472.253
21.42000 476.027
21.43000 478.007
21.44000 479.978
21.45000 474.803
21.46000 464.420
21.47000 454.287
21.48000 453.115
21.49000 456.427
21.50000 459.773
21.51000 463.647
21.52000 467.702
21.53000 471.410
21.54000 472.809
21.55000 473.577
21.56000 473.961
21.57000 472.266
21.58000 470.258
21.59000 469.002
21.60000 470.457
21.61000 472.157
21.62000 473.380
21.63000 471.269
21.64000 469.535
21.65000 466.597
21.66000 461.642
21.67000 456.656
21.68000 457.079
21.69000 463.543
21.70000 469.989
21.71000 473.148
21.72000 473.906
21.73000 474.659
21.74000 475.218
21.75000 475.682
21.76000 476.377
21.77000 480.561
21.78000 485.921
21.79000 490.814
21.80000 491.345
21.81000 490.935
21.82000 491.552
21.83000 497.645
21.84000 504.546
21.85000 510.147
21.86000 511.130
21.87000 511.706
21.88000 512.119
21.89000 520.803
21.90000 527.721
21.91000 532.909
21.92000 535.243
21.93000 537.534
21.94000 542.337
21.95000 549.898
21.96000 557.431
21.97000 554.843
21.98000 545.087
21.99000 535.690
22.00000 538.254
22.01000 546.631
22.02000 554.668
22.03000 557.679
22.04000 559.020
22.05000 560.241
22.06000 576.165
22.07000 593.186
22.08000 607.967
22.09000 610.984
22.10000 612.296
22.11000 609.622
22.12000 593.014
22.13000 575.205
22.14000 562.502
22.15000 584.741
22.16000 602.848
22.17000 612.079
22.18000 606.870
22.19000 601.459
22.20000 597.393
22.21000 594.781
22.22000 592.180
22.23000 591.577
22.24000 592.378
22.25000 592.905
22.26000 584.654
22.27000 572.199
22.28000 560.268
22.29000 555.884
22.30000 553.973
22.31000 552.236
22.32000 547.606
22.33000 542.950
22.34000 538.341
22.35000 533.983
22.36000 529.660
22.37000 526.962
22.38000 529.861
22.39000 533.232
22.40000 535.625
22.41000 522.095
22.42000 511.294
22.43000 505.940
22.44000 509.315
22.45000 512.806
22.46000 512.716
22.47000 508.821
22.48000 504.944
22.49000 499.145
22.50000 492.088
22.51000 485.024
22.52000 477.749
22.53000 470.374
22.54000 463.440
22.55000 462.702
22.56000 463.964
22.57000 465.109
22.58000 462.919
22.59000 460.347
22.60000 458.914
22.61000 463.270
22.62000 468.437
22.63000 471.548
22.64000 467.682
22.65000 463.241
22.66000 460.103
22.67000 464.423
22.68000 467.933
22.69000 468.326
22.70000 463.798
22.71000 459.210
22.72000 456.259
22.73000 455.019
22.74000 453.786
22.75000 450.797
22.76000 446.655
22.77000 442.811
22.78000 447.783
22.79000 456.859
22.80000 464.953
22.81000 459.578
22.82000 449.917
22.83000 441.172
22.84000 442.187
22.85000 444.921
22.86000 447.235
22.87000 447.453
22.88000 447.384
22.89000 447.284
22.90000 447.086
22.91000 446.880
22.92000 446.735
22.93000 440.162
22.94000 434.991
22.95000 433.864
22.96000 439.027
22.97000 444.264
22.98000 447.363
22.99000 448.266
23.00000 449.163
23.01000 444.876
23.02000 437.188
23.03000 429.695
23.04000 427.773
23.05000 428.407
23.06000 428.939
23.07000 428.100
23.08000 426.831
23.09000 425.685
23.10000 431.395
23.11000 437.685
23.12000 442.657
23.13000 441.147
23.14000 438.762
23.15000 439.400
23.16000 449.994
23.17000 461.372
23.18000 469.339
23.19000 450.727
23.20000 435.892
23.21000 431.895
23.22000 444.502
23.23000 457.289
23.24000 456.728
23.25000 442.682
23.26000 428.719
23.27000 427.454
23.28000 434.533
23.29000 441.458
23.30000 444.143
23.31000 444.912
23.32000 445.273
23.33000 440.292
23.34000 433.660
23.35000 427.682
23.36000 435.185
23.37000 444.223
23.38000 450.515
23.39000 443.506
23.40000 434.736
23.41000 430.284
23.42000 439.852
23.43000 450.496
23.44000 457.915
23.45000 453.833
23.46000 450.436
23.47000 448.542
23.48000 448.916
23.49000 449.313
23.50000 449.303
23.51000 448.889
23.52000 448.478
23.53000 443.080
23.54000 434.543
23.55000 426.304
23.56000 425.975
23.57000 429.171
23.58000 432.068
23.59000 431.144
23.60000 429.057
23.61000 427.179
23.62000 429.446
23.63000 432.172
23.64000 435.161
23.65000 439.405
23.66000 443.811
23.67000 444.268
23.68000 432.088
23.69000 418.961
23.70000 409.855
23.71000 411.325
23.72000 412.712
23.73000 414.309
23.74000 416.218
23.75000 418.129
23.76000 420.952
23.77000 424.663
23.78000 428.349
23.79000 426.640
23.80000 421.532
23.81000 416.667
23.82000 418.065
23.83000 422.214
23.84000 426.443
23.85000 431.681
23.86000 437.222
23.87000 442.196
23.88000 442.223
23.89000 441.378
23.90000 440.688
23.91000 440.728
23.92000 440.861
23.93000 439.592
23.94000 433.904
23.95000 427.893
23.96000 423.743
23.97000 428.065
23.98000 431.530
23.99000 432.308
24.00000 429.153
24.01000 425.964
24.02000 425.186
24.03000 426.724
24.04000 428.249
24.05000 426.888
24.06000 423.746
24.07000 420.586
24.08000 416.991
24.09000 413.208
24.10000 410.011
24.11000 413.967
24.12000 420.037
24.13000 425.475
24.14000 425.561
24.15000 424.713
24.16000 424.711
24.17000 428.610
24.18000 432.997
24.19000 434.368
24.20000 426.371
24.21000 417.704
24.22000 411.751
24.23000 420.390
24.24000 427.226
24.25000 430.610
24.26000 429.015
24.27000 427.381
24.28000 426.354
24.29000 425.900
24.30000 425.449
24.31000 425.461
24.32000 425.756
24.33000 426.312
24.34000 433.137
24.35000 442.638
24.36000 451.307
24.37000 450.053
24.38000 445.910
24.39000 442.207
24.40000 438.096
24.41000 434.444
24.42000 430.228
24.43000 423.448
24.44000 416.352
24.45000 411.174
24.46000 411.865
24.47000 412.966
24.48000 413.718
24.49000 415.624
24.50000 417.077
24.51000 417.117
24.52000 415.152
24.53000 413.170
24.54000 408.985
24.55000 402.752
24.56000 396.572
24.57000 391.989
24.58000 388.456
24.59000 385.413
24.60000 393.801
24.61000 406.998
24.62000 419.087
24.63000 418.272
24.64000 413.754
24.65000 409.725
24.66000 406.916
24.67000 404.676
24.68000 404.377
24.69000 412.770
24.70000 422.209
24.71000 428.260
24.72000 424.089
24.73000 419.223
24.74000 415.913
24.75000 413.737
24.76000 412.137
24.77000 412.392
24.78000 415.238
24.79000 418.100
24.80000 416.503
24.81000 410.832
24.82000 405.213
24.83000 403.368
24.84000 403.808
24.85000 404.187
24.86000 403.202
24.87000 401.651
24.88000 399.823
24.89000 394.833
24.90000 388.949
24.91000 383.713
24.92000 384.073
24.93000 385.300
24.94000 387.616
24.95000 394.730
24.96000 402.411
24.97000 409.110
24.98000 412.890
24.99000 416.476
25.00000 418.903
25.01000 421.609
25.02000 423.631
25.03000 420.566
25.04000 410.495
25.05000 400.383
25.06000 395.406
25.07000 395.043
25.08000 394.684
25.09000 398.965
25.10000 405.879
25.11000 412.420
25.12000 410.785
25.13000 405.808
25.14000 401.155
25.15000 400.104
25.16000 400.057
25.17000 400.015
25.18000 407.799
25.19000 415.802
25.20000 421.019
25.21000 414.152
25.22000 405.885
25.23000 400.999
25.24000 406.021
25.25000 411.684
25.26000 415.496
25.27000 407.804
25.28000 401.845
25.29000 399.894
25.30000 403.378
25.31000 406.894
25.32000 412.016
25.33000 418.558
25.34000 425.034
25.35000 422.876
25.36000 415.786
25.37000 409.111
25.38000 411.254
25.39000 416.948
25.40000 421.873
25.41000 418.391
25.42000 412.603
25.43000 407.476
25.44000 406.653
25.45000 406.619
25.46000 405.784
25.47000 401.531
25.48000 396.889
25.49000 393.434
25.50000 393.406
25.51000 393.595
25.52000 393.721
25.53000 399.965
25.54000 404.720
25.55000 407.307
25.56000 406.998
25.57000 406.673
25.58000 404.995
25.59000 402.139
25.60000 399.314
25.61000 402.125
25.62000 408.072
25.63000 413.599
25.64000 410.458
25.65000 403.877
25.66000 397.425
25.67000 392.359
25.68000 387.667
25.69000 383.521
25.70000 381.642
25.71000 380.370
25.72000 381.957
25.73000 395.571
25.74000 410.526
25.75000 421.383
25.76000 420.573
25.77000 419.046
25.78000 418.029
25.79000 399.695
25.80000 385.792
25.81000 380.419
25.82000 386.260
25.83000 392.149
25.84000 396.991
25.85000 400.935
25.86000 404.834
25.87000 402.266
25.88000 396.146
25.89000 390.435
25.90000 392.906
25.91000 398.578
25.92000 403.690
25.93000 402.931
25.94000 400.611
25.95000 398.564
25.96000 399.353
25.97000 400.463
25.98000 400.679
25.99000 397.187
26.00000 393.291
26.01000 390.908
26.02000 392.767
26.03000 394.880
26.04000 396.281
26.05000 392.832
26.06000 390.196
26.07000 390.503
26.08000 394.616
26.09000 398.735
26.10000 396.791
26.11000 389.742
26.12000 382.778
26.13000 381.450
26.14000 383.256
26.15000 385.139
26.16000 388.525
26.17000 392.491
26.18000 396.015
26.19000 395.008
26.20000 392.813
26.21000 390.883
26.22000 394.265
26.23000 397.967
26.24000 399.383
26.25000 391.470
26.26000 382.560
26.27000 377.280
26.28000 382.043
26.29000 387.389
26.30000 390.915
26.31000 398.337
26.32000 403.877
26.33000 402.784
26.34000 393.242
26.35000 383.689
26.36000 383.259
26.37000 390.389
26.38000 397.429
26.39000 402.555
26.40000 406.510
26.41000 410.237
26.42000 409.649
26.43000 407.422
26.44000 404.248
26.45000 391.582
26.46000 376.464
26.47000 363.197
26.48000 368.559
26.49000 375.887
26.50000 384.351
26.51000 397.373
26.52000 410.874
26.53000 417.118
26.54000 403.585
26.55000 388.932
26.56000 379.321
26.57000 377.230
26.58000 375.817
26.59000 376.646
26.60000 380.289
26.61000 383.943
26.62000 388.777
26.63000 394.573
26.64000 400.290
26.65000 399.605
26.66000 395.528
26.67000 391.554
26.68000 389.482
26.69000 388.122
26.70000 386.683
26.71000 384.466
26.72000 382.051
26.73000 379.936
26.74000 385.771
26.75000 391.914
26.76000 396.379
26.77000 394.208
26.78000 391.355
26.79000 389.255
26.80000 389.179
26.81000 389.214
26.82000 389.237
26.83000 377.856
26.84000 369.323
26.85000 365.211
26.86000 366.557
26.87000 367.925
26.88000 371.606
26.89000 377.144
26.90000 382.604
26.91000 390.516
26.92000 399.486
26.93000 407.590
26.94000 400.204
26.95000 387.098
26.96000 374.651
26.97000 368.541
26.98000 364.019
26.99000 360.070
27.00000 368.474
27.01000 377.406
27.02000 384.107
27.03000 382.113
27.04000 379.243
27.05000 376.509
27.06000 374.138
27.07000 371.787
27.08000 370.261
27.09000 376.456
27.10000 381.109
27.11000 382.853
27.12000 381.064
27.13000 379.265
27.14000 376.679
27.15000 373.472
27.16000 370.313
27.17000 375.884
27.18000 385.796
27.19000 394.722
27.20000 386.486
27.21000 372.005
27.22000 359.458
27.23000 365.131
27.24000 375.302
27.25000 384.162
27.26000 382.020
27.27000 378.670
27.28000 376.936
27.29000 381.403
27.30000 386.481
27.31000 390.888
27.32000 393.546
27.33000 396.112
27.34000 397.768
27.35000 379.730
27.36000 366.268
27.37000 364.070
27.38000 375.338
27.39000 386.608
27.40000 391.690
27.41000 391.958
27.42000 392.221
27.43000 386.470
27.44000 377.842
27.45000 369.204
27.46000 360.393
27.47000 351.520
27.48000 344.128
27.49000 350.423
27.50000 360.045
27.51000 368.406
27.52000 368.267
27.53000 366.997
27.54000 366.879
27.55000 371.119
27.56000 375.779
27.57000 378.710
27.58000 377.195
27.59000 375.454
27.60000 374.337
27.61000 381.369
27.62000 386.606
27.63000 388.093
27.64000 385.168
27.65000 382.227
27.66000 377.148
27.67000 370.432
27.68000 363.827
27.69000 367.350
27.70000 375.823
27.71000 383.479
27.72000 377.656
27.73000 367.068
27.74000 357.854
27.75000 361.087
27.76000 367.298
27.77000 372.681
27.78000 373.272
27.79000 373.138
27.80000 372.305
27.81000 368.867
27.82000 365.183
27.83000 361.636
27.84000 358.439
27.85000 355.259
27.86000 353.231
27.87000 352.360
27.88000 351.741
27.89000 352.909
27.90000 356.146
27.91000 359.380
27.92000 361.358
27.93000 362.388
27.94000 363.401
27.95000 361.262
27.96000 357.644
27.97000 354.420
27.98000 357.502
27.99000 362.782
28.00000 368.009
28.01000 372.763
28.02000 377.406
28.03000 381.420
28.04000 377.201
28.05000 372.543
28.06000 370.328
28.07000 377.073
28.08000 384.647
28.09000 387.869
28.10000 380.218
28.11000 372.050
28.12000 366.868
28.13000 362.232
28.14000 358.873
28.15000 362.118
28.16000 372.884
28.17000 383.613
28.18000 385.945
28.19000 382.041
28.20000 378.208
28.21000 372.194
28.22000 365.333
28.23000 358.769
28.24000 356.854
28.25000 356.535
28.26000 357.163
28.27000 366.027
28.28000 376.803
28.29000 386.095
28.30000 378.196
28.31000 369.299
28.32000 363.144
28.33000 366.901
28.34000 371.555
28.35000 374.932
28.36000 375.164
28.37000 375.252
28.38000 375.307
28.39000 365.597
28.40000 358.453
28.41000 358.386
28.42000 366.248
28.43000 374.082
28.44000 376.136
28.45000 373.966
28.46000 371.836
28.47000 368.520
28.48000 364.757
28.49000 361.249
28.50000 361.616
28.51000 363.293
28.52000 365.857
28.53000 375.982
28.54000 387.835
28.55000 398.031
28.56000 382.144
28.57000 365.424
28.58000 351.803
28.59000 349.217
28.60000 347.607
28.61000 347.735
28.62000 352.082
28.63000 356.617
28.64000 359.461
28.65000 361.873
28.66000 363.610
28.67000 362.522
28.68000 358.320
28.69000 354.169
28.70000 358.279
28.71000 368.336
28.72000 378.195
28.73000 378.373
28.74000 374.001
28.75000 369.692
28.76000 366.324
28.77000 363.270
28.78000 360.486
28.79000 359.962
28.80000 359.947
28.81000 359.934
28.82000 363.864
28.83000 367.669
28.84000 369.267
28.85000 363.121
28.86000 356.304
28.87000 350.766
28.88000 348.287
28.89000 345.940
28.90000 344.478
28.91000 353.782
28.92000 360.599
28.93000 363.996
28.94000 363.684
28.95000 363.367
28.96000 362.669
28.97000 361.700
28.98000 360.751
28.99000 363.115
29.00000 366.917
29.01000 370.314
29.02000 367.827
29.03000 363.406
29.04000 359.914
29.05000 364.050
29.06000 369.876
29.07000 374.860
29.08000 373.889
29.09000 372.352
29.10000 371.915
29.11000 375.280
29.12000 378.966
29.13000 380.172
29.14000 375.527
29.15000 370.636
29.16000 367.605
29.17000 368.438
29.18000 369.074
29.19000 367.464
29.20000 363.458
29.21000 359.484
29.22000 359.641
29.23000 362.682
29.24000 365.658
29.25000 360.007
29.26000 350.659
29.27000 342.293
29.28000 347.795
29.29000 357.790
29.30000 366.645
29.31000 366.325
29.32000 364.004
29.33000 362.024
29.34000 359.118
29.35000 356.562
29.36000 355.011
29.37000 356.880
29.38000 359.033
29.39000 358.570
29.40000 352.026
29.41000 345.236
29.42000 341.053
29.43000 344.756
29.44000 347.484
29.45000 350.658
29.46000 354.301
29.47000 357.897
29.48000 355.870
29.49000 349.977
29.50000 344.215
29.51000 344.865
29.52000 348.357
29.53000 351.601
29.54000 351.428
29.55000 350.163
29.56000 349.285
29.57000 351.466
29.58000 354.302
29.59000 356.716
29.60000 360.770
29.61000 364.366
29.62000 366.745
29.63000 365.037
29.64000 363.000
29.65000 362.977
29.66000 367.572
29.67000 372.349
29.68000 375.274
29.69000 374.298
29.70000 373.567
29.71000 370.710
29.72000 365.661
29.73000 360.677
29.74000 362.863
29.75000 369.904
29.76000 376.782
29.77000 376.657
29.78000 373.451
29.79000 370.507
29.80000 371.081
29.81000 372.763
29.82000 374.195
29.83000 373.693
29.84000 372.783
29.85000 372.010
29.86000 376.322
29.87000 380.515
29.88000 384.169
29.89000 386.040
29.90000 387.770
29.91000 389.732
29.92000 392.216
29.93000 394.721
29.94000 396.245
29.95000 406.521
29.96000 413.929
29.97000 417.038
29.98000 415.787
29.99000 414.573
30.00000 417.095
30.01000 422.109
30.02000 427.002
30.03000 427.493
30.04000 426.053
30.05000 425.095
30.06000 430.471
30.07000 437.812
30.08000 444.620
30.09000 447.375
30.10000 449.288
30.11000 450.906
30.12000 449.721
30.13000 448.418
30.14000 446.611
30.15000 443.168
30.16000 439.598
30.17000 435.014
30.18000 428.171
30.19000 421.245
30.20000 417.056
30.21000 428.767
30.22000 437.228
30.23000 439.931
30.24000 436.892
30.25000 433.842
30.26000 429.706
30.27000 424.856
30.28000 420.128
30.29000 412.290
30.30000 403.481
30.31000 395.794
30.32000 402.528
30.33000 413.666
30.34000 423.232
30.35000 421.038
30.36000 416.438
30.37000 412.557
30.38000 407.808
30.39000 403.745
30.40000 402.008
30.41000 407.738
30.42000 414.030
30.43000 416.370
30.44000 410.039
30.45000 403.400
30.46000 399.410
30.47000 395.922
30.48000 393.447
30.49000 390.035
30.50000 385.705
30.51000 381.415
30.52000 380.665
30.53000 382.204
30.54000 383.704
30.55000 391.529
30.56000 401.645
30.57000 410.760
30.58000 407.313
30.59000 400.086
30.60000 392.835
30.61000 385.414
30.62000 377.958
30.63000 371.684
30.64000 373.307
30.65000 375.503
30.66000 377.931
30.67000 381.086
30.68000 384.295
30.69000 388.738
30.70000 395.848
30.71000 403.049
30.72000 407.348
30.73000 403.021
30.74000 399.898
30.75000 397.370
30.76000 395.415
30.77000 393.495
30.78000 394.465
30.79000 397.278
30.80000 400.015
30.81000 408.108
30.82000 418.026
30.83000 427.235
30.84000 427.747
30.85000 425.680
30.86000 423.982
30.87000 424.940
30.88000 426.424
30.89000 427.670
30.90000 429.769
30.91000 431.605
30.92000 431.993
30.93000 427.868
30.94000 423.418
30.95000 423.401
30.96000 432.832
30.97000 442.575
30.98000 448.355
30.99000 459.240
31.00000 466.971
31.01000 471.944
31.02000 474.305
31.03000 476.703
31.04000 482.075
31.05000 489.315
31.06000 496.351
31.07000 507.876
31.08000 520.657
31.09000 534.032
31.10000 554.536
31.11000 577.123
31.12000 598.327
31.13000 609.740
31.14000 619.245
31.15000 627.197
31.16000 679.347
31.17000 727.205
31.18000 777.664
31.19000 836.112
31.20000 895.121
31.21000 952.399
31.22000 1006.045
31.23000 1059.575
31.24000 1091.126
31.25000 1196.212
31.26000 1270.779
31.27000 1353.531
31.28000 1443.915
31.29000 1534.285
31.30000 1623.616
31.31000 1712.305
31.32000 1798.420
31.33000 1904.344
31.34000 2012.820
31.35000 2119.010
31.36000 2198.408
31.37000 2270.096
31.38000 2340.052
31.39000 2397.968
31.40000 2453.575
31.41000 2499.968
31.42000 2542.859
31.43000 2578.079
31.44000 2607.532
31.45000 2619.528
31.46000 2630.330
31.47000 2623.377
31.48000 2579.664
31.49000 2534.825
31.50000 2508.570
31.51000 2431.341
31.52000 2376.707
31.53000 2309.181
31.54000 2229.833
31.55000 2150.495
31.56000 2071.917
31.57000 1993.801
31.58000 1918.034
31.59000 1822.358
31.60000 1723.828
31.61000 1626.531
31.62000 1543.353
31.63000 1464.178
31.64000 1386.011
31.65000 1314.721
31.66000 1244.729
31.67000 1186.507
31.68000 1120.506
31.69000 1065.109
31.70000 1009.388
31.71000 952.701
31.72000 895.949
31.73000 850.693
31.74000 828.895
31.75000 807.787
31.76000 795.510
31.77000 740.431
31.78000 701.557
31.79000 672.002
31.80000 650.851
31.81000 629.796
31.82000 614.982
31.83000 603.916
31.84000 593.194
31.85000 575.345
31.86000 555.687
31.87000 536.594
31.88000 523.837
31.89000 512.849
31.90000 500.515
31.91000 479.144
31.92000 456.096
31.93000 436.981
31.94000 436.301
31.95000 437.511
31.96000 437.241
31.97000 432.620
31.98000 427.717
31.99000 421.665
32.00000 413.304
32.01000 404.878
32.02000 400.010
32.03000 396.240
32.04000 393.605
32.05000 393.676
32.06000 396.148
32.07000 398.512
32.08000 394.198
32.09000 385.934
32.10000 377.935
32.11000 371.572
32.12000 366.181
32.13000 361.180
32.14000 360.441
32.15000 360.876
32.16000 361.096
32.17000 359.906
32.18000 358.459
32.19000 357.262
32.20000 355.454
32.21000 353.906
32.22000 352.399
32.23000 351.012
32.24000 349.633
32.25000 349.657
32.26000 352.461
32.27000 355.340
32.28000 356.992
32.29000 350.871
32.30000 346.563
32.31000 341.725
32.32000 336.424
32.33000 331.174
32.34000 328.835
32.35000 328.194
32.36000 327.573
32.37000 336.716
32.38000 349.010
32.39000 360.142
32.40000 358.788
32.41000 354.049
32.42000 349.414
32.43000 345.451
32.44000 341.610
32.45000 338.444
32.46000 330.620
32.47000 323.752
32.48000 320.726
32.49000 328.672
32.50000 337.296
32.51000 341.296
32.52000 336.261
32.53000 330.990
32.54000 327.987
32.55000 336.047
32.56000 341.696
32.57000 342.189
32.58000 338.252
32.59000 334.262
32.60000 327.392
32.61000 318.866
32.62000 310.633
32.63000 308.550
32.64000 308.863
32.65000 309.198
32.66000 309.774
32.67000 310.415
32.68000 311.232
32.69000 313.171
32.70000 315.308
32.71000 317.064
32.72000 320.865
32.73000 324.172
32.74000 326.463
32.75000 325.896
32.76000 325.156
32.77000 324.748
32.78000 324.975
32.79000 325.219
32.80000 325.357
32.81000 329.240
32.82000 331.942
32.83000 329.314
32.84000 322.179
32.85000 315.086
32.86000 310.217
32.87000 306.608
32.88000 303.126
32.89000 300.047
32.90000 297.297
32.91000 295.412
32.92000 302.428
32.93000 311.786
32.94000 319.539
32.95000 317.248
32.96000 313.213
32.97000 309.907
32.98000 303.911
32.99000 298.758
33.00000 296.841
33.01000 303.899
33.02000 311.482
33.03000 317.776
33.04000 321.623
33.05000 325.411
33.06000 327.540
33.07000 322.666
33.08000 319.274
33.09000 319.827
33.10000 323.661
33.11000 327.267
33.12000 319.436
33.13000 305.226
33.14000 291.537
33.15000 295.576
33.16000 305.718
33.17000 314.885
33.18000 314.221
33.19000 311.009
33.20000 308.059
33.21000 306.715
33.22000 305.644
33.23000 304.770
33.24000 298.538
33.25000 292.977
33.26000 290.350
33.27000 295.746
33.28000 301.599
33.29000 304.184
33.30000 300.658
33.31000 296.992
33.32000 294.947
33.33000 290.628
33.34000 287.649
33.35000 290.955
33.36000 299.407
33.37000 307.718
33.38000 309.316
33.39000 307.224
33.40000 305.211
33.41000 307.432
33.42000 311.006
33.43000 314.260
33.44000 314.357
33.45000 313.647
33.46000 311.937
33.47000 304.179
33.48000 295.405
33.49000 288.262
33.50000 288.914
33.51000 290.103
33.52000 291.916
33.53000 295.411
33.54000 298.998
33.55000 303.322
33.56000 309.001
33.57000 314.711
33.58000 317.874
33.59000 301.017
33.60000 289.366
33.61000 286.425
33.62000 290.502
33.63000 294.529
33.64000 296.286
33.65000 296.815
33.66000 297.322
33.67000 294.680
33.68000 291.113
33.69000 287.988
33.70000 289.130
33.71000 291.344
33.72000 293.979
33.73000 299.113
33.74000 304.658
33.75000 309.158
33.76000 300.817
33.77000 292.958
33.78000 289.689
33.79000 298.609
33.80000 308.186
33.81000 311.775
33.82000 304.489
33.83000 296.976
33.84000 292.844
33.85000 292.307
33.86000 291.943
33.87000 291.493
33.88000 290.974
33.89000 290.548
33.90000 294.168
33.91000 299.949
33.92000 305.497
33.93000 299.248
33.94000 289.378
33.95000 280.359
33.96000 279.399
33.97000 280.435
33.98000 281.012
33.99000 278.902
34.00000 276.357
34.01000 274.298
34.02000 290.750
34.03000 305.628
34.04000 313.476
34.05000 302.922
34.06000 291.404
34.07000 283.167
34.08000 280.800
34.09000 278.549
34.10000 277.321
34.11000 280.464
34.12000 282.618
34.13000 281.880
34.14000 278.885
34.15000 275.977
34.16000 276.665
34.17000 279.245
34.18000 281.719
34.19000 278.643
34.20000 273.908
34.21000 269.941
34.22000 273.107
34.23000 278.012
34.24000 282.726
34.25000 286.339
34.26000 289.776
34.27000 292.547
34.28000 289.712
34.29000 286.968
34.30000 286.215
34.31000 290.598
34.32000 295.243
34.33000 297.090
34.34000 294.003
34.35000 290.822
34.36000 289.099
34.37000 285.649
34.38000 283.290
34.39000 282.419
34.40000 282.693
34.41000 282.915
34.42000 281.116
34.43000 278.269
34.44000 275.543
34.45000 272.667
34.46000 269.936
34.47000 267.741
34.48000 270.412
34.49000 274.253
34.50000 277.674
34.51000 278.725
34.52000 279.404
34.53000 279.950
34.54000 285.711
34.55000 290.782
34.56000 293.327
34.57000 289.450
34.58000 285.256
34.59000 283.181
34.60000 284.786
34.61000 286.458
34.62000 287.356
34.63000 287.800
34.64000 288.090
34.65000 285.630
34.66000 281.091
34.67000 276.705
34.68000 278.184
34.69000 282.661
34.70000 286.941
34.71000 284.315
34.72000 279.625
34.73000 275.676
34.74000 278.326
34.75000 282.536
34.76000 285.199
34.77000 279.263
34.78000 272.003
34.79000 266.188
34.80000 279.137
34.81000 291.023
34.82000 297.433
34.83000 290.117
34.84000 282.144
34.85000 279.647
34.86000 286.525
34.87000 293.563
34.88000 297.319
34.89000 288.766
34.90000 282.940
34.91000 279.514
34.92000 277.876
34.93000 276.254
34.94000 275.215
34.95000 274.470
34.96000 273.758
34.97000 277.395
34.98000 282.165
34.99000 286.882
35.00000 291.129
35.01000 295.267
35.02000 297.218
35.03000 287.221
35.04000 275.415
35.05000 265.992
35.06000 272.109
35.07000 278.189
35.08000 281.196
35.09000 276.612
35.10000 271.675
35.11000 269.752
35.12000 272.915
35.13000 276.160
35.14000 277.878
35.15000 278.358
35.16000 278.675
35.17000 277.617
35.18000 275.551
35.19000 273.513
35.20000 272.483
35.21000 271.953
35.22000 271.447
35.23000 273.301
35.24000 275.764
35.25000 277.581
35.26000 273.862
35.27000 268.874
35.28000 264.972
35.29000 266.904
35.30000 269.704
35.31000 271.932
35.32000 272.028
35.33000 271.953
35.34000 270.576
35.35000 266.030
35.36000 261.341
35.37000 260.860
35.38000 267.376
35.39000 273.998
35.40000 277.477
35.41000 273.262
35.42000 270.402
35.43000 267.517
35.44000 264.614
35.45000 261.780
35.46000 261.306
35.47000 261.986
35.48000 262.633
35.49000 263.581
35.50000 264.553
35.51000 265.399
35.52000 265.194
35.53000 264.751
35.54000 265.365
35.55000 271.567
35.56000 278.585
35.57000 284.149
35.58000 283.218
35.59000 282.014
35.60000 279.783
35.61000 275.086
35.62000 270.280
35.63000 267.543
35.64000 268.193
35.65000 268.891
35.66000 269.256
35.67000 267.745
35.68000 266.724
35.69000 265.746
35.70000 264.799
35.71000 263.913
35.72000 265.030
35.73000 267.110
35.74000 269.089
35.75000 269.783
35.76000 270.034
35.77000 270.215
35.78000 269.820
35.79000 269.297
35.80000 268.210
35.81000 264.186
35.82000 259.741
35.83000 256.229
35.84000 261.155
35.85000 265.686
35.86000 266.827
35.87000 259.947
35.88000 252.728
35.89000 253.483
35.90000 267.104
35.91000 280.899
35.92000 288.032
35.93000 275.175
35.94000 266.550
35.95000 264.207
35.96000 266.263
35.97000 268.289
35.98000 269.343
35.99000 269.936
36.00000 270.499
36.01000 271.867
36.02000 273.371
36.03000 274.384
36.04000 271.423
36.05000 267.592
36.06000 263.856
36.07000 260.604
36.08000 257.419
36.09000 254.912
36.10000 254.443
36.11000 254.202
36.12000 254.424
36.13000 255.723
36.14000 257.067
36.15000 258.127
36.16000 258.737
36.17000 259.340
36.18000 259.650
36.19000 262.255
36.20000 263.979
36.21000 262.296
36.22000 258.261
36.23000 254.321
36.24000 253.252
36.25000 253.526
36.26000 253.786
36.27000 252.234
36.28000 250.269
36.29000 249.223
36.30000 255.475
36.31000 263.297
36.32000 270.096
36.33000 271.733
36.34000 272.656
36.35000 273.380
36.36000 266.574
36.37000 260.643
36.38000 257.021
36.39000 258.707
36.40000 260.604
36.41000 260.461
36.42000 257.126
36.43000 253.752
36.44000 252.036
36.45000 267.637
36.46000 278.008
36.47000 278.294
36.48000 271.728
36.49000 265.167
36.50000 258.781
36.51000 252.475
36.52000 246.504
36.53000 246.629
36.54000 248.513
36.55000 250.690
36.56000 255.148
36.57000 260.089
36.58000 263.729
36.59000 260.925
36.60000 257.244
36.61000 254.368
36.62000 259.324
36.63000 263.775
36.64000 265.959
36.65000 263.006
36.66000 259.856
36.67000 256.662
36.68000 253.400
36.69000 250.137
36.70000 248.491
36.71000 252.704
36.72000 255.535
36.73000 259.902
36.74000 265.296
36.75000 270.473
36.76000 269.551
36.77000 265.854
36.78000 262.360
36.79000 260.080
36.80000 258.334
36.81000 257.327
36.82000 261.979
36.83000 267.812
36.84000 272.969
36.85000 274.832
36.86000 276.256
36.87000 277.365
36.88000 280.490
36.89000 283.104
36.90000 283.853
36.91000 280.439
36.92000 276.870
36.93000 274.263
36.94000 273.114
36.95000 271.980
36.96000 271.413
36.97000 268.695
36.98000 266.929
36.99000 269.714
37.00000 275.496
37.01000 281.265
37.02000 286.657
37.03000 291.880
37.04000 296.810
37.05000 298.657
37.06000 299.484
37.07000 299.637
37.08000 294.734
37.09000 288.792
37.10000 284.145
37.11000 285.717
37.12000 288.103
37.13000 289.955
37.14000 286.596
37.15000 283.611
37.16000 281.713
37.17000 282.205
37.18000 282.782
37.19000 282.418
37.20000 280.647
37.21000 278.861
37.22000 276.543
37.23000 273.699
37.24000 270.922
37.25000 274.056
37.26000 281.029
37.27000 287.682
37.28000 285.967
37.29000 280.554
37.30000 275.451
37.31000 268.265
37.32000 261.108
37.33000 254.403
37.34000 251.022
37.35000 248.313
37.36000 247.147
37.37000 253.271
37.38000 260.332
37.39000 265.791
37.40000 260.027
37.41000 254.796
37.42000 251.714
37.43000 253.294
37.44000 255.035
37.45000 256.324
37.46000 256.945
37.47000 257.560
37.48000 258.821
37.49000 260.706
37.50000 262.565
37.51000 262.226
37.52000 260.482
37.53000 258.713
37.54000 256.304
37.55000 253.618
37.56000 251.089
37.57000 256.113
37.58000 262.759
37.59000 267.801
37.60000 261.230
37.61000 252.350
37.62000 245.941
37.63000 251.021
37.64000 257.550
37.65000 262.579
37.66000 264.794
37.67000 266.387
37.68000 266.618
37.69000 263.937
37.70000 261.158
37.71000 259.789
37.72000 260.466
37.73000 261.159
37.74000 264.098
37.75000 269.170
37.76000 274.123
37.77000 269.647
37.78000 259.232
37.79000 249.234
37.80000 249.459
37.81000 254.074
37.82000 258.410
37.83000 258.389
37.84000 257.205
37.85000 256.528
37.86000 259.460
37.87000 263.097
37.88000 266.305
37.89000 267.545
37.90000 268.542
37.91000 269.307
37.92000 257.167
37.93000 246.855
37.94000 242.150
37.95000 249.264
37.96000 256.757
37.97000 260.503
37.98000 258.893
37.99000 257.242
38.00000 255.668
38.01000 254.166
38.02000 252.663
38.03000 251.100
38.04000 249.500
38.05000 248.118
38.06000 251.904
38.07000 257.877
38.08000 263.481
38.09000 266.456
38.10000 268.476
38.11000 270.328
38.12000 271.013
38.13000 271.474
38.14000 271.506
38.15000 269.604
38.16000 267.468
38.17000 265.835
38.18000 272.631
38.19000 278.447
38.20000 282.728
38.21000 283.819
38.22000 284.812
38.23000 282.933
38.24000 277.009
38.25000 271.058
38.26000 268.817
38.27000 269.989
38.28000 271.139
38.29000 270.722
38.30000 269.348
38.31000 268.133
38.32000 270.581
38.33000 274.558
38.34000 278.282
38.35000 286.897
38.36000 295.999
38.37000 303.680
38.38000 301.617
38.39000 297.709
38.40000 296.225
38.41000 305.497
38.42000 316.052
38.43000 324.089
38.44000 326.291
38.45000 327.716
38.46000 331.428
38.47000 339.819
38.48000 348.350
38.49000 358.250
38.50000 370.048
38.51000 381.855
38.52000 396.931
38.53000 414.951
38.54000 433.093
38.55000 459.295
38.56000 490.354
38.57000 521.015
38.58000 542.841
38.59000 561.034
38.60000 578.048
38.61000 625.984
38.62000 677.386
38.63000 726.430
38.64000 759.597
38.65000 789.807
38.66000 821.848
38.67000 861.889
38.68000 902.864
38.69000 933.947
38.70000 970.903
38.71000 1000.234
38.72000 1028.585
38.73000 1054.956
38.74000 1081.271
38.75000 1103.702
38.76000 1120.832
38.77000 1137.922
38.78000 1142.621
38.79000 1136.294
38.80000 1129.836
38.81000 1115.285
38.82000 1095.928
38.83000 1076.282
38.84000 1050.384
38.85000 1021.953
38.86000 995.409
38.87000 969.409
38.88000 945.974
38.89000 918.464
38.90000 863.998
38.91000 804.592
38.92000 749.284
38.93000 711.598
38.94000 675.931
38.95000 648.980
38.96000 621.692
38.97000 600.282
38.98000 574.766
38.99000 541.086
39.00000 507.183
39.01000 476.428
39.02000 449.904
39.03000 423.418
39.04000 402.595
39.05000 386.757
39.06000 371.018
39.07000 361.088
39.08000 354.555
39.09000 348.072
39.10000 342.635
39.11000 337.616
39.12000 332.939
39.13000 323.299
39.14000 313.352
39.15000 303.742
39.16000 296.316
39.17000 289.284
39.18000 283.121
39.19000 280.639
39.20000 278.572
39.21000 277.016
39.22000 272.029
39.23000 267.961
39.24000 265.089
39.25000 264.559
39.26000 264.091
39.27000 262.863
39.28000 260.630
39.29000 258.393
39.30000 256.739
39.31000 255.589
39.32000 254.439
39.33000 253.308
39.34000 252.188
39.35000 251.008
39.36000 248.607
39.37000 245.725
39.38000 243.044
39.39000 247.876
39.40000 254.062
39.41000 259.478
39.42000 259.980
39.43000 259.611
39.44000 258.872
39.45000 256.591
39.46000 254.140
39.47000 252.303
39.48000 252.774
39.49000 253.250
39.50000 252.353
39.51000 248.804
39.52000 245.187
39.53000 245.151
39.54000 249.780
39.55000 254.424
39.56000 255.002
39.57000 252.139
39.58000 249.265
39.59000 245.855
39.60000 242.139
39.61000 238.583
39.62000 238.161
39.63000 238.955
39.64000 239.692
39.65000 238.861
39.66000 237.739
39.67000 236.908
39.68000 237.910
39.69000 239.231
39.70000 240.644
39.71000 242.431
39.72000 244.259
39.73000 245.623
39.74000 240.529
39.75000 236.262
39.76000 231.620
39.77000 226.262
39.78000 220.887
39.79000 222.925
39.80000 234.471
39.81000 246.041
39.82000 248.337
39.83000 242.908
39.84000 237.598
39.85000 238.299
39.86000 242.364
39.87000 246.016
39.88000 241.778
39.89000 234.522
39.90000 227.793
39.91000 227.489
39.92000 228.719
39.93000 230.079
39.94000 232.243
39.95000 234.544
39.96000 236.705
39.97000 238.293
39.98000 239.821
39.99000 240.958
40.00000 235.616
40.01000 231.173
40.02000 227.560
40.03000 225.504
40.04000 223.484
40.05000 221.936
40.06000 220.986
40.07000 220.039
40.08000 221.519
40.09000 224.982
40.10000 228.383
40.11000 228.770
40.12000 227.495
40.13000 226.269
40.14000 225.962
40.15000 226.000
40.16000 226.036
40.17000 228.852
40.18000 232.023
40.19000 234.479
40.20000 232.603
40.21000 229.997
40.22000 228.057
40.23000 228.770
40.24000 229.757
40.25000 230.489
40.26000 222.374
40.27000 215.693
40.28000 212.752
40.29000 216.724
40.30000 220.849
40.31000 223.493
40.32000 224.298
40.33000 225.096
40.34000 224.461
40.35000 222.674
40.36000 220.940
40.37000 221.602
40.38000 223.566
40.39000 225.461
40.40000 226.096
40.41000 226.264
40.42000 226.418
40.43000 222.383
40.44000 217.814
40.45000 214.576
40.46000 219.275
40.47000 225.289
40.48000 229.570
40.49000 227.047
40.50000 223.834
40.51000 221.465
40.52000 218.559
40.53000 216.286
40.54000 215.729
40.55000 218.295
40.56000 220.928
40.57000 221.842
40.58000 220.656
40.59000 219.466
40.60000 218.330
40.61000 217.242
40.62000 216.165
40.63000 215.530
40.64000 215.131
40.65000 214.759
40.66000 214.833
40.67000 215.071
40.68000 215.291
40.69000 217.059
40.70000 218.986
40.71000 220.774
40.72000 221.743
40.73000 222.578
40.74000 222.477
40.75000 218.762
40.76000 214.687
40.77000 211.694
40.78000 213.723
40.79000 215.496
40.80000 217.259
40.81000 219.003
40.82000 220.747
40.83000 221.458
40.84000 220.925
40.85000 220.390
40.86000 218.743
40.87000 216.238
40.88000 213.784
40.89000 213.460
40.90000 214.261
40.91000 214.901
40.92000 212.808
40.93000 209.728
40.94000 206.892
40.95000 206.742
40.96000 207.195
40.97000 207.870
40.98000 209.830
40.99000 211.995
41.00000 213.588
41.01000 213.005
41.02000 212.209
41.03000 211.628
41.04000 219.527
41.05000 225.956
41.06000 228.545
41.07000 224.343
41.08000 220.011
41.09000 217.926
41.10000 218.502
41.11000 219.082
41.12000 215.725
41.13000 209.370
41.14000 203.140
41.15000 201.940
41.16000 203.355
41.17000 204.759
41.18000 205.970
41.19000 207.113
41.20000 208.164
41.21000 213.904
41.22000 220.037
41.23000 225.067
41.24000 223.843
41.25000 221.635
41.26000 218.850
41.27000 213.907
41.28000 208.757
41.29000 205.008
41.30000 210.712
41.31000 215.465
41.32000 217.247
41.33000 213.849
41.34000 210.358
41.35000 208.687
41.36000 209.139
41.37000 209.593
41.38000 208.183
41.39000 205.376
41.40000 202.688
41.41000 204.606
41.42000 208.883
41.43000 212.987
41.44000 214.280
41.45000 214.587
41.46000 214.869
41.47000 210.553
41.48000 205.734
41.49000 202.048
41.50000 204.674
41.51000 208.276
41.52000 210.321
41.53000 206.613
41.54000 202.367
41.55000 199.290
41.56000 201.566
41.57000 203.513
41.58000 205.438
41.59000 207.326
41.60000 209.214
41.61000 210.447
41.62000 210.930
41.63000 211.411
41.64000 210.624
41.65000 208.901
41.66000 207.201
41.67000 206.301
41.68000 205.805
41.69000 205.374
41.70000 205.974
41.71000 206.930
41.72000 207.805
41.73000 205.135
41.74000 202.023
41.75000 199.679
41.76000 201.548
41.77000 204.058
41.78000 205.692
41.79000 204.143
41.80000 202.303
41.81000 200.975
41.82000 210.430
41.83000 218.067
41.84000 219.526
41.85000 210.532
41.86000 201.368
41.87000 197.351
41.88000 199.143
41.89000 200.935
41.90000 202.868
41.91000 204.890
41.92000 206.846
41.93000 206.461
41.94000 204.912
41.95000 203.387
41.96000 202.238
41.97000 201.218
41.98000 200.285
41.99000 196.592
42.00000 192.749
42.01000 190.494
42.02000 196.807
42.03000 204.400
42.04000 209.842
42.05000 207.575
42.06000 204.618
42.07000 202.494
42.08000 202.226
42.09000 202.085
42.10000 202.113
42.11000 202.424
42.12000 202.738
42.13000 202.722
42.14000 202.339
42.15000 201.956
42.16000 203.216
42.17000 205.645
42.18000 208.080
42.19000 210.762
42.20000 213.565
42.21000 216.120
42.22000 214.954
42.23000 212.541
42.24000 210.339
42.25000 208.411
42.26000 206.756
42.27000 205.795
42.28000 208.517
42.29000 211.779
42.30000 213.649
42.31000 210.604
42.32000 207.129
42.33000 204.644
42.34000 207.891
42.35000 210.564
42.36000 210.110
42.37000 204.521
42.38000 198.856
42.39000 196.938
42.40000 199.112
42.41000 201.278
42.42000 202.028
42.43000 201.770
42.44000 201.483
42.45000 200.233
42.46000 198.519
42.47000 196.935
42.48000 197.272
42.49000 198.244
42.50000 199.129
42.51000 200.147
42.52000 201.075
42.53000 201.585
42.54000 199.912
42.55000 197.925
42.56000 196.277
42.57000 195.810
42.58000 195.444
42.59000 195.183
42.60000 194.859
42.61000 194.611
42.62000 194.496
42.63000 194.599
42.64000 194.704
42.65000 195.110
42.66000 195.838
42.67000 196.564
42.68000 194.799
42.69000 191.321
42.70000 188.057
42.71000 191.559
42.72000 198.285
42.73000 204.660
42.74000 206.015
42.75000 205.733
42.76000 205.477
42.77000 204.291
42.78000 203.062
42.79000 201.704
42.80000 199.679
42.81000 197.561
42.82000 197.092
42.83000 202.277
42.84000 207.935
42.85000 211.946
42.86000 205.631
42.87000 200.505
42.88000 199.338
42.89000 204.483
42.90000 209.709
42.91000 210.935
42.92000 207.936
42.93000 204.950
42.94000 201.172
42.95000 196.893
42.96000 192.773
42.97000 193.463
42.98000 196.411
42.99000 199.459
43.00000 203.908
43.01000 208.808
43.02000 213.249
43.03000 209.469
43.04000 204.570
43.05000 200.540
43.06000 200.901
43.07000 201.873
43.08000 202.203
43.09000 200.364
43.10000 198.348
43.11000 196.925
43.12000 202.024
43.13000 206.092
43.14000 206.962
43.15000 202.811
43.16000 198.599
43.17000 198.639
43.18000 203.098
43.19000 207.533
43.20000 208.363
43.21000 206.754
43.22000 205.226
43.23000 206.070
43.24000 208.013
43.25000 209.814
43.26000 209.695
43.27000 208.968
43.28000 208.310
43.29000 204.502
43.30000 200.559
43.31000 197.335
43.32000 197.681
43.33000 198.515
43.34000 199.265
43.35000 199.734
43.36000 200.181
43.37000 200.495
43.38000 198.882
43.39000 197.603
43.40000 196.159
43.41000 194.458
43.42000 192.754
43.43000 191.161
43.44000 189.682
43.45000 188.211
43.46000 189.171
43.47000 191.730
43.48000 194.248
43.49000 195.631
43.50000 196.495
43.51000 197.148
43.52000 194.990
43.53000 191.956
43.54000 189.216
43.55000 184.768
43.56000 180.545
43.57000 178.147
43.58000 184.688
43.59000 192.426
43.60000 198.485
43.61000 199.041
43.62000 199.168
43.63000 199.257
43.64000 195.765
43.65000 193.024
43.66000 191.841
43.67000 193.032
43.68000 194.247
43.69000 195.112
43.70000 195.624
43.71000 196.134
43.72000 196.376
43.73000 196.441
43.74000 196.608
43.75000 199.539
43.76000 203.714
43.77000 207.355
43.78000 204.060
43.79000 198.634
43.80000 193.746
43.81000 195.704
43.82000 198.659
43.83000 201.954
43.84000 206.887
43.85000 212.036
43.86000 214.251
43.87000 206.989
43.88000 199.004
43.89000 193.448
43.90000 197.580
43.91000 200.959
43.92000 200.675
43.93000 194.892
43.94000 189.055
43.95000 184.969
43.96000 182.612
43.97000 180.272
43.98000 181.822
43.99000 185.846
44.00000 189.848
44.01000 193.292
44.02000 196.488
44.03000 199.570
44.04000 201.221
44.05000 202.437
44.06000 203.530
44.07000 198.015
44.08000 192.013
44.09000 187.173
44.10000 187.848
44.11000 189.234
44.12000 190.341
44.13000 190.558
44.14000 190.709
44.15000 190.814
44.16000 196.287
44.17000 200.546
44.18000 202.520
44.19000 201.113
44.20000 199.676
44.21000 198.991
44.22000 199.037
44.23000 199.083
44.24000 197.958
44.25000 196.110
44.26000 194.310
44.27000 193.710
44.28000 193.635
44.29000 193.586
44.30000 193.861
44.31000 194.233
44.32000 194.566
44.33000 196.260
44.34000 197.978
44.35000 198.888
44.36000 196.029
44.37000 192.693
44.38000 190.021
44.39000 189.433
44.40000 188.997
44.41000 188.696
44.42000 188.265
44.43000 187.938
44.44000 188.554
44.45000 190.542
44.46000 192.542
44.47000 193.056
44.48000 192.151
44.49000 191.253
44.50000 187.794
44.51000 182.803
44.52000 178.159
44.53000 182.056
44.54000 189.631
44.55000 196.574
44.56000 195.864
44.57000 192.904
44.58000 190.254
44.59000 192.619
44.60000 195.542
44.61000 198.027
44.62000 198.498
44.63000 198.719
44.64000 196.778
44.65000 188.153
44.66000 179.055
44.67000 172.816
44.68000 191.189
44.69000 205.552
44.70000 213.130
44.71000 210.974
44.72000 208.741
44.73000 206.174
44.74000 203.293
44.75000 200.435
44.76000 199.357
44.77000 199.388
44.78000 199.399
44.79000 198.915
44.80000 198.222
44.81000 197.981
44.82000 203.084
44.83000 209.734
44.84000 215.674
44.85000 214.933
44.86000 213.163
44.87000 211.795
44.88000 212.246
44.89000 212.919
44.90000 214.480
44.91000 218.749
44.92000 223.206
44.93000 226.247
44.94000 232.004
44.95000 236.371
44.96000 239.751
44.97000 241.734
44.98000 243.708
44.99000 246.248
45.00000 249.311
45.01000 252.348
45.02000 255.721
45.03000 259.232
45.04000 262.622
45.05000 263.223
45.06000 262.655
45.07000 262.404
45.08000 265.807
45.09000 270.253
45.10000 274.215
45.11000 271.598
45.12000 268.235
45.13000 266.571
45.14000 272.464
45.15000 279.262
45.16000 283.668
45.17000 280.891
45.18000 277.630
45.19000 275.416
45.20000 285.508
45.21000 293.314
45.22000 295.133
45.23000 288.624
45.24000 282.064
45.25000 280.298
45.26000 282.888
45.27000 285.453
45.28000 287.469
45.29000 289.117
45.30000 290.595
45.31000 288.252
45.32000 284.332
45.33000 280.305
45.34000 275.056
45.35000 269.463
45.36000 264.491
45.37000 259.466
45.38000 255.098
45.39000 252.247
45.40000 256.049
45.41000 260.631
45.42000 264.859
45.43000 268.040
45.44000 271.151
45.45000 273.254
45.46000 267.950
45.47000 263.842
45.48000 260.226
45.49000 257.284
45.50000 254.345
45.51000 250.762
45.52000 246.601
45.53000 242.481
45.54000 239.780
45.55000 237.962
45.56000 236.230
45.57000 236.354
45.58000 237.233
45.59000 237.946
45.60000 236.822
45.61000 235.190
45.62000 233.742
45.63000 231.880
45.64000 230.201
45.65000 229.354
45.66000 232.101
45.67000 235.260
45.68000 237.094
45.69000 235.062
45.70000 232.781
45.71000 231.248
45.72000 220.711
45.73000 212.698
45.74000 209.096
45.75000 211.445
45.76000 213.825
45.77000 216.697
45.78000 220.001
45.79000 223.270
45.80000 220.289
45.81000 213.787
45.82000 207.333
45.83000 201.871
45.84000 196.806
45.85000 192.527
45.86000 196.746
45.87000 203.284
45.88000 209.072
45.89000 212.256
45.90000 214.602
45.91000 215.526
45.92000 210.412
45.93000 204.616
45.94000 199.307
45.95000 195.398
45.96000 191.576
45.97000 189.021
45.98000 193.756
45.99000 197.411
46.00000 198.387
46.01000 195.807
46.02000 193.213
46.03000 193.708
46.04000 196.874
46.05000 200.005
46.06000 198.007
46.07000 193.160
46.08000 188.462
46.09000 186.806
46.10000 186.350
46.11000 185.977
46.12000 186.480
46.13000 187.219
46.14000 187.871
46.15000 189.131
46.16000 190.312
46.17000 191.255
46.18000 191.198
46.19000 191.031
46.20000 189.533
46.21000 184.264
46.22000 178.766
46.23000 175.109
46.24000 178.587
46.25000 181.295
46.26000 182.194
46.27000 180.729
46.28000 179.255
46.29000 178.637
46.30000 178.748
46.31000 178.857
46.32000 178.806
46.33000 178.668
46.34000 178.632
46.35000 180.624
46.36000 183.406
46.37000 185.459
46.38000 179.953
46.39000 172.446
46.40000 165.831
46.41000 168.794
46.42000 172.789
46.43000 176.602
46.44000 179.662
46.45000 182.641
46.46000 184.156
46.47000 181.587
46.48000 178.776
46.49000 176.916
46.50000 168.842
46.51000 162.771
46.52000 161.290
46.53000 165.717
46.54000 170.164
46.55000 173.251
46.56000 175.199
46.57000 177.123
46.58000 179.715
46.59000 182.607
46.60000 185.224
46.61000 182.532
46.62000 177.804
46.63000 173.716
46.64000 176.139
46.65000 180.260
46.66000 183.882
46.67000 182.767
46.68000 181.108
46.69000 179.759
46.70000 179.672
46.71000 179.719
46.72000 179.613
46.73000 179.084
46.74000 178.530
46.75000 178.166
46.76000 177.417
46.77000 176.858
46.78000 174.029
46.79000 168.324
46.80000 162.624
46.81000 163.630
46.82000 170.163
46.83000 176.612
46.84000 177.795
46.85000 176.112
46.86000 174.542
46.87000 175.101
46.88000 176.465
46.89000 177.648
46.90000 177.028
46.91000 175.946
46.92000 174.997
46.93000 173.415
46.94000 171.966
46.95000 171.674
46.96000 176.004
46.97000 180.815
46.98000 183.008
46.99000 178.102
47.00000 172.798
47.01000 169.326
47.02000 166.813
47.03000 164.983
47.04000 168.437
47.05000 178.482
47.06000 188.519
47.07000 188.352
47.08000 179.907
47.09000 171.577
47.10000 169.940
47.11000 171.895
47.12000 173.770
47.13000 174.215
47.14000 174.126
47.15000 173.914
47.16000 172.501
47.17000 170.784
47.18000 169.283
47.19000 170.118
47.20000 171.167
47.21000 172.318
47.22000 173.873
47.23000 175.469
47.24000 175.472
47.25000 171.218
47.26000 166.732
47.27000 163.810
47.28000 167.788
47.29000 170.812
47.30000 173.169
47.31000 174.707
47.32000 176.235
47.33000 175.216
47.34000 172.162
47.35000 169.153
47.36000 166.670
47.37000 164.533
47.38000 162.759
47.39000 167.411
47.40000 174.424
47.41000 180.435
47.42000 176.882
47.43000 170.945
47.44000 165.765
47.45000 163.995
47.46000 162.959
47.47000 162.471
47.48000 164.110
47.49000 165.961
47.50000 167.795
47.51000 169.584
47.52000 171.372
47.53000 172.529
47.54000 174.543
47.55000 176.029
47.56000 174.944
47.57000 170.752
47.58000 166.558
47.59000 163.847
47.60000 162.301
47.61000 160.779
47.62000 159.792
47.63000 159.110
47.64000 158.471
47.65000 158.579
47.66000 158.958
47.67000 159.542
47.68000 162.052
47.69000 165.035
47.70000 167.631
47.71000 165.673
47.72000 163.376
47.73000 161.797
47.74000 162.960
47.75000 164.391
47.76000 164.944
47.77000 163.217
47.78000 161.373
47.79000 160.186
47.80000 162.488
47.81000 164.218
47.82000 164.412
47.83000 162.779
47.84000 161.150
47.85000 161.324
47.86000 162.894
47.87000 164.439
47.88000 162.284
47.89000 158.329
47.90000 154.567
47.91000 154.052
47.92000 154.695
47.93000 155.732
47.94000 160.386
47.95000 165.914
47.96000 170.714
47.97000 165.256
47.98000 159.224
47.99000 154.831
48.00000 156.600
48.01000 158.959
48.02000 160.684
48.03000 160.785
48.04000 160.805
48.05000 160.817
48.06000 157.674
48.07000 155.343
48.08000 156.379
48.09000 161.353
48.10000 166.305
48.11000 164.728
48.12000 158.178
48.13000 151.738
48.14000 152.503
48.15000 156.825
48.16000 161.053
48.17000 163.738
48.18000 165.880
48.19000 168.001
48.20000 169.925
48.21000 171.802
48.22000 173.428
48.23000 170.405
48.24000 167.219
48.25000 164.640
48.26000 164.307
48.27000 164.184
48.28000 163.316
48.29000 160.564
48.30000 157.720
48.31000 155.910
48.32000 160.747
48.33000 164.346
48.34000 165.363
48.35000 163.405
48.36000 161.452
48.37000 161.198
48.38000 162.217
48.39000 163.218
48.40000 161.928
48.41000 159.560
48.42000 157.345
48.43000 157.553
48.44000 158.600
48.45000 159.658
48.46000 160.804
48.47000 161.970
48.48000 162.978
48.49000 166.871
48.50000 170.550
48.51000 172.414
48.52000 167.650
48.53000 162.277
48.54000 158.994
48.55000 160.905
48.56000 163.060
48.57000 164.424
48.58000 161.040
48.59000 158.529
48.60000 158.363
48.61000 160.852
48.62000 163.345
48.63000 166.011
48.64000 168.806
48.65000 171.549
48.66000 169.968
48.67000 166.358
48.68000 162.780
48.69000 159.696
48.70000 156.780
48.71000 153.921
48.72000 151.550
48.73000 149.292
48.74000 147.346
48.75000 152.090
48.76000 156.960
48.77000 160.510
48.78000 159.314
48.79000 157.692
48.80000 155.802
48.81000 153.255
48.82000 150.678
48.83000 149.056
48.84000 156.596
48.85000 162.155
48.86000 166.043
48.87000 168.067
48.88000 170.062
48.89000 167.288
48.90000 161.047
48.91000 154.926
48.92000 155.809
48.93000 159.981
48.94000 163.881
48.95000 163.660
48.96000 162.052
48.97000 160.337
48.98000 157.722
48.99000 154.902
49.00000 152.478
49.01000 154.549
49.02000 156.861
49.03000 157.782
49.04000 153.775
49.05000 149.336
49.06000 146.621
49.07000 148.068
49.08000 149.701
49.09000 150.722
49.10000 158.678
49.11000 164.496
49.12000 164.296
49.13000 157.500
49.14000 150.744
49.15000 150.464
49.16000 154.820
49.17000 159.090
49.18000 161.835
49.19000 163.765
49.20000 165.348
49.21000 161.818
49.22000 156.591
49.23000 152.398
49.24000 156.808
49.25000 163.142
49.26000 168.571
49.27000 167.391
49.28000 165.588
49.29000 162.542
49.30000 155.160
49.31000 147.405
49.32000 142.772
49.33000 145.568
49.34000 148.684
49.35000 150.623
49.36000 153.111
49.37000 154.908
49.38000 153.420
49.39000 148.388
49.40000 143.384
49.41000 142.268
49.42000 143.893
49.43000 145.485
49.44000 149.252
49.45000 153.872
49.46000 158.256
49.47000 159.264
49.48000 159.167
49.49000 158.893
49.50000 157.174
49.51000 155.137
49.52000 153.395
49.53000 153.519
49.54000 153.846
49.55000 154.611
49.56000 156.881
49.57000 159.277
49.58000 160.605
49.59000 159.431
49.60000 158.152
49.61000 157.361
49.62000 151.426
49.63000 147.113
49.64000 144.819
49.65000 144.666
49.66000 144.548
49.67000 148.765
49.68000 155.992
49.69000 163.063
49.70000 162.724
49.71000 159.049
49.72000 155.659
49.73000 156.276
49.74000 158.184
49.75000 159.480
49.76000 155.872
49.77000 151.201
49.78000 147.220
49.79000 147.826
49.80000 148.875
49.81000 149.774
49.82000 150.161
49.83000 150.507
49.84000 149.688
49.85000 146.172
49.86000 142.549
49.87000 140.321
49.88000 151.283
49.89000 159.258
49.90000 161.655
49.91000 158.235
49.92000 154.847
49.93000 155.225
49.94000 158.179
49.95000 161.066
49.96000 161.657
49.97000 161.202
49.98000 160.676
49.99000 159.183
50.00000 157.382
50.01000 155.649
50.02000 154.439
50.03000 153.342
50.04000 152.409
50.05000 150.337
50.06000 148.465
50.07000 147.188
50.08000 147.897
50.09000 148.765
50.10000 149.308
50.11000 149.110
50.12000 148.883
50.13000 148.744
50.14000 149.751
50.15000 150.481
50.16000 153.099
50.17000 157.653
50.18000 162.173
50.19000 163.089
50.20000 161.578
50.21000 160.102
50.22000 158.855
50.23000 157.761
50.24000 156.819
50.25000 157.909
50.26000 159.635
50.27000 161.124
50.28000 160.786
50.29000 160.065
50.30000 159.454
50.31000 160.907
50.32000 162.357
50.33000 163.618
50.34000 164.255
50.35000 164.843
50.36000 164.807
50.37000 163.367
50.38000 161.875
50.39000 160.969
50.40000 161.332
50.41000 161.602
50.42000 163.409
50.43000 166.766
50.44000 170.112
50.45000 172.414
50.46000 174.022
50.47000 175.590
50.48000 173.653
50.49000 170.289
50.50000 167.414
50.51000 170.904
50.52000 176.357
50.53000 180.796
50.54000 177.561
50.55000 172.740
50.56000 168.664
50.57000 176.216
50.58000 183.818
50.59000 189.888
50.60000 190.993
50.61000 191.717
50.62000 192.849
50.63000 194.883
50.64000 196.951
50.65000 198.198
50.66000 201.745
50.67000 204.287
50.68000 205.064
50.69000 204.092
50.70000 203.162
50.71000 206.143
50.72000 211.680
50.73000 217.077
50.74000 220.895
50.75000 223.868
50.76000 226.335
50.77000 222.343
50.78000 216.389
50.79000 212.272
50.80000 221.800
50.81000 234.104
50.82000 244.478
50.83000 243.733
50.84000 241.908
50.85000 239.824
50.86000 236.917
50.87000 233.947
50.88000 231.028
50.89000 228.220
50.90000 225.415
50.91000 223.733
50.92000 215.975
50.93000 210.425
50.94000 210.065
50.95000 214.764
50.96000 219.382
50.97000 217.063
50.98000 210.278
50.99000 203.671
51.00000 198.746
51.01000 194.755
51.02000 191.383
51.03000 195.729
51.04000 202.386
51.05000 207.165
51.06000 198.250
51.07000 186.594
51.08000 176.795
51.09000 181.177
51.10000 186.334
51.11000 189.262
51.12000 185.180
51.13000 180.586
51.14000 176.144
51.15000 172.030
51.16000 167.928
51.17000 165.483
51.18000 164.206
51.19000 163.309
51.20000 165.680
51.21000 171.184
51.22000 176.632
51.23000 177.549
51.24000 175.593
51.25000 173.690
51.26000 168.077
51.27000 161.211
51.28000 154.929
51.29000 155.748
51.30000 158.663
51.31000 160.808
51.32000 157.445
51.33000 152.996
51.34000 149.267
51.35000 156.011
51.36000 162.708
51.37000 167.326
51.38000 165.491
51.39000 163.197
51.40000 160.240
51.41000 155.880
51.42000 151.474
51.43000 148.866
51.44000 147.798
51.45000 147.052
51.46000 149.228
51.47000 154.156
51.48000 159.051
51.49000 161.388
51.50000 162.127
51.51000 162.846
51.52000 161.957
51.53000 160.463
51.54000 159.096
51.55000 159.234
51.56000 159.809
51.57000 159.567
51.58000 153.576
51.59000 146.469
51.60000 140.529
51.61000 148.831
51.62000 157.172
51.63000 162.664
51.64000 159.448
51.65000 155.626
51.66000 150.946
51.67000 144.471
51.68000 137.940
51.69000 134.099
51.70000 133.977
51.71000 133.911
51.72000 135.087
51.73000 137.415
51.74000 139.744
51.75000 142.080
51.76000 144.419
51.77000 146.690
51.78000 145.208
51.79000 142.307
51.80000 139.481
51.81000 137.514
51.82000 135.794
51.83000 134.901
51.84000 139.722
51.85000 145.633
51.86000 150.559
51.87000 147.272
51.88000 143.729
51.89000 142.912
51.90000 150.299
51.91000 158.244
51.92000 160.607
51.93000 151.473
51.94000 141.992
51.95000 136.454
51.96000 138.246
51.97000 139.541
51.98000 140.001
51.99000 139.700
52.00000 139.382
52.01000 137.876
52.02000 135.651
52.03000 133.493
52.04000 132.340
52.05000 131.642
52.06000 131.040
52.07000 131.522
52.08000 132.311
52.09000 133.666
52.10000 138.869
52.11000 144.794
52.12000 149.717
52.13000 145.738
52.14000 141.579
52.15000 138.652
52.16000 139.378
52.17000 140.347
52.18000 140.462
52.19000 138.847
52.20000 137.181
52.21000 136.215
52.22000 136.713
52.23000 137.070
52.24000 139.932
52.25000 145.040
52.26000 150.079
52.27000 150.768
52.28000 148.856
52.29000 147.005
52.30000 142.734
52.31000 137.759
52.32000 133.212
52.33000 133.421
52.34000 134.953
52.35000 136.461
52.36000 137.817
52.37000 139.145
52.38000 140.245
52.39000 143.550
52.40000 146.490
52.41000 146.966
52.42000 140.236
52.43000 133.042
52.44000 130.592
52.45000 137.634
52.46000 144.941
52.47000 149.153
52.48000 146.485
52.49000 144.588
52.50000 141.161
52.51000 136.381
52.52000 131.646
52.53000 129.531
52.54000 128.958
52.55000 128.405
52.56000 131.094
52.57000 134.865
52.58000 138.279
52.59000 137.814
52.60000 136.288
52.61000 135.150
52.62000 136.563
52.63000 138.438
52.64000 139.987
52.65000 141.160
52.66000 142.091
52.67000 142.236
52.68000 140.117
52.69000 137.855
52.70000 136.359
52.71000 136.374
52.72000 136.429
52.73000 136.460
52.74000 134.537
52.75000 133.189
52.76000 133.111
52.77000 134.135
52.78000 135.170
52.79000 136.861
52.80000 138.933
52.81000 140.935
52.82000 139.452
52.83000 136.751
52.84000 133.978
52.85000 130.437
52.86000 126.689
52.87000 123.548
52.88000 124.313
52.89000 125.776
52.90000 126.981
52.91000 128.965
52.92000 130.667
52.93000 132.923
52.94000 136.750
52.95000 140.674
52.96000 143.726
52.97000 145.085
52.98000 146.400
52.99000 147.148
53.00000 140.395
53.01000 135.675
53.02000 135.797
53.03000 140.055
53.04000 144.236
53.05000 144.175
53.06000 141.690
53.07000 139.292
53.08000 139.604
53.09000 140.895
53.10000 142.104
53.11000 142.469
53.12000 142.610
53.13000 142.803
53.14000 143.328
53.15000 143.912
53.16000 144.391
53.17000 140.340
53.18000 136.609
53.19000 134.378
53.20000 136.347
53.21000 138.566
53.22000 139.305
53.23000 137.206
53.24000 135.037
53.25000 133.813
53.26000 142.392
53.27000 148.377
53.28000 151.775
53.29000 152.998
53.30000 154.168
53.31000 152.590
53.32000 149.464
53.33000 146.450
53.34000 144.504
53.35000 143.061
53.36000 141.912
53.37000 143.766
53.38000 146.406
53.39000 148.689
53.40000 148.754
53.41000 148.436
53.42000 148.176
53.43000 150.030
53.44000 151.734
53.45000 153.565
53.46000 155.745
53.47000 157.946
53.48000 157.207
53.49000 150.921
53.50000 144.503
53.51000 140.906
53.52000 145.414
53.53000 148.554
53.54000 149.769
53.55000 149.391
53.56000 149.037
53.57000 149.864
53.58000 151.345
53.59000 152.772
53.60000 149.086
53.61000 143.804
53.62000 139.173
53.63000 141.054
53.64000 144.613
53.65000 147.372
53.66000 145.241
53.67000 142.280
53.68000 139.864
53.69000 144.751
53.70000 149.372
53.71000 151.494
53.72000 146.820
53.73000 141.762
53.74000 137.524
53.75000 134.812
53.76000 132.135
53.77000 130.645
53.78000 136.888
53.79000 141.217
53.80000 143.582
53.81000 144.349
53.82000 145.098
53.83000 145.027
53.84000 144.506
53.85000 144.005
53.86000 141.235
53.87000 137.844
53.88000 134.865
53.89000 135.927
53.90000 138.015
53.91000 140.307
53.92000 143.830
53.93000 147.558
53.94000 150.590
53.95000 143.720
53.96000 137.285
53.97000 133.091
53.98000 134.909
53.99000 137.056
54.00000 138.492
54.01000 138.625
54.02000 138.730
54.03000 138.788
54.04000 130.873
54.05000 125.421
54.06000 127.282
54.07000 135.002
54.08000 142.613
54.09000 145.347
54.10000 145.453
54.11000 145.555
54.12000 145.044
54.13000 144.354
54.14000 143.498
54.15000 141.043
54.16000 138.187
54.17000 136.338
54.18000 140.432
54.19000 145.501
54.20000 149.610
54.21000 145.686
54.22000 141.832
54.23000 138.386
54.24000 136.016
54.25000 133.703
54.26000 131.551
54.27000 129.689
54.28000 127.833
54.29000 126.814
54.30000 139.206
54.31000 147.726
54.32000 148.377
54.33000 142.822
54.34000 137.302
54.35000 133.252
54.36000 129.982
54.37000 126.846
54.38000 129.643
54.39000 134.271
54.40000 138.891
54.41000 143.425
54.42000 147.939
54.43000 150.894
54.44000 144.794
54.45000 137.233
54.46000 131.125
54.47000 132.223
54.48000 133.691
54.49000 136.029
54.50000 140.633
54.51000 145.354
54.52000 148.067
54.53000 147.205
54.54000 146.273
54.55000 145.766
54.56000 140.482
54.57000 136.856
54.58000 134.925
54.59000 134.309
54.60000 133.749
54.61000 135.493
54.62000 138.442
54.63000 141.269
54.64000 138.995
54.65000 135.171
54.66000 131.927
54.67000 134.036
54.68000 137.444
54.69000 140.886
54.70000 144.534
54.71000 148.214
54.72000 151.177
54.73000 146.290
54.74000 141.711
54.75000 139.743
54.76000 144.479
54.77000 149.552
54.78000 150.572
54.79000 144.482
54.80000 138.260
54.81000 134.898
54.82000 135.186
54.83000 135.387
54.84000 135.510
54.85000 135.573
54.86000 135.678
54.87000 137.405
54.88000 139.967
54.89000 142.419
54.90000 140.960
54.91000 138.315
54.92000 136.059
54.93000 137.313
54.94000 139.406
54.95000 140.456
54.96000 135.650
54.97000 129.931
54.98000 125.341
54.99000 132.752
55.00000 139.670
55.01000 144.527
55.02000 144.165
55.03000 143.548
55.04000 143.090
55.05000 142.905
55.06000 142.725
55.07000 142.629
55.08000 146.755
55.09000 149.551
55.10000 147.226
55.11000 141.047
55.12000 135.020
55.13000 134.675
55.14000 137.218
55.15000 139.648
55.16000 140.678
55.17000 141.183
55.18000 141.521
55.19000 140.369
55.20000 138.868
55.21000 137.364
55.22000 135.840
55.23000 134.314
55.24000 133.093
55.25000 137.140
55.26000 140.804
55.27000 142.813
55.28000 140.695
55.29000 138.381
55.30000 138.297
55.31000 142.012
55.32000 145.789
55.33000 147.800
55.34000 145.334
55.35000 143.656
55.36000 142.564
55.37000 141.907
55.38000 141.366
55.39000 144.994
55.40000 150.711
55.41000 156.167
55.42000 157.070
55.43000 156.459
55.44000 155.786
55.45000 154.578
55.46000 153.246
55.47000 152.381
55.48000 154.057
55.49000 156.116
55.50000 157.757
55.51000 158.522
55.52000 159.075
55.53000 160.549
55.54000 164.287
55.55000 168.130
55.56000 170.902
55.57000 171.877
55.58000 172.824
55.59000 173.324
55.60000 178.278
55.61000 181.638
55.62000 183.868
55.63000 185.273
55.64000 186.786
55.65000 192.026
55.66000 199.105
55.67000 205.853
55.68000 202.859
55.69000 197.032
55.70000 192.776
55.71000 201.892
55.72000 214.057
55.73000 225.498
55.74000 233.070
55.75000 240.071
55.76000 245.634
55.77000 251.820
55.78000 256.846
55.79000 263.910
55.80000 275.911
55.81000 288.132
55.82000 299.639
55.83000 309.965
55.84000 320.274
55.85000 325.674
55.86000 344.756
55.87000 357.694
55.88000 372.041
55.89000 387.401
55.90000 402.867
55.91000 421.864
55.92000 442.581
55.93000 462.298
55.94000 473.474
55.95000 481.187
55.96000 489.241
55.97000 500.139
55.98000 511.674
55.99000 523.185
56.00000 534.561
56.01000 545.917
56.02000 554.909
56.03000 552.097
56.04000 549.017
56.05000 547.188
56.06000 548.346
56.07000 549.632
56.08000 551.429
56.09000 554.056
56.10000 556.695
56.11000 558.067
56.12000 532.356
56.13000 515.053
56.14000 507.394
56.15000 506.558
56.16000 505.273
56.17000 489.614
56.18000 467.062
56.19000 445.626
56.20000 433.333
56.21000 424.744
56.22000 415.818
56.23000 404.128
56.24000 391.827
56.25000 378.950
56.26000 363.087
56.27000 346.798
56.28000 333.945
56.29000 331.708
56.30000 330.631
56.31000 325.886
56.32000 312.504
56.33000 298.761
56.34000 288.272
56.35000 283.007
56.36000 277.811
56.37000 275.132
56.38000 257.550
56.39000 245.766
56.40000 241.752
56.41000 243.152
56.42000 244.278
56.43000 236.943
56.44000 225.608
56.45000 214.851
56.46000 213.810
56.47000 215.748
56.48000 216.804
56.49000 210.779
56.50000 203.213
56.51000 196.328
56.52000 192.913
56.53000 189.984
56.54000 187.681
56.55000 183.867
56.56000 180.714
56.57000 177.364
56.58000 173.560
56.59000 169.738
56.60000 167.470
56.61000 167.661
56.62000 167.882
56.63000 167.996
56.64000 165.488
56.65000 163.795
56.66000 161.171
56.67000 157.906
56.68000 154.837
56.69000 157.562
56.70000 162.986
56.71000 168.128
56.72000 167.340
56.73000 164.874
56.74000 162.154
56.75000 157.434
56.76000 152.285
56.77000 148.533
56.78000 151.773
56.79000 155.975
56.80000 159.267
56.81000 155.379
56.82000 151.809
56.83000 148.825
56.84000 147.183
56.85000 145.593
56.86000 144.270
56.87000 143.362
56.88000 142.459
56.89000 142.001
56.90000 140.569
56.91000 139.603
56.92000 137.887
56.93000 135.665
56.94000 133.416
56.95000 130.371
56.96000 126.962
56.97000 123.736
56.98000 127.860
56.99000 133.775
57.00000 139.117
57.01000 140.022
57.02000 139.993
57.03000 139.906
57.04000 139.536
57.05000 139.128
57.06000 138.809
57.07000 137.330
57.08000 136.078
57.09000 135.070
57.10000 134.615
57.11000 134.181
57.12000 133.080
57.13000 130.955
57.14000 128.820
57.15000 127.746
57.16000 128.827
57.17000 129.523
57.18000 127.533
57.19000 123.754
57.20000 120.118
57.21000 120.449
57.22000 122.575
57.23000 124.585
57.24000 125.950
57.25000 127.021
57.26000 127.733
57.27000 125.727
57.28000 123.157
57.29000 121.338
57.30000 123.160
57.31000 125.464
57.32000 127.256
57.33000 126.091
57.34000 124.983
57.35000 125.443
57.36000 129.386
57.37000 133.457
57.38000 133.716
57.39000 128.216
57.40000 122.657
57.41000 121.069
57.42000 123.431
57.43000 125.778
57.44000 126.673
57.45000 126.617
57.46000 126.584
57.47000 127.154
57.48000 127.994
57.49000 128.787
57.50000 126.896
57.51000 124.414
57.52000 122.434
57.53000 124.203
57.54000 126.737
57.55000 129.099
57.56000 130.640
57.57000 132.074
57.58000 133.185
57.59000 126.135
57.60000 120.047
57.61000 116.130
57.62000 116.965
57.63000 117.969
57.64000 118.397
57.65000 117.969
57.66000 117.533
57.67000 117.699
57.68000 118.451
57.69000 119.220
57.70000 121.349
57.71000 124.356
57.72000 127.211
57.73000 126.122
57.74000 123.299
57.75000 120.639
57.76000 120.522
57.77000 121.115
57.78000 122.015
57.79000 125.166
57.80000 128.769
57.81000 131.416
57.82000 129.572
57.83000 127.154
57.84000 125.288
57.85000 127.443
57.86000 129.386
57.87000 130.855
57.88000 131.304
57.89000 131.719
57.90000 132.318
57.91000 133.188
57.92000 134.060
57.93000 132.479
57.94000 128.539
57.95000 124.637
57.96000 123.865
57.97000 125.084
57.98000 126.245
57.99000 125.966
58.00000 125.062
58.01000 124.212
58.02000 122.062
58.03000 119.746
58.04000 118.145
58.05000 121.685
58.06000 126.242
58.07000 129.588
58.08000 127.330
58.09000 124.370
58.10000 122.094
58.11000 123.570
58.12000 124.951
58.13000 126.468
58.14000 128.276
58.15000 130.094
58.16000 130.995
58.17000 130.570
58.18000 130.134
58.19000 130.247
58.20000 130.879
58.21000 131.454
58.22000 127.693
58.23000 121.215
58.24000 115.039
58.25000 116.191
58.26000 120.474
58.27000 124.497
58.28000 123.327
58.29000 120.878
58.30000 119.615
58.31000 126.723
58.32000 135.459
58.33000 141.443
58.34000 134.898
58.35000 126.813
58.36000 120.616
58.37000 125.593
58.38000 130.140
58.39000 131.976
58.40000 128.126
58.41000 124.097
58.42000 123.382
58.43000 127.379
58.44000 131.411
58.45000 130.926
58.46000 126.240
58.47000 121.594
58.48000 119.846
58.49000 119.888
58.50000 120.049
58.51000 123.006
58.52000 127.139
58.53000 131.014
58.54000 129.627
58.55000 126.988
58.56000 124.355
58.57000 121.770
58.58000 119.194
58.59000 116.896
58.60000 115.845
58.61000 114.945
58.62000 114.257
58.63000 119.345
58.64000 123.665
58.65000 125.450
58.66000 121.996
58.67000 118.383
58.68000 117.775
58.69000 121.375
58.70000 125.003
58.71000 125.289
58.72000 122.520
58.73000 119.802
58.74000 120.656
58.75000 123.683
58.76000 126.603
58.77000 127.079
58.78000 126.542
58.79000 126.040
58.80000 126.263
58.81000 126.652
58.82000 126.480
58.83000 122.487
58.84000 117.775
58.85000 114.209
58.86000 115.701
58.87000 117.791
58.88000 119.381
58.89000 122.025
58.90000 124.160
58.91000 125.475
58.92000 125.121
58.93000 124.718
58.94000 125.718
58.95000 128.654
58.96000 131.601
58.97000 129.256
58.98000 122.157
58.99000 115.140
59.00000 113.466
59.01000 114.995
59.02000 116.578
59.03000 119.334
59.04000 122.570
59.05000 125.595
59.06000 123.309
59.07000 119.890
59.08000 117.087
59.09000 118.409
59.10000 120.496
59.11000 122.312
59.12000 122.952
59.13000 123.456
59.14000 123.838
59.15000 121.581
59.16000 119.675
59.17000 119.212
59.18000 121.648
59.19000 124.165
59.20000 124.811
59.21000 122.914
59.22000 121.005
59.23000 120.142
59.24000 120.208
59.25000 120.291
59.26000 121.431
59.27000 123.197
59.28000 124.759
59.29000 122.009
59.30000 117.519
59.31000 113.330
59.32000 110.425
59.33000 108.114
59.34000 106.629
59.35000 110.581
59.36000 115.524
59.37000 119.855
59.38000 121.568
59.39000 122.983
59.40000 124.051
59.41000 122.711
59.42000 121.543
59.43000 120.012
59.44000 117.764
59.45000 115.496
59.46000 114.518
59.47000 115.262
59.48000 116.015
59.49000 116.176
59.50000 115.822
59.51000 115.527
59.52000 118.661
59.53000 123.789
59.54000 128.607
59.55000 127.014
59.56000 122.871
59.57000 119.013
59.58000 117.274
59.59000 116.220
59.60000 115.375
59.61000 115.880
59.62000 116.627
59.63000 116.799
59.64000 114.546
59.65000 112.022
59.66000 110.125
59.67000 111.524
59.68000 112.777
59.69000 113.822
59.70000 114.463
59.71000 115.093
59.72000 115.822
59.73000 116.681
59.74000 117.539
59.75000 118.847
59.76000 120.536
59.77000 122.141
59.78000 119.109
59.79000 113.419
59.80000 108.096
59.81000 110.147
59.82000 115.085
59.83000 119.678
59.84000 123.169
59.85000 126.057
59.86000 128.162
59.87000 125.290
59.88000 121.542
59.89000 118.700
59.90000 119.614
59.91000 120.939
59.92000 121.931
59.93000 119.480
59.94000 117.407
59.95000 117.421
59.96000 121.444
59.97000 125.566
59.98000 126.424
59.99000 123.052
60.00000 119.666
60.01000 117.152
60.02000 115.379
60.03000 113.633
60.04000 113.293
60.05000 113.747
60.06000 114.261
60.07000 115.951
60.08000 118.095
60.09000 120.084
60.10000 119.753
60.11000 118.904
60.12000 118.337
60.13000 119.525
60.14000 121.018
60.15000 122.122
60.16000 121.643
60.17000 120.994
60.18000 120.510
60.19000 118.194
60.20000 116.308
60.21000 114.152
60.22000 111.486
60.23000 108.807
60.24000 108.813
60.25000 112.242
60.26000 115.681
60.27000 118.291
60.28000 120.208
60.29000 122.042
60.30000 119.726
60.31000 115.102
60.32000 110.675
60.33000 110.011
60.34000 110.778
60.35000 111.489
60.36000 115.068
60.37000 118.957
60.38000 122.330
60.39000 122.538
60.40000 122.207
60.41000 121.285
60.42000 117.984
60.43000 114.432
60.44000 111.795
60.45000 110.525
60.46000 109.598
60.47000 110.721
60.48000 115.672
60.49000 120.711
60.50000 123.368
60.51000 123.037
60.52000 122.697
60.53000 121.798
60.54000 120.448
60.55000 119.130
60.56000 119.318
60.57000 120.331
60.58000 121.219
60.59000 119.782
60.60000 117.475
60.61000 115.340
60.62000 118.527
60.63000 122.609
60.64000 125.609
60.65000 122.086
60.66000 117.470
60.67000 113.782
60.68000 113.771
60.69000 114.137
60.70000 114.408
60.71000 117.429
60.72000 119.890
60.73000 120.903
60.74000 119.255
60.75000 117.549
60.76000 117.257
60.77000 118.712
60.78000 120.169
60.79000 119.985
60.80000 118.486
60.81000 117.026
60.82000 117.337
60.83000 118.605
60.84000 119.654
60.85000 116.759
60.86000 112.407
60.87000 108.388
60.88000 111.227
60.89000 115.317
60.90000 119.061
60.91000 120.755
60.92000 122.110
60.93000 122.351
60.94000 118.244
60.95000 113.699
60.96000 110.352
60.97000 113.315
60.98000 115.871
60.99000 117.790
61.00000 118.553
61.01000 119.293
61.02000 120.067
61.03000 120.882
61.04000 121.695
61.05000 121.529
61.06000 120.592
61.07000 119.694
61.08000 120.453
61.09000 122.095
61.10000 123.732
61.11000 125.282
61.12000 126.801
61.13000 128.201
61.14000 121.537
61.15000 113.788
61.16000 108.074
61.17000 114.231
61.18000 122.310
61.19000 128.563
61.20000 127.800
61.21000 126.344
61.22000 125.276
61.23000 126.254
61.24000 127.092
61.25000 126.732
61.26000 124.233
61.27000 121.692
61.28000 122.439
61.29000 127.122
61.30000 131.803
61.31000 132.282
61.32000 129.503
61.33000 126.802
61.34000 127.315
61.35000 129.516
61.36000 131.710
61.37000 133.808
61.38000 135.870
61.39000 137.767
61.40000 135.642
61.41000 132.868
61.42000 130.194
61.43000 128.095
61.44000 126.088
61.45000 125.260
61.46000 128.900
61.47000 132.970
61.48000 135.943
61.49000 136.083
61.50000 136.081
61.51000 142.346
61.52000 159.639
61.53000 177.138
61.54000 191.432
61.55000 201.949
61.56000 212.435
61.57000 224.053
61.58000 236.464
61.59000 248.918
61.60000 263.038
61.61000 278.022
61.62000 292.846
61.63000 305.022
61.64000 316.260
61.65000 326.581
61.66000 326.674
61.67000 324.569
61.68000 324.407
61.69000 335.191
61.70000 347.687
61.71000 356.399
61.72000 350.999
61.73000 344.263
61.74000 339.366
61.75000 323.581
61.76000 311.024
61.77000 296.618
61.78000 279.002
61.79000 261.329
61.80000 247.354
61.81000 237.665
61.82000 228.008
61.83000 213.711
61.84000 196.032
61.85000 178.540
61.86000 168.188
61.87000 161.476
61.88000 154.861
61.89000 149.802
61.90000 145.286
61.91000 141.147
61.92000 139.744
61.93000 139.069
61.94000 138.507
61.95000 138.575
61.96000 138.738
61.97000 138.140
61.98000 134.741
61.99000 131.083
62.00000 128.436
62.01000 127.062
62.02000 126.055
62.03000 125.909
62.04000 127.237
62.05000 128.590
62.06000 129.250
62.07000 129.122
62.08000 128.994
62.09000 128.716
62.10000 128.332
62.11000 127.899
62.12000 125.700
62.13000 122.613
62.14000 119.853
62.15000 122.209
62.16000 126.322
62.17000 130.086
62.18000 129.578
62.19000 128.243
62.20000 127.195
62.21000 127.704
62.22000 128.449
62.23000 129.433
62.24000 131.283
62.25000 133.210
62.26000 134.600
62.27000 126.690
62.28000 120.299
62.29000 119.475
62.30000 128.018
62.31000 136.712
62.32000 141.105
62.33000 140.671
62.34000 140.234
62.35000 138.835
62.36000 136.749
62.37000 134.708
62.38000 134.222
62.39000 134.507
62.40000 134.749
62.41000 134.322
62.42000 133.670
62.43000 133.074
62.44000 134.160
62.45000 135.465
62.46000 136.543
62.47000 136.401
62.48000 136.078
62.49000 135.994
62.50000 136.764
62.51000 137.609
62.52000 138.216
62.53000 141.478
62.54000 144.064
62.55000 144.189
62.56000 140.230
62.57000 136.209
62.58000 134.439
62.59000 135.152
62.60000 135.865
62.61000 135.535
62.62000 134.463
62.63000 133.418
62.64000 133.265
62.65000 133.549
62.66000 133.806
62.67000 133.671
62.68000 133.406
62.69000 133.164
62.70000 132.370
62.71000 131.557
62.72000 131.136
62.73000 132.779
62.74000 134.724
62.75000 135.454
62.76000 131.920
62.77000 128.015
62.78000 125.227
62.79000 131.540
62.80000 136.660
62.81000 138.387
62.82000 134.570
62.83000 130.674
62.84000 128.131
62.85000 127.056
62.86000 125.986
62.87000 128.022
62.88000 132.222
62.89000 136.350
62.90000 138.195
62.91000 138.942
62.92000 139.628
62.93000 139.436
62.94000 138.955
62.95000 138.518
62.96000 135.580
62.97000 132.492
62.98000 130.206
62.99000 132.086
63.00000 134.563
63.01000 136.456
63.02000 136.331
63.03000 136.035
63.04000 135.824
63.05000 130.273
63.06000 125.875
63.07000 124.591
63.08000 128.320
63.09000 132.116
63.10000 133.483
63.11000 132.257
63.12000 131.035
63.13000 130.994
63.14000 131.770
63.15000 132.544
63.16000 133.276
63.17000 133.987
63.18000 134.656
63.19000 134.721
63.20000 134.590
63.21000 134.471
63.22000 134.164
63.23000 133.857
63.24000 134.261
63.25000 138.292
63.26000 142.834
63.27000 145.903
63.28000 143.951
63.29000 141.583
63.30000 139.906
63.31000 138.385
63.32000 137.233
63.33000 136.489
63.34000 136.391
63.35000 136.301
63.36000 133.946
63.37000 129.212
63.38000 124.501
63.39000 126.616
63.40000 133.351
63.41000 139.899
63.42000 140.817
63.43000 139.104
63.44000 137.633
63.45000 139.513
63.46000 142.463
63.47000 145.136
63.48000 145.966
63.49000 146.347
63.50000 146.738
63.51000 147.170
63.52000 147.608
63.53000 147.257
63.54000 144.253
63.55000 141.035
63.56000 138.767
63.57000 140.467
63.58000 141.875
63.59000 143.583
63.60000 145.761
63.61000 147.944
63.62000 146.746
63.63000 142.056
63.64000 137.392
63.65000 135.624
63.66000 135.819
63.67000 136.137
63.68000 140.003
63.69000 145.505
63.70000 150.576
63.71000 149.849
63.72000 147.295
63.73000 144.986
63.74000 141.657
63.75000 138.539
63.76000 135.767
63.77000 134.703
63.78000 133.872
63.79000 134.333
63.80000 139.077
63.81000 144.160
63.82000 147.724
63.83000 147.706
63.84000 147.588
63.85000 147.177
63.86000 146.313
63.87000 145.445
63.88000 146.461
63.89000 149.392
63.90000 152.306
63.91000 152.459
63.92000 150.791
63.93000 149.025
63.94000 144.501
63.95000 138.725
63.96000 133.648
63.97000 137.781
63.98000 144.771
63.99000 151.078
64.00000 152.268
64.01000 152.378
64.02000 152.220
64.03000 150.755
64.04000 149.117
64.05000 148.607
64.06000 151.777
64.07000 155.231
64.08000 157.643
64.09000 158.617
64.10000 159.314
64.11000 158.390
64.12000 155.010
64.13000 151.605
64.14000 150.136
64.15000 150.602
64.16000 151.065
64.17000 152.324
64.18000 154.082
64.19000 155.719
64.20000 154.120
64.21000 151.073
64.22000 148.333
64.23000 149.535
64.24000 151.942
64.25000 154.109
64.26000 155.637
64.27000 156.862
64.28000 158.188
64.29000 159.994
64.30000 161.862
64.31000 163.326
64.32000 163.486
64.33000 163.547
64.34000 163.590
64.35000 160.039
64.36000 157.267
64.37000 156.009
64.38000 157.014
64.39000 158.041
64.40000 159.289
64.41000 160.754
64.42000 162.208
64.43000 165.363
64.44000 169.553
64.45000 173.585
64.46000 173.465
64.47000 171.514
64.48000 169.801
64.49000 171.094
64.50000 173.292
64.51000 175.266
64.52000 169.528
64.53000 163.145
64.54000 158.672
64.55000 163.200
64.56000 168.882
64.57000 172.704
64.58000 170.636
64.59000 168.133
64.60000 166.402
64.61000 165.070
64.62000 164.079
64.63000 162.401
64.64000 159.713
64.65000 157.017
64.66000 157.601
64.67000 161.351
64.68000 165.073
64.69000 168.888
64.70000 172.699
64.71000 176.395
64.72000 177.189
64.73000 176.723
64.74000 176.345
64.75000 177.072
64.76000 178.126
64.77000 179.071
64.78000 182.706
64.79000 186.348
64.80000 187.959
64.81000 180.147
64.82000 171.149
64.83000 165.824
64.84000 171.958
64.85000 178.917
64.86000 183.705
64.87000 181.551
64.88000 179.763
64.89000 179.699
64.90000 182.132
64.91000 184.585
64.92000 185.547
64.93000 185.093
64.94000 184.642
64.95000 184.848
64.96000 185.454
64.97000 186.009
64.98000 185.310
64.99000 184.074
65.00000 182.918
65.01000 182.743
65.02000 182.855
65.03000 182.955
65.04000 193.691
65.05000 204.863
65.06000 213.142
65.07000 208.204
65.08000 201.634
65.09000 197.765
65.10000 202.205
65.11000 207.228
65.12000 210.667
65.13000 212.129
65.14000 213.176
65.15000 213.784
65.16000 213.765
65.17000 213.741
65.18000 216.161
65.19000 220.861
65.20000 225.523
65.21000 224.551
65.22000 220.171
65.23000 216.055
65.24000 218.160
65.25000 222.893
65.26000 227.522
65.27000 230.923
65.28000 233.971
65.29000 236.691
65.30000 236.272
65.31000 235.382
65.32000 235.681
65.33000 241.323
65.34000 247.613
65.35000 253.269
65.36000 257.002
65.37000 260.604
65.38000 263.057
65.39000 278.271
65.40000 289.932
65.41000 298.165
65.42000 301.585
65.43000 304.974
65.44000 314.352
65.45000 329.229
65.46000 343.974
65.47000 353.121
65.48000 358.742
65.49000 364.238
65.50000 366.879
65.51000 368.332
65.52000 370.419
65.53000 379.799
65.54000 391.249
65.55000 401.444
65.56000 414.722
65.57000 426.766
65.58000 440.115
65.59000 459.248
65.60000 479.068
65.61000 499.777
65.62000 523.141
65.63000 546.682
65.64000 562.638
65.65000 601.289
65.66000 630.605
65.67000 672.310
65.68000 731.154
65.69000 790.130
65.70000 884.700
65.71000 1011.421
65.72000 1136.943
65.73000 1275.169
65.74000 1418.059
65.75000 1560.635
65.76000 1696.249
65.77000 1829.007
65.78000 1960.485
65.79000 2077.591
65.80000 2190.676
65.81000 2291.151
65.82000 2341.272
65.83000 2376.626
65.84000 2411.250
65.85000 2442.685
65.86000 2473.749
65.87000 2496.644
65.88000 2495.492
65.89000 2492.773
65.90000 2490.940
65.91000 2436.821
65.92000 2395.453
65.93000 2318.032
65.94000 2191.497
65.95000 2064.672
65.96000 1930.478
65.97000 1789.736
65.98000 1650.408
65.99000 1507.669
66.00000 1366.019
66.01000 1224.917
66.02000 1095.606
66.03000 971.064
66.04000 849.936
66.05000 766.334
66.06000 693.072
66.07000 628.128
66.08000 583.679
66.09000 548.440
66.10000 516.362
66.11000 497.853
66.12000 480.894
66.13000 464.317
66.14000 448.846
66.15000 433.444
66.16000 423.111
66.17000 439.577
66.18000 452.342
66.19000 457.641
66.20000 452.924
66.21000 448.161
66.22000 449.374
66.23000 455.809
66.24000 462.177
66.25000 474.195
66.26000 489.165
66.27000 504.436
66.28000 525.956
66.29000 549.969
66.30000 573.438
66.31000 591.066
66.32000 607.109
66.33000 621.297
66.34000 648.029
66.35000 673.080
66.36000 696.878
66.37000 715.382
66.38000 733.292
66.39000 743.781
66.40000 733.051
66.41000 721.009
66.42000 712.971
66.43000 738.104
66.44000 757.365
66.45000 761.895
66.46000 746.971
66.47000 731.948
66.48000 711.441
66.49000 686.218
66.50000 661.279
66.51000 642.755
66.52000 628.270
66.53000 613.387
66.54000 590.423
66.55000 564.285
66.56000 538.165
66.57000 512.238
66.58000 486.362
66.59000 463.531
66.60000 451.543
66.61000 442.857
66.62000 434.356
66.63000 426.631
66.64000 418.990
66.65000 412.663
66.66000 410.035
66.67000 407.631
66.68000 406.034
66.69000 398.518
66.70000 392.853
66.71000 388.630
66.72000 386.284
66.73000 383.958
66.74000 389.661
66.75000 402.157
66.76000 414.505
66.77000 415.324
66.78000 409.751
66.79000 404.025
66.80000 395.286
66.81000 385.380
66.82000 376.635
66.83000 379.854
66.84000 386.226
66.85000 391.835
66.86000 384.506
66.87000 376.259
66.88000 371.774
66.89000 382.709
66.90000 395.304
66.91000 403.431
66.92000 399.150
66.93000 394.141
66.94000 390.833
66.95000 392.542
66.96000 393.891
66.97000 397.595
66.98000 404.312
66.99000 411.035
67.00000 414.767
67.01000 416.009
67.02000 417.235
67.03000 415.967
67.04000 413.376
67.05000 410.965
67.06000 412.008
67.07000 414.368
67.08000 416.547
67.09000 416.898
67.10000 416.774
67.11000 416.666
67.12000 414.666
67.13000 412.669
67.14000 412.174
67.15000 417.740
67.16000 423.946
67.17000 428.587
67.18000 428.944
67.19000 429.058
67.20000 429.132
67.21000 431.495
67.22000 433.273
67.23000 436.689
67.24000 442.168
67.25000 447.640
67.26000 447.161
67.27000 441.805
67.28000 436.521
67.29000 437.502
67.30000 441.812
67.31000 445.948
67.32000 446.856
67.33000 446.550
67.34000 446.958
67.35000 454.411
67.36000 463.665
67.37000 471.773
67.38000 470.714
67.39000 468.484
67.40000 466.001
67.41000 462.516
67.42000 458.928
67.43000 456.522
67.44000 457.306
67.45000 458.268
67.46000 458.896
67.47000 454.849
67.48000 451.803
67.49000 453.398
67.50000 460.751
67.51000 468.116
67.52000 473.875
67.53000 478.341
67.54000 482.744
67.55000 482.099
67.56000 478.812
67.57000 475.776
67.58000 477.270
67.59000 480.445
67.60000 483.890
67.61000 489.956
67.62000 496.682
67.63000 502.560
67.64000 502.123
67.65000 500.856
67.66000 500.833
67.67000 505.688
67.68000 511.037
67.69000 513.344
67.70000 507.564
67.71000 501.347
67.72000 497.307
67.73000 504.606
67.74000 510.128
67.75000 514.074
67.76000 516.097
67.77000 518.123
67.78000 522.848
67.79000 529.716
67.80000 536.483
67.81000 536.327
67.82000 532.586
67.83000 529.094
67.84000 529.971
67.85000 532.445
67.86000 534.586
67.87000 533.569
67.88000 531.769
67.89000 530.200
67.90000 530.844
67.91000 531.703
67.92000 532.356
67.93000 532.216
67.94000 531.997
67.95000 534.120
67.96000 542.383
67.97000 550.967
67.98000 556.516
67.99000 554.893
68.00000 553.602
68.01000 554.894
68.02000 559.289
68.03000 563.671
68.04000 563.092
68.05000 558.633
68.06000 554.243
68.07000 563.355
68.08000 579.077
68.09000 593.879
68.10000 592.972
68.11000 586.406
68.12000 581.327
68.13000 590.072
68.14000 602.193
68.15000 612.734
68.16000 607.706
68.17000 601.294
68.18000 597.653
68.19000 604.532
68.20000 612.434
68.21000 617.866
68.22000 616.920
68.23000 615.648
68.24000 614.831
68.25000 629.238
68.26000 639.958
68.27000 649.034
68.28000 656.167
68.29000 663.271
68.30000 664.306
68.31000 660.673
68.32000 657.098
68.33000 660.080
68.34000 666.260
68.35000 672.262
68.36000 675.311
68.37000 677.311
68.38000 679.884
68.39000 687.679
68.40000 696.729
68.41000 704.580
68.42000 714.307
68.43000 722.842
68.44000 729.651
68.45000 730.002
68.46000 729.738
68.47000 734.109
68.48000 750.280
68.49000 767.034
68.50000 777.742
68.51000 790.690
68.52000 800.144
68.53000 807.397
68.54000 812.090
68.55000 816.867
68.56000 840.253
68.57000 877.738
68.58000 914.587
68.59000 940.910
68.60000 961.154
68.61000 982.063
68.62000 1013.730
68.63000 1049.162
68.64000 1087.147
68.65000 1147.930
68.66000 1214.111
68.67000 1271.377
68.68000 1331.383
68.69000 1382.757
68.70000 1434.926
68.71000 1490.030
68.72000 1545.407
68.73000 1601.550
68.74000 1659.615
68.75000 1717.772
68.76000 1754.730
68.77000 1830.167
68.78000 1885.429
68.79000 1947.463
68.80000 2017.248
68.81000 2087.123
68.82000 2172.673
68.83000 2269.917
68.84000 2365.430
68.85000 2505.579
68.86000 2662.620
68.87000 2824.661
68.88000 3065.503
68.89000 3333.521
68.90000 3634.199
68.91000 4220.837
68.92000 4874.135
68.93000 5437.970
68.94000 7275.616
68.95000 8998.831
68.96000 11052.634
68.97000 14306.680
68.98000 17670.025
68.99000 21375.207
69.00000 25925.959
69.01000 30516.127
69.02000 33416.391
69.03000 38923.703
69.04000 42944.863
69.05000 46254.645
69.06000 48763.352
69.07000 51266.770
69.08000 52970.922
69.09000 54088.066
69.10000 55184.438
69.11000 55986.973
69.12000 56620.047
69.13000 57270.535
69.14000 58188.422
69.15000 59197.191
69.16000 60154.531
69.17000 60670.277
69.18000 61084.664
69.19000 61441.379
69.20000 59971.262
69.21000 58495.621
69.22000 56596.563
69.23000 53183.043
69.24000 49634.594
69.25000 46170.000
69.26000 42909.863
69.27000 39658.973
69.28000 37616.824
69.29000 34647.535
69.30000 32490.604
69.31000 30900.975
69.32000 29939.805
69.33000 28981.021
69.34000 28335.805
69.35000 27917.352
69.36000 27507.025
69.37000 26755.193
69.38000 25870.158
69.39000 24942.922
69.40000 23383.764
69.41000 21612.936
69.42000 19772.467
69.43000 17345.592
69.44000 14786.200
69.45000 12588.788
69.46000 10351.212
69.47000 8454.509
69.48000 6732.013
69.49000 5623.382
69.50000 4568.250
69.51000 3664.118
69.52000 3122.870
69.53000 2597.520
69.54000 2269.438
69.55000 1992.852
69.56000 1793.883
69.57000 1636.104
69.58000 1523.208
69.59000 1410.564
69.60000 1331.357
69.61000 1275.962
69.62000 1221.689
69.63000 1169.002
69.64000 1119.069
69.65000 1069.854
69.66000 1031.128
69.67000 995.863
69.68000 960.696
69.69000 926.329
69.70000 892.140
69.71000 862.864
69.72000 834.115
69.73000 809.917
69.74000 790.510
69.75000 787.735
69.76000 786.378
69.77000 780.630
69.78000 764.483
69.79000 747.894
69.80000 737.596
69.81000 709.670
69.82000 689.400
69.83000 674.321
69.84000 664.806
69.85000 655.259
69.86000 641.147
69.87000 623.834
69.88000 606.887
69.89000 604.798
69.90000 609.578
69.91000 613.333
69.92000 602.486
69.93000 586.889
69.94000 572.705
69.95000 569.970
69.96000 569.743
69.97000 569.550
69.98000 561.151
69.99000 553.101
70.00000 545.691
