20.00000 502.138
20.01000 499.408
20.02000 496.288
20.03000 493.400
20.04000 491.429
20.05000 489.551
20.06000 488.165
20.07000 491.520
20.08000 494.322
20.09000 497.163
20.10000 500.075
20.11000 502.990
20.12000 505.808
20.13000 508.507
20.14000 511.202
20.15000 504.091
20.16000 489.198
20.17000 474.488
20.18000 467.926
20.19000 465.748
20.20000 464.036
20.21000 470.605
20.22000 480.222
20.23000 489.097
20.24000 491.957
20.25000 493.174
20.26000 493.699
20.27000 490.142
20.28000 485.916
20.29000 484.382
20.30000 493.302
20.31000 503.268
20.32000 510.598
20.33000 498.264
20.34000 487.913
20.35000 479.777
20.36000 475.637
20.37000 471.579
20.38000 470.431
20.39000 472.806
20.40000 475.184
20.41000 479.235
20.42000 484.577
20.43000 489.754
20.44000 487.873
20.45000 482.250
20.46000 476.721
20.47000 472.826
20.48000 469.525
20.49000 466.484
20.50000 473.769
20.51000 482.561
20.52000 489.326
20.53000 484.339
20.54000 477.459
20.55000 471.967
20.56000 471.786
20.57000 472.126
20.58000 472.375
20.59000 476.143
20.60000 479.193
20.61000 483.473
20.62000 489.942
20.63000 496.453
20.64000 497.164
20.65000 490.964
20.66000 484.765
20.67000 481.212
20.68000 479.719
20.69000 478.322
20.70000 480.815
20.71000 485.341
20.72000 489.689
20.73000 491.038
20.74000 491.314
20.75000 491.568
20.76000 489.659
20.77000 487.486
20.78000 484.127
20.79000 474.005
20.80000 462.811
20.81000 455.867
20.82000 464.935
20.83000 475.541
20.84000 483.275
20.85000 476.383
20.86000 470.507
20.87000 468.456
20.88000 473.104
20.89000 477.876
20.90000 480.343
20.91000 480.108
20.92000 479.869
20.93000 480.863
20.94000 482.787
20.95000 484.831
20.96000 491.595
20.97000 500.790
20.98000 509.314
20.99000 506.839
21.00000 500.488
21.01000 494.659
21.02000 496.316
21.03000 499.385
21.04000 500.779
21.05000 492.770
21.06000 483.298
21.07000 475.866
21.08000 476.009
21.09000 476.864
21.10000 477.485
21.11000 481.470
21.12000 484.661
21.13000 487.036
21.14000 488.005
21.15000 488.949
21.16000 484.675
21.17000 474.381
21.18000 464.108
21.19000 465.454
21.20000 475.462
21.21000 485.335
21.22000 490.168
21.23000 492.443
21.24000 494.550
21.25000 493.974
21.26000 492.467
21.27000 491.086
21.28000 484.901
21.29000 478.390
21.30000 473.165
21.31000 475.031
21.32000 477.980
21.33000 477.744
21.34000 465.857
21.35000 452.899
21.36000 443.531
21.37000 460.908
21.38000 475.211
21.39000 485.645
21.40000 489.499
21.41000 493.243
21.42000 492.834
21.43000 487.713
21.44000 482.603
21.45000 483.426
21.46000 488.601
21.47000 493.600
21.48000 492.308
21.49000 487.868
21.50000 483.974
21.51000 488.573
21.52000 496.081
21.53000 502.945
21.54000 493.615
21.55000 481.996
21.56000 472.403
21.57000 473.802
21.58000 476.853
21.59000 479.730
21.60000 481.980
21.61000 484.175
21.62000 485.754
21.63000 497.442
21.64000 506.746
21.65000 510.038
21.66000 503.251
21.67000 496.306
21.68000 495.114
21.69000 500.344
21.70000 505.562
21.71000 512.027
21.72000 519.338
21.73000 526.589
21.74000 531.751
21.75000 535.883
21.76000 540.270
21.77000 548.506
21.78000 558.041
21.79000 566.743
21.80000 564.470
21.81000 560.237
21.82000 557.595
21.83000 563.444
21.84000 570.546
21.85000 578.883
21.86000 591.608
21.87000 604.719
21.88000 614.113
21.89000 625.259
21.90000 633.834
21.91000 641.911
21.92000 649.165
21.93000 656.406
21.94000 660.157
21.95000 660.075
21.96000 659.991
21.97000 674.326
21.98000 698.777
21.99000 722.648
22.00000 727.260
22.01000 722.511
22.02000 717.625
22.03000 710.703
22.04000 703.106
22.05000 696.186
22.06000 692.404
22.07000 689.679
22.08000 686.614
22.09000 681.767
22.10000 676.662
22.11000 672.960
22.12000 674.164
22.13000 675.790
22.14000 676.949
22.15000 671.789
22.16000 667.645
22.17000 661.281
22.18000 651.304
22.19000 641.276
22.20000 637.688
22.21000 641.058
22.22000 644.416
22.23000 638.178
22.24000 625.291
22.25000 612.472
22.26000 601.825
22.27000 592.219
22.28000 582.704
22.29000 574.509
22.30000 566.746
22.31000 559.690
22.32000 547.469
22.33000 535.659
22.34000 526.799
22.35000 533.174
22.36000 541.719
22.37000 544.823
22.38000 529.185
22.39000 511.968
22.40000 499.743
22.41000 509.734
22.42000 518.043
22.43000 521.326
22.44000 516.554
22.45000 511.675
22.46000 504.855
22.47000 495.970
22.48000 487.126
22.49000 485.932
22.50000 490.015
22.51000 493.791
22.52000 488.115
22.53000 477.977
22.54000 468.716
22.55000 471.811
22.56000 478.894
22.57000 485.319
22.58000 479.443
22.59000 471.900
22.60000 465.291
22.61000 463.431
22.62000 462.235
22.63000 461.651
22.64000 463.142
22.65000 464.804
22.66000 465.979
22.67000 466.802
22.68000 467.417
22.69000 464.021
22.70000 454.292
22.71000 444.484
22.72000 439.668
22.73000 440.069
22.74000 440.469
22.75000 440.474
22.76000 440.211
22.77000 440.111
22.78000 444.853
22.79000 451.847
22.80000 458.329
22.81000 457.774
22.82000 454.979
22.83000 452.450
22.84000 449.078
22.85000 445.949
22.86000 444.364
22.87000 450.502
22.88000 457.701
22.89000 461.531
22.90000 454.097
22.91000 445.755
22.92000 439.886
22.93000 442.188
22.94000 444.175
22.95000 446.823
22.96000 450.499
22.97000 454.187
22.98000 457.929
22.99000 461.727
23.00000 465.504
23.01000 467.305
23.02000 467.764
23.03000 468.081
23.04000 464.296
23.05000 458.631
23.06000 452.916
23.07000 446.540
23.08000 439.958
23.09000 434.011
23.10000 436.455
23.11000 440.157
23.12000 444.569
23.13000 452.478
23.14000 460.859
23.15000 465.086
23.16000 455.626
23.17000 445.090
23.18000 437.711
23.19000 441.622
23.20000 444.902
23.21000 447.213
23.22000 448.038
23.23000 448.846
23.24000 447.456
23.25000 443.845
23.26000 440.256
23.27000 437.784
23.28000 436.078
23.29000 434.387
23.30000 433.072
23.31000 431.928
23.32000 430.700
23.33000 428.381
23.34000 425.724
23.35000 423.329
23.36000 433.149
23.37000 443.989
23.38000 452.628
23.39000 450.603
23.40000 447.166
23.41000 441.608
23.42000 429.164
23.43000 416.192
23.44000 407.150
23.45000 430.285
23.46000 448.630
23.47000 457.070
23.48000 450.560
23.49000 443.899
23.50000 441.991
23.51000 444.804
23.52000 447.598
23.53000 445.866
23.54000 441.237
23.55000 436.725
23.56000 435.326
23.57000 435.314
23.58000 434.983
23.59000 430.570
23.60000 424.914
23.61000 419.826
23.62000 424.366
23.63000 430.063
23.64000 434.419
23.65000 432.373
23.66000 429.496
23.67000 428.325
23.68000 432.612
23.69000 437.308
23.70000 440.566
23.71000 440.686
23.72000 440.694
23.73000 439.038
23.74000 434.909
23.75000 430.757
23.76000 429.037
23.77000 429.694
23.78000 430.346
23.79000 425.608
23.80000 417.522
23.81000 409.860
23.82000 413.136
23.83000 421.216
23.84000 428.749
23.85000 429.454
23.86000 428.111
23.87000 426.905
23.88000 421.338
23.89000 415.704
23.90000 412.380
23.91000 419.895
23.92000 428.793
23.93000 434.758
23.94000 431.476
23.95000 427.517
23.96000 424.784
23.97000 426.018
23.98000 427.046
23.99000 430.592
24.00000 437.824
24.01000 445.087
24.02000 441.576
24.03000 427.718
24.04000 413.962
24.05000 409.691
24.06000 411.416
24.07000 413.147
24.08000 415.027
24.09000 416.970
24.10000 419.199
24.11000 424.923
24.12000 431.679
24.13000 437.731
24.14000 430.661
24.15000 422.227
24.16000 414.303
24.17000 408.739
24.18000 403.470
24.19000 400.688
24.20000 405.635
24.21000 411.136
24.22000 414.914
24.23000 416.326
24.24000 417.326
24.25000 417.817
24.26000 417.572
24.27000 417.321
24.28000 417.366
24.29000 417.690
24.30000 418.012
24.31000 420.984
24.32000 425.532
24.33000 429.915
24.34000 430.285
24.35000 428.942
24.36000 427.498
24.37000 424.846
24.38000 421.842
24.39000 419.157
24.40000 424.580
24.41000 430.679
24.42000 433.710
24.43000 422.789
24.44000 410.154
24.45000 402.556
24.46000 410.378
24.47000 419.277
24.48000 425.360
24.49000 428.720
24.50000 431.170
24.51000 430.655
24.52000 425.927
24.53000 421.170
24.54000 420.889
24.55000 424.767
24.56000 428.612
24.57000 424.956
24.58000 416.828
24.59000 409.094
24.60000 410.570
24.61000 415.919
24.62000 420.667
24.63000 418.409
24.64000 414.140
24.65000 410.334
24.66000 416.938
24.67000 424.414
24.68000 429.344
24.69000 422.877
24.70000 415.038
24.71000 409.212
24.72000 409.464
24.73000 410.129
24.74000 410.581
24.75000 409.174
24.76000 408.081
24.77000 409.413
24.78000 414.134
24.79000 418.877
24.80000 421.756
24.81000 422.930
24.82000 424.093
24.83000 425.622
24.84000 427.338
24.85000 428.820
24.86000 424.995
24.87000 418.970
24.88000 413.420
24.89000 413.298
24.90000 414.710
24.91000 415.966
24.92000 417.523
24.93000 418.925
24.94000 419.694
24.95000 417.681
24.96000 415.338
24.97000 414.460
24.98000 417.937
24.99000 421.703
25.00000 424.251
25.01000 408.399
25.02000 396.187
25.03000 394.904
25.04000 408.671
25.05000 422.525
25.06000 427.725
25.07000 425.147
25.08000 422.594
25.09000 419.371
25.10000 415.824
25.11000 412.506
25.12000 414.248
25.13000 418.056
25.14000 421.602
25.15000 422.209
25.16000 421.997
25.17000 421.810
25.18000 413.796
25.19000 405.593
25.20000 399.274
25.21000 401.122
25.22000 403.916
25.23000 408.395
25.24000 417.810
25.25000 427.544
25.26000 434.099
25.27000 423.566
25.28000 415.379
25.29000 409.365
25.30000 406.297
25.31000 403.250
25.32000 405.124
25.33000 411.349
25.34000 417.510
25.35000 415.439
25.36000 408.665
25.37000 402.293
25.38000 404.498
25.39000 410.156
25.40000 415.303
25.41000 414.870
25.42000 412.907
25.43000 411.167
25.44000 405.335
25.45000 399.645
25.46000 395.689
25.47000 399.147
25.48000 403.447
25.49000 406.512
25.50000 406.011
25.51000 405.285
25.52000 404.799
25.53000 407.775
25.54000 410.053
25.55000 406.385
25.56000 394.779
25.57000 383.147
25.58000 382.784
25.59000 392.224
25.60000 401.561
25.61000 405.641
25.62000 406.641
25.63000 407.587
25.64000 407.415
25.65000 406.800
25.66000 405.923
25.67000 402.249
25.68000 397.820
25.69000 393.905
25.70000 402.928
25.71000 412.721
25.72000 419.184
25.73000 411.642
25.74000 402.540
25.75000 395.622
25.76000 394.924
25.77000 394.608
25.78000 394.397
25.79000 410.261
25.80000 422.312
25.81000 427.308
25.82000 423.030
25.83000 418.706
25.84000 412.212
25.85000 403.861
25.86000 395.606
25.87000 393.025
25.88000 393.678
25.89000 394.371
25.90000 395.864
25.91000 397.669
25.92000 399.305
25.93000 399.164
25.94000 398.550
25.95000 398.009
25.96000 394.700
25.97000 391.427
25.98000 390.145
25.99000 397.116
26.00000 404.987
26.01000 409.492
26.02000 404.553
26.03000 399.049
26.04000 395.401
26.05000 401.470
26.06000 406.132
26.07000 406.518
26.08000 401.374
26.09000 396.209
26.10000 392.420
26.11000 389.788
26.12000 387.189
26.13000 392.454
26.14000 401.913
26.15000 410.628
26.16000 404.859
26.17000 393.504
26.18000 383.456
26.19000 386.794
26.20000 393.641
26.21000 399.665
26.22000 402.990
26.23000 405.450
26.24000 407.507
26.25000 407.921
26.26000 408.159
26.27000 407.907
26.28000 406.304
26.29000 404.622
26.30000 403.512
26.31000 389.090
26.32000 378.228
26.33000 373.219
26.34000 375.665
26.35000 378.135
26.36000 379.340
26.37000 379.494
26.38000 379.647
26.39000 385.752
26.40000 394.918
26.41000 403.562
26.42000 402.319
26.43000 397.319
26.44000 393.313
26.45000 399.277
26.46000 407.816
26.47000 415.309
26.48000 406.609
26.49000 396.768
26.50000 389.641
26.51000 393.416
26.52000 398.335
26.53000 401.475
26.54000 399.771
26.55000 397.792
26.56000 396.494
26.57000 391.712
26.58000 388.137
26.59000 387.530
26.60000 390.644
26.61000 393.766
26.62000 395.022
26.63000 394.757
26.64000 394.495
26.65000 393.265
26.66000 391.552
26.67000 389.573
26.68000 382.687
26.69000 373.964
26.70000 366.054
26.71000 366.135
26.72000 368.249
26.73000 370.100
26.74000 374.725
26.75000 379.088
26.76000 383.258
26.77000 386.664
26.78000 389.992
26.79000 391.610
26.80000 388.636
26.81000 385.410
26.82000 383.305
26.83000 394.826
26.84000 403.496
26.85000 402.940
26.86000 390.995
26.87000 379.047
26.88000 376.323
26.89000 381.006
26.90000 385.623
26.91000 386.905
26.92000 386.401
26.93000 386.030
26.94000 388.017
26.95000 390.875
26.96000 393.405
26.97000 392.776
26.98000 391.356
26.99000 390.116
27.00000 391.984
27.01000 394.020
27.02000 393.265
27.03000 381.631
27.04000 368.902
27.05000 361.507
27.06000 368.231
27.07000 375.711
27.08000 380.564
27.09000 375.309
27.10000 371.308
27.11000 371.851
27.12000 377.913
27.13000 383.968
27.14000 383.861
27.15000 378.884
27.16000 373.982
27.17000 373.050
27.18000 374.197
27.19000 375.222
27.20000 374.137
27.21000 372.285
27.22000 370.643
27.23000 370.989
27.24000 371.826
27.25000 372.555
27.26000 373.979
27.27000 375.292
27.28000 375.245
27.29000 369.981
27.30000 364.203
27.31000 361.390
27.32000 366.313
27.33000 371.638
27.34000 375.074
27.35000 376.699
27.36000 377.860
27.37000 378.622
27.38000 378.908
27.39000 379.216
27.40000 385.461
27.41000 396.324
27.42000 407.018
27.43000 405.623
27.44000 398.132
27.45000 390.787
27.46000 385.924
27.47000 381.951
27.48000 378.194
27.49000 376.435
27.50000 375.161
27.51000 374.054
27.52000 374.806
27.53000 375.698
27.54000 376.625
27.55000 377.686
27.56000 378.760
27.57000 378.056
27.58000 372.780
27.59000 367.273
27.60000 363.740
27.61000 373.552
27.62000 380.886
27.63000 384.518
27.64000 383.794
27.65000 383.072
27.66000 384.663
27.67000 388.026
27.68000 391.333
27.69000 391.885
27.70000 391.040
27.71000 390.452
27.72000 394.079
27.73000 399.197
27.74000 403.005
27.75000 394.956
27.76000 384.070
27.77000 374.634
27.78000 376.204
27.79000 379.004
27.80000 380.234
27.81000 375.617
27.82000 370.448
27.83000 367.261
27.84000 369.098
27.85000 371.181
27.86000 372.510
27.87000 371.654
27.88000 371.002
27.89000 371.994
27.90000 374.888
27.91000 377.760
27.92000 375.484
27.93000 369.326
27.94000 363.275
27.95000 366.974
27.96000 375.348
27.97000 383.162
27.98000 381.974
27.99000 377.650
28.00000 373.639
28.01000 372.403
28.02000 371.822
28.03000 371.319
28.04000 371.346
28.05000 371.438
28.06000 373.343
28.07000 381.897
28.08000 391.066
28.09000 396.511
28.10000 392.651
28.11000 388.348
28.12000 385.618
28.13000 386.376
28.14000 386.968
28.15000 383.967
28.16000 376.875
28.17000 369.821
28.18000 370.777
28.19000 377.681
28.20000 384.460
28.21000 387.690
28.22000 389.089
28.23000 390.029
28.24000 383.795
28.25000 375.097
28.26000 367.197
28.27000 366.252
28.28000 366.921
28.29000 367.497
28.30000 373.708
28.31000 379.695
28.32000 382.663
28.33000 374.715
28.34000 365.780
28.35000 360.773
28.36000 365.441
28.37000 370.555
28.38000 373.781
28.39000 370.063
28.40000 367.291
28.41000 366.519
28.42000 367.986
28.43000 369.455
28.44000 370.951
28.45000 372.465
28.46000 373.951
28.47000 372.806
28.48000 370.447
28.49000 368.262
28.50000 368.721
28.51000 370.076
28.52000 370.756
28.53000 365.670
28.54000 359.268
28.55000 353.761
28.56000 359.337
28.57000 365.447
28.58000 370.130
28.59000 369.733
28.60000 368.885
28.61000 371.012
28.62000 380.357
28.63000 390.026
28.64000 396.089
28.65000 374.673
28.66000 358.903
28.67000 352.882
28.68000 357.611
28.69000 362.349
28.70000 367.725
28.71000 373.561
28.72000 379.282
28.73000 377.627
28.74000 372.574
28.75000 367.830
28.76000 367.690
28.77000 369.085
28.78000 370.541
28.79000 372.499
28.80000 374.571
28.81000 376.348
28.82000 376.928
28.83000 377.271
28.84000 376.334
28.85000 370.907
28.86000 365.093
28.87000 362.323
28.88000 366.841
28.89000 371.674
28.90000 374.688
28.91000 368.427
28.92000 363.820
28.93000 362.079
28.94000 363.446
28.95000 364.802
28.96000 364.397
28.97000 362.746
28.98000 361.128
28.99000 362.412
29.00000 364.987
29.01000 367.429
29.02000 367.944
29.03000 367.825
29.04000 367.336
29.05000 363.806
29.06000 359.603
29.07000 356.007
29.08000 353.965
29.09000 352.429
29.10000 351.790
29.11000 354.248
29.12000 356.967
29.13000 359.105
29.14000 359.869
29.15000 360.575
29.16000 361.012
29.17000 363.018
29.18000 364.475
29.19000 363.600
29.20000 360.236
29.21000 356.886
29.22000 355.487
29.23000 355.449
29.24000 355.411
29.25000 358.555
29.26000 363.019
29.27000 366.963
29.28000 363.553
29.29000 357.761
29.30000 353.205
29.31000 358.606
29.32000 366.178
29.33000 372.640
29.34000 367.636
29.35000 362.068
29.36000 358.729
29.37000 362.977
29.38000 367.854
29.39000 372.333
29.40000 375.890
29.41000 379.410
29.42000 381.578
29.43000 378.363
29.44000 376.008
29.45000 375.196
29.46000 376.002
29.47000 376.807
29.48000 377.458
29.49000 378.004
29.50000 378.537
29.51000 370.777
29.52000 359.625
29.53000 349.233
29.54000 349.338
29.55000 352.792
29.56000 356.125
29.57000 358.507
29.58000 360.685
29.59000 362.539
29.60000 364.316
29.61000 365.801
29.62000 366.939
29.63000 366.910
29.64000 366.786
29.65000 367.586
29.66000 370.501
29.67000 373.499
29.68000 375.334
29.69000 378.802
29.70000 381.298
29.71000 377.897
29.72000 368.415
29.73000 359.045
29.74000 362.107
29.75000 373.588
29.76000 384.803
29.77000 387.675
29.78000 386.750
29.79000 385.788
29.80000 384.320
29.81000 382.693
29.82000 382.098
29.83000 389.509
29.84000 398.610
29.85000 406.334
29.86000 402.610
29.87000 398.187
29.88000 396.230
29.89000 402.427
29.90000 409.268
29.91000 416.605
29.92000 425.063
29.93000 433.563
29.94000 438.735
29.95000 437.231
29.96000 436.104
29.97000 442.266
29.98000 455.819
29.99000 469.226
30.00000 467.669
30.01000 456.131
30.02000 444.871
30.03000 443.116
30.04000 445.559
30.05000 447.818
30.06000 447.668
30.07000 446.771
30.08000 445.806
30.09000 444.320
30.10000 442.726
30.11000 441.377
30.12000 443.336
30.13000 445.345
30.14000 446.354
30.15000 444.104
30.16000 441.602
30.17000 439.863
30.18000 439.820
30.19000 439.839
30.20000 439.851
30.21000 423.248
30.22000 411.296
30.23000 407.105
30.24000 410.654
30.25000 414.210
30.26000 418.555
30.27000 423.418
30.28000 428.159
30.29000 424.818
30.30000 418.180
30.31000 411.997
30.32000 411.666
30.33000 413.121
30.34000 414.491
30.35000 415.222
30.36000 415.823
30.37000 416.329
30.38000 413.232
30.39000 410.252
30.40000 406.108
30.41000 398.228
30.42000 390.067
30.43000 384.939
30.44000 386.467
30.45000 388.231
30.46000 389.292
30.47000 392.826
30.48000 395.355
30.49000 394.835
30.50000 391.326
30.51000 387.914
30.52000 393.046
30.53000 403.707
30.54000 414.090
30.55000 412.692
30.56000 406.412
30.57000 401.012
30.58000 406.663
30.59000 415.641
30.60000 422.475
30.61000 413.579
30.62000 401.516
30.63000 391.364
30.64000 402.115
30.65000 413.313
30.66000 420.455
30.67000 414.769
30.68000 408.139
30.69000 405.153
30.70000 410.050
30.71000 415.217
30.72000 418.302
30.73000 419.168
30.74000 419.767
30.75000 418.215
30.76000 414.590
30.77000 410.993
30.78000 409.734
30.79000 409.965
30.80000 410.190
30.81000 413.796
30.82000 418.627
30.83000 423.329
30.84000 426.454
30.85000 429.110
30.86000 432.541
30.87000 441.560
30.88000 451.685
30.89000 460.182
30.90000 461.310
30.91000 461.478
30.92000 463.858
30.93000 473.130
30.94000 482.899
30.95000 490.920
30.96000 495.220
30.97000 499.397
30.98000 501.875
30.99000 522.029
31.00000 536.391
31.01000 552.490
31.02000 570.235
31.03000 587.994
31.04000 606.858
31.05000 626.416
31.06000 645.427
31.07000 678.488
31.08000 715.633
31.09000 752.532
31.10000 786.483
31.11000 819.573
31.12000 855.252
31.13000 909.248
31.14000 966.815
31.15000 1014.983
31.16000 1114.015
31.17000 1201.511
31.18000 1285.211
31.19000 1357.253
31.20000 1428.478
31.21000 1511.704
31.22000 1620.142
31.23000 1729.382
31.24000 1793.769
31.25000 1939.274
31.26000 2042.407
31.27000 2146.905
31.28000 2252.673
31.29000 2358.397
31.30000 2460.868
31.31000 2561.325
31.32000 2658.866
31.33000 2726.139
31.34000 2777.874
31.35000 2829.490
31.36000 2879.710
31.37000 2929.529
31.38000 2973.816
31.39000 2979.650
31.40000 2978.110
31.41000 2976.824
31.42000 2951.726
31.43000 2928.523
31.44000 2894.318
31.45000 2826.808
31.46000 2757.020
31.47000 2686.635
31.48000 2615.013
31.49000 2543.353
31.50000 2501.393
31.51000 2335.201
31.52000 2217.578
31.53000 2104.302
31.54000 1995.011
31.55000 1885.758
31.56000 1779.151
31.57000 1674.156
31.58000 1572.317
31.59000 1470.551
31.60000 1374.125
31.61000 1279.832
31.62000 1209.986
31.63000 1147.072
31.64000 1084.268
31.65000 1022.206
31.66000 960.284
31.67000 908.775
31.68000 856.424
31.69000 813.007
31.70000 771.149
31.71000 733.940
31.72000 697.040
31.73000 663.495
31.74000 636.796
31.75000 610.298
31.76000 594.886
31.77000 584.639
31.78000 577.459
31.79000 563.199
31.80000 542.554
31.81000 521.967
31.82000 505.176
31.83000 490.665
31.84000 476.605
31.85000 468.976
31.86000 464.250
31.87000 458.940
31.88000 447.075
31.89000 433.379
31.90000 420.628
31.91000 414.216
31.92000 408.980
31.93000 404.638
31.94000 413.265
31.95000 421.639
31.96000 424.850
31.97000 412.880
31.98000 399.924
31.99000 387.826
32.00000 377.454
32.01000 367.131
32.02000 361.166
32.03000 365.769
32.04000 369.034
32.05000 369.380
32.06000 367.136
32.07000 364.817
32.08000 357.823
32.09000 348.064
32.10000 338.619
32.11000 345.238
32.12000 357.627
32.13000 368.958
32.14000 368.685
32.15000 365.219
32.16000 361.824
32.17000 358.890
32.18000 356.041
32.19000 353.685
32.20000 346.519
32.21000 340.157
32.22000 337.664
32.23000 346.383
32.24000 355.813
32.25000 361.844
32.26000 361.139
32.27000 360.251
32.28000 359.741
32.29000 350.838
32.30000 344.587
32.31000 340.304
32.32000 337.739
32.33000 335.247
32.34000 337.043
32.35000 341.339
32.36000 345.492
32.37000 349.398
32.38000 352.991
32.39000 355.863
32.40000 351.003
32.41000 344.047
32.42000 338.152
32.43000 339.130
32.44000 341.343
32.45000 343.167
32.46000 346.294
32.47000 348.987
32.48000 350.540
32.49000 348.837
32.50000 346.933
32.51000 346.551
32.52000 349.140
32.53000 351.806
32.54000 353.326
32.55000 335.141
32.56000 322.413
32.57000 320.755
32.58000 328.604
32.59000 336.326
32.60000 336.961
32.61000 333.525
32.62000 330.207
32.63000 332.924
32.64000 337.716
32.65000 341.976
32.66000 340.643
32.67000 337.816
32.68000 335.125
32.69000 333.296
32.70000 331.620
32.71000 330.243
32.72000 328.874
32.73000 327.750
32.74000 328.540
32.75000 334.717
32.76000 341.218
32.77000 343.599
32.78000 338.046
32.79000 332.296
32.80000 329.041
32.81000 325.587
32.82000 323.189
32.83000 324.192
32.84000 328.068
32.85000 331.880
32.86000 332.302
32.87000 330.804
32.88000 329.360
32.89000 330.696
32.90000 332.964
32.91000 334.829
32.92000 332.551
32.93000 329.182
32.94000 325.194
32.95000 317.327
32.96000 308.788
32.97000 301.791
32.98000 308.210
32.99000 314.654
33.00000 319.305
33.01000 318.977
33.02000 318.359
33.03000 317.016
33.04000 314.299
33.05000 311.549
33.06000 310.003
33.07000 312.968
33.08000 315.025
33.09000 311.582
33.10000 303.565
33.11000 295.702
33.12000 295.616
33.13000 299.867
33.14000 303.962
33.15000 305.345
33.16000 305.672
33.17000 306.156
33.18000 308.220
33.19000 310.694
33.20000 312.020
33.21000 306.290
33.22000 299.356
33.23000 293.693
33.24000 299.700
33.25000 305.621
33.26000 309.313
33.27000 306.906
33.28000 304.152
33.29000 304.993
33.30000 312.558
33.31000 320.276
33.32000 324.583
33.33000 318.618
33.34000 314.474
33.35000 312.897
33.36000 313.423
33.37000 314.012
33.38000 317.616
33.39000 322.877
33.40000 327.939
33.41000 321.766
33.42000 312.017
33.43000 303.161
33.44000 303.111
33.45000 305.309
33.46000 307.182
33.47000 307.091
33.48000 306.671
33.49000 306.328
33.50000 308.130
33.51000 309.783
33.52000 308.579
33.53000 299.679
33.54000 290.353
33.55000 287.542
33.56000 296.737
33.57000 306.193
33.58000 311.432
33.59000 306.384
33.60000 302.880
33.61000 299.534
33.62000 296.316
33.63000 293.179
33.64000 293.758
33.65000 296.350
33.66000 298.841
33.67000 299.657
33.68000 299.842
33.69000 299.884
33.70000 298.556
33.71000 296.883
33.72000 296.225
33.73000 301.598
33.74000 307.967
33.75000 313.135
33.76000 302.432
33.77000 292.399
33.78000 286.701
33.79000 292.518
33.80000 298.956
33.81000 301.436
33.82000 296.732
33.83000 291.878
33.84000 289.208
33.85000 292.692
33.86000 295.106
33.87000 299.120
33.88000 304.401
33.89000 309.532
33.90000 308.112
33.91000 303.194
33.92000 298.475
33.93000 299.315
33.94000 301.999
33.95000 304.057
33.96000 300.196
33.97000 294.869
33.98000 290.234
33.99000 289.644
34.00000 289.710
34.01000 289.763
34.02000 289.865
34.03000 289.951
34.04000 291.568
34.05000 297.193
34.06000 303.027
34.07000 305.127
34.08000 300.545
34.09000 295.830
34.10000 293.256
34.11000 297.164
34.12000 299.835
34.13000 296.417
34.14000 288.247
34.15000 280.271
34.16000 280.370
34.17000 284.717
34.18000 288.883
34.19000 281.779
34.20000 271.360
34.21000 262.414
34.22000 267.131
34.23000 275.180
34.24000 282.668
34.25000 286.935
34.26000 290.688
34.27000 293.714
34.28000 293.835
34.29000 293.704
34.30000 292.552
34.31000 288.762
34.32000 284.838
34.33000 282.700
34.34000 283.711
34.35000 284.782
34.36000 285.362
34.37000 281.212
34.38000 278.388
34.39000 281.329
34.40000 288.700
34.41000 295.796
34.42000 291.947
34.43000 282.425
34.44000 273.309
34.45000 276.084
34.46000 282.601
34.47000 288.253
34.48000 286.035
34.49000 281.927
34.50000 278.832
34.51000 281.463
34.52000 284.992
34.53000 287.828
34.54000 285.347
34.55000 282.926
34.56000 280.637
34.57000 278.678
34.58000 276.736
34.59000 277.106
34.60000 281.494
34.61000 285.954
34.62000 288.353
34.63000 287.053
34.64000 286.147
34.65000 282.355
34.66000 276.379
34.67000 270.624
34.68000 273.321
34.69000 280.337
34.70000 287.044
34.71000 291.926
34.72000 295.875
34.73000 299.108
34.74000 295.949
34.75000 291.280
34.76000 287.118
34.77000 285.781
34.78000 284.879
34.79000 284.156
34.80000 288.101
34.81000 291.643
34.82000 293.019
34.83000 288.964
34.84000 284.648
34.85000 282.423
34.86000 283.778
34.87000 285.193
34.88000 285.948
34.89000 284.353
34.90000 283.288
34.91000 286.765
34.92000 293.628
34.93000 300.203
34.94000 296.283
34.95000 287.079
34.96000 278.291
34.97000 278.259
34.98000 281.032
34.99000 283.105
35.00000 279.059
35.01000 273.588
35.02000 269.295
35.03000 271.440
35.04000 274.560
35.05000 277.051
35.06000 270.957
35.07000 265.406
35.08000 264.124
35.09000 273.391
35.10000 283.149
35.11000 287.836
35.12000 283.971
35.13000 279.969
35.14000 277.849
35.15000 278.518
35.16000 278.980
35.17000 280.435
35.18000 282.620
35.19000 284.758
35.20000 285.286
35.21000 285.014
35.22000 284.754
35.23000 285.696
35.24000 286.948
35.25000 288.086
35.26000 288.249
35.27000 288.188
35.28000 287.178
35.29000 281.065
35.30000 274.193
35.31000 268.726
35.32000 269.624
35.33000 270.804
35.34000 271.906
35.35000 272.816
35.36000 273.718
35.37000 274.057
35.38000 273.460
35.39000 272.848
35.40000 272.527
35.41000 272.867
35.42000 273.097
35.43000 273.084
35.44000 272.897
35.45000 272.727
35.46000 273.139
35.47000 273.836
35.48000 274.500
35.49000 282.061
35.50000 291.201
35.51000 299.085
35.52000 296.405
35.53000 291.342
35.54000 285.626
35.55000 276.461
35.56000 266.791
35.57000 259.125
35.58000 262.772
35.59000 266.497
35.60000 268.802
35.61000 267.696
35.62000 266.442
35.63000 266.137
35.64000 267.387
35.65000 268.659
35.66000 269.323
35.67000 275.909
35.68000 280.329
35.69000 279.773
35.70000 275.679
35.71000 271.571
35.72000 267.031
35.73000 262.282
35.74000 257.766
35.75000 260.951
35.76000 266.245
35.77000 271.141
35.78000 272.761
35.79000 273.652
35.80000 274.464
35.81000 274.861
35.82000 275.198
35.83000 275.464
35.84000 273.631
35.85000 272.016
35.86000 270.747
35.87000 270.300
35.88000 269.887
35.89000 272.370
35.90000 279.526
35.91000 286.745
35.92000 290.477
35.93000 275.811
35.94000 265.962
35.95000 261.658
35.96000 261.239
35.97000 260.816
35.98000 260.269
35.99000 259.664
36.00000 259.089
36.01000 267.047
36.02000 276.953
36.03000 285.506
36.04000 283.111
36.05000 278.320
36.06000 273.383
36.07000 267.699
36.08000 261.909
36.09000 257.350
36.10000 257.135
36.11000 257.252
36.12000 259.456
36.13000 266.527
36.14000 273.798
36.15000 277.617
36.16000 275.950
36.17000 274.214
36.18000 273.324
36.19000 273.183
36.20000 273.105
36.21000 274.997
36.22000 278.249
36.23000 281.226
36.24000 275.946
36.25000 266.798
36.26000 258.125
36.27000 257.991
36.28000 260.388
36.29000 262.497
36.30000 262.318
36.31000 261.646
36.32000 261.955
36.33000 267.207
36.34000 273.143
36.35000 277.800
36.36000 273.098
36.37000 268.730
36.38000 264.925
36.39000 262.416
36.40000 259.959
36.41000 256.944
36.42000 253.055
36.43000 249.155
36.44000 247.171
36.45000 261.165
36.46000 270.478
36.47000 271.947
36.48000 268.087
36.49000 264.357
36.50000 264.405
36.51000 266.198
36.52000 267.895
36.53000 269.041
36.54000 269.935
36.55000 270.398
36.56000 267.504
36.57000 263.898
36.58000 260.415
36.59000 257.539
36.60000 254.745
36.61000 252.561
36.62000 262.253
36.63000 270.740
36.64000 276.459
36.65000 275.907
36.66000 275.114
36.67000 272.749
36.68000 267.959
36.69000 263.142
36.70000 260.712
36.71000 268.325
36.72000 273.406
36.73000 277.446
36.74000 280.790
36.75000 283.943
36.76000 281.736
36.77000 277.091
36.78000 272.699
36.79000 266.677
36.80000 260.678
36.81000 255.760
36.82000 259.100
36.83000 264.163
36.84000 268.461
36.85000 269.026
36.86000 269.093
36.87000 269.146
36.88000 268.287
36.89000 267.546
36.90000 269.241
36.91000 276.376
36.92000 283.712
36.93000 287.361
36.94000 285.411
36.95000 283.402
36.96000 282.398
36.97000 282.423
36.98000 282.435
36.99000 282.041
37.00000 281.378
37.01000 280.588
37.02000 276.359
37.03000 270.587
37.04000 265.138
37.05000 270.289
37.06000 277.992
37.07000 284.502
37.08000 282.053
37.09000 277.766
37.10000 274.500
37.11000 276.143
37.12000 278.428
37.13000 280.202
37.14000 278.678
37.15000 277.267
37.16000 278.020
37.17000 283.534
37.18000 289.219
37.19000 287.830
37.20000 275.858
37.21000 263.783
37.22000 263.030
37.23000 273.417
37.24000 283.715
37.25000 286.044
37.26000 283.200
37.27000 280.282
37.28000 275.459
37.29000 269.792
37.30000 264.451
37.31000 265.060
37.32000 267.262
37.33000 269.377
37.34000 270.859
37.35000 272.212
37.36000 272.773
37.37000 269.596
37.38000 265.938
37.39000 263.109
37.40000 264.412
37.41000 265.689
37.42000 264.838
37.43000 259.371
37.44000 253.746
37.45000 252.698
37.46000 258.399
37.47000 264.160
37.48000 265.814
37.49000 263.497
37.50000 261.231
37.51000 263.355
37.52000 268.287
37.53000 272.873
37.54000 268.732
37.55000 260.790
37.56000 253.315
37.57000 258.651
37.58000 267.013
37.59000 274.021
37.60000 271.223
37.61000 266.476
37.62000 262.921
37.63000 264.906
37.64000 267.591
37.65000 269.659
37.66000 267.954
37.67000 266.388
37.68000 264.435
37.69000 261.652
37.70000 258.842
37.71000 258.840
37.72000 262.912
37.73000 267.018
37.74000 269.405
37.75000 270.156
37.76000 270.896
37.77000 270.699
37.78000 269.911
37.79000 269.064
37.80000 266.756
37.81000 263.821
37.82000 261.063
37.83000 264.202
37.84000 268.643
37.85000 272.325
37.86000 270.608
37.87000 267.835
37.88000 265.510
37.89000 265.237
37.90000 265.217
37.91000 265.202
37.92000 269.278
37.93000 272.726
37.94000 273.601
37.95000 269.054
37.96000 264.333
37.97000 262.547
37.98000 264.955
37.99000 267.395
38.00000 270.965
38.01000 275.590
38.02000 280.182
38.03000 282.333
38.04000 282.967
38.05000 283.638
38.06000 285.149
38.07000 287.016
38.08000 288.767
38.09000 286.374
38.10000 283.102
38.11000 279.949
38.12000 277.621
38.13000 275.451
38.14000 274.762
38.15000 280.750
38.16000 287.549
38.17000 292.747
38.18000 288.695
38.19000 284.998
38.20000 282.670
38.21000 283.184
38.22000 283.786
38.23000 287.024
38.24000 293.971
38.25000 300.943
38.26000 304.858
38.27000 305.960
38.28000 307.110
38.29000 311.656
38.30000 318.280
38.31000 324.765
38.32000 328.085
38.33000 330.085
38.34000 331.959
38.35000 337.914
38.36000 344.387
38.37000 351.100
38.38000 359.460
38.39000 368.133
38.40000 377.688
38.41000 391.158
38.42000 405.094
38.43000 415.707
38.44000 423.863
38.45000 430.152
38.46000 439.266
38.47000 454.159
38.48000 469.224
38.49000 488.766
38.50000 514.512
38.51000 540.290
38.52000 564.124
38.53000 586.178
38.54000 608.270
38.55000 632.853
38.56000 658.937
38.57000 684.673
38.58000 702.661
38.59000 717.464
38.60000 731.307
38.61000 756.840
38.62000 783.002
38.63000 807.459
38.64000 820.432
38.65000 831.267
38.66000 842.515
38.67000 855.573
38.68000 868.842
38.69000 878.908
38.70000 867.186
38.71000 856.860
38.72000 850.299
38.73000 851.338
38.74000 852.595
38.75000 846.956
38.76000 831.906
38.77000 816.808
38.78000 799.008
38.79000 778.828
38.80000 758.646
38.81000 738.364
38.82000 718.021
38.83000 697.381
38.84000 670.326
38.85000 640.670
38.86000 612.983
38.87000 596.308
38.88000 583.946
38.89000 569.733
38.90000 543.268
38.91000 514.558
38.92000 487.883
38.93000 469.963
38.94000 453.046
38.95000 440.264
38.96000 413.595
38.97000 391.993
38.98000 376.908
38.99000 374.780
39.00000 373.007
39.01000 369.034
39.02000 362.104
39.03000 355.162
39.04000 345.179
39.05000 332.553
39.06000 320.062
39.07000 315.592
39.08000 315.812
39.09000 315.796
39.10000 310.858
39.11000 303.953
39.12000 297.517
39.13000 291.266
39.14000 285.653
39.15000 280.206
39.16000 275.830
39.17000 271.648
39.18000 269.269
39.19000 274.527
39.20000 280.642
39.21000 285.245
39.22000 281.134
39.23000 277.494
39.24000 273.759
39.25000 269.837
39.26000 265.910
39.27000 263.201
39.28000 262.106
39.29000 261.018
39.30000 261.190
39.31000 262.446
39.32000 263.658
39.33000 262.421
39.34000 259.774
39.35000 257.215
39.36000 256.460
39.37000 256.416
39.38000 256.374
39.39000 256.408
39.40000 256.458
39.41000 256.287
39.42000 254.711
39.43000 252.887
39.44000 252.258
39.45000 256.616
39.46000 261.523
39.47000 265.202
39.48000 256.361
39.49000 248.866
39.50000 243.372
39.51000 241.742
39.52000 240.209
39.53000 241.150
39.54000 245.313
39.55000 249.486
39.56000 249.456
39.57000 245.868
39.58000 242.303
39.59000 239.972
39.60000 238.341
39.61000 236.748
39.62000 235.878
39.63000 235.290
39.64000 234.743
39.65000 240.433
39.66000 247.050
39.67000 252.393
39.68000 249.738
39.69000 245.689
39.70000 242.897
39.71000 245.264
39.72000 248.188
39.73000 250.371
39.74000 245.677
39.75000 241.703
39.76000 239.326
39.77000 239.986
39.78000 240.719
39.79000 237.746
39.80000 230.018
39.81000 222.281
39.82000 221.215
39.83000 225.703
39.84000 230.143
39.85000 232.124
39.86000 232.730
39.87000 233.191
39.88000 230.865
39.89000 227.474
39.90000 224.329
39.91000 224.745
39.92000 225.954
39.93000 227.123
39.94000 228.054
39.95000 228.944
39.96000 229.462
39.97000 228.478
39.98000 227.336
39.99000 226.486
40.00000 238.161
40.01000 247.799
40.02000 252.136
40.03000 246.532
40.04000 240.699
40.05000 235.694
40.06000 231.734
40.07000 227.784
40.08000 227.300
40.09000 229.656
40.10000 231.992
40.11000 233.431
40.12000 234.374
40.13000 235.192
40.14000 233.665
40.15000 231.255
40.16000 229.025
40.17000 232.058
40.18000 235.996
40.19000 238.397
40.20000 231.473
40.21000 222.977
40.22000 217.408
40.23000 223.498
40.24000 230.797
40.25000 236.202
40.26000 236.787
40.27000 237.033
40.28000 235.497
40.29000 230.668
40.30000 225.767
40.31000 225.153
40.32000 229.868
40.33000 234.592
40.34000 233.031
40.35000 226.415
40.36000 219.945
40.37000 220.114
40.38000 223.892
40.39000 227.593
40.40000 229.919
40.41000 231.734
40.42000 233.411
40.43000 224.918
40.44000 214.995
40.45000 207.677
40.46000 215.896
40.47000 226.689
40.48000 235.514
40.49000 236.618
40.50000 236.938
40.51000 237.174
40.52000 236.629
40.53000 236.174
40.54000 236.582
40.55000 238.562
40.56000 240.575
40.57000 237.027
40.58000 226.678
40.59000 216.330
40.60000 216.154
40.61000 224.035
40.62000 231.834
40.63000 236.034
40.64000 238.307
40.65000 240.299
40.66000 237.332
40.67000 232.548
40.68000 228.137
40.69000 227.794
40.70000 228.393
40.71000 229.061
40.72000 230.135
40.73000 231.276
40.74000 231.353
40.75000 227.320
40.76000 222.877
40.77000 219.615
40.78000 227.117
40.79000 233.354
40.80000 236.462
40.81000 233.953
40.82000 231.331
40.83000 226.541
40.84000 219.141
40.85000 211.751
40.86000 209.952
40.87000 212.520
40.88000 215.063
40.89000 216.578
40.90000 217.549
40.91000 218.639
40.92000 221.746
40.93000 225.580
40.94000 229.111
40.95000 222.874
40.96000 215.159
40.97000 209.341
40.98000 214.463
40.99000 221.337
41.00000 226.443
41.01000 224.822
41.02000 222.546
41.03000 220.882
41.04000 220.162
41.05000 219.643
41.06000 219.783
41.07000 221.088
41.08000 222.415
41.09000 224.211
41.10000 226.563
41.11000 228.910
41.12000 226.751
41.13000 221.150
41.14000 215.702
41.15000 216.380
41.16000 220.243
41.17000 223.780
41.18000 221.860
41.19000 217.999
41.20000 214.451
41.21000 215.251
41.22000 216.901
41.23000 218.512
41.24000 219.900
41.25000 221.253
41.26000 221.955
41.27000 220.218
41.28000 218.247
41.29000 216.813
41.30000 225.548
41.31000 232.661
41.32000 233.793
41.33000 224.498
41.34000 215.014
41.35000 211.519
41.36000 215.008
41.37000 218.497
41.38000 219.837
41.39000 219.547
41.40000 219.304
41.41000 220.903
41.42000 223.444
41.43000 225.826
41.44000 225.613
41.45000 224.491
41.46000 223.462
41.47000 215.980
41.48000 207.949
41.49000 201.967
41.50000 207.417
41.51000 214.633
41.52000 218.946
41.53000 212.535
41.54000 205.123
41.55000 199.750
41.56000 205.532
41.57000 210.388
41.58000 213.378
41.59000 213.163
41.60000 212.894
41.61000 210.811
41.62000 206.650
41.63000 202.498
41.64000 204.384
41.65000 210.737
41.66000 216.907
41.67000 216.343
41.68000 212.378
41.69000 208.516
41.70000 206.275
41.71000 204.594
41.72000 203.055
41.73000 206.765
41.74000 211.155
41.75000 214.293
41.76000 210.555
41.77000 205.773
41.78000 202.350
41.79000 203.873
41.80000 205.847
41.81000 207.272
41.82000 213.672
41.83000 218.757
41.84000 219.756
41.85000 213.839
41.86000 207.810
41.87000 208.205
41.88000 215.851
41.89000 223.479
41.90000 224.673
41.91000 221.162
41.92000 217.625
41.93000 213.164
41.94000 208.242
41.95000 203.828
41.96000 207.242
41.97000 213.322
41.98000 218.878
41.99000 217.402
42.00000 214.655
42.01000 212.149
42.02000 210.943
42.03000 209.931
42.04000 208.239
42.05000 204.108
42.06000 199.760
42.07000 196.635
42.08000 204.046
42.09000 210.082
42.10000 214.579
42.11000 216.509
42.12000 218.400
42.13000 217.773
42.14000 214.351
42.15000 210.939
42.16000 207.591
42.17000 204.320
42.18000 201.082
42.19000 198.997
42.20000 197.479
42.21000 196.291
42.22000 200.078
42.23000 205.534
42.24000 210.510
42.25000 211.202
42.26000 210.955
42.27000 211.126
42.28000 213.520
42.29000 216.239
42.30000 217.161
42.31000 211.734
42.32000 205.752
42.33000 201.473
42.34000 210.707
42.35000 218.211
42.36000 221.583
42.37000 218.164
42.38000 214.646
42.39000 214.110
42.40000 216.828
42.41000 219.537
42.42000 216.937
42.43000 210.609
42.44000 204.402
42.45000 202.157
42.46000 201.828
42.47000 201.716
42.48000 204.783
42.49000 208.903
42.50000 212.653
42.51000 215.492
42.52000 217.825
42.53000 219.590
42.54000 218.390
42.55000 216.763
42.56000 213.932
42.57000 206.916
42.58000 199.541
42.59000 194.290
42.60000 198.454
42.61000 201.933
42.62000 204.656
42.63000 206.154
42.64000 207.636
42.65000 213.246
42.66000 223.290
42.67000 233.292
42.68000 228.004
42.69000 212.137
42.70000 196.684
42.71000 194.262
42.72000 198.051
42.73000 201.654
42.74000 202.595
42.75000 202.669
42.76000 202.736
42.77000 200.533
42.78000 198.147
42.79000 196.886
42.80000 201.408
42.81000 206.748
42.82000 209.428
42.83000 202.988
42.84000 195.786
42.85000 190.680
42.86000 198.865
42.87000 205.506
42.88000 209.817
42.89000 210.412
42.90000 210.959
42.91000 211.804
42.92000 212.965
42.93000 214.120
42.94000 215.264
42.95000 216.388
42.96000 217.459
42.97000 216.915
42.98000 215.611
42.99000 214.238
43.00000 211.880
43.01000 209.206
43.02000 206.782
43.03000 209.056
43.04000 211.957
43.05000 214.668
43.06000 216.422
43.07000 218.043
43.08000 218.586
43.09000 215.490
43.10000 212.096
43.11000 209.701
43.12000 204.897
43.13000 201.178
43.14000 201.104
43.15000 206.751
43.16000 212.468
43.17000 215.870
43.18000 216.866
43.19000 217.856
43.20000 217.061
43.21000 215.073
43.22000 212.975
43.23000 207.675
43.24000 200.893
43.25000 194.685
43.26000 196.294
43.27000 200.378
43.28000 204.072
43.29000 204.178
43.30000 203.600
43.31000 203.107
43.32000 203.043
43.33000 203.037
43.34000 203.008
43.35000 202.907
43.36000 202.800
43.37000 202.725
43.38000 202.298
43.39000 201.965
43.40000 201.537
43.41000 200.963
43.42000 200.387
43.43000 203.414
43.44000 210.123
43.45000 216.794
43.46000 217.719
43.47000 214.826
43.48000 211.999
43.49000 211.055
43.50000 210.970
43.51000 210.673
43.52000 207.553
43.53000 203.552
43.54000 199.941
43.55000 201.186
43.56000 203.174
43.57000 205.031
43.58000 206.242
43.59000 207.367
43.60000 207.657
43.61000 205.210
43.62000 202.551
43.63000 200.691
43.64000 202.396
43.65000 203.786
43.66000 205.095
43.67000 206.284
43.68000 207.471
43.69000 210.160
43.70000 214.358
43.71000 218.530
43.72000 213.523
43.73000 202.600
43.74000 192.066
43.75000 192.132
43.76000 196.967
43.77000 201.141
43.78000 196.747
43.79000 189.720
43.80000 183.389
43.81000 188.063
43.82000 194.152
43.83000 199.221
43.84000 199.375
43.85000 198.883
43.86000 198.365
43.87000 197.764
43.88000 197.157
43.89000 196.735
43.90000 198.337
43.91000 199.599
43.92000 202.599
43.93000 208.207
43.94000 213.840
43.95000 213.686
43.96000 207.818
43.97000 201.989
43.98000 200.060
43.99000 200.662
44.00000 201.392
44.01000 205.466
44.02000 211.024
44.03000 216.139
44.04000 215.648
44.05000 213.460
44.06000 211.493
44.07000 205.282
44.08000 199.090
44.09000 193.824
44.10000 192.947
44.11000 192.636
44.12000 193.195
44.13000 196.526
44.14000 200.062
44.15000 202.511
44.16000 203.550
44.17000 204.294
44.18000 205.458
44.19000 207.244
44.20000 209.034
44.21000 207.058
44.22000 201.423
44.23000 195.829
44.24000 196.999
44.25000 202.422
44.26000 207.591
44.27000 206.277
44.28000 202.129
44.29000 198.643
44.30000 203.353
44.31000 210.507
44.32000 216.926
44.33000 215.589
44.34000 213.068
44.35000 210.603
44.36000 208.397
44.37000 206.224
44.38000 206.000
44.39000 211.890
44.40000 218.224
44.41000 222.588
44.42000 208.626
44.43000 197.679
44.44000 192.714
44.45000 196.460
44.46000 200.280
44.47000 206.958
44.48000 216.364
44.49000 225.699
44.50000 231.492
44.51000 234.986
44.52000 238.324
44.53000 237.832
44.54000 235.690
44.55000 233.596
44.56000 232.095
44.57000 230.768
44.58000 229.580
44.59000 231.936
44.60000 234.599
44.61000 235.426
44.62000 227.820
44.63000 219.166
44.64000 215.359
44.65000 226.540
44.66000 238.782
44.67000 247.178
44.68000 248.468
44.69000 249.262
44.70000 252.509
44.71000 259.274
44.72000 266.066
44.73000 270.871
44.74000 273.810
44.75000 276.725
44.76000 282.981
44.77000 291.167
44.78000 299.339
44.79000 307.156
44.80000 314.821
44.81000 322.162
44.82000 325.666
44.83000 328.059
44.84000 330.196
44.85000 329.826
44.86000 329.081
44.87000 329.571
44.88000 335.642
44.89000 342.393
44.90000 349.610
44.91000 358.244
44.92000 366.977
44.93000 372.936
44.94000 392.592
44.95000 407.608
44.96000 416.998
44.97000 418.440
44.98000 419.823
44.99000 415.297
45.00000 405.313
45.01000 395.416
45.02000 399.870
45.03000 412.876
45.04000 425.367
45.05000 425.939
45.06000 421.523
45.07000 417.145
45.08000 413.197
45.09000 409.372
45.10000 405.964
45.11000 403.951
45.12000 402.433
45.13000 400.040
45.14000 393.757
45.15000 387.008
45.16000 382.011
45.17000 382.269
45.18000 382.881
45.19000 383.297
45.20000 373.807
45.21000 366.505
45.22000 361.523
45.23000 359.767
45.24000 358.030
45.25000 351.034
45.26000 339.260
45.27000 327.595
45.28000 323.573
45.29000 324.158
45.30000 324.566
45.31000 321.018
45.32000 315.837
45.33000 310.680
45.34000 305.789
45.35000 300.972
45.36000 296.689
45.37000 291.040
45.38000 285.915
45.39000 280.857
45.40000 276.089
45.41000 271.355
45.42000 267.999
45.43000 268.719
45.44000 269.707
45.45000 270.374
45.46000 267.299
45.47000 264.930
45.48000 261.622
45.49000 257.030
45.50000 252.429
45.51000 246.930
45.52000 240.627
45.53000 234.387
45.54000 232.844
45.55000 234.073
45.56000 235.176
45.57000 233.536
45.58000 230.781
45.59000 228.285
45.60000 228.656
45.61000 229.822
45.62000 230.856
45.63000 231.629
45.64000 232.257
45.65000 232.880
45.66000 233.482
45.67000 234.082
45.68000 232.808
45.69000 226.069
45.70000 218.980
45.71000 214.216
45.72000 215.188
45.73000 216.029
45.74000 214.120
45.75000 208.502
45.76000 202.866
45.77000 199.299
45.78000 197.551
45.79000 195.820
45.80000 196.283
45.81000 197.994
45.82000 199.756
45.83000 202.601
45.84000 205.880
45.85000 208.510
45.86000 204.110
45.87000 197.792
45.88000 192.200
45.89000 189.882
45.90000 188.390
45.91000 187.079
45.92000 186.541
45.93000 186.089
45.94000 185.631
45.95000 185.156
45.96000 184.680
45.97000 184.361
45.98000 187.774
45.99000 190.377
46.00000 194.240
46.01000 199.775
46.02000 205.311
46.03000 205.645
46.04000 201.479
46.05000 197.359
46.06000 194.351
46.07000 192.040
46.08000 189.729
46.09000 187.411
46.10000 185.089
46.11000 182.928
46.12000 182.469
46.13000 182.469
46.14000 182.468
46.15000 184.910
46.16000 187.394
46.17000 188.597
46.18000 184.441
46.19000 179.693
46.20000 176.148
46.21000 176.011
46.22000 176.081
46.23000 176.128
46.24000 185.520
46.25000 192.643
46.26000 196.074
46.27000 194.677
46.28000 193.254
46.29000 188.938
46.30000 182.159
46.31000 175.460
46.32000 175.865
46.33000 180.208
46.34000 184.354
46.35000 184.600
46.36000 183.329
46.37000 181.887
46.38000 178.676
46.39000 174.996
46.40000 171.754
46.41000 178.761
46.42000 186.344
46.43000 191.629
46.44000 187.448
46.45000 182.241
46.46000 177.641
46.47000 174.736
46.48000 171.932
46.49000 170.077
46.50000 173.423
46.51000 175.987
46.52000 177.890
46.53000 178.942
46.54000 179.989
46.55000 179.503
46.56000 177.732
46.57000 175.984
46.58000 177.640
46.59000 181.115
46.60000 184.526
46.61000 186.699
46.62000 188.396
46.63000 189.751
46.64000 187.632
46.65000 184.608
46.66000 181.950
46.67000 184.758
46.68000 187.982
46.69000 190.182
46.70000 188.224
46.71000 185.825
46.72000 183.106
46.73000 179.509
46.74000 175.860
46.75000 173.459
46.76000 173.519
46.77000 173.606
46.78000 176.116
46.79000 181.695
46.80000 187.271
46.81000 186.534
46.82000 180.593
46.83000 174.731
46.84000 173.111
46.85000 173.819
46.86000 174.494
46.87000 174.541
46.88000 174.351
46.89000 174.243
46.90000 174.943
46.91000 175.850
46.92000 176.646
46.93000 178.417
46.94000 180.079
46.95000 181.433
46.96000 181.555
46.97000 181.550
46.98000 181.079
46.99000 179.345
47.00000 177.541
47.01000 176.359
47.02000 179.057
47.03000 181.104
47.04000 180.881
47.05000 177.828
47.06000 174.769
47.07000 172.850
47.08000 171.854
47.09000 170.872
47.10000 170.503
47.11000 170.471
47.12000 170.469
47.13000 171.033
47.14000 171.807
47.15000 172.291
47.16000 169.950
47.17000 166.894
47.18000 164.221
47.19000 165.534
47.20000 167.228
47.21000 168.462
47.22000 167.891
47.23000 167.135
47.24000 167.044
47.25000 168.728
47.26000 170.508
47.27000 171.667
47.28000 170.300
47.29000 169.258
47.30000 166.020
47.31000 160.088
47.32000 154.170
47.33000 155.400
47.34000 162.337
47.35000 169.173
47.36000 169.325
47.37000 165.986
47.38000 162.998
47.39000 166.224
47.40000 171.733
47.41000 176.410
47.42000 173.132
47.43000 167.871
47.44000 163.281
47.45000 161.470
47.46000 160.308
47.47000 160.447
47.48000 165.626
47.49000 171.307
47.50000 174.695
47.51000 172.041
47.52000 169.066
47.53000 167.140
47.54000 166.415
47.55000 165.903
47.56000 166.916
47.57000 169.773
47.58000 172.619
47.59000 170.932
47.60000 165.682
47.61000 160.513
47.62000 161.887
47.63000 166.579
47.64000 171.054
47.65000 171.806
47.66000 171.209
47.67000 170.592
47.68000 169.781
47.69000 168.922
47.70000 168.175
47.71000 165.728
47.72000 163.406
47.73000 161.927
47.74000 163.663
47.75000 165.714
47.76000 168.210
47.77000 171.863
47.78000 175.576
47.79000 177.967
47.80000 174.420
47.81000 171.748
47.82000 169.259
47.83000 166.988
47.84000 164.729
47.85000 165.132
47.86000 167.597
47.87000 170.022
47.88000 169.342
47.89000 167.115
47.90000 164.997
47.91000 164.710
47.92000 165.076
47.93000 165.525
47.94000 166.734
47.95000 168.125
47.96000 169.334
47.97000 169.371
47.98000 169.244
47.99000 169.112
48.00000 168.959
48.01000 168.804
48.02000 168.288
48.03000 166.848
48.04000 165.361
48.05000 164.409
48.06000 165.885
48.07000 166.992
48.08000 166.783
48.09000 165.035
48.10000 163.295
48.11000 164.057
48.12000 166.725
48.13000 169.348
48.14000 172.818
48.15000 176.595
48.16000 179.958
48.17000 176.557
48.18000 170.776
48.19000 165.228
48.20000 161.764
48.21000 158.797
48.22000 156.227
48.23000 159.534
48.24000 163.123
48.25000 165.730
48.26000 164.701
48.27000 163.331
48.28000 162.153
48.29000 161.459
48.30000 160.789
48.31000 160.363
48.32000 164.617
48.33000 167.769
48.34000 169.000
48.35000 168.022
48.36000 167.048
48.37000 167.523
48.38000 169.085
48.39000 170.620
48.40000 170.830
48.41000 170.385
48.42000 169.867
48.43000 168.198
48.44000 166.131
48.45000 163.989
48.46000 161.192
48.47000 158.240
48.48000 155.691
48.49000 158.778
48.50000 162.129
48.51000 164.438
48.52000 162.944
48.53000 161.101
48.54000 158.673
48.55000 154.793
48.56000 150.844
48.57000 148.344
48.58000 152.277
48.59000 155.206
48.60000 159.379
48.61000 164.962
48.62000 170.516
48.63000 170.648
48.64000 166.777
48.65000 162.976
48.66000 160.627
48.67000 159.061
48.68000 157.825
48.69000 161.699
48.70000 167.319
48.71000 172.371
48.72000 172.516
48.73000 171.529
48.74000 170.678
48.75000 169.013
48.76000 167.498
48.77000 165.794
48.78000 163.408
48.79000 160.962
48.80000 159.009
48.81000 158.262
48.82000 157.571
48.83000 157.136
48.84000 163.487
48.85000 168.159
48.86000 169.038
48.87000 165.691
48.88000 162.360
48.89000 162.128
48.90000 164.148
48.91000 166.131
48.92000 169.116
48.93000 172.467
48.94000 175.414
48.95000 172.258
48.96000 167.046
48.97000 162.044
48.98000 158.821
48.99000 156.002
49.00000 153.580
49.01000 152.061
49.02000 150.888
49.03000 150.422
49.04000 152.459
49.05000 154.715
49.06000 156.761
49.07000 158.300
49.08000 159.816
49.09000 160.764
49.10000 164.700
49.11000 167.572
49.12000 166.941
49.13000 162.469
49.14000 158.023
49.15000 157.813
49.16000 160.635
49.17000 163.401
49.18000 162.005
49.19000 158.721
49.20000 155.662
49.21000 155.923
49.22000 157.285
49.23000 158.480
49.24000 158.275
49.25000 157.758
49.26000 157.315
49.27000 159.376
49.28000 161.422
49.29000 162.894
49.30000 162.361
49.31000 161.657
49.32000 159.761
49.33000 155.027
49.34000 150.172
49.35000 147.152
49.36000 152.668
49.37000 156.726
49.38000 159.544
49.39000 161.024
49.40000 162.526
49.41000 166.986
49.42000 173.533
49.43000 179.943
49.44000 176.993
49.45000 169.858
49.46000 163.102
49.47000 161.782
49.48000 162.239
49.49000 162.807
49.50000 164.280
49.51000 165.952
49.52000 167.382
49.53000 161.401
49.54000 155.473
49.55000 151.792
49.56000 155.841
49.57000 160.540
49.58000 163.605
49.59000 162.838
49.60000 161.911
49.61000 161.338
49.62000 158.870
49.63000 157.078
49.64000 155.919
49.65000 155.432
49.66000 154.946
49.67000 154.641
49.68000 154.463
49.69000 154.288
49.70000 151.554
49.71000 147.774
49.72000 144.464
49.73000 147.748
49.74000 153.158
49.75000 157.814
49.76000 156.442
49.77000 153.762
49.78000 151.478
49.79000 155.687
49.80000 159.990
49.81000 163.605
49.82000 164.887
49.83000 165.978
49.84000 164.013
49.85000 154.979
49.86000 145.661
49.87000 139.933
49.88000 144.102
49.89000 147.178
49.90000 148.611
49.91000 148.329
49.92000 148.076
49.93000 151.100
49.94000 156.366
49.95000 161.512
49.96000 165.568
49.97000 168.968
49.98000 172.009
49.99000 170.130
50.00000 166.689
50.01000 163.245
50.02000 159.767
50.03000 156.283
50.04000 153.321
50.05000 162.271
50.06000 171.157
50.07000 176.394
50.08000 169.452
50.09000 161.532
50.10000 156.218
50.11000 156.843
50.12000 157.700
50.13000 158.223
50.14000 166.787
50.15000 172.979
50.16000 175.920
50.17000 175.528
50.18000 175.102
50.19000 171.059
50.20000 164.581
50.21000 158.254
50.22000 156.603
50.23000 157.070
50.24000 157.664
50.25000 159.955
50.26000 162.776
50.27000 165.557
50.28000 168.032
50.29000 170.443
50.30000 172.487
50.31000 169.351
50.32000 166.138
50.33000 165.135
50.34000 171.398
50.35000 178.231
50.36000 181.805
50.37000 178.054
50.38000 174.028
50.39000 171.584
50.40000 179.725
50.41000 185.616
50.42000 188.959
50.43000 189.733
50.44000 190.488
50.45000 189.221
50.46000 186.613
50.47000 184.070
50.48000 191.889
50.49000 203.828
50.50000 215.097
50.51000 217.629
50.52000 217.467
50.53000 218.115
50.54000 224.885
50.55000 232.920
50.56000 239.714
50.57000 240.284
50.58000 240.073
50.59000 239.489
50.60000 237.696
50.61000 235.809
50.62000 236.471
50.63000 242.774
50.64000 249.281
50.65000 253.208
50.66000 244.502
50.67000 238.214
50.68000 237.729
50.69000 242.996
50.70000 248.208
50.71000 248.320
50.72000 245.098
50.73000 241.957
50.74000 237.139
50.75000 231.830
50.76000 227.097
50.77000 229.706
50.78000 234.545
50.79000 239.285
50.80000 243.282
50.81000 247.127
50.82000 250.370
50.83000 241.773
50.84000 233.313
50.85000 227.808
50.86000 231.742
50.87000 236.382
50.88000 238.892
50.89000 236.753
50.90000 234.451
50.91000 233.071
50.92000 222.830
50.93000 215.498
50.94000 211.508
50.95000 210.775
50.96000 210.053
50.97000 210.308
50.98000 211.191
50.99000 212.052
51.00000 203.310
51.01000 190.971
51.02000 179.462
51.03000 178.293
51.04000 180.220
51.05000 181.845
51.06000 181.270
51.07000 180.255
51.08000 179.402
51.09000 177.640
51.10000 176.076
51.11000 175.018
51.12000 175.558
51.13000 176.215
51.14000 176.267
51.15000 175.016
51.16000 173.721
51.17000 172.950
51.18000 168.311
51.19000 165.001
51.20000 163.074
51.21000 162.472
51.22000 161.872
51.23000 161.500
51.24000 161.272
51.25000 161.051
51.26000 159.520
51.27000 157.526
51.28000 155.661
51.29000 155.367
51.30000 155.536
51.31000 155.913
51.32000 157.775
51.33000 159.930
51.34000 161.737
51.35000 157.463
51.36000 153.277
51.37000 150.411
51.38000 151.637
51.39000 153.155
51.40000 154.823
51.41000 156.810
51.42000 158.806
51.43000 159.988
51.44000 161.088
51.45000 161.864
51.46000 156.941
51.47000 146.646
51.48000 136.516
51.49000 139.009
51.50000 149.388
51.51000 159.472
51.52000 155.388
51.53000 145.776
51.54000 136.893
51.55000 136.683
51.56000 138.993
51.57000 141.269
51.58000 143.299
51.59000 145.281
51.60000 146.938
51.61000 150.237
51.62000 153.142
51.63000 154.902
51.64000 153.161
51.65000 151.176
51.66000 150.735
51.67000 153.520
51.68000 156.406
51.69000 158.103
51.70000 155.592
51.71000 153.799
51.72000 150.700
51.73000 146.391
51.74000 142.141
51.75000 142.195
51.76000 144.899
51.77000 147.523
51.78000 150.368
51.79000 153.156
51.80000 155.365
51.81000 150.848
51.82000 144.406
51.83000 138.530
51.84000 136.573
51.85000 135.363
51.86000 134.354
51.87000 138.660
51.88000 142.757
51.89000 145.779
51.90000 145.562
51.91000 145.125
51.92000 144.804
51.93000 144.721
51.94000 144.645
51.95000 144.601
51.96000 152.588
51.97000 158.241
51.98000 156.198
51.99000 147.139
52.00000 138.179
52.01000 135.962
52.02000 137.832
52.03000 139.646
52.04000 139.460
52.05000 138.499
52.06000 138.016
52.07000 142.968
52.08000 149.453
52.09000 154.905
52.10000 153.341
52.11000 150.460
52.12000 148.066
52.13000 145.854
52.14000 144.042
52.15000 142.875
52.16000 143.620
52.17000 144.491
52.18000 145.829
52.19000 148.112
52.20000 150.423
52.21000 151.765
52.22000 151.864
52.23000 151.929
52.24000 152.143
52.25000 152.493
52.26000 152.796
52.27000 150.220
52.28000 145.924
52.29000 141.763
52.30000 141.977
52.31000 143.867
52.32000 145.346
52.33000 142.264
52.34000 137.914
52.35000 134.630
52.36000 138.456
52.37000 143.594
52.38000 147.852
52.39000 145.860
52.40000 143.618
52.41000 142.584
52.42000 145.077
52.43000 147.798
52.44000 148.033
52.45000 143.293
52.46000 138.413
52.47000 135.601
52.48000 139.972
52.49000 143.057
52.50000 143.788
52.51000 142.442
52.52000 141.152
52.53000 143.218
52.54000 147.261
52.55000 151.173
52.56000 148.565
52.57000 143.628
52.58000 138.957
52.59000 137.184
52.60000 136.205
52.61000 135.930
52.62000 140.271
52.63000 145.450
52.64000 149.727
52.65000 142.866
52.66000 136.173
52.67000 131.828
52.68000 134.257
52.69000 137.112
52.70000 139.481
52.71000 140.892
52.72000 142.278
52.73000 143.072
52.74000 133.382
52.75000 126.587
52.76000 126.425
52.77000 132.021
52.78000 137.577
52.79000 140.768
52.80000 142.589
52.81000 144.349
52.82000 147.202
52.83000 150.302
52.84000 153.197
52.85000 153.919
52.86000 154.054
52.87000 154.112
52.88000 153.676
52.89000 153.152
52.90000 152.720
52.91000 153.027
52.92000 153.346
52.93000 152.603
52.94000 148.840
52.95000 144.892
52.96000 141.972
52.97000 141.050
52.98000 140.179
52.99000 139.684
53.00000 143.167
53.01000 145.603
53.02000 145.539
53.03000 143.340
53.04000 141.183
53.05000 141.303
53.06000 142.725
53.07000 144.098
53.08000 141.907
53.09000 138.534
53.10000 135.768
53.11000 139.331
53.12000 144.575
53.13000 148.821
53.14000 146.749
53.15000 143.569
53.16000 140.959
53.17000 143.364
53.18000 145.787
53.19000 146.495
53.20000 142.403
53.21000 138.024
53.22000 137.182
53.23000 143.115
53.24000 149.215
53.25000 152.659
53.26000 155.284
53.27000 157.104
53.28000 157.768
53.29000 157.461
53.30000 157.147
53.31000 156.478
53.32000 155.609
53.33000 154.771
53.34000 156.407
53.35000 158.841
53.36000 160.939
53.37000 159.597
53.38000 157.355
53.39000 155.016
53.40000 152.080
53.41000 149.041
53.42000 146.554
53.43000 145.001
53.44000 143.809
53.45000 144.320
53.46000 149.526
53.47000 155.005
53.48000 158.966
53.49000 160.063
53.50000 161.092
53.51000 161.669
53.52000 158.560
53.53000 156.398
53.54000 155.294
53.55000 155.067
53.56000 154.824
53.57000 153.811
53.58000 152.372
53.59000 150.986
53.60000 148.307
53.61000 145.331
53.62000 143.127
53.63000 148.646
53.64000 156.156
53.65000 162.920
53.66000 165.127
53.67000 166.560
53.68000 167.729
53.69000 161.899
53.70000 156.532
53.71000 152.719
53.72000 153.132
53.73000 153.784
53.74000 154.175
53.75000 154.081
53.76000 153.976
53.77000 153.918
53.78000 155.150
53.79000 156.001
53.80000 155.250
53.81000 153.196
53.82000 151.137
53.83000 148.885
53.84000 146.528
53.85000 144.260
53.86000 139.772
53.87000 134.787
53.88000 131.069
53.89000 139.755
53.90000 151.591
53.91000 161.356
53.92000 158.676
53.93000 153.920
53.94000 150.052
53.95000 146.323
53.96000 143.291
53.97000 141.541
53.98000 143.226
53.99000 145.101
54.00000 146.486
54.01000 146.974
54.02000 147.442
54.03000 147.701
54.04000 150.994
54.05000 153.254
54.06000 149.914
54.07000 142.088
54.08000 134.382
54.09000 132.065
54.10000 132.652
54.11000 133.215
54.12000 135.878
54.13000 139.094
54.14000 142.166
54.15000 143.855
54.16000 145.199
54.17000 146.025
54.18000 143.792
54.19000 141.059
54.20000 138.842
54.21000 139.217
54.22000 139.734
54.23000 140.447
54.24000 141.678
54.25000 142.937
54.26000 143.430
54.27000 142.541
54.28000 141.624
54.29000 141.121
54.30000 142.360
54.31000 143.216
54.32000 144.112
54.33000 145.042
54.34000 145.901
54.35000 143.761
54.36000 140.028
54.37000 136.446
54.38000 139.710
54.39000 145.084
54.40000 149.468
54.41000 144.553
54.42000 137.347
54.43000 131.307
54.44000 132.041
54.45000 133.866
54.46000 135.342
54.47000 140.574
54.48000 145.129
54.49000 149.145
54.50000 151.756
54.51000 154.294
54.52000 154.632
54.53000 151.052
54.54000 147.396
54.55000 145.406
54.56000 143.427
54.57000 142.074
54.58000 142.004
54.59000 142.930
54.60000 143.811
54.61000 142.833
54.62000 140.882
54.63000 139.012
54.64000 142.429
54.65000 147.382
54.66000 151.747
54.67000 150.704
54.68000 148.350
54.69000 145.868
54.70000 142.660
54.71000 139.337
54.72000 136.661
54.73000 138.863
54.74000 141.031
54.75000 143.258
54.76000 145.638
54.77000 148.025
54.78000 148.913
54.79000 147.170
54.80000 145.379
54.81000 144.411
54.82000 140.679
54.83000 138.140
54.84000 139.676
54.85000 144.328
54.86000 148.947
54.87000 152.270
54.88000 154.926
54.89000 157.467
54.90000 153.202
54.91000 146.993
54.92000 141.608
54.93000 143.672
54.94000 147.515
54.95000 150.538
54.96000 148.954
54.97000 146.652
54.98000 144.805
54.99000 147.894
55.00000 150.774
55.01000 151.277
55.02000 145.768
55.03000 139.965
55.04000 138.115
55.05000 143.096
55.06000 148.198
55.07000 150.934
55.08000 148.449
55.09000 146.773
55.10000 150.096
55.11000 157.181
55.12000 164.079
55.13000 163.965
55.14000 160.285
55.15000 156.769
55.16000 157.017
55.17000 158.465
55.18000 159.599
55.19000 157.950
55.20000 155.647
55.21000 153.683
55.22000 153.594
55.23000 153.792
55.24000 153.951
55.25000 151.068
55.26000 148.511
55.27000 147.756
55.28000 151.499
55.29000 155.455
55.30000 160.217
55.31000 166.351
55.32000 172.509
55.33000 175.785
55.34000 175.091
55.35000 174.614
55.36000 173.684
55.37000 172.419
55.38000 171.183
55.39000 170.971
55.40000 171.272
55.41000 171.559
55.42000 175.269
55.43000 179.803
55.44000 183.457
55.45000 179.479
55.46000 173.733
55.47000 169.850
55.48000 176.088
55.49000 183.850
55.50000 190.037
55.51000 195.417
55.52000 199.699
55.53000 202.858
55.54000 203.254
55.55000 203.523
55.56000 207.414
55.57000 217.384
55.58000 227.450
55.59000 232.766
55.60000 233.875
55.61000 234.684
55.62000 245.049
55.63000 262.386
55.64000 279.533
55.65000 290.082
55.66000 297.373
55.67000 304.323
55.68000 317.134
55.69000 330.848
55.70000 343.770
55.71000 349.958
55.72000 354.611
55.73000 360.924
55.74000 376.110
55.75000 392.609
55.76000 405.717
55.77000 413.461
55.78000 419.315
55.79000 429.370
55.80000 449.599
55.81000 470.282
55.82000 490.848
55.83000 511.221
55.84000 531.590
55.85000 542.262
55.86000 545.198
55.87000 547.215
55.88000 554.084
55.89000 564.439
55.90000 574.822
55.91000 586.164
55.92000 597.972
55.93000 609.211
55.94000 606.999
55.95000 600.808
55.96000 594.603
55.97000 588.285
55.98000 581.940
55.99000 573.900
56.00000 556.940
56.01000 538.685
56.02000 524.231
56.03000 521.633
56.04000 520.368
56.05000 515.078
56.06000 500.174
56.07000 484.855
56.08000 471.122
56.09000 459.971
56.10000 448.856
56.11000 443.079
56.12000 425.698
56.13000 414.004
56.14000 408.939
56.15000 408.565
56.16000 407.741
56.17000 392.543
56.18000 370.450
56.19000 349.452
56.20000 342.096
56.21000 339.434
56.22000 335.742
56.23000 323.613
56.24000 309.620
56.25000 296.197
56.26000 285.720
56.27000 275.664
56.28000 267.730
56.29000 266.743
56.30000 266.422
56.31000 262.437
56.32000 249.824
56.33000 236.850
56.34000 228.859
56.35000 228.863
56.36000 228.972
56.37000 229.029
56.38000 221.226
56.39000 215.967
56.40000 210.576
56.41000 205.093
56.42000 199.648
56.43000 195.413
56.44000 191.749
56.45000 188.271
56.46000 182.465
56.47000 176.413
56.48000 170.862
56.49000 169.328
56.50000 168.668
56.51000 168.308
56.52000 169.473
56.53000 170.852
56.54000 171.936
56.55000 171.727
56.56000 171.473
56.57000 168.874
56.58000 160.831
56.59000 152.567
56.60000 148.950
56.61000 152.678
56.62000 156.498
56.63000 158.452
56.64000 153.425
56.65000 150.073
56.66000 149.614
56.67000 151.141
56.68000 152.692
56.69000 154.990
56.70000 157.635
56.71000 160.143
56.72000 155.480
56.73000 149.081
56.74000 143.342
56.75000 142.816
56.76000 143.406
56.77000 144.812
56.78000 150.304
56.79000 156.359
56.80000 161.104
56.81000 151.418
56.82000 142.748
56.83000 138.682
56.84000 145.143
56.85000 152.016
56.86000 153.593
56.87000 146.922
56.88000 140.155
56.89000 136.723
56.90000 136.819
56.91000 136.903
56.92000 139.077
56.93000 142.663
56.94000 146.163
56.95000 147.207
56.96000 147.123
56.97000 147.043
56.98000 149.984
56.99000 153.560
57.00000 156.186
57.01000 151.456
57.02000 145.176
57.03000 139.821
57.04000 139.033
57.05000 138.860
57.06000 138.725
57.07000 134.634
57.08000 131.122
57.09000 128.520
57.10000 127.966
57.11000 127.491
57.12000 128.522
57.13000 131.864
57.14000 135.231
57.15000 136.924
57.16000 136.120
57.17000 135.574
57.18000 134.036
57.19000 131.840
57.20000 129.733
57.21000 130.125
57.22000 131.647
57.23000 133.086
57.24000 133.757
57.25000 134.156
57.26000 134.724
57.27000 136.576
57.28000 138.694
57.29000 139.797
57.30000 135.980
57.31000 131.509
57.32000 128.032
57.33000 130.920
57.34000 133.609
57.35000 134.905
57.36000 133.109
57.37000 131.200
57.38000 128.993
57.39000 126.336
57.40000 123.675
57.41000 124.840
57.42000 129.811
57.43000 134.740
57.44000 135.701
57.45000 134.060
57.46000 132.465
57.47000 132.079
57.48000 132.231
57.49000 132.375
57.50000 129.191
57.51000 125.342
57.52000 121.810
57.53000 120.638
57.54000 119.949
57.55000 119.832
57.56000 122.453
57.57000 125.431
57.58000 127.739
57.59000 122.262
57.60000 117.446
57.61000 115.357
57.62000 119.239
57.63000 123.332
57.64000 127.112
57.65000 130.423
57.66000 133.730
57.67000 134.732
57.68000 133.477
57.69000 132.222
57.70000 130.866
57.71000 129.445
57.72000 128.063
57.73000 127.713
57.74000 127.816
57.75000 127.914
57.76000 124.552
57.77000 120.524
57.78000 117.644
57.79000 123.171
57.80000 130.387
57.81000 136.027
57.82000 134.266
57.83000 131.560
57.84000 129.470
57.85000 132.561
57.86000 135.313
57.87000 135.973
57.88000 132.119
57.89000 128.112
57.90000 125.583
57.91000 125.224
57.92000 124.883
57.93000 124.587
57.94000 124.334
57.95000 124.080
57.96000 123.782
57.97000 123.457
57.98000 123.188
57.99000 124.312
58.00000 126.041
58.01000 127.667
58.02000 125.254
58.03000 121.958
58.04000 119.334
58.05000 121.535
58.06000 124.690
58.07000 127.089
58.08000 125.989
58.09000 124.451
58.10000 123.268
58.11000 126.333
58.12000 129.000
58.13000 130.588
58.14000 129.885
58.15000 129.106
58.16000 129.102
58.17000 130.218
58.18000 131.342
58.19000 129.139
58.20000 123.789
58.21000 118.515
58.22000 119.136
58.23000 123.451
58.24000 127.604
58.25000 127.848
58.26000 126.421
58.27000 125.080
58.28000 124.731
58.29000 124.675
58.30000 124.441
58.31000 122.941
58.32000 121.195
58.33000 119.994
58.34000 121.273
58.35000 122.857
58.36000 124.071
58.37000 121.983
58.38000 120.151
58.39000 119.213
58.40000 120.149
58.41000 121.145
58.42000 122.495
58.43000 124.348
58.44000 126.204
58.45000 125.271
58.46000 121.744
58.47000 118.320
58.48000 122.339
58.49000 130.954
58.50000 139.153
58.51000 137.609
58.52000 131.963
58.53000 126.668
58.54000 127.822
58.55000 130.560
58.56000 132.459
58.57000 128.535
58.58000 123.497
58.59000 119.593
58.60000 120.772
58.61000 122.564
58.62000 123.933
58.63000 123.237
58.64000 122.578
58.65000 121.539
58.66000 119.718
58.67000 117.872
58.68000 117.782
58.69000 120.150
58.70000 122.534
58.71000 122.292
58.72000 119.649
58.73000 117.072
58.74000 118.985
58.75000 123.629
58.76000 127.970
58.77000 125.434
58.78000 120.043
58.79000 114.997
58.80000 116.607
58.81000 119.784
58.82000 122.951
58.83000 126.051
58.84000 129.139
58.85000 131.084
58.86000 127.984
58.87000 124.287
58.88000 121.476
58.89000 121.440
58.90000 121.558
58.91000 122.035
58.92000 123.244
58.93000 124.475
58.94000 123.967
58.95000 121.062
58.96000 118.142
58.97000 116.685
58.98000 116.544
58.99000 116.374
59.00000 114.357
59.01000 111.233
59.02000 108.421
59.03000 112.456
59.04000 119.294
59.05000 125.684
59.06000 124.473
59.07000 121.451
59.08000 119.021
59.09000 120.562
59.10000 122.838
59.11000 124.340
59.12000 122.476
59.13000 120.222
59.14000 118.515
59.15000 119.587
59.16000 120.570
59.17000 120.098
59.18000 116.705
59.19000 113.230
59.20000 112.878
59.21000 116.766
59.22000 120.677
59.23000 123.038
59.24000 124.026
59.25000 125.012
59.26000 125.930
59.27000 126.807
59.28000 127.646
59.29000 127.667
59.30000 127.358
59.31000 127.070
59.32000 125.635
59.33000 124.048
59.34000 122.516
59.35000 121.340
59.36000 120.229
59.37000 119.029
59.38000 117.445
59.39000 115.817
59.40000 114.589
59.41000 115.675
59.42000 116.640
59.43000 117.468
59.44000 118.023
59.45000 118.571
59.46000 119.408
59.47000 120.632
59.48000 121.857
59.49000 121.947
59.50000 121.050
59.51000 120.166
59.52000 120.102
59.53000 120.514
59.54000 120.900
59.55000 120.759
59.56000 120.408
59.57000 120.080
59.58000 121.515
59.59000 123.243
59.60000 125.313
59.61000 129.589
59.62000 134.260
59.63000 136.857
59.64000 130.717
59.65000 123.603
59.66000 118.256
59.67000 117.938
59.68000 117.931
59.69000 118.387
59.70000 119.745
59.71000 121.127
59.72000 122.112
59.73000 122.576
59.74000 123.038
59.75000 125.416
59.76000 129.428
59.77000 133.356
59.78000 132.651
59.79000 129.289
59.80000 125.882
59.81000 121.559
59.82000 116.877
59.83000 112.523
59.84000 115.567
59.85000 120.096
59.86000 123.667
59.87000 121.156
59.88000 117.572
59.89000 114.755
59.90000 115.122
59.91000 115.836
59.92000 116.371
59.93000 117.540
59.94000 118.483
59.95000 119.639
59.96000 121.205
59.97000 122.781
59.98000 121.954
59.99000 118.014
60.00000 114.065
60.01000 113.507
60.02000 115.803
60.03000 118.065
60.04000 118.562
60.05000 118.064
60.06000 117.566
60.07000 117.084
60.08000 116.608
60.09000 116.166
60.10000 114.629
60.11000 112.984
60.12000 111.872
60.13000 114.082
60.14000 116.867
60.15000 119.159
60.16000 119.431
60.17000 119.486
60.18000 119.528
60.19000 117.605
60.20000 116.019
60.21000 115.664
60.22000 117.641
60.23000 119.673
60.24000 119.181
60.25000 115.469
60.26000 111.749
60.27000 114.142
60.28000 121.584
60.29000 128.881
60.30000 128.940
60.31000 124.971
60.32000 121.067
60.33000 118.389
60.34000 116.178
60.35000 114.130
60.36000 112.556
60.37000 111.250
60.38000 110.077
60.39000 109.718
60.40000 109.498
60.41000 109.833
60.42000 112.397
60.43000 115.196
60.44000 117.274
60.45000 112.857
60.46000 109.137
60.47000 107.160
60.48000 108.435
60.49000 109.784
60.50000 110.933
60.51000 111.832
60.52000 112.729
60.53000 112.949
60.54000 112.616
60.55000 112.317
60.56000 113.590
60.57000 115.725
60.58000 117.825
60.59000 119.276
60.60000 120.483
60.61000 121.600
60.62000 120.805
60.63000 119.653
60.64000 119.118
60.65000 122.304
60.66000 126.113
60.67000 128.435
60.68000 124.864
60.69000 120.687
60.70000 117.598
60.71000 121.625
60.72000 125.053
60.73000 126.986
60.74000 126.173
60.75000 125.300
60.76000 123.545
60.77000 120.700
60.78000 117.856
60.79000 118.644
60.80000 122.338
60.81000 125.921
60.82000 124.499
60.83000 120.371
60.84000 116.491
60.85000 117.049
60.86000 119.248
60.87000 121.278
60.88000 121.020
60.89000 120.274
60.90000 120.190
60.91000 124.031
60.92000 128.519
60.93000 131.970
60.94000 131.378
60.95000 130.378
60.96000 129.642
60.97000 125.393
60.98000 121.958
60.99000 121.079
61.00000 124.831
61.01000 128.679
61.02000 130.766
61.03000 130.713
61.04000 130.655
61.05000 130.879
61.06000 131.323
61.07000 131.694
61.08000 128.917
61.09000 124.463
61.10000 120.083
61.11000 116.996
61.12000 114.380
61.13000 111.969
61.14000 116.847
61.15000 122.828
61.16000 128.080
61.17000 129.091
61.18000 129.416
61.19000 129.100
61.20000 126.326
61.21000 123.309
61.22000 121.097
61.23000 124.209
61.24000 126.827
61.25000 129.176
61.26000 131.041
61.27000 132.897
61.28000 134.260
61.29000 135.032
61.30000 135.801
61.31000 136.528
61.32000 137.217
61.33000 137.794
61.34000 133.755
61.35000 127.292
61.36000 121.202
61.37000 121.436
61.38000 123.940
61.39000 126.245
61.40000 126.743
61.41000 126.796
61.42000 127.267
61.43000 130.137
61.44000 133.389
61.45000 137.672
61.46000 145.854
61.47000 154.413
61.48000 160.662
61.49000 166.106
61.50000 170.270
61.51000 181.607
61.52000 205.565
61.53000 229.759
61.54000 249.986
61.55000 265.538
61.56000 281.045
61.57000 304.086
61.58000 332.729
61.59000 361.227
61.60000 383.985
61.61000 403.774
61.62000 422.929
61.63000 431.630
61.64000 436.629
61.65000 441.220
61.66000 447.822
61.67000 454.143
61.68000 458.954
61.69000 455.261
61.70000 450.238
61.71000 446.513
61.72000 447.630
61.73000 449.205
61.74000 450.350
61.75000 422.763
61.76000 400.453
61.77000 374.356
61.78000 341.692
61.79000 308.912
61.80000 285.008
61.81000 271.394
61.82000 257.831
61.83000 239.480
61.84000 217.664
61.85000 196.061
61.86000 182.573
61.87000 173.224
61.88000 164.249
61.89000 161.293
61.90000 160.437
61.91000 159.653
61.92000 158.684
61.93000 157.782
61.94000 156.170
61.95000 150.617
61.96000 144.458
61.97000 139.065
61.98000 136.482
61.99000 134.159
62.00000 132.478
62.01000 133.560
62.02000 134.493
62.03000 136.754
62.04000 141.283
62.05000 145.850
62.06000 145.423
62.07000 139.301
62.08000 133.191
62.09000 130.998
62.10000 131.713
62.11000 132.468
62.12000 134.736
62.13000 137.763
62.14000 140.550
62.15000 139.574
62.16000 137.305
62.17000 135.229
62.18000 137.417
62.19000 140.243
62.20000 142.613
62.21000 142.499
62.22000 142.010
62.23000 141.776
62.24000 142.468
62.25000 143.243
62.26000 143.802
62.27000 143.700
62.28000 143.598
62.29000 142.982
62.30000 141.501
62.31000 140.005
62.32000 137.990
62.33000 135.390
62.34000 132.798
62.35000 132.750
62.36000 134.550
62.37000 136.322
62.38000 137.129
62.39000 137.458
62.40000 137.750
62.41000 137.477
62.42000 137.014
62.43000 136.590
62.44000 139.741
62.45000 143.263
62.46000 145.999
62.47000 144.514
62.48000 142.403
62.49000 140.405
62.50000 138.809
62.51000 137.250
62.52000 136.130
62.53000 133.623
62.54000 131.658
62.55000 131.435
62.56000 134.102
62.57000 136.813
62.58000 137.822
62.59000 136.951
62.60000 136.083
62.61000 137.821
62.62000 141.405
62.63000 144.788
62.64000 141.409
62.65000 134.731
62.66000 128.581
62.67000 130.318
62.68000 134.687
62.69000 138.669
62.70000 136.240
62.71000 132.810
62.72000 130.426
62.73000 133.566
62.74000 137.512
62.75000 140.197
62.76000 138.455
62.77000 136.329
62.78000 134.810
62.79000 137.862
62.80000 140.342
62.81000 140.963
62.82000 138.545
62.83000 136.084
62.84000 134.714
62.85000 134.529
62.86000 134.345
62.87000 133.532
62.88000 132.285
62.89000 131.144
62.90000 133.447
62.91000 137.405
62.92000 141.284
62.93000 144.003
62.94000 146.340
62.95000 148.465
62.96000 149.807
62.97000 150.840
62.98000 151.037
62.99000 146.889
63.00000 142.119
63.01000 139.092
63.02000 142.097
63.03000 145.612
63.04000 148.112
63.05000 145.400
63.06000 143.168
63.07000 140.515
63.08000 137.184
63.09000 133.844
63.10000 133.438
63.11000 136.164
63.12000 138.879
63.13000 140.303
63.14000 140.819
63.15000 141.333
63.16000 141.764
63.17000 142.155
63.18000 142.645
63.19000 144.526
63.20000 146.857
63.21000 148.973
63.22000 148.322
63.23000 147.213
63.24000 145.694
63.25000 142.082
63.26000 138.175
63.27000 135.063
63.28000 134.661
63.29000 134.484
63.30000 134.358
63.31000 141.290
63.32000 146.777
63.33000 149.925
63.34000 149.365
63.35000 148.758
63.36000 145.668
63.37000 139.972
63.38000 134.302
63.39000 133.578
63.40000 136.225
63.41000 138.966
63.42000 144.485
63.43000 151.304
63.44000 157.404
63.45000 153.558
63.46000 146.535
63.47000 140.172
63.48000 144.038
63.49000 149.381
63.50000 153.673
63.51000 152.680
63.52000 150.957
63.53000 149.786
63.54000 150.464
63.55000 151.293
63.56000 151.877
63.57000 152.923
63.58000 153.730
63.59000 154.288
63.60000 154.458
63.61000 154.624
63.62000 153.001
63.63000 149.531
63.64000 146.080
63.65000 145.352
63.66000 146.456
63.67000 147.492
63.68000 146.546
63.69000 144.687
63.70000 142.795
63.71000 140.454
63.72000 137.972
63.73000 135.729
63.74000 141.363
63.75000 147.785
63.76000 153.143
63.77000 153.236
63.78000 152.616
63.79000 152.111
63.80000 151.989
63.81000 151.897
63.82000 151.832
63.83000 156.604
63.84000 160.355
63.85000 161.570
63.86000 158.881
63.87000 156.149
63.88000 156.213
63.89000 159.115
63.90000 162.001
63.91000 161.617
63.92000 159.085
63.93000 156.690
63.94000 158.130
63.95000 161.312
63.96000 164.131
63.97000 162.163
63.98000 158.710
63.99000 155.595
64.00000 156.532
64.01000 158.096
64.02000 159.353
64.03000 159.122
64.04000 158.692
64.05000 157.940
64.06000 156.135
64.07000 154.249
64.08000 152.932
64.09000 155.366
64.10000 157.307
64.11000 157.628
64.12000 155.490
64.13000 153.326
64.14000 153.770
64.15000 156.817
64.16000 159.845
64.17000 159.775
64.18000 157.698
64.19000 155.656
64.20000 154.557
64.21000 153.881
64.22000 153.552
64.23000 157.690
64.24000 163.193
64.25000 168.148
64.26000 171.142
64.27000 173.415
64.28000 174.822
64.29000 172.081
64.30000 168.798
64.31000 165.823
64.32000 163.838
64.33000 161.928
64.34000 160.601
64.35000 159.918
64.36000 159.420
64.37000 162.187
64.38000 169.830
64.39000 177.519
64.40000 181.998
64.41000 183.324
64.42000 184.642
64.43000 182.237
64.44000 177.493
64.45000 172.857
64.46000 171.005
64.47000 170.382
64.48000 169.709
64.49000 168.413
64.50000 166.928
64.51000 165.594
64.52000 168.943
64.53000 172.700
64.54000 177.395
64.55000 186.511
64.56000 196.194
64.57000 201.018
64.58000 190.456
64.59000 178.758
64.60000 170.672
64.61000 177.660
64.62000 183.303
64.63000 186.451
64.64000 185.928
64.65000 185.372
64.66000 185.691
64.67000 186.855
64.68000 188.009
64.69000 187.637
64.70000 186.312
64.71000 185.069
64.72000 185.894
64.73000 187.617
64.74000 189.354
64.75000 191.252
64.76000 193.198
64.77000 194.943
64.78000 195.434
64.79000 195.646
64.80000 196.685
64.81000 201.559
64.82000 206.917
64.83000 209.598
64.84000 203.928
64.85000 197.657
64.86000 193.342
64.87000 196.769
64.88000 199.533
64.89000 200.806
64.90000 199.920
64.91000 199.017
64.92000 202.377
64.93000 209.784
64.94000 217.133
64.95000 219.419
64.96000 218.535
64.97000 217.714
64.98000 218.397
64.99000 219.725
65.00000 220.997
65.01000 221.598
65.02000 222.003
65.03000 222.366
65.04000 227.970
65.05000 233.748
65.06000 237.945
65.07000 234.910
65.08000 230.983
65.09000 229.133
65.10000 233.675
65.11000 238.665
65.12000 242.081
65.13000 245.274
65.14000 247.660
65.15000 252.432
65.16000 260.606
65.17000 268.805
65.18000 270.622
65.19000 266.481
65.20000 262.374
65.21000 263.147
65.22000 266.874
65.23000 270.981
65.24000 284.059
65.25000 300.926
65.26000 316.250
65.27000 313.450
65.28000 305.428
65.29000 298.268
65.30000 304.942
65.31000 313.065
65.32000 321.943
65.33000 334.217
65.34000 346.902
65.35000 356.635
65.36000 357.421
65.37000 357.594
65.38000 357.711
65.39000 367.368
65.40000 374.802
65.41000 381.680
65.42000 387.776
65.43000 393.867
65.44000 403.057
65.45000 415.092
65.46000 427.021
65.47000 441.402
65.48000 456.973
65.49000 472.344
65.50000 483.130
65.51000 492.009
65.52000 500.548
65.53000 505.186
65.54000 508.718
65.55000 511.862
65.56000 535.508
65.57000 559.420
65.58000 583.019
65.59000 605.237
65.60000 627.291
65.61000 652.087
65.62000 685.070
65.63000 718.600
65.64000 741.326
65.65000 824.292
65.66000 887.476
65.67000 967.174
65.68000 1069.719
65.69000 1172.438
65.70000 1318.896
65.71000 1504.862
65.72000 1689.069
65.73000 1890.544
65.74000 2098.080
65.75000 2305.967
65.76000 2521.619
65.77000 2740.457
65.78000 2951.382
65.79000 3073.417
65.80000 3170.587
65.81000 3256.921
65.82000 3348.294
65.83000 3428.357
65.84000 3491.470
65.85000 3480.696
65.86000 3461.311
65.87000 3444.953
65.88000 3437.509
65.89000 3430.644
65.90000 3426.015
65.91000 3367.945
65.92000 3323.612
65.93000 3219.056
65.94000 3032.458
65.95000 2845.350
65.96000 2615.794
65.97000 2348.523
65.98000 2083.938
65.99000 1859.061
66.00000 1662.035
66.01000 1466.674
66.02000 1307.061
66.03000 1161.906
66.04000 1021.275
66.05000 930.362
66.06000 853.149
66.07000 784.702
66.08000 719.368
66.09000 663.296
66.10000 613.301
66.11000 589.387
66.12000 568.453
66.13000 552.004
66.14000 548.568
66.15000 545.957
66.16000 544.206
66.17000 542.717
66.18000 541.617
66.19000 540.568
66.20000 539.590
66.21000 538.621
66.22000 546.313
66.23000 561.576
66.24000 576.677
66.25000 599.487
66.26000 626.181
66.27000 653.340
66.28000 690.200
66.29000 730.927
66.30000 771.139
66.31000 805.816
66.32000 838.991
66.33000 868.332
66.34000 899.021
66.35000 925.753
66.36000 951.312
66.37000 971.915
66.38000 991.963
66.39000 1005.546
66.40000 1000.646
66.41000 994.603
66.42000 990.569
66.43000 983.575
66.44000 978.336
66.45000 971.481
66.46000 962.491
66.47000 953.468
66.48000 927.924
66.49000 888.169
66.50000 848.862
66.51000 815.834
66.52000 787.114
66.53000 758.109
66.54000 723.341
66.55000 686.310
66.56000 650.420
66.57000 626.546
66.58000 605.885
66.59000 587.654
66.60000 561.455
66.61000 537.640
66.62000 516.547
66.63000 506.787
66.64000 498.272
66.65000 491.824
66.66000 491.203
66.67000 490.932
66.68000 490.753
66.69000 493.794
66.70000 496.101
66.71000 492.765
66.72000 482.090
66.73000 471.400
66.74000 469.351
66.75000 474.617
66.76000 479.819
66.77000 479.197
66.78000 475.370
66.79000 471.811
66.80000 473.529
66.81000 477.291
66.82000 480.428
66.83000 477.139
66.84000 472.158
66.85000 467.772
66.86000 468.421
66.87000 469.733
66.88000 473.349
66.89000 486.406
66.90000 500.479
66.91000 506.861
66.92000 491.885
66.93000 475.656
66.94000 464.937
66.95000 477.824
66.96000 487.747
66.97000 493.061
66.98000 492.475
66.99000 491.872
67.00000 493.814
67.01000 497.875
67.02000 501.885
67.03000 507.836
67.04000 514.689
67.05000 521.635
67.06000 530.359
67.07000 539.762
67.08000 547.805
67.09000 542.126
67.10000 532.886
67.11000 524.772
67.12000 517.397
67.13000 511.168
67.14000 507.311
67.15000 513.031
67.16000 519.761
67.17000 523.963
67.18000 521.240
67.19000 518.123
67.20000 516.075
67.21000 514.877
67.22000 514.009
67.23000 516.477
67.24000 523.147
67.25000 529.821
67.26000 532.352
67.27000 531.488
67.28000 530.636
67.29000 533.012
67.30000 537.052
67.31000 541.463
67.32000 552.773
67.33000 566.678
67.34000 578.536
67.35000 570.165
67.36000 556.625
67.37000 544.762
67.38000 548.629
67.39000 554.217
67.40000 558.388
67.41000 556.931
67.42000 554.892
67.43000 553.903
67.44000 555.748
67.45000 557.750
67.46000 559.059
67.47000 562.835
67.48000 565.647
67.49000 565.673
67.50000 562.242
67.51000 558.819
67.52000 561.614
67.53000 569.425
67.54000 577.126
67.55000 581.344
67.56000 583.607
67.57000 585.924
67.58000 589.202
67.59000 592.837
67.60000 595.751
67.61000 591.684
67.62000 585.860
67.63000 580.771
67.64000 590.142
67.65000 600.214
67.66000 607.303
67.67000 602.710
67.68000 596.935
67.69000 593.383
67.70000 595.745
67.71000 598.426
67.72000 600.168
67.73000 602.744
67.74000 604.644
67.75000 607.685
67.76000 612.119
67.77000 616.546
67.78000 617.617
67.79000 616.023
67.80000 614.453
67.81000 613.904
67.82000 613.900
67.83000 614.210
67.84000 619.997
67.85000 627.786
67.86000 635.090
67.87000 637.785
67.88000 639.337
67.89000 640.690
67.90000 643.474
67.91000 646.052
67.92000 648.169
67.93000 648.512
67.94000 648.680
67.95000 648.592
67.96000 647.839
67.97000 647.051
67.98000 646.541
67.99000 651.321
68.00000 654.892
68.01000 655.020
68.02000 651.012
68.03000 647.026
68.04000 651.445
68.05000 662.435
68.06000 673.255
68.07000 684.575
68.08000 695.802
68.09000 706.832
68.10000 714.503
68.11000 720.966
68.12000 726.092
68.13000 718.808
68.14000 708.493
68.15000 699.522
68.16000 717.937
68.17000 737.383
68.18000 751.814
68.19000 747.200
68.20000 740.736
68.21000 737.943
68.22000 744.629
68.23000 751.799
68.24000 756.407
68.25000 748.541
68.26000 742.631
68.27000 747.637
68.28000 765.547
68.29000 783.428
68.30000 789.149
68.31000 785.513
68.32000 781.935
68.33000 787.259
68.34000 796.884
68.35000 806.149
68.36000 809.439
68.37000 810.606
68.38000 812.644
68.39000 822.618
68.40000 834.499
68.41000 844.805
68.42000 860.921
68.43000 875.424
68.44000 888.554
68.45000 896.544
68.46000 904.046
68.47000 914.244
68.48000 931.307
68.49000 948.709
68.50000 959.831
68.51000 986.919
68.52000 1006.845
68.53000 1027.773
68.54000 1049.868
68.55000 1071.987
68.56000 1099.209
68.57000 1130.297
68.58000 1160.855
68.59000 1206.032
68.60000 1256.937
68.61000 1308.785
68.62000 1375.909
68.63000 1448.377
68.64000 1521.371
68.65000 1599.062
68.66000 1677.864
68.67000 1746.050
68.68000 1828.353
68.69000 1900.173
68.70000 1969.853
68.71000 2031.648
68.72000 2092.710
68.73000 2163.438
68.74000 2258.424
68.75000 2354.575
68.76000 2415.678
68.77000 2547.407
68.78000 2643.948
68.79000 2747.760
68.80000 2859.894
68.81000 2972.103
68.82000 3097.106
68.83000 3231.653
68.84000 3363.808
68.85000 3598.050
68.86000 3873.904
68.87000 4160.911
68.88000 4623.681
68.89000 5147.068
68.90000 5740.792
68.91000 6950.352
68.92000 8303.470
68.93000 9471.292
68.94000 12938.120
68.95000 16175.676
68.96000 19886.836
68.97000 25317.475
68.98000 30904.699
68.99000 36748.742
69.00000 43228.051
69.01000 49736.977
69.02000 53849.586
69.03000 61135.145
69.04000 66451.453
69.05000 70671.898
69.06000 73658.328
69.07000 76638.695
69.08000 78751.297
69.09000 80226.586
69.10000 81674.445
69.11000 82979.297
69.12000 84169.000
69.13000 85359.813
69.14000 86567.656
69.15000 87781.297
69.16000 88883.023
69.17000 89023.836
69.18000 88944.102
69.19000 88875.461
69.20000 85373.438
69.21000 81974.109
69.22000 78263.859
69.23000 73441.539
69.24000 68520.141
69.25000 63815.148
69.26000 59637.809
69.27000 55484.316
69.28000 52875.172
69.29000 48887.055
69.30000 45988.547
69.31000 43910.656
69.32000 42741.836
69.33000 41575.395
69.34000 40691.855
69.35000 40012.906
69.36000 39347.148
69.37000 37852.914
69.38000 36023.344
69.39000 34133.684
69.40000 31344.289
69.41000 28253.516
69.42000 25148.762
69.43000 21926.285
69.44000 18677.207
69.45000 15887.650
69.46000 13060.896
69.47000 10666.443
69.48000 8468.859
69.49000 6964.986
69.50000 5521.570
69.51000 4322.999
69.52000 3712.834
69.53000 3128.447
69.54000 2763.496
69.55000 2408.473
69.56000 2152.492
69.57000 1964.101
69.58000 1849.362
69.59000 1734.768
69.60000 1636.172
69.61000 1548.970
69.62000 1463.535
69.63000 1394.881
69.64000 1336.645
69.65000 1279.604
69.66000 1240.009
69.67000 1206.174
69.68000 1171.376
69.69000 1128.633
69.70000 1084.123
69.71000 1046.009
69.72000 1018.037
69.73000 995.662
69.74000 972.030
69.75000 944.031
69.76000 915.660
69.77000 891.112
69.78000 875.619
69.79000 860.510
69.80000 851.130
69.81000 836.684
69.82000 826.237
69.83000 810.052
69.84000 787.716
69.85000 765.458
69.86000 753.810
69.87000 749.602
69.88000 745.484
69.89000 739.185
69.90000 732.138
69.91000 724.332
69.92000 705.723
69.93000 683.598
69.94000 663.216
69.95000 656.953
69.96000 653.781
69.97000 651.072
69.98000 642.205
69.99000 634.004
70.00000 625.563
