20.00000 510.866
20.01000 508.837
20.02000 506.519
20.03000 503.108
20.04000 495.387
20.05000 487.226
20.06000 481.198
20.07000 483.751
20.08000 486.094
20.09000 488.925
20.10000 492.651
20.11000 496.395
20.12000 496.922
20.13000 493.490
20.14000 490.054
20.15000 491.744
20.16000 497.510
20.17000 503.070
20.18000 499.410
20.19000 490.789
20.20000 482.230
20.21000 474.787
20.22000 467.757
20.23000 461.268
20.24000 472.100
20.25000 485.688
20.26000 496.385
20.27000 490.029
20.28000 480.878
20.29000 473.660
20.30000 473.948
20.31000 474.989
20.32000 475.754
20.33000 480.862
20.34000 484.991
20.35000 487.356
20.36000 486.534
20.37000 485.647
20.38000 486.666
20.39000 489.992
20.40000 493.318
20.41000 491.606
20.42000 485.955
20.43000 480.363
20.44000 477.259
20.45000 475.475
20.46000 474.105
20.47000 479.910
20.48000 488.316
20.49000 496.060
20.50000 495.657
20.51000 493.503
20.52000 491.322
20.53000 488.987
20.54000 486.627
20.55000 484.514
20.56000 483.346
20.57000 482.270
20.58000 481.482
20.59000 492.533
20.60000 501.537
20.61000 505.453
20.62000 500.323
20.63000 495.017
20.64000 490.175
20.65000 485.886
20.66000 481.606
20.67000 480.758
20.68000 482.560
20.69000 484.296
20.70000 483.358
20.71000 481.023
20.72000 479.002
20.73000 482.284
20.74000 487.461
20.75000 492.221
20.76000 495.616
20.77000 498.353
20.78000 499.698
20.79000 493.103
20.80000 485.250
20.81000 480.070
20.82000 484.963
20.83000 490.824
20.84000 495.097
20.85000 491.996
20.86000 489.322
20.87000 487.519
20.88000 487.243
20.89000 486.996
20.90000 486.949
20.91000 487.137
20.92000 487.324
20.93000 483.937
20.94000 477.858
20.95000 472.122
20.96000 479.793
20.97000 494.371
20.98000 508.054
20.99000 507.085
21.00000 500.952
21.01000 495.324
21.02000 491.970
21.03000 489.463
21.04000 488.054
21.05000 492.799
21.06000 498.502
21.07000 503.510
21.08000 505.936
21.09000 508.119
21.10000 509.705
21.11000 503.780
21.12000 498.943
21.13000 493.027
21.14000 485.249
21.15000 477.438
21.16000 476.338
21.17000 482.982
21.18000 489.616
21.19000 488.268
21.20000 480.973
21.21000 473.992
21.22000 478.793
21.23000 489.575
21.24000 499.690
21.25000 499.153
21.26000 494.916
21.27000 491.034
21.28000 495.701
21.29000 501.642
21.30000 505.551
21.31000 498.251
21.32000 489.237
21.33000 482.633
21.34000 484.841
21.35000 487.859
21.36000 490.041
21.37000 490.989
21.38000 491.671
21.39000 493.966
21.40000 499.005
21.41000 504.090
21.42000 500.747
21.43000 487.839
21.44000 474.962
21.45000 474.686
21.46000 483.666
21.47000 492.458
21.48000 494.484
21.49000 493.125
21.50000 492.299
21.51000 499.757
21.52000 510.051
21.53000 519.463
21.54000 519.630
21.55000 517.878
21.56000 515.256
21.57000 507.912
21.58000 499.860
21.59000 494.500
21.60000 498.843
21.61000 504.059
21.62000 507.814
21.63000 514.171
21.64000 519.129
21.65000 523.263
21.66000 526.014
21.67000 528.743
21.68000 530.418
21.69000 530.918
21.70000 531.416
21.71000 538.709
21.72000 550.850
21.73000 562.728
21.74000 565.517
21.75000 563.824
21.76000 563.052
21.77000 576.256
21.78000 594.175
21.79000 610.527
21.80000 623.345
21.81000 634.003
21.82000 646.498
21.83000 668.801
21.84000 692.551
21.85000 713.210
21.86000 722.900
21.87000 731.623
21.88000 737.873
21.89000 748.102
21.90000 756.053
21.91000 767.410
21.92000 784.391
21.93000 801.456
21.94000 811.078
21.95000 812.524
21.96000 813.961
21.97000 818.019
21.98000 823.903
21.99000 829.470
22.00000 824.496
22.01000 814.398
22.02000 804.600
22.03000 799.229
22.04000 795.330
22.05000 791.779
22.06000 785.649
22.07000 779.708
22.08000 772.896
22.09000 761.513
22.10000 749.468
22.11000 737.908
22.12000 728.048
22.13000 718.333
22.14000 711.404
22.15000 700.944
22.16000 692.851
22.17000 680.260
22.18000 660.351
22.19000 640.339
22.20000 629.843
22.21000 629.628
22.22000 629.417
22.23000 616.957
22.24000 596.055
22.25000 575.468
22.26000 564.963
22.27000 559.288
22.28000 554.583
22.29000 563.867
22.30000 577.735
22.31000 590.341
22.32000 569.200
22.33000 543.928
22.34000 521.656
22.35000 514.880
22.36000 510.310
22.37000 506.670
22.38000 506.232
22.39000 506.063
22.40000 505.944
22.41000 512.364
22.42000 517.457
22.43000 517.265
22.44000 508.603
22.45000 499.829
22.46000 493.204
22.47000 488.863
22.48000 484.542
22.49000 480.654
22.50000 477.105
22.51000 473.660
22.52000 473.376
22.53000 474.586
22.54000 476.314
22.55000 485.336
22.56000 496.713
22.57000 507.033
22.58000 490.194
22.59000 470.128
22.60000 453.997
22.61000 457.864
22.62000 464.527
22.63000 469.741
22.64000 470.038
22.65000 469.931
22.66000 469.854
22.67000 466.310
22.68000 463.512
22.69000 460.181
22.70000 456.008
22.71000 451.825
22.72000 453.360
22.73000 460.871
22.74000 468.344
22.75000 469.130
22.76000 465.377
22.77000 461.654
22.78000 458.846
22.79000 456.464
22.80000 454.638
22.81000 460.444
22.82000 468.678
22.83000 476.132
22.84000 467.728
22.85000 457.338
22.86000 449.264
22.87000 452.775
22.88000 457.876
22.89000 461.385
22.90000 459.566
22.91000 457.319
22.92000 455.737
22.93000 463.253
22.94000 469.218
22.95000 470.311
22.96000 463.827
22.97000 457.256
22.98000 454.088
22.99000 454.420
23.00000 454.750
23.01000 450.435
23.02000 443.081
23.03000 436.122
23.04000 440.503
23.05000 450.086
23.06000 458.847
23.07000 456.609
23.08000 450.922
23.09000 445.785
23.10000 443.626
23.11000 442.278
23.12000 441.829
23.13000 445.804
23.14000 450.375
23.15000 455.546
23.16000 462.694
23.17000 469.997
23.18000 475.111
23.19000 472.399
23.20000 470.126
23.21000 463.709
23.22000 450.945
23.23000 438.112
23.24000 438.457
23.25000 452.118
23.26000 465.699
23.27000 467.820
23.28000 462.398
23.29000 457.075
23.30000 454.469
23.31000 453.091
23.32000 451.841
23.33000 452.252
23.34000 453.176
23.35000 454.010
23.36000 455.281
23.37000 456.477
23.38000 457.038
23.39000 454.526
23.40000 451.608
23.41000 448.196
23.42000 443.181
23.43000 438.043
23.44000 434.461
23.45000 453.360
23.46000 468.240
23.47000 471.805
23.48000 458.293
23.49000 444.609
23.50000 436.715
23.51000 434.574
23.52000 432.446
23.53000 430.462
23.54000 428.598
23.55000 426.854
23.56000 428.288
23.57000 431.137
23.58000 433.865
23.59000 435.045
23.60000 435.753
23.61000 436.391
23.62000 438.641
23.63000 440.901
23.64000 442.439
23.65000 440.540
23.66000 438.194
23.67000 437.206
23.68000 440.563
23.69000 444.245
23.70000 446.800
23.71000 447.501
23.72000 447.980
23.73000 445.156
23.74000 437.421
23.75000 429.641
23.76000 430.049
23.77000 438.456
23.78000 446.804
23.79000 445.951
23.80000 439.267
23.81000 432.709
23.82000 429.384
23.83000 427.478
23.84000 425.971
23.85000 429.448
23.86000 434.420
23.87000 438.884
23.88000 437.429
23.89000 435.118
23.90000 432.184
23.91000 426.325
23.92000 420.092
23.93000 418.016
23.94000 429.050
23.95000 441.043
23.96000 449.322
23.97000 445.668
23.98000 442.617
23.99000 437.725
24.00000 430.138
24.01000 422.528
24.02000 420.718
24.03000 424.481
24.04000 428.215
24.05000 430.457
24.06000 431.729
24.07000 433.053
24.08000 435.679
24.09000 438.869
24.10000 441.353
24.11000 435.228
24.12000 426.558
24.13000 418.792
24.14000 421.197
24.15000 425.050
24.16000 427.424
24.17000 422.964
24.18000 417.649
24.19000 414.856
24.20000 419.901
24.21000 425.505
24.22000 429.355
24.23000 440.766
24.24000 449.508
24.25000 451.477
24.26000 443.681
24.27000 435.807
24.28000 430.592
24.29000 427.890
24.30000 425.209
24.31000 426.708
24.32000 430.752
24.33000 434.697
24.34000 436.272
24.35000 436.836
24.36000 437.151
24.37000 434.514
24.38000 431.018
24.39000 427.892
24.40000 415.384
24.41000 402.894
24.42000 394.254
24.43000 403.116
24.44000 414.127
24.45000 422.626
24.46000 423.431
24.47000 423.699
24.48000 423.882
24.49000 426.150
24.50000 427.896
24.51000 428.314
24.52000 426.846
24.53000 425.364
24.54000 423.821
24.55000 422.221
24.56000 420.635
24.57000 420.569
24.58000 421.423
24.59000 422.392
24.60000 426.032
24.61000 430.794
24.62000 434.753
24.63000 429.339
24.64000 421.236
24.65000 414.008
24.66000 419.213
24.67000 425.809
24.68000 430.704
24.69000 427.988
24.70000 424.356
24.71000 424.372
24.72000 435.399
24.73000 447.174
24.74000 455.183
24.75000 440.747
24.76000 429.459
24.77000 420.240
24.78000 413.915
24.79000 407.613
24.80000 408.614
24.81000 416.289
24.82000 423.894
24.83000 423.716
24.84000 418.907
24.85000 414.116
24.86000 409.732
24.87000 405.517
24.88000 402.102
24.89000 407.821
24.90000 416.122
24.91000 423.509
24.92000 424.593
24.93000 424.505
24.94000 424.279
24.95000 423.446
24.96000 422.540
24.97000 421.026
24.98000 417.705
24.99000 414.263
25.00000 411.934
25.01000 420.585
25.02000 427.270
25.03000 428.549
25.04000 422.385
25.05000 416.179
25.06000 414.909
25.07000 418.076
25.08000 421.213
25.09000 421.299
25.10000 419.594
25.11000 418.175
25.12000 423.019
25.13000 430.421
25.14000 437.098
25.15000 435.689
25.16000 432.028
25.17000 428.777
25.18000 426.207
25.19000 424.089
25.20000 422.172
25.21000 421.133
25.22000 420.195
25.23000 419.505
25.24000 419.542
25.25000 419.625
25.26000 419.681
25.27000 424.683
25.28000 428.505
25.29000 426.478
25.30000 416.519
25.31000 406.525
25.32000 407.414
25.33000 417.925
25.34000 428.328
25.35000 427.305
25.36000 419.713
25.37000 412.483
25.38000 412.938
25.39000 416.490
25.40000 419.394
25.41000 415.225
25.42000 409.115
25.43000 403.704
25.44000 404.067
25.45000 405.290
25.46000 405.965
25.47000 404.298
25.48000 402.365
25.49000 400.868
25.50000 400.629
25.51000 400.469
25.52000 400.362
25.53000 408.655
25.54000 414.976
25.55000 414.438
25.56000 404.745
25.57000 395.018
25.58000 395.599
25.59000 405.145
25.60000 414.588
25.61000 418.607
25.62000 419.455
25.63000 420.265
25.64000 420.287
25.65000 419.995
25.66000 419.656
25.67000 418.811
25.68000 417.829
25.69000 416.961
25.70000 411.842
25.71000 406.764
25.72000 402.371
25.73000 400.862
25.74000 399.674
25.75000 397.202
25.76000 391.076
25.77000 384.725
25.78000 380.493
25.79000 396.276
25.80000 408.343
25.81000 413.253
25.82000 408.755
25.83000 404.219
25.84000 402.606
25.85000 403.494
25.86000 404.372
25.87000 405.432
25.88000 406.567
25.89000 407.647
25.90000 407.602
25.91000 407.118
25.92000 406.716
25.93000 407.171
25.94000 407.853
25.95000 408.455
25.96000 411.646
25.97000 414.791
25.98000 417.133
25.99000 416.152
26.00000 414.807
26.01000 413.825
26.02000 413.858
26.03000 413.952
26.04000 414.014
26.05000 406.126
26.06000 400.154
26.07000 397.219
26.08000 398.213
26.09000 399.226
26.10000 401.333
26.11000 404.364
26.12000 407.357
26.13000 406.692
26.14000 404.030
26.15000 401.458
26.16000 400.625
26.17000 400.462
26.18000 400.490
26.19000 402.466
26.20000 404.952
26.21000 407.140
26.22000 405.500
26.23000 403.518
26.24000 402.087
26.25000 402.903
26.26000 403.959
26.27000 404.795
26.28000 405.024
26.29000 405.218
26.30000 405.345
26.31000 407.521
26.32000 409.160
26.33000 405.540
26.34000 395.219
26.35000 384.894
26.36000 383.543
26.37000 389.630
26.38000 395.639
26.39000 398.780
26.40000 400.287
26.41000 401.848
26.42000 404.426
26.43000 407.391
26.44000 410.010
26.45000 409.153
26.46000 407.398
26.47000 405.858
26.48000 406.524
26.49000 407.419
26.50000 408.048
26.51000 407.608
26.52000 407.057
26.53000 403.992
26.54000 394.075
26.55000 383.770
26.56000 377.011
26.57000 383.630
26.58000 388.720
26.59000 392.437
26.60000 394.431
26.61000 396.416
26.62000 397.284
26.63000 397.241
26.64000 397.199
26.65000 397.672
26.66000 398.406
26.67000 399.267
26.68000 402.463
26.69000 406.534
26.70000 410.260
26.71000 410.605
26.72000 410.090
26.73000 409.639
26.74000 405.161
26.75000 400.743
26.76000 398.178
26.77000 402.943
26.78000 408.461
26.79000 411.750
26.80000 409.050
26.81000 406.020
26.82000 404.043
26.83000 406.677
26.84000 408.683
26.85000 408.274
26.86000 404.884
26.87000 401.495
26.88000 400.781
26.89000 402.217
26.90000 403.633
26.91000 404.707
26.92000 405.571
26.93000 406.199
26.94000 402.602
26.95000 397.444
26.96000 392.227
26.97000 386.440
26.98000 380.509
26.99000 375.329
27.00000 382.544
27.01000 390.463
27.02000 396.088
27.03000 392.771
27.04000 388.553
27.05000 384.967
27.06000 383.053
27.07000 381.229
27.08000 380.046
27.09000 380.992
27.10000 381.716
27.11000 387.458
27.12000 399.296
27.13000 411.102
27.14000 409.282
27.15000 396.692
27.16000 384.290
27.17000 382.454
27.18000 386.128
27.19000 389.988
27.20000 397.098
27.21000 405.391
27.22000 412.487
27.23000 408.303
27.24000 401.335
27.25000 395.265
27.26000 395.527
27.27000 396.626
27.28000 395.909
27.29000 388.221
27.30000 379.846
27.31000 373.894
27.32000 374.267
27.33000 374.969
27.34000 375.422
27.35000 389.617
27.36000 400.185
27.37000 400.604
27.38000 388.889
27.39000 377.208
27.40000 380.505
27.41000 395.455
27.42000 410.170
27.43000 411.336
27.44000 405.582
27.45000 399.882
27.46000 395.104
27.47000 390.656
27.48000 386.923
27.49000 389.800
27.50000 394.283
27.51000 398.179
27.52000 394.942
27.53000 391.216
27.54000 386.946
27.55000 380.622
27.56000 374.101
27.57000 370.609
27.58000 374.910
27.59000 379.604
27.60000 382.617
27.61000 372.440
27.62000 364.841
27.63000 364.799
27.64000 373.646
27.65000 382.495
27.66000 388.334
27.67000 391.868
27.68000 395.344
27.69000 394.967
27.70000 392.676
27.71000 390.311
27.72000 386.712
27.73000 382.678
27.74000 378.830
27.75000 376.673
27.76000 374.920
27.77000 373.401
27.78000 376.980
27.79000 380.704
27.80000 383.208
27.81000 381.164
27.82000 378.691
27.83000 377.344
27.84000 378.852
27.85000 380.501
27.86000 381.552
27.87000 381.127
27.88000 380.799
27.89000 383.032
27.90000 388.229
27.91000 393.407
27.92000 393.795
27.93000 390.572
27.94000 387.404
27.95000 383.294
27.96000 378.859
27.97000 375.092
27.98000 382.047
27.99000 392.737
28.00000 402.121
28.01000 399.916
28.02000 394.980
28.03000 390.712
28.04000 386.604
28.05000 383.133
28.06000 382.351
28.07000 391.429
28.08000 401.419
28.09000 407.256
28.10000 402.712
28.11000 397.674
28.12000 394.478
28.13000 399.554
28.14000 403.339
28.15000 406.289
28.16000 408.285
28.17000 410.255
28.18000 407.374
28.19000 400.891
28.20000 394.525
28.21000 399.250
28.22000 409.182
28.23000 418.672
28.24000 421.256
28.25000 421.469
28.26000 421.370
28.27000 418.562
28.28000 415.125
28.29000 412.161
28.30000 406.768
28.31000 401.883
28.32000 396.261
28.33000 387.970
28.34000 379.438
28.35000 375.754
28.36000 384.012
28.37000 392.821
28.38000 398.377
28.39000 387.603
28.40000 379.613
28.41000 379.169
28.42000 387.181
28.43000 395.157
28.44000 395.898
28.45000 391.350
28.46000 386.888
28.47000 385.229
28.48000 384.966
28.49000 384.883
28.50000 387.555
28.51000 391.158
28.52000 394.424
28.53000 394.803
28.54000 394.523
28.55000 394.282
28.56000 396.703
28.57000 399.087
28.58000 398.014
28.59000 384.630
28.60000 370.157
28.61000 362.212
28.62000 370.114
28.63000 378.726
28.64000 384.126
28.65000 386.444
28.66000 388.085
28.67000 385.827
28.68000 379.271
28.69000 372.736
28.70000 369.612
28.71000 368.945
28.72000 368.291
28.73000 369.483
28.74000 371.498
28.75000 373.267
28.76000 371.380
28.77000 368.274
28.78000 365.597
28.79000 366.518
28.80000 368.249
28.81000 369.734
28.82000 372.292
28.83000 374.586
28.84000 376.559
28.85000 377.405
28.86000 378.153
28.87000 377.746
28.88000 374.574
28.89000 371.282
28.90000 369.230
28.91000 364.634
28.92000 361.295
28.93000 362.401
28.94000 368.328
28.95000 374.241
28.96000 377.970
28.97000 380.151
28.98000 382.287
28.99000 377.744
29.00000 370.293
29.01000 363.446
29.02000 365.369
29.03000 370.175
29.04000 374.109
29.05000 370.889
29.06000 366.084
29.07000 361.973
29.08000 362.393
29.09000 363.293
29.10000 363.383
29.11000 360.668
29.12000 357.715
29.13000 357.583
29.14000 364.103
29.15000 370.903
29.16000 375.117
29.17000 375.187
29.18000 375.198
29.19000 380.252
29.20000 390.685
29.21000 401.050
29.22000 402.480
29.23000 397.673
29.24000 392.969
29.25000 384.822
29.26000 375.434
29.27000 366.314
29.28000 360.961
29.29000 356.829
29.30000 353.590
29.31000 357.538
29.32000 363.054
29.33000 367.760
29.34000 369.817
29.35000 371.235
29.36000 372.898
29.37000 375.392
29.38000 377.956
29.39000 380.345
29.40000 382.330
29.41000 384.298
29.42000 385.511
29.43000 374.546
29.44000 366.569
29.45000 365.686
29.46000 372.243
29.47000 378.759
29.48000 380.226
29.49000 378.223
29.50000 376.264
29.51000 368.916
29.52000 359.460
29.53000 350.904
29.54000 354.770
29.55000 362.601
29.56000 370.673
29.57000 380.643
29.58000 391.021
29.59000 399.853
29.60000 391.257
29.61000 382.016
29.62000 375.779
29.63000 379.623
29.64000 384.283
29.65000 386.582
29.66000 383.475
29.67000 380.155
29.68000 378.122
29.69000 397.773
29.70000 412.023
29.71000 421.217
29.72000 425.195
29.73000 429.279
29.74000 445.013
29.75000 468.634
29.76000 491.708
29.77000 496.301
29.78000 492.558
29.79000 490.047
29.80000 504.145
29.81000 523.466
29.82000 542.338
29.83000 557.734
29.84000 572.396
29.85000 584.839
29.86000 594.829
29.87000 602.929
29.88000 610.027
29.89000 613.813
29.90000 617.336
29.91000 620.958
29.92000 624.799
29.93000 628.649
29.94000 630.992
29.95000 642.281
29.96000 650.414
29.97000 650.115
29.98000 641.264
29.99000 632.412
30.00000 623.543
30.01000 614.663
30.02000 605.996
30.03000 601.216
30.04000 598.330
30.05000 595.140
30.06000 587.942
30.07000 579.503
30.08000 571.359
30.09000 565.471
30.10000 560.051
30.11000 555.464
30.12000 543.104
30.13000 531.892
30.14000 521.983
30.15000 516.319
30.16000 510.982
30.17000 506.129
30.18000 502.353
30.19000 498.617
30.20000 496.357
30.21000 501.270
30.22000 504.823
30.23000 501.352
30.24000 490.877
30.25000 480.404
30.26000 470.119
30.27000 459.958
30.28000 450.051
30.29000 450.936
30.30000 456.385
30.31000 461.215
30.32000 458.093
30.33000 452.542
30.34000 446.532
30.35000 437.089
30.36000 426.945
30.37000 418.383
30.38000 424.018
30.39000 430.274
30.40000 434.883
30.41000 434.204
30.42000 433.126
30.43000 433.156
30.44000 435.620
30.45000 438.170
30.46000 439.702
30.47000 434.415
30.48000 430.610
30.49000 429.694
30.50000 431.608
30.51000 433.504
30.52000 433.809
30.53000 433.083
30.54000 432.376
30.55000 432.758
30.56000 433.580
30.57000 434.385
30.58000 434.985
30.59000 435.522
30.60000 436.921
30.61000 444.640
30.62000 453.631
30.63000 461.197
30.64000 460.273
30.65000 458.595
30.66000 457.110
30.67000 456.236
30.68000 455.406
30.69000 457.959
30.70000 467.826
30.71000 477.944
30.72000 483.985
30.73000 481.851
30.74000 480.287
30.75000 480.074
30.76000 481.163
30.77000 482.284
30.78000 486.156
30.79000 491.780
30.80000 497.252
30.81000 500.418
30.82000 502.478
30.83000 504.866
30.84000 511.289
30.85000 518.907
30.86000 526.766
30.87000 536.357
30.88000 546.291
30.89000 554.627
30.90000 568.478
30.91000 580.585
30.92000 595.514
30.93000 619.243
30.94000 643.603
30.95000 669.854
30.96000 700.131
30.97000 730.542
30.98000 748.584
30.99000 818.659
31.00000 868.543
31.01000 938.494
31.02000 1027.467
31.03000 1116.928
31.04000 1244.467
31.05000 1395.919
31.06000 1543.128
31.07000 1728.554
31.08000 1920.365
31.09000 2116.506
31.10000 2364.544
31.11000 2627.744
31.12000 2898.057
31.13000 3218.727
31.14000 3549.212
31.15000 3825.740
31.16000 4215.323
31.17000 4550.606
31.18000 4897.998
31.19000 5282.586
31.20000 5669.783
31.21000 6036.686
31.22000 6360.955
31.23000 6683.869
31.24000 6874.198
31.25000 7203.942
31.26000 7437.404
31.27000 7596.845
31.28000 7687.280
31.29000 7777.122
31.30000 7823.521
31.31000 7843.043
31.32000 7861.999
31.33000 7748.207
31.34000 7587.039
31.35000 7422.542
31.36000 7219.039
31.37000 7004.309
31.38000 6777.953
31.39000 6470.767
31.40000 6148.079
31.41000 5878.864
31.42000 5404.598
31.43000 4990.708
31.44000 4598.350
31.45000 4271.176
31.46000 3948.460
31.47000 3630.126
31.48000 3320.864
31.49000 3011.879
31.50000 2830.953
31.51000 2508.320
31.52000 2280.457
31.53000 2063.760
31.54000 1857.303
31.55000 1651.744
31.56000 1508.126
31.57000 1402.263
31.58000 1299.583
31.59000 1206.672
31.60000 1122.461
31.61000 1040.003
31.62000 977.637
31.63000 920.970
31.64000 866.599
31.65000 827.911
31.66000 792.183
31.67000 762.463
31.68000 713.512
31.69000 671.103
31.70000 635.711
31.71000 621.251
31.72000 608.188
31.73000 596.865
31.74000 589.092
31.75000 581.424
31.76000 576.963
31.77000 548.241
31.78000 527.960
31.79000 510.990
31.80000 497.007
31.81000 483.131
31.82000 476.288
31.83000 473.669
31.84000 471.130
31.85000 462.977
31.86000 453.083
31.87000 443.774
31.88000 441.024
31.89000 440.107
31.90000 437.663
31.91000 424.978
31.92000 410.392
31.93000 398.294
31.94000 401.382
31.95000 405.393
31.96000 407.211
31.97000 402.578
31.98000 397.526
31.99000 394.924
32.00000 397.248
32.01000 399.712
32.02000 401.136
32.03000 403.318
32.04000 404.846
32.05000 401.647
32.06000 394.254
32.07000 386.957
32.08000 385.543
32.09000 387.610
32.10000 389.610
32.11000 383.468
32.12000 374.555
32.13000 366.260
32.14000 364.737
32.15000 365.078
32.16000 364.825
32.17000 360.655
32.18000 355.770
32.19000 351.730
32.20000 353.234
32.21000 354.996
32.22000 356.906
32.23000 359.248
32.24000 361.617
32.25000 364.709
32.26000 369.237
32.27000 373.803
32.28000 376.423
32.29000 375.157
32.30000 374.255
32.31000 370.343
32.32000 363.803
32.33000 357.288
32.34000 352.244
32.35000 348.058
32.36000 344.011
32.37000 347.530
32.38000 353.694
32.39000 359.272
32.40000 358.556
32.41000 356.135
32.42000 353.968
32.43000 353.450
32.44000 353.227
32.45000 353.044
32.46000 345.576
32.47000 338.758
32.48000 334.827
32.49000 339.137
32.50000 343.956
32.51000 345.414
32.52000 340.308
32.53000 335.030
32.54000 332.022
32.55000 338.524
32.56000 343.087
32.57000 345.851
32.58000 347.070
32.59000 348.302
32.60000 350.222
32.61000 352.538
32.62000 354.773
32.63000 354.402
32.64000 353.088
32.65000 351.902
32.66000 352.054
32.67000 352.564
32.68000 352.286
32.69000 346.991
32.70000 340.810
32.71000 335.730
32.72000 342.904
32.73000 349.901
32.74000 352.933
32.75000 344.800
32.76000 335.996
32.77000 333.469
32.78000 343.024
32.79000 352.882
32.80000 358.460
32.81000 346.159
32.82000 337.561
32.83000 335.163
32.84000 338.006
32.85000 340.746
32.86000 338.065
32.87000 332.316
32.88000 326.771
32.89000 326.481
32.90000 328.121
32.91000 329.356
32.92000 326.430
32.93000 322.409
32.94000 319.561
32.95000 324.051
32.96000 329.816
32.97000 334.539
32.98000 325.666
32.99000 317.192
33.00000 312.326
33.01000 317.470
33.02000 323.199
33.03000 326.892
33.04000 326.722
33.05000 326.459
33.06000 326.311
33.07000 331.941
33.08000 335.847
33.09000 332.594
33.10000 323.387
33.11000 314.289
33.12000 310.621
33.13000 309.981
33.14000 309.364
33.15000 311.650
33.16000 314.836
33.17000 317.755
33.18000 317.985
33.19000 317.519
33.20000 317.616
33.21000 321.182
33.22000 325.340
33.23000 328.736
33.24000 318.549
33.25000 309.042
33.26000 303.691
33.27000 309.708
33.28000 316.371
33.29000 321.083
33.30000 322.147
33.31000 323.127
33.32000 323.674
33.33000 325.824
33.34000 327.304
33.35000 323.912
33.36000 316.532
33.37000 309.363
33.38000 312.229
33.39000 320.611
33.40000 328.677
33.41000 328.810
33.42000 326.139
33.43000 323.704
33.44000 323.604
33.45000 324.098
33.46000 324.046
33.47000 320.686
33.48000 316.771
33.49000 313.583
33.50000 314.768
33.51000 316.104
33.52000 315.485
33.53000 309.601
33.54000 303.425
33.55000 301.108
33.56000 305.903
33.57000 310.853
33.58000 313.595
33.59000 305.415
33.60000 299.757
33.61000 297.711
33.62000 298.575
33.63000 299.534
33.64000 304.827
33.65000 312.468
33.66000 319.810
33.67000 318.515
33.68000 314.307
33.69000 310.386
33.70000 309.252
33.71000 308.819
33.72000 308.399
33.73000 308.062
33.74000 307.739
33.75000 307.476
33.76000 311.587
33.77000 315.299
33.78000 316.353
33.79000 310.349
33.80000 303.965
33.81000 300.099
33.82000 300.806
33.83000 301.608
33.84000 302.049
33.85000 298.126
33.86000 295.429
33.87000 296.249
33.88000 299.858
33.89000 303.316
33.90000 300.163
33.91000 293.481
33.92000 287.068
33.93000 293.308
33.94000 303.462
33.95000 312.864
33.96000 315.149
33.97000 315.672
33.98000 315.417
33.99000 310.618
34.00000 305.082
34.01000 300.604
34.02000 300.952
34.03000 301.623
34.04000 302.194
34.05000 302.498
34.06000 302.788
34.07000 302.400
34.08000 300.798
34.09000 299.171
34.10000 298.283
34.11000 295.162
34.12000 293.034
34.13000 295.901
34.14000 302.668
34.15000 309.230
34.16000 307.268
34.17000 300.821
34.18000 294.642
34.19000 293.964
34.20000 295.180
34.21000 296.886
34.22000 303.141
34.23000 310.505
34.24000 316.656
34.25000 315.836
34.26000 313.903
34.27000 312.345
34.28000 309.191
34.29000 306.504
34.30000 303.903
34.31000 301.525
34.32000 299.159
34.33000 298.020
34.34000 299.046
34.35000 300.112
34.36000 300.690
34.37000 296.742
34.38000 294.040
34.39000 293.086
34.40000 293.474
34.41000 293.799
34.42000 291.572
34.43000 288.021
34.44000 284.622
34.45000 285.823
34.46000 288.463
34.47000 291.089
34.48000 293.583
34.49000 296.045
34.50000 298.010
34.51000 297.162
34.52000 295.874
34.53000 294.839
34.54000 293.594
34.55000 292.569
34.56000 290.008
34.57000 283.545
34.58000 276.889
34.59000 275.268
34.60000 282.393
34.61000 289.676
34.62000 293.593
34.63000 293.610
34.64000 293.628
34.65000 295.613
34.66000 299.087
34.67000 302.414
34.68000 300.167
34.69000 295.073
34.70000 290.202
34.71000 292.167
34.72000 296.220
34.73000 299.905
34.74000 300.306
34.75000 299.931
34.76000 298.648
34.77000 292.328
34.78000 285.231
34.79000 279.547
34.80000 286.649
34.81000 293.356
34.82000 297.301
34.83000 294.323
34.84000 291.013
34.85000 290.412
34.86000 294.449
34.87000 298.565
34.88000 300.762
34.89000 291.732
34.90000 285.600
34.91000 285.345
34.92000 289.467
34.93000 293.469
34.94000 293.081
34.95000 290.481
34.96000 287.999
34.97000 290.706
34.98000 294.881
34.99000 298.305
35.00000 295.170
35.01000 290.507
35.02000 286.439
35.03000 285.621
35.04000 285.295
35.05000 285.034
35.06000 280.255
35.07000 276.064
35.08000 273.200
35.09000 273.610
35.10000 274.173
35.11000 275.038
35.12000 276.410
35.13000 277.790
35.14000 278.521
35.15000 283.469
35.16000 286.827
35.17000 288.878
35.18000 289.969
35.19000 290.951
35.20000 288.071
35.21000 283.275
35.22000 278.702
35.23000 275.929
35.24000 273.924
35.25000 272.612
35.26000 277.240
35.27000 283.231
35.28000 288.638
35.29000 290.911
35.30000 292.719
35.31000 294.157
35.32000 283.118
35.33000 273.329
35.34000 267.504
35.35000 271.336
35.36000 275.603
35.37000 278.795
35.38000 280.199
35.39000 281.575
35.40000 282.299
35.41000 281.381
35.42000 280.746
35.43000 278.284
35.44000 274.503
35.45000 270.848
35.46000 271.480
35.47000 274.208
35.48000 276.806
35.49000 277.353
35.50000 277.224
35.51000 276.643
35.52000 272.260
35.53000 267.019
35.54000 262.821
35.55000 264.137
35.56000 266.259
35.57000 267.941
35.58000 263.438
35.59000 259.383
35.60000 258.917
35.61000 267.067
35.62000 275.594
35.63000 281.832
35.64000 284.325
35.65000 286.763
35.66000 288.034
35.67000 287.794
35.68000 287.625
35.69000 286.733
35.70000 285.326
35.71000 283.852
35.72000 280.230
35.73000 275.572
35.74000 271.143
35.75000 272.078
35.76000 274.579
35.77000 276.356
35.78000 272.171
35.79000 266.661
35.80000 262.113
35.81000 262.573
35.82000 263.751
35.83000 264.682
35.84000 271.629
35.85000 277.617
35.86000 281.286
35.87000 279.466
35.88000 277.415
35.89000 276.313
35.90000 276.745
35.91000 277.197
35.92000 277.430
35.93000 280.821
35.94000 283.078
35.95000 281.369
35.96000 276.884
35.97000 272.375
35.98000 267.124
35.99000 261.522
36.00000 256.203
36.01000 261.995
36.02000 270.677
36.03000 277.655
36.04000 270.855
36.05000 261.040
36.06000 254.627
36.07000 265.625
36.08000 279.077
36.09000 289.667
36.10000 281.480
36.11000 273.669
36.12000 269.462
36.13000 273.658
36.14000 278.198
36.15000 278.598
36.16000 272.419
36.17000 266.155
36.18000 262.943
36.19000 267.319
36.20000 270.258
36.21000 272.630
36.22000 274.612
36.23000 276.505
36.24000 275.685
36.25000 273.596
36.26000 271.615
36.27000 276.565
36.28000 283.173
36.29000 288.553
36.30000 284.186
36.31000 277.721
36.32000 271.876
36.33000 269.155
36.34000 266.866
36.35000 265.071
36.36000 269.391
36.37000 273.243
36.38000 274.305
36.39000 268.953
36.40000 263.347
36.41000 260.916
36.42000 263.456
36.43000 266.056
36.44000 267.378
36.45000 271.203
36.46000 273.763
36.47000 275.855
36.48000 277.628
36.49000 279.373
36.50000 280.294
36.51000 280.835
36.52000 281.347
36.53000 280.420
36.54000 279.149
36.55000 278.183
36.56000 279.586
36.57000 281.492
36.58000 283.208
36.59000 283.987
36.60000 284.638
36.61000 285.147
36.62000 284.066
36.63000 283.103
36.64000 282.980
36.65000 284.761
36.66000 286.615
36.67000 287.570
36.68000 287.137
36.69000 286.689
36.70000 286.463
36.71000 284.528
36.72000 283.254
36.73000 284.065
36.74000 286.272
36.75000 288.465
36.76000 290.266
36.77000 291.889
36.78000 293.424
36.79000 292.301
36.80000 290.511
36.81000 288.514
36.82000 284.945
36.83000 281.046
36.84000 277.403
36.85000 275.004
36.86000 272.771
36.87000 271.031
36.88000 279.165
36.89000 286.253
36.90000 291.238
36.91000 291.525
36.92000 291.639
36.93000 291.308
36.94000 290.304
36.95000 289.292
36.96000 288.786
36.97000 293.332
36.98000 296.316
36.99000 294.640
37.00000 289.893
37.01000 285.115
37.02000 279.507
37.03000 273.526
37.04000 267.879
37.05000 267.200
37.06000 267.972
37.07000 269.117
37.08000 273.066
37.09000 277.591
37.10000 281.939
37.11000 285.441
37.12000 288.833
37.13000 291.465
37.14000 288.789
37.15000 286.341
37.16000 281.989
37.17000 273.444
37.18000 264.748
37.19000 262.166
37.20000 268.732
37.21000 275.386
37.22000 275.720
37.23000 269.836
37.24000 264.041
37.25000 266.184
37.26000 273.481
37.27000 280.426
37.28000 278.144
37.29000 271.785
37.30000 265.791
37.31000 264.626
37.32000 264.895
37.33000 264.703
37.34000 261.113
37.35000 256.836
37.36000 254.742
37.37000 262.957
37.38000 272.498
37.39000 279.875
37.40000 268.082
37.41000 257.601
37.42000 254.866
37.43000 268.936
37.44000 283.586
37.45000 289.121
37.46000 281.222
37.47000 273.203
37.48000 269.902
37.49000 271.166
37.50000 272.451
37.51000 275.465
37.52000 279.585
37.53000 283.427
37.54000 280.237
37.55000 273.984
37.56000 268.100
37.57000 268.240
37.58000 270.007
37.59000 271.630
37.60000 272.206
37.61000 272.574
37.62000 273.195
37.63000 274.993
37.64000 276.940
37.65000 278.440
37.66000 272.516
37.67000 267.401
37.68000 263.826
37.69000 263.545
37.70000 263.373
37.71000 263.811
37.72000 265.135
37.73000 266.466
37.74000 270.642
37.75000 277.524
37.76000 284.276
37.77000 280.801
37.78000 270.884
37.79000 261.558
37.80000 266.700
37.81000 278.054
37.82000 288.723
37.83000 287.014
37.84000 282.144
37.85000 277.741
37.86000 276.657
37.87000 276.222
37.88000 274.568
37.89000 267.333
37.90000 259.407
37.91000 253.325
37.92000 254.904
37.93000 256.579
37.94000 259.192
37.95000 263.782
37.96000 268.434
37.97000 272.590
37.98000 276.037
37.99000 279.478
38.00000 277.252
38.01000 269.728
38.02000 262.326
38.03000 263.924
38.04000 271.109
38.05000 278.145
38.06000 281.665
38.07000 283.695
38.08000 285.601
38.09000 288.507
38.10000 291.419
38.11000 294.279
38.12000 296.772
38.13000 299.195
38.14000 300.993
38.15000 299.974
38.16000 298.612
38.17000 297.571
38.18000 298.243
38.19000 298.865
38.20000 299.810
38.21000 301.423
38.22000 303.057
38.23000 302.939
38.24000 300.355
38.25000 297.754
38.26000 299.174
38.27000 304.293
38.28000 309.382
38.29000 312.412
38.30000 314.183
38.31000 315.978
38.32000 318.301
38.33000 320.846
38.34000 323.229
38.35000 326.992
38.36000 330.772
38.37000 333.788
38.38000 331.576
38.39000 328.373
38.40000 328.011
38.41000 340.251
38.42000 353.993
38.43000 364.458
38.44000 380.840
38.45000 394.047
38.46000 405.847
38.47000 414.766
38.48000 423.599
38.49000 426.553
38.50000 421.358
38.51000 416.112
38.52000 414.123
38.53000 415.082
38.54000 416.082
38.55000 419.807
38.56000 425.172
38.57000 430.787
38.58000 441.934
38.59000 455.357
38.60000 467.909
38.61000 463.457
38.62000 455.085
38.63000 447.675
38.64000 446.736
38.65000 447.003
38.66000 446.803
38.67000 444.561
38.68000 442.080
38.69000 440.198
38.70000 435.034
38.71000 430.809
38.72000 427.429
38.73000 425.755
38.74000 424.130
38.75000 420.764
38.76000 415.021
38.77000 409.268
38.78000 399.586
38.79000 386.423
38.80000 373.366
38.81000 366.910
38.82000 364.372
38.83000 361.746
38.84000 357.222
38.85000 351.930
38.86000 346.989
38.87000 341.020
38.88000 335.352
38.89000 329.559
38.90000 322.941
38.91000 316.172
38.92000 309.314
38.93000 302.073
38.94000 294.788
38.95000 289.283
38.96000 298.175
38.97000 305.866
38.98000 306.889
38.99000 294.653
39.00000 282.054
39.01000 276.274
39.02000 279.659
39.03000 283.091
39.04000 283.955
39.05000 282.571
39.06000 281.109
39.07000 275.049
39.08000 266.302
39.09000 257.770
39.10000 253.752
39.11000 251.538
39.12000 249.474
39.13000 252.214
39.14000 255.877
39.15000 259.050
39.16000 259.043
39.17000 258.463
39.18000 257.465
39.19000 254.696
39.20000 251.729
39.21000 249.496
39.22000 255.535
39.23000 260.661
39.24000 260.735
39.25000 250.910
39.26000 240.824
39.27000 238.439
39.28000 246.245
39.29000 254.095
39.30000 254.584
39.31000 248.741
39.32000 243.012
39.33000 243.706
39.34000 248.102
39.35000 252.267
39.36000 251.763
39.37000 249.422
39.38000 247.243
39.39000 249.438
39.40000 252.482
39.41000 254.204
39.42000 247.489
39.43000 239.278
39.44000 233.708
39.45000 239.145
39.46000 245.795
39.47000 250.780
39.48000 242.960
39.49000 236.250
39.50000 234.494
39.51000 242.310
39.52000 250.367
39.53000 253.720
39.54000 250.944
39.55000 248.145
39.56000 246.681
39.57000 246.351
39.58000 246.000
39.59000 244.500
39.60000 242.347
39.61000 240.214
39.62000 238.479
39.63000 236.899
39.64000 235.430
39.65000 235.970
39.66000 236.934
39.67000 237.685
39.68000 237.090
39.69000 236.262
39.70000 236.437
39.71000 240.738
39.72000 245.483
39.73000 249.027
39.74000 248.848
39.75000 248.539
39.76000 246.339
39.77000 240.541
39.78000 234.656
39.79000 235.271
39.80000 244.220
39.81000 253.192
39.82000 251.576
39.83000 241.154
39.84000 230.988
39.85000 233.751
39.86000 243.750
39.87000 253.168
39.88000 251.482
39.89000 245.547
39.90000 240.045
39.91000 237.854
39.92000 236.658
39.93000 236.168
39.94000 240.041
39.95000 244.663
39.96000 247.326
39.97000 242.072
39.98000 235.980
39.99000 231.450
40.00000 229.632
40.01000 228.338
40.02000 228.313
40.03000 230.666
40.04000 233.074
40.05000 234.516
40.06000 234.737
40.07000 234.955
40.08000 236.033
40.09000 237.813
40.10000 239.556
40.11000 239.556
40.12000 238.593
40.13000 237.721
40.14000 238.532
40.15000 239.979
40.16000 241.318
40.17000 242.456
40.18000 243.433
40.19000 243.778
40.20000 240.289
40.21000 236.153
40.22000 233.657
40.23000 237.691
40.24000 242.402
40.25000 245.891
40.26000 240.972
40.27000 236.790
40.28000 234.712
40.29000 236.519
40.30000 238.413
40.31000 239.524
40.32000 239.662
40.33000 239.798
40.34000 236.561
40.35000 230.622
40.36000 224.779
40.37000 223.336
40.38000 224.285
40.39000 225.189
40.40000 225.300
40.41000 225.115
40.42000 224.945
40.43000 226.355
40.44000 227.978
40.45000 229.321
40.46000 229.000
40.47000 228.404
40.48000 228.052
40.49000 228.660
40.50000 229.366
40.51000 229.886
40.52000 227.449
40.53000 225.437
40.54000 224.918
40.55000 227.118
40.56000 229.375
40.57000 232.645
40.58000 237.156
40.59000 241.662
40.60000 240.729
40.61000 235.491
40.62000 230.332
40.63000 228.669
40.64000 228.878
40.65000 229.042
40.66000 228.419
40.67000 227.508
40.68000 226.668
40.69000 232.830
40.70000 239.908
40.71000 244.893
40.72000 237.601
40.73000 228.309
40.74000 220.171
40.75000 216.492
40.76000 213.257
40.77000 210.882
40.78000 215.408
40.79000 219.187
40.80000 221.214
40.81000 220.096
40.82000 218.915
40.83000 218.704
40.84000 219.662
40.85000 220.620
40.86000 218.538
40.87000 214.096
40.88000 209.781
40.89000 210.792
40.90000 214.614
40.91000 218.203
40.92000 217.793
40.93000 215.940
40.94000 214.234
40.95000 217.274
40.96000 221.032
40.97000 224.767
40.98000 228.372
40.99000 231.957
41.00000 234.335
41.01000 232.125
41.02000 229.468
41.03000 227.525
41.04000 228.633
41.05000 229.608
41.06000 228.635
41.07000 224.218
41.08000 219.734
41.09000 217.698
41.10000 218.561
41.11000 219.427
41.12000 221.165
41.13000 223.561
41.14000 225.917
41.15000 226.624
41.16000 226.473
41.17000 226.233
41.18000 224.515
41.19000 222.270
41.20000 220.207
41.21000 218.966
41.22000 218.036
41.23000 217.214
41.24000 217.008
41.25000 216.899
41.26000 217.396
41.27000 220.164
41.28000 223.148
41.29000 225.322
41.30000 223.812
41.31000 222.508
41.32000 221.678
41.33000 221.673
41.34000 221.682
41.35000 221.677
41.36000 221.654
41.37000 221.631
41.38000 218.261
41.39000 212.387
41.40000 206.728
41.41000 209.306
41.42000 216.104
41.43000 222.566
41.44000 223.544
41.45000 222.600
41.46000 221.735
41.47000 215.950
41.48000 209.755
41.49000 205.138
41.50000 209.325
41.51000 214.873
41.52000 219.865
41.53000 222.801
41.54000 225.546
41.55000 227.535
41.56000 223.814
41.57000 220.743
41.58000 218.099
41.59000 216.187
41.60000 214.288
41.61000 215.036
41.62000 218.819
41.63000 222.595
41.64000 224.720
41.65000 225.606
41.66000 226.396
41.67000 223.676
41.68000 219.183
41.69000 214.984
41.70000 215.425
41.71000 217.468
41.72000 219.340
41.73000 216.723
41.74000 213.463
41.75000 211.311
41.76000 215.234
41.77000 220.081
41.78000 223.285
41.79000 220.510
41.80000 217.189
41.81000 214.793
41.82000 208.008
41.83000 202.649
41.84000 199.896
41.85000 201.552
41.86000 203.279
41.87000 206.979
41.88000 212.904
41.89000 218.811
41.90000 217.686
41.91000 211.436
41.92000 205.345
41.93000 204.910
41.94000 207.291
41.95000 209.565
41.96000 210.197
41.97000 210.271
41.98000 210.338
41.99000 212.805
42.00000 215.486
42.01000 217.830
42.02000 218.353
42.03000 218.605
42.04000 218.528
42.05000 217.278
42.06000 215.923
42.07000 214.948
42.08000 218.269
42.09000 220.959
42.10000 222.376
42.11000 221.669
42.12000 220.930
42.13000 219.512
42.14000 217.342
42.15000 215.180
42.16000 216.166
42.17000 219.404
42.18000 222.475
42.19000 219.800
42.20000 214.306
42.21000 209.269
42.22000 211.078
42.23000 215.184
42.24000 218.929
42.25000 215.487
42.26000 210.991
42.27000 207.486
42.28000 209.234
42.29000 211.752
42.30000 213.918
42.31000 214.840
42.32000 215.654
42.33000 216.236
42.34000 221.053
42.35000 224.873
42.36000 225.660
42.37000 221.465
42.38000 217.197
42.39000 212.647
42.40000 207.788
42.41000 202.949
42.42000 203.722
42.43000 208.453
42.44000 212.986
42.45000 211.038
42.46000 205.956
42.47000 201.280
42.48000 202.554
42.49000 205.797
42.50000 208.748
42.51000 211.692
42.52000 214.297
42.53000 216.504
42.54000 216.632
42.55000 216.460
42.56000 215.539
42.57000 212.007
42.58000 208.253
42.59000 205.579
42.60000 215.374
42.61000 223.243
42.62000 225.273
42.63000 217.853
42.64000 210.303
42.65000 205.267
42.66000 202.929
42.67000 200.602
42.68000 203.114
42.69000 208.965
42.70000 214.736
42.71000 217.957
42.72000 219.963
42.73000 221.792
42.74000 221.099
42.75000 219.583
42.76000 218.206
42.77000 216.907
42.78000 215.775
42.79000 215.359
42.80000 218.617
42.81000 222.396
42.82000 225.893
42.83000 228.428
42.84000 230.882
42.85000 232.622
42.86000 224.958
42.87000 218.836
42.88000 214.733
42.89000 213.848
42.90000 213.004
42.91000 212.510
42.92000 212.386
42.93000 212.263
42.94000 214.076
42.95000 217.195
42.96000 220.109
42.97000 216.796
42.98000 210.557
42.99000 205.061
43.00000 209.923
43.01000 218.112
43.02000 225.534
43.03000 221.157
43.04000 215.048
43.05000 210.186
43.06000 211.630
43.07000 213.951
43.08000 216.336
43.09000 218.939
43.10000 221.560
43.11000 223.410
43.12000 224.400
43.13000 225.125
43.14000 224.088
43.15000 220.284
43.16000 216.447
43.17000 213.905
43.18000 212.709
43.19000 211.519
43.20000 212.758
43.21000 215.616
43.22000 218.322
43.23000 216.565
43.24000 212.742
43.25000 209.238
43.26000 210.071
43.27000 212.277
43.28000 214.272
43.29000 213.727
43.30000 212.772
43.31000 211.365
43.32000 207.714
43.33000 203.758
43.34000 200.524
43.35000 199.697
43.36000 199.061
43.37000 198.615
43.38000 202.397
43.39000 205.384
43.40000 209.358
43.41000 214.859
43.42000 220.377
43.43000 221.110
43.44000 216.955
43.45000 212.823
43.46000 209.170
43.47000 205.881
43.48000 202.773
43.49000 204.766
43.50000 209.087
43.51000 212.904
43.52000 210.021
43.53000 205.047
43.54000 200.557
43.55000 203.001
43.56000 206.423
43.57000 209.171
43.58000 208.619
43.59000 207.624
43.60000 206.868
43.61000 206.896
43.62000 206.986
43.63000 207.048
43.64000 204.001
43.65000 201.611
43.66000 202.364
43.67000 207.908
43.68000 213.502
43.69000 213.738
43.70000 208.591
43.71000 203.476
43.72000 203.395
43.73000 206.598
43.74000 209.679
43.75000 209.420
43.76000 207.659
43.77000 205.887
43.78000 203.985
43.79000 202.042
43.80000 200.292
43.81000 203.324
43.82000 206.848
43.83000 209.879
43.84000 210.537
43.85000 210.883
43.86000 210.408
43.87000 207.279
43.88000 203.949
43.89000 201.631
43.90000 208.027
43.91000 213.088
43.92000 215.883
43.93000 215.278
43.94000 214.639
43.95000 213.367
43.96000 211.469
43.97000 209.583
43.98000 208.545
43.99000 208.066
44.00000 207.550
44.01000 206.045
44.02000 204.101
44.03000 202.549
44.04000 205.962
44.05000 210.879
44.06000 215.299
44.07000 216.049
44.08000 216.055
44.09000 215.316
44.10000 211.045
44.11000 206.318
44.12000 203.111
44.13000 204.739
44.14000 206.727
44.15000 208.103
44.16000 210.551
44.17000 212.421
44.18000 214.104
44.19000 215.511
44.20000 216.916
44.21000 216.876
44.22000 215.435
44.23000 214.003
44.24000 213.950
44.25000 214.768
44.26000 215.586
44.27000 216.403
44.28000 217.218
44.29000 218.155
44.30000 220.593
44.31000 223.480
44.32000 226.069
44.33000 221.174
44.34000 215.591
44.35000 211.688
44.36000 215.625
44.37000 220.555
44.38000 225.462
44.39000 230.295
44.40000 235.122
44.41000 238.449
44.42000 235.332
44.43000 232.830
44.44000 233.786
44.45000 239.781
44.46000 245.819
44.47000 253.971
44.48000 264.142
44.49000 274.236
44.50000 277.237
44.51000 275.779
44.52000 274.255
44.53000 271.117
44.54000 267.284
44.55000 264.504
44.56000 274.462
44.57000 288.166
44.58000 300.433
44.59000 311.173
44.60000 320.282
44.61000 328.935
44.62000 335.487
44.63000 341.778
44.64000 350.089
44.65000 364.644
44.66000 379.642
44.67000 389.928
44.68000 399.277
44.69000 406.259
44.70000 416.973
44.71000 433.039
44.72000 449.144
44.73000 452.621
44.74000 444.240
44.75000 435.928
44.76000 441.127
44.77000 454.494
44.78000 467.875
44.79000 481.575
44.80000 495.409
44.81000 508.615
44.82000 514.369
44.83000 517.964
44.84000 521.176
44.85000 521.772
44.86000 521.852
44.87000 522.899
44.88000 528.325
44.89000 534.284
44.90000 539.116
44.91000 540.516
44.92000 541.679
44.93000 542.472
44.94000 530.328
44.95000 520.947
44.96000 512.521
44.97000 505.443
44.98000 498.376
44.99000 496.170
45.00000 498.454
45.01000 500.717
45.02000 501.295
45.03000 500.847
45.04000 500.251
45.05000 496.218
45.06000 490.747
45.07000 484.887
45.08000 474.530
45.09000 462.890
45.10000 452.516
45.11000 440.933
45.12000 430.662
45.13000 422.105
45.14000 421.175
45.15000 421.157
45.16000 418.717
45.17000 409.003
45.18000 398.798
45.19000 391.869
45.20000 381.781
45.21000 374.184
45.22000 370.520
45.23000 372.328
45.24000 374.168
45.25000 367.435
45.26000 352.915
45.27000 338.530
45.28000 335.427
45.29000 339.068
45.30000 342.328
45.31000 337.031
45.32000 328.206
45.33000 319.949
45.34000 318.126
45.35000 318.111
45.36000 318.099
45.37000 307.127
45.38000 295.827
45.39000 286.731
45.40000 287.299
45.41000 289.001
45.42000 289.449
45.43000 286.187
45.44000 282.681
45.45000 280.312
45.46000 278.085
45.47000 276.430
45.48000 272.289
45.49000 264.745
45.50000 257.183
45.51000 253.604
45.52000 253.585
45.53000 253.565
45.54000 250.750
45.55000 246.363
45.56000 242.189
45.57000 242.633
45.58000 244.953
45.59000 246.650
45.60000 241.440
45.61000 234.316
45.62000 227.996
45.63000 228.852
45.64000 230.737
45.65000 231.743
45.66000 228.960
45.67000 225.740
45.68000 224.451
45.69000 228.793
45.70000 233.495
45.71000 236.655
45.72000 231.784
45.73000 227.999
45.74000 227.470
45.75000 231.331
45.76000 235.210
45.77000 233.800
45.78000 227.739
45.79000 221.742
45.80000 222.138
45.81000 226.194
45.82000 229.777
45.83000 223.398
45.84000 213.029
45.85000 203.857
45.86000 207.652
45.87000 214.986
45.88000 221.479
45.89000 217.438
45.90000 212.296
45.91000 206.019
45.92000 194.920
45.93000 183.277
45.94000 177.089
45.95000 186.581
45.96000 197.052
45.97000 204.053
45.98000 202.396
45.99000 200.997
46.00000 200.164
46.01000 200.084
46.02000 200.007
46.03000 199.151
46.04000 197.621
46.05000 196.107
46.06000 194.577
46.07000 193.074
46.08000 191.598
46.09000 190.685
46.10000 189.993
46.11000 189.634
46.12000 192.801
46.13000 196.915
46.14000 200.549
46.15000 197.262
46.16000 193.361
46.17000 190.444
46.18000 191.643
46.19000 193.297
46.20000 192.637
46.21000 185.422
46.22000 177.809
46.23000 172.744
46.24000 176.163
46.25000 178.851
46.26000 182.848
46.27000 188.554
46.28000 194.260
46.29000 194.478
46.30000 190.027
46.31000 185.627
46.32000 185.838
46.33000 188.605
46.34000 191.257
46.35000 191.629
46.36000 191.113
46.37000 190.347
46.38000 186.982
46.39000 182.929
46.40000 179.358
46.41000 172.256
46.42000 165.605
46.43000 161.251
46.44000 166.361
46.45000 172.496
46.46000 178.012
46.47000 181.797
46.48000 185.480
46.49000 187.917
46.50000 183.833
46.51000 180.701
46.52000 178.204
46.53000 176.522
46.54000 174.848
46.55000 175.466
46.56000 178.004
46.57000 180.511
46.58000 183.362
46.59000 186.328
46.60000 188.991
46.61000 185.819
46.62000 180.408
46.63000 176.002
46.64000 181.806
46.65000 190.273
46.66000 197.715
46.67000 192.904
46.68000 186.954
46.69000 182.139
46.70000 181.930
46.71000 182.211
46.72000 183.204
46.73000 186.159
46.74000 189.226
46.75000 191.245
46.76000 183.821
46.77000 178.191
46.78000 174.915
46.79000 174.622
46.80000 174.344
46.81000 176.298
46.82000 180.092
46.83000 183.837
46.84000 181.466
46.85000 175.866
46.86000 170.599
46.87000 171.563
46.88000 174.884
46.89000 177.951
46.90000 178.495
46.91000 178.390
46.92000 178.299
46.93000 181.458
46.94000 184.643
46.95000 186.427
46.96000 182.618
46.97000 178.225
46.98000 174.416
46.99000 172.188
47.00000 170.049
47.01000 168.648
47.02000 168.525
47.03000 168.456
47.04000 170.235
47.05000 174.319
47.06000 178.406
47.07000 181.130
47.08000 182.748
47.09000 184.343
47.10000 181.688
47.11000 176.854
47.12000 172.074
47.13000 168.276
47.14000 164.844
47.15000 161.845
47.16000 163.061
47.17000 165.345
47.18000 167.342
47.19000 167.903
47.20000 168.179
47.21000 168.082
47.22000 166.516
47.23000 164.800
47.24000 163.329
47.25000 162.515
47.26000 161.735
47.27000 161.228
47.28000 167.637
47.29000 172.445
47.30000 176.167
47.31000 178.556
47.32000 180.929
47.33000 178.974
47.34000 173.562
47.35000 168.228
47.36000 167.851
47.37000 170.070
47.38000 172.105
47.39000 170.874
47.40000 168.444
47.41000 166.167
47.42000 165.355
47.43000 164.908
47.44000 164.518
47.45000 164.572
47.46000 164.680
47.47000 165.182
47.48000 167.208
47.49000 169.386
47.50000 172.328
47.51000 177.281
47.52000 182.340
47.53000 185.616
47.54000 178.986
47.55000 173.987
47.56000 170.861
47.57000 169.995
47.58000 169.146
47.59000 171.347
47.60000 175.947
47.61000 180.477
47.62000 176.524
47.63000 168.338
47.64000 160.447
47.65000 157.635
47.66000 156.661
47.67000 156.229
47.68000 160.870
47.69000 166.756
47.70000 171.880
47.71000 164.370
47.72000 156.226
47.73000 151.513
47.74000 159.902
47.75000 169.574
47.76000 176.357
47.77000 175.642
47.78000 174.540
47.79000 173.830
47.80000 170.899
47.81000 168.727
47.82000 168.810
47.83000 171.572
47.84000 174.317
47.85000 171.754
47.86000 165.084
47.87000 158.520
47.88000 159.026
47.89000 163.087
47.90000 167.022
47.91000 168.848
47.92000 169.922
47.93000 170.529
47.94000 166.861
47.95000 162.159
47.96000 158.077
47.97000 160.580
47.98000 163.599
47.99000 166.206
48.00000 167.266
48.01000 168.178
48.02000 168.084
48.03000 165.415
48.04000 162.618
48.05000 160.826
48.06000 164.953
48.07000 168.037
48.08000 171.901
48.09000 176.677
48.10000 181.432
48.11000 181.173
48.12000 177.096
48.13000 173.087
48.14000 170.626
48.15000 169.017
48.16000 167.511
48.17000 167.698
48.18000 168.479
48.19000 169.132
48.20000 168.630
48.21000 167.853
48.22000 167.180
48.23000 168.176
48.24000 169.244
48.25000 169.555
48.26000 167.060
48.27000 164.303
48.28000 163.282
48.29000 166.641
48.30000 170.212
48.31000 172.486
48.32000 174.388
48.33000 175.766
48.34000 173.927
48.35000 168.384
48.36000 162.856
48.37000 161.149
48.38000 162.308
48.39000 163.447
48.40000 166.460
48.41000 170.288
48.42000 173.886
48.43000 173.826
48.44000 172.498
48.45000 171.121
48.46000 169.301
48.47000 167.378
48.48000 165.716
48.49000 166.578
48.50000 167.636
48.51000 169.083
48.52000 171.952
48.53000 174.952
48.54000 173.840
48.55000 162.505
48.56000 150.689
48.57000 143.208
48.58000 156.214
48.59000 165.891
48.60000 170.325
48.61000 168.822
48.62000 167.314
48.63000 165.875
48.64000 164.485
48.65000 163.120
48.66000 163.290
48.67000 164.194
48.68000 165.111
48.69000 166.246
48.70000 167.455
48.71000 168.265
48.72000 165.615
48.73000 162.168
48.74000 159.197
48.75000 162.459
48.76000 166.016
48.77000 168.463
48.78000 166.921
48.79000 165.020
48.80000 163.388
48.81000 162.411
48.82000 161.465
48.83000 160.870
48.84000 164.787
48.85000 167.673
48.86000 167.682
48.87000 164.485
48.88000 161.298
48.89000 160.216
48.90000 160.664
48.91000 161.104
48.92000 161.730
48.93000 162.422
48.94000 163.143
48.95000 164.304
48.96000 165.614
48.97000 166.870
48.98000 167.669
48.99000 168.364
49.00000 168.961
49.01000 170.907
49.02000 172.721
49.03000 173.562
49.04000 170.957
49.05000 168.048
49.06000 165.393
49.07000 163.349
49.08000 161.333
49.09000 160.071
49.10000 158.004
49.11000 156.503
49.12000 155.851
49.13000 156.129
49.14000 156.423
49.15000 159.051
49.16000 163.351
49.17000 167.564
49.18000 170.054
49.19000 171.646
49.20000 173.089
49.21000 172.337
49.22000 170.858
49.23000 169.322
49.24000 167.315
49.25000 165.201
49.26000 163.390
49.27000 165.385
49.28000 167.534
49.29000 168.863
49.30000 167.329
49.31000 165.549
49.32000 162.742
49.33000 157.492
49.34000 152.138
49.35000 148.806
49.36000 162.396
49.37000 172.353
49.38000 174.657
49.39000 168.711
49.40000 162.781
49.41000 159.592
49.42000 158.334
49.43000 157.102
49.44000 159.512
49.45000 163.501
49.46000 167.115
49.47000 165.343
49.48000 161.810
49.49000 158.629
49.50000 158.322
49.51000 158.647
49.52000 158.924
49.53000 155.189
49.54000 151.560
49.55000 149.764
49.56000 154.273
49.57000 159.312
49.58000 163.274
49.59000 164.708
49.60000 166.037
49.61000 166.859
49.62000 167.033
49.63000 167.152
49.64000 165.432
49.65000 161.764
49.66000 158.133
49.67000 159.245
49.68000 163.650
49.69000 167.960
49.70000 166.753
49.71000 163.100
49.72000 159.675
49.73000 159.435
49.74000 160.220
49.75000 161.425
49.76000 165.983
49.77000 171.267
49.78000 175.772
49.79000 169.435
49.80000 162.830
49.81000 159.506
49.82000 167.291
49.83000 175.989
49.84000 179.923
49.85000 172.838
49.86000 165.309
49.87000 160.682
49.88000 159.781
49.89000 159.168
49.90000 160.540
49.91000 163.979
49.92000 167.386
49.93000 166.954
49.94000 163.896
49.95000 160.907
49.96000 164.730
49.97000 171.424
49.98000 177.466
49.99000 174.587
50.00000 168.876
50.01000 163.535
50.02000 161.102
50.03000 159.289
50.04000 157.748
50.05000 159.061
50.06000 160.492
50.07000 162.620
50.08000 167.080
50.09000 171.727
50.10000 173.323
50.11000 167.966
50.12000 162.338
50.13000 158.900
50.14000 172.197
50.15000 181.846
50.16000 183.255
50.17000 176.216
50.18000 169.230
50.19000 167.854
50.20000 170.256
50.21000 172.602
50.22000 175.887
50.23000 179.441
50.24000 183.028
50.25000 187.047
50.26000 191.202
50.27000 195.503
50.28000 200.931
50.29000 206.595
50.30000 211.398
50.31000 209.905
50.32000 207.944
50.33000 206.408
50.34000 206.267
50.35000 206.236
50.36000 209.061
50.37000 218.304
50.38000 227.788
50.39000 233.546
50.40000 233.295
50.41000 233.070
50.42000 232.398
50.43000 231.278
50.44000 230.215
50.45000 234.883
50.46000 243.354
50.47000 251.617
50.48000 254.356
50.49000 254.591
50.50000 254.843
50.51000 255.309
50.52000 255.842
50.53000 256.578
50.54000 258.860
50.55000 261.462
50.56000 263.662
50.57000 259.047
50.58000 254.434
50.59000 251.187
50.60000 252.371
50.61000 253.894
50.62000 253.031
50.63000 246.884
50.64000 240.544
50.65000 236.719
50.66000 236.490
50.67000 236.352
50.68000 234.430
50.69000 230.738
50.70000 227.118
50.71000 230.053
50.72000 237.273
50.73000 244.310
50.74000 238.227
50.75000 226.856
50.76000 216.204
50.77000 214.707
50.78000 215.991
50.79000 217.210
50.80000 217.945
50.81000 218.580
50.82000 219.116
50.83000 212.709
50.84000 206.608
50.85000 200.789
50.86000 195.874
50.87000 191.026
50.88000 187.913
50.89000 188.589
50.90000 189.397
50.91000 189.882
50.92000 186.311
50.93000 183.747
50.94000 180.712
50.95000 177.218
50.96000 173.720
50.97000 169.836
50.98000 165.703
50.99000 161.680
51.00000 163.875
51.01000 168.563
51.02000 173.173
51.03000 176.800
51.04000 180.133
51.05000 182.899
51.06000 181.526
51.07000 179.324
51.08000 177.473
51.09000 172.642
51.10000 168.299
51.11000 164.760
51.12000 163.748
51.13000 162.921
51.14000 163.029
51.15000 165.149
51.16000 167.337
51.17000 168.640
51.18000 165.489
51.19000 163.229
51.20000 159.524
51.21000 154.435
51.22000 149.433
51.23000 151.419
51.24000 157.837
51.25000 164.080
51.26000 166.619
51.27000 167.513
51.28000 168.142
51.29000 165.544
51.30000 161.994
51.31000 158.530
51.32000 155.683
51.33000 152.957
51.34000 150.672
51.35000 153.861
51.36000 157.083
51.37000 158.669
51.38000 155.181
51.39000 151.331
51.40000 150.931
51.41000 157.846
51.42000 165.000
51.43000 169.235
51.44000 158.462
51.45000 150.762
51.46000 146.723
51.47000 146.131
51.48000 145.577
51.49000 147.874
51.50000 151.952
51.51000 155.915
51.52000 156.528
51.53000 155.755
51.54000 154.896
51.55000 153.008
51.56000 150.822
51.57000 148.760
51.58000 147.572
51.59000 146.553
51.60000 145.701
51.61000 148.159
51.62000 150.538
51.63000 152.752
51.64000 154.463
51.65000 156.139
51.66000 155.172
51.67000 148.680
51.68000 142.013
51.69000 138.093
51.70000 140.640
51.71000 142.468
51.72000 143.158
51.73000 142.793
51.74000 142.441
51.75000 142.999
51.76000 144.119
51.77000 145.205
51.78000 145.166
51.79000 144.681
51.80000 144.337
51.81000 145.632
51.82000 147.396
51.83000 148.910
51.84000 148.692
51.85000 148.144
51.86000 147.688
51.87000 145.022
51.88000 142.593
51.89000 141.028
51.90000 142.064
51.91000 143.276
51.92000 145.837
51.93000 151.178
51.94000 156.604
51.95000 159.773
51.96000 147.191
51.97000 138.269
51.98000 136.867
51.99000 142.320
52.00000 147.758
52.01000 152.180
52.02000 155.987
52.03000 159.678
52.04000 155.529
52.05000 148.527
52.06000 142.296
52.07000 144.843
52.08000 149.866
52.09000 153.963
52.10000 151.774
52.11000 148.405
52.12000 145.605
52.13000 149.244
52.14000 152.881
52.15000 155.220
52.16000 153.704
52.17000 151.933
52.18000 150.776
52.19000 150.863
52.20000 150.987
52.21000 151.059
52.22000 149.648
52.23000 148.653
52.24000 149.237
52.25000 151.238
52.26000 153.164
52.27000 150.363
52.28000 144.738
52.29000 139.290
52.30000 140.921
52.31000 145.193
52.32000 148.986
52.33000 147.447
52.34000 144.425
52.35000 141.934
52.36000 142.975
52.37000 144.669
52.38000 146.072
52.39000 147.224
52.40000 148.152
52.41000 148.027
52.42000 144.823
52.43000 141.420
52.44000 139.898
52.45000 142.136
52.46000 144.480
52.47000 145.831
52.48000 148.367
52.49000 150.146
52.50000 150.572
52.51000 149.803
52.52000 149.016
52.53000 147.058
52.54000 144.411
52.55000 141.850
52.56000 147.094
52.57000 155.010
52.58000 162.303
52.59000 162.823
52.60000 161.489
52.61000 159.922
52.62000 156.834
52.63000 153.471
52.64000 150.692
52.65000 147.085
52.66000 144.035
52.67000 142.734
52.68000 146.477
52.69000 150.537
52.70000 151.300
52.71000 145.560
52.72000 139.647
52.73000 136.262
52.74000 146.490
52.75000 153.675
52.76000 156.482
52.77000 155.489
52.78000 154.464
52.79000 151.697
52.80000 147.918
52.81000 144.266
52.82000 145.510
52.83000 148.511
52.84000 151.045
52.85000 148.600
52.86000 144.812
52.87000 141.112
52.88000 137.980
52.89000 134.948
52.90000 132.452
52.91000 139.438
52.92000 146.050
52.93000 149.839
52.94000 145.607
52.95000 140.885
52.96000 139.364
52.97000 144.066
52.98000 148.927
52.99000 151.690
53.00000 149.275
53.01000 147.580
53.02000 148.404
53.03000 151.380
53.04000 154.275
53.05000 152.802
53.06000 148.833
53.07000 145.003
53.08000 148.685
53.09000 154.915
53.10000 160.536
53.11000 159.798
53.12000 157.371
53.13000 155.393
53.14000 156.257
53.15000 157.620
53.16000 158.738
53.17000 162.342
53.18000 165.523
53.19000 167.229
53.20000 164.807
53.21000 162.139
53.22000 160.598
53.23000 161.213
53.24000 161.882
53.25000 162.260
53.26000 154.448
53.27000 149.005
53.28000 148.369
53.29000 151.773
53.30000 155.120
53.31000 155.518
53.32000 154.256
53.33000 153.040
53.34000 153.449
53.35000 154.423
53.36000 155.139
53.37000 153.234
53.38000 150.642
53.39000 148.683
53.40000 150.657
53.41000 153.310
53.42000 155.481
53.43000 151.801
53.44000 148.274
53.45000 146.205
53.46000 148.162
53.47000 150.352
53.48000 150.717
53.49000 147.634
53.50000 144.470
53.51000 142.696
53.52000 144.108
53.53000 145.098
53.54000 147.540
53.55000 151.184
53.56000 154.785
53.57000 156.253
53.58000 156.537
53.59000 156.810
53.60000 154.669
53.61000 151.799
53.62000 149.426
53.63000 152.019
53.64000 155.892
53.65000 158.806
53.66000 155.856
53.67000 151.910
53.68000 148.691
53.69000 148.240
53.70000 148.108
53.71000 148.198
53.72000 148.891
53.73000 149.617
53.74000 148.355
53.75000 143.391
53.76000 138.343
53.77000 135.534
53.78000 147.108
53.79000 155.126
53.80000 156.923
53.81000 153.657
53.82000 150.451
53.83000 150.078
53.84000 151.254
53.85000 152.386
53.86000 150.072
53.87000 146.695
53.88000 143.565
53.89000 142.857
53.90000 142.764
53.91000 143.000
53.92000 145.210
53.93000 147.749
53.94000 149.814
53.95000 147.994
53.96000 146.184
53.97000 144.326
53.98000 142.342
53.99000 140.351
54.00000 139.328
54.01000 140.081
54.02000 140.873
54.03000 141.310
54.04000 143.240
54.05000 144.575
54.06000 146.284
54.07000 148.294
54.08000 150.217
54.09000 148.265
54.10000 144.224
54.11000 140.343
54.12000 139.376
54.13000 139.475
54.14000 139.796
54.15000 142.245
54.16000 145.225
54.17000 147.727
54.18000 147.406
54.19000 146.621
54.20000 145.984
54.21000 144.086
54.22000 142.436
54.23000 141.130
54.24000 140.731
54.25000 140.380
54.26000 139.786
54.27000 138.752
54.28000 137.710
54.29000 137.138
54.30000 142.730
54.31000 146.580
54.32000 148.746
54.33000 149.583
54.34000 150.397
54.35000 150.206
54.36000 149.481
54.37000 148.785
54.38000 147.477
54.39000 146.045
54.40000 144.650
54.41000 143.588
54.42000 142.608
54.43000 141.455
54.44000 139.295
54.45000 136.973
54.46000 135.097
54.47000 138.952
54.48000 142.545
54.49000 145.795
54.50000 148.150
54.51000 150.459
54.52000 150.997
54.53000 148.379
54.54000 145.701
54.55000 144.242
54.56000 137.494
54.57000 132.883
54.58000 135.078
54.59000 142.558
54.60000 149.905
54.61000 151.849
54.62000 150.965
54.63000 150.118
54.64000 147.073
54.65000 143.498
54.66000 140.369
54.67000 141.354
54.68000 143.336
54.69000 145.482
54.70000 148.560
54.71000 151.786
54.72000 154.383
54.73000 151.175
54.74000 148.117
54.75000 145.400
54.76000 143.558
54.77000 141.759
54.78000 140.173
54.79000 138.959
54.80000 137.751
54.81000 137.099
54.82000 143.226
54.83000 147.411
54.84000 148.237
54.85000 146.496
54.86000 144.726
54.87000 141.863
54.88000 138.436
54.89000 135.156
54.90000 140.407
54.91000 148.102
54.92000 154.570
54.93000 149.959
54.94000 142.703
54.95000 137.183
54.96000 141.419
54.97000 147.175
54.98000 151.795
54.99000 153.847
55.00000 155.313
55.01000 156.226
55.02000 155.743
55.03000 155.192
55.04000 155.012
55.05000 155.476
55.06000 155.950
55.07000 156.205
55.08000 154.274
55.09000 152.964
55.10000 153.795
55.11000 156.238
55.12000 158.566
55.13000 156.631
55.14000 152.529
55.15000 148.609
55.16000 154.548
55.17000 163.260
55.18000 170.826
55.19000 168.236
55.20000 163.259
55.21000 159.184
55.22000 160.088
55.23000 161.756
55.24000 163.089
55.25000 168.097
55.26000 172.420
55.27000 176.015
55.28000 177.797
55.29000 179.493
55.30000 179.771
55.31000 177.633
55.32000 175.454
55.33000 174.295
55.34000 187.505
55.35000 196.481
55.36000 200.532
55.37000 200.934
55.38000 201.535
55.39000 209.353
55.40000 220.787
55.41000 231.698
55.42000 248.346
55.43000 265.631
55.44000 281.823
55.45000 288.527
55.46000 293.033
55.47000 298.170
55.48000 306.729
55.49000 315.802
55.50000 323.036
55.51000 346.170
55.52000 365.993
55.53000 382.856
55.54000 392.441
55.55000 401.691
55.56000 413.972
55.57000 431.338
55.58000 448.786
55.59000 457.999
55.60000 475.390
55.61000 487.176
55.62000 494.248
55.63000 497.881
55.64000 501.535
55.65000 505.928
55.66000 510.687
55.67000 515.222
55.68000 529.838
55.69000 546.546
55.70000 560.819
55.71000 554.363
55.72000 543.181
55.73000 532.576
55.74000 525.058
55.75000 517.995
55.76000 512.384
55.77000 516.702
55.78000 520.884
55.79000 522.601
55.80000 518.345
55.81000 513.822
55.82000 506.991
55.83000 496.345
55.84000 485.642
55.85000 480.034
55.86000 463.572
55.87000 452.387
55.88000 436.172
55.89000 416.345
55.90000 396.766
55.91000 385.456
55.92000 378.170
55.93000 371.235
55.94000 359.874
55.95000 347.994
55.96000 336.506
55.97000 328.300
55.98000 320.831
55.99000 313.410
56.00000 306.245
56.01000 299.118
56.02000 293.474
56.03000 291.859
56.04000 290.841
56.05000 286.266
56.06000 273.200
56.07000 259.766
56.08000 247.703
56.09000 237.875
56.10000 228.078
56.11000 222.985
56.12000 228.919
56.13000 232.872
56.14000 228.701
56.15000 218.783
56.16000 209.069
56.17000 205.870
56.18000 205.794
56.19000 205.723
56.20000 203.440
56.21000 200.660
56.22000 197.840
56.23000 194.688
56.24000 191.463
56.25000 188.539
56.26000 187.168
56.27000 186.020
56.28000 185.113
56.29000 186.389
56.30000 187.560
56.31000 187.500
56.32000 184.541
56.33000 181.461
56.34000 179.853
56.35000 180.608
56.36000 181.393
56.37000 181.798
56.38000 175.383
56.39000 171.070
56.40000 167.939
56.41000 165.631
56.42000 163.420
56.43000 164.214
56.44000 166.428
56.45000 168.529
56.46000 163.447
56.47000 156.616
56.48000 150.714
56.49000 152.277
56.50000 155.464
56.51000 157.549
56.52000 154.033
56.53000 149.731
56.54000 146.349
56.55000 151.588
56.56000 156.352
56.57000 158.533
56.58000 154.721
56.59000 150.666
56.60000 147.289
56.61000 144.986
56.62000 142.696
56.63000 141.524
56.64000 138.121
56.65000 135.875
56.66000 138.397
56.67000 144.189
56.68000 149.779
56.69000 149.373
56.70000 146.174
56.71000 143.141
56.72000 141.880
56.73000 141.238
56.74000 140.610
56.75000 140.085
56.76000 139.583
56.77000 139.087
56.78000 138.624
56.79000 138.166
56.80000 137.807
56.81000 142.260
56.82000 146.129
56.83000 148.112
56.84000 145.785
56.85000 143.288
56.86000 141.468
56.87000 140.704
56.88000 139.951
56.89000 139.570
56.90000 135.521
56.91000 132.841
56.92000 133.613
56.93000 136.717
56.94000 139.758
56.95000 140.945
56.96000 141.280
56.97000 141.598
56.98000 136.680
56.99000 130.646
57.00000 125.346
57.01000 125.724
57.02000 127.300
57.03000 128.756
57.04000 129.626
57.05000 130.416
57.06000 131.032
57.07000 129.095
57.08000 127.390
57.09000 126.338
57.10000 126.759
57.11000 127.236
57.12000 127.546
57.13000 127.598
57.14000 127.648
57.15000 127.673
57.16000 130.080
57.17000 131.683
57.18000 132.754
57.19000 133.472
57.20000 134.082
57.21000 131.732
57.22000 128.043
57.23000 124.556
57.24000 122.541
57.25000 121.110
57.26000 120.202
57.27000 123.277
57.28000 127.177
57.29000 130.048
57.30000 127.926
57.31000 125.142
57.32000 122.976
57.33000 124.061
57.34000 125.123
57.35000 126.931
57.36000 130.394
57.37000 133.918
57.38000 135.217
57.39000 133.152
57.40000 131.054
57.41000 127.429
57.42000 122.288
57.43000 117.209
57.44000 117.992
57.45000 122.618
57.46000 127.193
57.47000 130.428
57.48000 133.065
57.49000 135.553
57.50000 134.898
57.51000 133.419
57.52000 132.127
57.53000 132.223
57.54000 132.603
57.55000 131.998
57.56000 126.690
57.57000 120.771
57.58000 116.183
57.59000 118.936
57.60000 121.561
57.61000 123.765
57.62000 125.048
57.63000 126.299
57.64000 127.412
57.65000 128.320
57.66000 129.226
57.67000 127.535
57.68000 123.304
57.69000 119.134
57.70000 120.297
57.71000 124.903
57.72000 129.498
57.73000 133.798
57.74000 137.967
57.75000 141.894
57.76000 136.442
57.77000 128.875
57.78000 122.308
57.79000 123.067
57.80000 125.297
57.81000 127.130
57.82000 127.093
57.83000 126.819
57.84000 126.606
57.85000 130.864
57.86000 134.500
57.87000 136.760
57.88000 136.053
57.89000 135.244
57.90000 134.636
57.91000 134.321
57.92000 134.008
57.93000 133.968
57.94000 134.188
57.95000 134.369
57.96000 131.287
57.97000 126.129
57.98000 121.156
57.99000 120.824
58.00000 122.504
58.01000 124.084
58.02000 122.184
58.03000 119.508
58.04000 117.786
58.05000 122.926
58.06000 129.423
58.07000 133.384
58.08000 125.615
58.09000 116.376
58.10000 109.269
58.11000 113.471
58.12000 117.437
58.13000 120.164
58.14000 120.256
58.15000 120.262
58.16000 121.052
58.17000 122.975
58.18000 124.906
58.19000 126.226
58.20000 126.968
58.21000 127.747
58.22000 131.409
58.23000 136.876
58.24000 142.069
58.25000 140.611
58.26000 136.312
58.27000 132.274
58.28000 129.272
58.29000 126.810
58.30000 124.647
58.31000 124.601
58.32000 124.967
58.33000 125.157
58.34000 124.545
58.35000 123.834
58.36000 123.289
58.37000 127.882
58.38000 131.793
58.39000 134.393
58.40000 134.245
58.41000 134.010
58.42000 132.561
58.43000 129.386
58.44000 126.199
58.45000 122.952
58.46000 119.651
58.47000 116.394
58.48000 116.300
58.49000 118.157
58.50000 120.028
58.51000 122.201
58.52000 124.502
58.53000 126.659
58.54000 127.259
58.55000 127.399
58.56000 127.717
58.57000 129.280
58.58000 131.079
58.59000 131.854
58.60000 128.033
58.61000 123.657
58.62000 120.317
58.63000 122.639
58.64000 124.774
58.65000 126.570
58.66000 127.666
58.67000 128.741
58.68000 129.724
58.69000 130.576
58.70000 131.427
58.71000 130.527
58.72000 128.025
58.73000 125.558
58.74000 125.473
58.75000 126.836
58.76000 128.165
58.77000 128.712
58.78000 128.935
58.79000 129.143
58.80000 129.614
58.81000 130.108
58.82000 130.037
58.83000 126.112
58.84000 121.461
58.85000 117.876
58.86000 118.994
58.87000 120.669
58.88000 121.943
58.89000 118.291
58.90000 115.162
58.91000 113.146
58.92000 113.398
58.93000 113.716
58.94000 114.494
58.95000 115.906
58.96000 117.322
58.97000 119.823
58.98000 123.299
58.99000 126.716
59.00000 126.377
59.01000 123.788
59.02000 121.272
59.03000 120.375
59.04000 120.141
59.05000 119.922
59.06000 119.566
59.07000 119.209
59.08000 118.703
59.09000 117.202
59.10000 115.516
59.11000 114.619
59.12000 117.144
59.13000 120.066
59.14000 122.280
59.15000 121.965
59.16000 121.589
59.17000 121.751
59.18000 122.992
59.19000 124.264
59.20000 124.547
59.21000 123.489
59.22000 122.423
59.23000 121.590
59.24000 120.964
59.25000 120.331
59.26000 119.317
59.27000 118.078
59.28000 116.886
59.29000 116.705
59.30000 116.930
59.31000 117.141
59.32000 118.997
59.33000 121.089
59.34000 122.908
59.35000 122.933
59.36000 122.632
59.37000 123.007
59.38000 126.277
59.39000 129.876
59.40000 132.591
59.41000 123.430
59.42000 115.664
59.43000 113.407
59.44000 122.047
59.45000 130.981
59.46000 135.129
59.47000 132.878
59.48000 130.595
59.49000 128.649
59.50000 126.999
59.51000 125.335
59.52000 122.822
59.53000 119.817
59.54000 117.008
59.55000 118.268
59.56000 121.145
59.57000 123.825
59.58000 126.081
59.59000 128.017
59.60000 129.598
59.61000 128.880
59.62000 127.751
59.63000 126.580
59.64000 125.235
59.65000 123.872
59.66000 122.847
59.67000 121.392
59.68000 120.234
59.69000 119.027
59.70000 117.725
59.71000 116.421
59.72000 115.198
59.73000 114.083
59.74000 112.969
59.75000 114.198
59.76000 117.428
59.77000 120.608
59.78000 121.003
59.79000 119.802
59.80000 118.759
59.81000 120.894
59.82000 124.275
59.83000 127.418
59.84000 121.339
59.85000 113.629
59.86000 107.348
59.87000 110.137
59.88000 114.525
59.89000 118.468
59.90000 120.571
59.91000 122.472
59.92000 123.895
59.93000 127.050
59.94000 129.594
59.95000 129.326
59.96000 123.657
59.97000 117.854
59.98000 116.871
59.99000 122.134
60.00000 127.418
60.01000 129.093
60.02000 127.727
60.03000 126.354
60.04000 124.587
60.05000 122.596
60.06000 120.721
60.07000 121.091
60.08000 122.328
60.09000 123.476
60.10000 121.225
60.11000 118.391
60.12000 116.210
60.13000 118.104
60.14000 120.704
60.15000 122.428
60.16000 120.579
60.17000 118.346
60.18000 116.681
60.19000 115.308
60.20000 114.251
60.21000 115.665
60.22000 121.757
60.23000 127.960
60.24000 129.302
60.25000 124.441
60.26000 119.563
60.27000 120.217
60.28000 125.445
60.29000 130.584
60.30000 131.293
60.31000 129.536
60.32000 127.834
60.33000 127.188
60.34000 126.944
60.35000 126.718
60.36000 122.956
60.37000 118.748
60.38000 114.883
60.39000 113.128
60.40000 111.731
60.41000 110.549
60.42000 110.233
60.43000 110.008
60.44000 109.841
60.45000 114.556
60.46000 118.436
60.47000 119.877
60.48000 116.765
60.49000 113.549
60.50000 113.500
60.51000 117.425
60.52000 121.357
60.53000 122.461
60.54000 121.257
60.55000 120.075
60.56000 119.952
60.57000 120.409
60.58000 120.779
60.59000 119.543
60.60000 117.705
60.61000 116.004
60.62000 114.509
60.63000 113.212
60.64000 112.260
60.65000 113.388
60.66000 114.865
60.67000 116.623
60.68000 119.496
60.69000 122.483
60.70000 124.692
60.71000 125.935
60.72000 126.858
60.73000 126.325
60.74000 123.112
60.75000 119.841
60.76000 119.495
60.77000 122.761
60.78000 126.033
60.79000 125.824
60.80000 122.830
60.81000 119.920
60.82000 120.843
60.83000 123.838
60.84000 126.671
60.85000 126.611
60.86000 125.481
60.87000 124.438
60.88000 128.926
60.89000 134.196
60.90000 138.506
60.91000 137.125
60.92000 134.807
60.93000 132.174
60.94000 128.312
60.95000 124.326
60.96000 121.391
60.97000 123.166
60.98000 124.735
60.99000 126.025
61.00000 126.807
61.01000 127.580
61.02000 126.985
61.03000 124.729
61.04000 122.472
61.05000 119.667
61.06000 116.442
61.07000 113.331
61.08000 115.163
61.09000 119.628
61.10000 123.924
61.11000 125.274
61.12000 125.551
61.13000 125.807
61.14000 125.632
61.15000 125.381
61.16000 125.785
61.17000 130.010
61.18000 134.855
61.19000 138.702
61.20000 138.716
61.21000 138.352
61.22000 138.085
61.23000 137.630
61.24000 137.271
61.25000 138.196
61.26000 141.415
61.27000 144.679
61.28000 144.656
61.29000 140.698
61.30000 136.741
61.31000 133.080
61.32000 129.669
61.33000 126.323
61.34000 125.645
61.35000 126.368
61.36000 127.138
61.37000 128.710
61.38000 130.568
61.39000 132.278
61.40000 134.927
61.41000 137.499
61.42000 139.518
61.43000 138.367
61.44000 136.711
61.45000 135.380
61.46000 135.276
61.47000 135.291
61.48000 135.302
61.49000 146.501
61.50000 155.571
61.51000 166.367
61.52000 180.201
61.53000 194.091
61.54000 212.547
61.55000 236.383
61.56000 260.170
61.57000 284.655
61.58000 309.524
61.59000 334.334
61.60000 356.836
61.61000 378.143
61.62000 398.656
61.63000 406.042
61.64000 408.783
61.65000 411.299
61.66000 421.925
61.67000 433.139
61.68000 443.485
61.69000 448.938
61.70000 453.624
61.71000 454.768
61.72000 442.699
61.73000 429.380
61.74000 419.696
61.75000 407.649
61.76000 398.291
61.77000 386.307
61.78000 369.767
61.79000 353.147
61.80000 333.713
61.81000 311.018
61.82000 288.380
61.83000 261.916
61.84000 232.762
61.85000 203.987
61.86000 189.606
61.87000 182.565
61.88000 175.451
61.89000 167.162
61.90000 158.463
61.91000 150.489
61.92000 146.868
61.93000 144.557
61.94000 142.777
61.95000 143.942
61.96000 145.561
61.97000 147.275
61.98000 149.341
61.99000 151.440
62.00000 152.959
62.01000 146.863
62.02000 141.904
62.03000 138.852
62.04000 139.056
62.05000 139.316
62.06000 140.893
62.07000 143.972
62.08000 147.044
62.09000 150.637
62.10000 154.588
62.11000 158.386
62.12000 156.645
62.13000 152.121
62.14000 147.815
62.15000 146.949
62.16000 147.265
62.17000 147.555
62.18000 151.819
62.19000 156.431
62.20000 160.023
62.21000 158.054
62.22000 155.246
62.23000 153.023
62.24000 152.921
62.25000 153.012
62.26000 153.077
62.27000 146.877
62.28000 141.904
62.29000 140.365
62.30000 144.606
62.31000 148.939
62.32000 150.254
62.33000 148.184
62.34000 146.118
62.35000 146.102
62.36000 147.573
62.37000 149.111
62.38000 152.973
62.39000 157.987
62.40000 162.709
62.41000 162.993
62.42000 161.773
62.43000 160.659
62.44000 155.492
62.45000 150.084
62.46000 145.501
62.47000 145.346
62.48000 145.849
62.49000 146.405
62.50000 147.152
62.51000 147.916
62.52000 148.465
62.53000 144.337
62.54000 141.020
62.55000 138.254
62.56000 136.403
62.57000 134.566
62.58000 135.864
62.59000 140.624
62.60000 145.368
62.61000 145.954
62.62000 143.565
62.63000 141.258
62.64000 141.695
62.65000 143.472
62.66000 145.064
62.67000 143.889
62.68000 141.791
62.69000 139.878
62.70000 141.102
62.71000 142.811
62.72000 144.265
62.73000 144.370
62.74000 144.278
62.75000 143.932
62.76000 142.691
62.77000 141.374
62.78000 140.433
62.79000 140.262
62.80000 140.158
62.81000 140.531
62.82000 141.687
62.83000 142.853
62.84000 143.346
62.85000 143.107
62.86000 142.870
62.87000 144.899
62.88000 148.502
62.89000 151.991
62.90000 151.788
62.91000 149.809
62.92000 147.912
62.93000 147.201
62.94000 146.881
62.95000 146.590
62.96000 148.592
62.97000 150.813
62.98000 152.637
62.99000 152.402
63.00000 151.872
63.01000 150.708
63.02000 147.350
63.03000 143.807
63.04000 141.287
63.05000 144.017
63.06000 146.264
63.07000 146.989
63.08000 145.264
63.09000 143.507
63.10000 142.515
63.11000 142.342
63.12000 142.169
63.13000 140.916
63.14000 138.929
63.15000 137.077
63.16000 139.426
63.17000 143.768
63.18000 147.665
63.19000 145.262
63.20000 140.816
63.21000 136.780
63.22000 137.556
63.23000 139.169
63.24000 141.355
63.25000 146.472
63.26000 152.001
63.27000 155.177
63.28000 150.334
63.29000 144.826
63.30000 140.927
63.31000 142.067
63.32000 143.090
63.33000 144.574
63.34000 146.792
63.35000 149.019
63.36000 151.241
63.37000 153.458
63.38000 155.664
63.39000 154.716
63.40000 151.634
63.41000 148.700
63.42000 150.242
63.43000 153.876
63.44000 157.097
63.45000 154.618
63.46000 150.316
63.47000 146.420
63.48000 144.991
63.49000 144.198
63.50000 144.047
63.51000 147.119
63.52000 150.636
63.53000 152.774
63.54000 150.282
63.55000 147.415
63.56000 145.395
63.57000 140.629
63.58000 136.934
63.59000 136.499
63.60000 141.160
63.61000 145.881
63.62000 148.983
63.63000 150.411
63.64000 151.831
63.65000 150.844
63.66000 148.256
63.67000 145.805
63.68000 147.326
63.69000 150.677
63.70000 153.799
63.71000 153.852
63.72000 152.938
63.73000 152.112
63.74000 152.504
63.75000 153.075
63.76000 153.228
63.77000 151.310
63.78000 149.112
63.79000 148.234
63.80000 151.728
63.81000 155.569
63.82000 158.262
63.83000 161.517
63.84000 163.996
63.85000 163.011
63.86000 156.694
63.87000 150.318
63.88000 150.091
63.89000 156.107
63.90000 162.089
63.91000 164.434
63.92000 164.351
63.93000 164.241
63.94000 163.395
63.95000 162.213
63.96000 161.078
63.97000 160.548
63.98000 160.206
63.99000 159.897
64.00000 160.619
64.01000 161.440
64.02000 161.746
64.03000 159.543
64.04000 157.006
64.05000 155.503
64.06000 157.372
64.07000 159.503
64.08000 160.989
64.09000 162.216
64.10000 163.135
64.11000 163.726
64.12000 163.818
64.13000 163.905
64.14000 163.353
64.15000 162.163
64.16000 160.981
64.17000 162.339
64.18000 165.325
64.19000 168.263
64.20000 169.897
64.21000 170.948
64.22000 171.838
64.23000 170.649
64.24000 168.824
64.25000 167.182
64.26000 167.564
64.27000 168.264
64.28000 168.747
64.29000 168.194
64.30000 167.507
64.31000 168.273
64.32000 173.710
64.33000 179.501
64.34000 183.523
64.35000 173.468
64.36000 165.513
64.37000 162.130
64.38000 165.575
64.39000 169.085
64.40000 170.957
64.41000 171.220
64.42000 171.482
64.43000 170.211
64.44000 167.982
64.45000 165.837
64.46000 165.903
64.47000 166.943
64.48000 167.939
64.49000 168.374
64.50000 168.640
64.51000 168.878
64.52000 172.340
64.53000 175.939
64.54000 179.918
64.55000 185.690
64.56000 191.693
64.57000 195.706
64.58000 193.416
64.59000 190.662
64.60000 188.759
64.61000 189.730
64.62000 190.534
64.63000 191.173
64.64000 191.569
64.65000 191.963
64.66000 195.036
64.67000 200.695
64.68000 206.313
64.69000 204.675
64.70000 198.508
64.71000 192.608
64.72000 193.414
64.73000 197.136
64.74000 200.607
64.75000 200.997
64.76000 200.473
64.77000 200.003
64.78000 202.808
64.79000 205.827
64.80000 208.890
64.81000 212.160
64.82000 215.455
64.83000 218.496
64.84000 220.740
64.85000 222.927
64.86000 224.432
64.87000 223.074
64.88000 221.984
64.89000 223.921
64.90000 230.243
64.91000 236.601
64.92000 239.342
64.93000 238.649
64.94000 237.961
64.95000 244.423
64.96000 255.191
64.97000 265.987
64.98000 277.486
64.99000 289.286
65.00000 300.566
65.01000 305.600
65.02000 308.807
65.03000 311.676
65.04000 320.128
65.05000 328.448
65.06000 337.687
65.07000 351.119
65.08000 365.069
65.09000 379.423
65.10000 395.021
65.11000 410.706
65.12000 421.444
65.13000 450.968
65.14000 473.523
65.15000 493.121
65.16000 508.501
65.17000 523.851
65.18000 547.980
65.19000 580.304
65.20000 612.358
65.21000 636.944
65.22000 656.538
65.23000 675.860
65.24000 688.766
65.25000 698.963
65.26000 709.019
65.27000 717.428
65.28000 725.362
65.29000 732.443
65.30000 732.972
65.31000 732.338
65.32000 734.042
65.33000 746.262
65.34000 759.756
65.35000 768.787
65.36000 764.287
65.37000 758.860
65.38000 755.164
65.39000 754.439
65.40000 753.966
65.41000 752.993
65.42000 751.319
65.43000 749.638
65.44000 743.189
65.45000 732.363
65.46000 721.632
65.47000 711.124
65.48000 700.953
65.49000 690.978
65.50000 685.514
65.51000 681.927
65.52000 677.827
65.53000 667.843
65.54000 656.188
65.55000 645.810
65.56000 647.439
65.57000 650.825
65.58000 654.688
65.59000 660.656
65.60000 666.876
65.61000 675.311
65.62000 690.365
65.63000 705.861
65.64000 716.365
65.65000 767.890
65.66000 807.209
65.67000 858.466
65.68000 926.241
65.69000 994.149
65.70000 1107.047
65.71000 1260.580
65.72000 1412.661
65.73000 1602.389
65.74000 1810.421
65.75000 2017.988
65.76000 2215.268
65.77000 2408.326
65.78000 2598.955
65.79000 2762.295
65.80000 2918.001
65.81000 3056.344
65.82000 3155.474
65.83000 3235.130
65.84000 3307.083
65.85000 3345.451
65.86000 3379.906
65.87000 3399.184
65.88000 3373.789
65.89000 3345.484
65.90000 3326.395
65.91000 3261.669
65.92000 3212.550
65.93000 3128.487
65.94000 2996.818
65.95000 2864.839
65.96000 2690.321
65.97000 2478.007
65.98000 2267.827
65.99000 2059.747
66.00000 1857.354
66.01000 1655.586
66.02000 1467.205
66.03000 1284.239
66.04000 1106.293
66.05000 983.522
66.06000 875.954
66.07000 780.600
66.08000 731.448
66.09000 696.208
66.10000 661.328
66.11000 627.998
66.12000 594.846
66.13000 565.802
66.14000 548.680
66.15000 532.316
66.16000 521.336
66.17000 520.337
66.18000 519.797
66.19000 516.471
66.20000 509.409
66.21000 502.341
66.22000 508.796
66.23000 527.070
66.24000 545.149
66.25000 561.313
66.26000 576.018
66.27000 591.621
66.28000 625.918
66.29000 667.668
66.30000 709.358
66.31000 750.409
66.32000 791.286
66.33000 827.439
66.34000 860.093
66.35000 887.769
66.36000 910.542
66.37000 912.591
66.38000 912.319
66.39000 914.953
66.40000 925.899
66.41000 937.360
66.42000 945.009
66.43000 938.425
66.44000 933.272
66.45000 933.896
66.46000 942.147
66.47000 950.413
66.48000 943.755
66.49000 924.261
66.50000 904.988
66.51000 868.199
66.52000 822.448
66.53000 777.000
66.54000 737.693
66.55000 700.798
66.56000 664.724
66.57000 637.277
66.58000 612.138
66.59000 589.955
66.60000 557.140
66.61000 527.211
66.62000 502.081
66.63000 496.928
66.64000 493.969
66.65000 490.201
66.66000 484.151
66.67000 477.963
66.68000 473.855
66.69000 476.906
66.70000 479.294
66.71000 478.152
66.72000 472.419
66.73000 466.668
66.74000 461.223
66.75000 456.037
66.76000 450.913
66.77000 452.321
66.78000 457.304
66.79000 462.247
66.80000 466.399
66.81000 470.245
66.82000 472.866
66.83000 462.868
66.84000 449.545
66.85000 437.816
66.86000 440.052
66.87000 444.069
66.88000 448.786
66.89000 456.376
66.90000 464.275
66.91000 470.508
66.92000 472.116
66.93000 473.452
66.94000 474.335
66.95000 472.171
66.96000 470.522
66.97000 468.443
66.98000 465.814
66.99000 463.194
67.00000 465.915
67.01000 473.086
67.02000 480.166
67.03000 487.932
67.04000 495.868
67.05000 503.150
67.06000 497.957
67.07000 488.002
67.08000 479.220
67.09000 482.289
67.10000 488.433
67.11000 493.828
67.12000 489.803
67.13000 484.959
67.14000 482.270
67.15000 488.280
67.16000 495.207
67.17000 501.482
67.18000 505.973
67.19000 510.362
67.20000 513.245
67.21000 511.157
67.22000 509.536
67.23000 506.396
67.24000 501.342
67.25000 496.296
67.26000 497.233
67.27000 503.074
67.28000 508.838
67.29000 513.190
67.30000 516.667
67.31000 520.512
67.32000 531.180
67.33000 544.415
67.34000 555.994
67.35000 551.208
67.36000 542.239
67.37000 534.381
67.38000 520.382
67.39000 507.485
67.40000 498.551
67.41000 505.372
67.42000 513.821
67.43000 522.565
67.44000 532.105
67.45000 541.688
67.46000 547.950
67.47000 559.446
67.48000 567.973
67.49000 571.520
67.50000 568.891
67.51000 566.241
67.52000 562.086
67.53000 556.717
67.54000 551.424
67.55000 550.321
67.56000 551.456
67.57000 552.703
67.58000 555.953
67.59000 559.946
67.60000 564.114
67.61000 569.972
67.62000 576.255
67.63000 581.746
67.64000 578.405
67.65000 574.293
67.66000 570.681
67.67000 569.023
67.68000 567.563
67.69000 568.404
67.70000 575.366
67.71000 582.658
67.72000 587.397
67.73000 592.338
67.74000 595.962
67.75000 594.995
67.76000 588.423
67.77000 581.870
67.78000 584.926
67.79000 595.614
67.80000 606.146
67.81000 605.589
67.82000 599.299
67.83000 593.623
67.84000 598.719
67.85000 607.752
67.86000 616.535
67.87000 622.953
67.88000 628.784
67.89000 633.867
67.90000 629.264
67.91000 623.983
67.92000 617.905
67.93000 608.749
67.94000 599.288
67.95000 595.104
67.96000 604.752
67.97000 615.125
67.98000 621.829
67.99000 631.476
68.00000 638.572
68.01000 641.435
68.02000 639.215
68.03000 637.007
68.04000 640.873
68.05000 649.486
68.06000 657.966
68.07000 662.764
68.08000 665.535
68.09000 668.569
68.10000 676.108
68.11000 685.269
68.12000 693.643
68.13000 694.698
68.14000 693.966
68.15000 693.329
68.16000 690.410
68.17000 687.608
68.18000 687.453
68.19000 697.356
68.20000 708.235
68.21000 718.094
68.22000 725.319
68.23000 732.409
68.24000 736.965
68.25000 726.526
68.26000 718.703
68.27000 719.930
68.28000 731.855
68.29000 743.791
68.30000 753.758
68.31000 762.212
68.32000 770.529
68.33000 776.659
68.34000 781.495
68.35000 786.258
68.36000 789.816
68.37000 792.946
68.38000 795.721
68.39000 795.259
68.40000 794.019
68.41000 792.943
68.42000 803.342
68.43000 813.733
68.44000 825.519
68.45000 842.519
68.46000 860.015
68.47000 880.404
68.48000 908.159
68.49000 936.279
68.50000 954.251
68.51000 960.218
68.52000 964.404
68.53000 976.334
68.54000 997.274
68.55000 1018.218
68.56000 1037.318
68.57000 1055.020
68.58000 1072.421
68.59000 1103.441
68.60000 1140.165
68.61000 1177.704
68.62000 1228.428
68.63000 1283.765
68.64000 1339.584
68.65000 1399.712
68.66000 1460.859
68.67000 1513.769
68.68000 1602.062
68.69000 1681.763
68.70000 1761.198
68.71000 1839.648
68.72000 1918.007
68.73000 2001.165
68.74000 2096.365
68.75000 2192.144
68.76000 2253.010
68.77000 2335.468
68.78000 2395.618
68.79000 2476.069
68.80000 2579.755
68.81000 2683.479
68.82000 2789.524
68.83000 2897.301
68.84000 3003.161
68.85000 3183.456
68.86000 3393.765
68.87000 3610.934
68.88000 3936.226
68.89000 4298.806
68.90000 4707.895
68.91000 5524.192
68.92000 6435.415
68.93000 7221.854
68.94000 9730.348
68.95000 12080.480
68.96000 14876.359
68.97000 19290.582
68.98000 23852.180
68.99000 28944.717
69.00000 35350.594
69.01000 41817.695
69.02000 45903.883
69.03000 53827.371
69.04000 59613.715
69.05000 64364.426
69.06000 67948.930
69.07000 71525.813
69.08000 73953.563
69.09000 75537.344
69.10000 77091.672
69.11000 78300.727
69.12000 79301.148
69.13000 80311.164
69.14000 81468.398
69.15000 82675.672
69.16000 83811.859
69.17000 84337.734
69.18000 84723.516
69.19000 85055.609
69.20000 83672.883
69.21000 82285.391
69.22000 80354.305
69.23000 76478.922
69.24000 72430.313
69.25000 68041.039
69.26000 62821.176
69.27000 57563.770
69.28000 54261.164
69.29000 49591.129
69.30000 46199.750
69.31000 43680.941
69.32000 42128.750
69.33000 40580.395
69.34000 39539.203
69.35000 38864.781
69.36000 38203.457
69.37000 37102.023
69.38000 35833.828
69.39000 34521.820
69.40000 32553.713
69.41000 30365.836
69.42000 28085.010
69.43000 25021.482
69.44000 21781.082
69.45000 18998.977
69.46000 15654.939
69.47000 12758.250
69.48000 10096.054
69.49000 8260.154
69.50000 6496.267
69.51000 5020.413
69.52000 4236.755
69.53000 3483.424
69.54000 3012.967
69.55000 2565.532
69.56000 2243.030
69.57000 2014.201
69.58000 1887.449
69.59000 1760.904
69.60000 1657.650
69.61000 1570.982
69.62000 1486.070
69.63000 1409.288
69.64000 1339.221
69.65000 1270.396
69.66000 1219.696
69.67000 1174.979
69.68000 1131.261
69.69000 1095.786
69.70000 1062.145
69.71000 1033.339
69.72000 1002.260
69.73000 975.759
69.74000 950.559
69.75000 929.878
69.76000 909.581
69.77000 892.717
69.78000 883.982
69.79000 875.591
69.80000 870.383
69.81000 831.282
69.82000 802.810
69.83000 780.652
69.84000 765.262
69.85000 749.887
69.86000 736.125
69.87000 723.496
69.88000 711.134
69.89000 695.920
69.90000 680.006
69.91000 664.839
69.92000 660.303
69.93000 659.225
69.94000 657.025
69.95000 645.732
69.96000 632.446
69.97000 621.101
69.98000 617.337
69.99000 615.068
70.00000 610.111
