20.00000 486.465
20.01000 487.960
20.02000 489.669
20.03000 490.530
20.04000 488.051
20.05000 485.229
20.06000 483.146
20.07000 485.919
20.08000 488.275
20.09000 489.206
20.10000 487.526
20.11000 485.791
20.12000 485.093
20.13000 485.672
20.14000 486.254
20.15000 490.777
20.16000 498.422
20.17000 505.790
20.18000 500.849
20.19000 489.282
20.20000 478.124
20.21000 474.221
20.22000 472.988
20.23000 471.851
20.24000 481.807
20.25000 493.215
20.26000 503.086
20.27000 503.887
20.28000 503.203
20.29000 500.606
20.30000 490.583
20.31000 479.816
20.32000 471.898
20.33000 484.932
20.34000 495.878
20.35000 499.654
20.36000 490.493
20.37000 481.068
20.38000 476.412
20.39000 477.530
20.40000 478.659
20.41000 480.665
20.42000 483.350
20.43000 486.002
20.44000 487.292
20.45000 487.860
20.46000 488.612
20.47000 492.537
20.48000 497.614
20.49000 502.291
20.50000 494.577
20.51000 484.947
20.52000 475.778
20.53000 469.280
20.54000 463.214
20.55000 459.752
20.56000 466.261
20.57000 473.748
20.58000 479.231
20.59000 485.113
20.60000 489.671
20.61000 492.646
20.62000 492.808
20.63000 492.916
20.64000 490.065
20.65000 483.689
20.66000 477.320
20.67000 473.848
20.68000 472.628
20.69000 471.449
20.70000 471.954
20.71000 473.339
20.72000 474.942
20.73000 480.222
20.74000 486.815
20.75000 492.878
20.76000 491.583
20.77000 488.835
20.78000 487.409
20.79000 493.531
20.80000 500.848
20.81000 504.876
20.82000 496.509
20.83000 486.951
20.84000 479.981
20.85000 475.354
20.86000 471.879
20.87000 469.656
20.88000 469.626
20.89000 469.637
20.90000 471.232
20.91000 474.686
20.92000 478.134
20.93000 482.275
20.94000 486.916
20.95000 491.373
20.96000 488.681
20.97000 482.306
20.98000 476.631
20.99000 482.418
21.00000 492.246
21.01000 501.265
21.02000 500.916
21.03000 498.611
21.04000 496.700
21.05000 496.996
21.06000 497.636
21.07000 497.624
21.08000 495.192
21.09000 492.533
21.10000 490.602
21.11000 492.237
21.12000 493.628
21.13000 491.306
21.14000 482.572
21.15000 473.726
21.16000 472.397
21.17000 479.740
21.18000 487.073
21.19000 489.924
21.20000 489.412
21.21000 488.868
21.22000 487.179
21.23000 484.907
21.24000 482.663
21.25000 480.863
21.26000 479.217
21.27000 477.710
21.28000 476.242
21.29000 474.944
21.30000 474.459
21.31000 478.461
21.32000 483.148
21.33000 485.309
21.34000 478.230
21.35000 470.301
21.36000 464.569
21.37000 473.940
21.38000 481.678
21.39000 487.129
21.40000 488.688
21.41000 490.182
21.42000 489.725
21.43000 487.053
21.44000 484.387
21.45000 479.221
21.46000 472.260
21.47000 465.644
21.48000 471.406
21.49000 483.362
21.50000 494.439
21.51000 491.829
21.52000 484.535
21.53000 477.866
21.54000 479.519
21.55000 482.699
21.56000 485.117
21.57000 483.399
21.58000 481.060
21.59000 482.346
21.60000 496.693
21.61000 512.216
21.62000 523.388
21.63000 503.604
21.64000 487.369
21.65000 481.457
21.66000 492.847
21.67000 504.510
21.68000 511.399
21.69000 512.958
21.70000 514.507
21.71000 511.952
21.72000 506.452
21.73000 501.221
21.74000 505.270
21.75000 513.894
21.76000 522.285
21.77000 527.147
21.78000 530.819
21.79000 534.169
21.80000 537.136
21.81000 539.691
21.82000 542.257
21.83000 544.884
21.84000 547.521
21.85000 551.169
21.86000 558.405
21.87000 565.957
21.88000 571.369
21.89000 589.572
21.90000 603.917
21.91000 612.311
21.92000 610.878
21.93000 609.299
21.94000 618.128
21.95000 638.390
21.96000 658.580
21.97000 665.605
21.98000 663.207
21.99000 661.106
22.00000 668.888
22.01000 681.471
22.02000 693.356
22.03000 694.910
22.04000 693.028
22.05000 691.315
22.06000 686.086
22.07000 680.758
22.08000 675.503
22.09000 670.630
22.10000 665.813
22.11000 663.884
22.12000 672.055
22.13000 681.097
22.14000 687.546
22.15000 675.701
22.16000 666.068
22.17000 654.066
22.18000 638.210
22.19000 622.300
22.20000 612.031
22.21000 607.855
22.22000 603.699
22.23000 597.330
22.24000 589.478
22.25000 581.857
22.26000 581.596
22.27000 584.862
22.28000 587.304
22.29000 577.866
22.30000 564.535
22.31000 552.418
22.32000 547.021
22.33000 543.562
22.34000 539.680
22.35000 533.610
22.36000 527.229
22.37000 520.426
22.38000 512.167
22.39000 503.785
22.40000 497.834
22.41000 504.658
22.42000 510.256
22.43000 508.690
22.44000 495.645
22.45000 482.447
22.46000 475.828
22.47000 476.200
22.48000 476.571
22.49000 479.791
22.50000 484.937
22.51000 489.738
22.52000 483.945
22.53000 473.150
22.54000 463.064
22.55000 462.953
22.56000 466.061
22.57000 468.880
22.58000 477.806
22.59000 486.852
22.60000 493.402
22.61000 487.261
22.62000 479.345
22.63000 472.389
22.64000 468.688
22.65000 465.255
22.66000 462.828
22.67000 464.204
22.68000 465.366
22.69000 467.345
22.70000 470.614
22.71000 473.899
22.72000 470.835
22.73000 461.135
22.74000 451.484
22.75000 449.569
22.76000 452.913
22.77000 456.042
22.78000 452.763
22.79000 446.502
22.80000 440.477
22.81000 437.701
22.82000 435.959
22.83000 434.381
22.84000 430.002
22.85000 425.616
22.86000 424.371
22.87000 438.837
22.88000 455.461
22.89000 468.370
22.90000 468.858
22.91000 468.346
22.92000 467.986
22.93000 458.629
22.94000 451.271
22.95000 444.397
22.96000 438.276
22.97000 432.163
22.98000 431.006
22.99000 434.941
23.00000 438.854
23.01000 439.262
23.02000 437.328
23.03000 435.665
23.04000 441.733
23.05000 451.347
23.06000 460.394
23.07000 461.841
23.08000 460.905
23.09000 460.060
23.10000 455.443
23.11000 450.686
23.12000 446.494
23.13000 445.089
23.14000 444.058
23.15000 441.883
23.16000 435.934
23.17000 429.687
23.18000 425.313
23.19000 428.052
23.20000 430.325
23.21000 433.242
23.22000 437.143
23.23000 441.055
23.24000 441.078
23.25000 437.171
23.26000 433.288
23.27000 432.524
23.28000 433.816
23.29000 435.045
23.30000 434.501
23.31000 433.156
23.32000 432.509
23.33000 440.990
23.34000 452.291
23.35000 462.480
23.36000 460.674
23.37000 456.908
23.38000 453.453
23.39000 451.505
23.40000 449.758
23.41000 448.962
23.42000 451.259
23.43000 453.794
23.44000 455.561
23.45000 443.619
23.46000 434.230
23.47000 431.118
23.48000 437.477
23.49000 443.933
23.50000 442.383
23.51000 432.882
23.52000 423.442
23.53000 417.946
23.54000 415.074
23.55000 412.262
23.56000 411.009
23.57000 410.451
23.58000 409.791
23.59000 407.824
23.60000 405.460
23.61000 403.333
23.62000 408.144
23.63000 413.600
23.64000 419.517
23.65000 427.635
23.66000 436.039
23.67000 441.186
23.68000 435.914
23.69000 429.861
23.70000 425.662
23.71000 421.389
23.72000 418.170
23.73000 415.522
23.74000 413.723
23.75000 411.932
23.76000 414.926
23.77000 422.594
23.78000 430.209
23.79000 431.911
23.80000 429.831
23.81000 427.966
23.82000 431.637
23.83000 437.738
23.84000 443.239
23.85000 441.248
23.86000 437.009
23.87000 433.203
23.88000 423.606
23.89000 414.196
23.90000 407.340
23.91000 412.473
23.92000 419.135
23.93000 424.018
23.94000 423.292
23.95000 422.155
23.96000 421.371
23.97000 425.893
23.98000 429.426
23.99000 430.792
24.00000 428.983
24.01000 427.147
24.02000 430.612
24.03000 439.166
24.04000 447.658
24.05000 447.517
24.06000 441.985
24.07000 436.632
24.08000 435.753
24.09000 436.810
24.10000 437.487
24.11000 433.534
24.12000 428.211
24.13000 423.444
24.14000 416.803
24.15000 410.683
24.16000 406.692
24.17000 412.535
24.18000 419.609
24.19000 425.996
24.20000 430.250
24.21000 434.352
24.22000 437.169
24.23000 434.970
24.24000 433.197
24.25000 432.001
24.26000 431.636
24.27000 431.277
24.28000 428.686
24.29000 423.988
24.30000 419.327
24.31000 417.466
24.32000 417.360
24.33000 417.244
24.34000 416.893
24.35000 416.443
24.36000 416.070
24.37000 416.636
24.38000 417.474
24.39000 418.223
24.40000 418.070
24.41000 417.784
24.42000 417.854
24.43000 419.539
24.44000 421.424
24.45000 422.826
24.46000 422.753
24.47000 422.576
24.48000 422.456
24.49000 412.485
24.50000 404.792
24.51000 403.762
24.52000 412.194
24.53000 420.693
24.54000 422.756
24.55000 418.839
24.56000 414.956
24.57000 415.606
24.58000 418.986
24.59000 422.135
24.60000 419.869
24.61000 415.324
24.62000 411.043
24.63000 409.833
24.64000 409.503
24.65000 409.209
24.66000 415.425
24.67000 421.915
24.68000 427.124
24.69000 426.603
24.70000 425.392
24.71000 423.822
24.72000 421.168
24.73000 418.441
24.74000 416.586
24.75000 415.425
24.76000 414.575
24.77000 412.117
24.78000 407.412
24.79000 402.696
24.80000 405.306
24.81000 414.609
24.82000 423.829
24.83000 425.874
24.84000 423.606
24.85000 421.053
24.86000 412.056
24.87000 400.388
24.88000 389.850
24.89000 392.215
24.90000 398.226
24.91000 403.576
24.92000 404.518
24.93000 404.617
24.94000 404.886
24.95000 405.907
24.96000 407.017
24.97000 409.951
24.98000 418.308
24.99000 427.025
25.00000 432.925
25.01000 427.448
25.02000 423.119
25.03000 418.529
25.04000 413.578
25.05000 408.625
25.06000 405.041
25.07000 402.686
25.08000 400.353
25.09000 400.651
25.10000 402.484
25.11000 404.321
25.12000 406.255
25.13000 408.229
25.14000 409.997
25.15000 409.479
25.16000 408.324
25.17000 407.299
25.18000 408.930
25.19000 410.769
25.20000 412.428
25.21000 413.305
25.22000 414.091
25.23000 414.490
25.24000 413.758
25.25000 412.953
25.26000 412.411
25.27000 408.691
25.28000 405.860
25.29000 404.596
25.30000 405.457
25.31000 406.327
25.32000 403.990
25.33000 398.817
25.34000 393.698
25.35000 394.489
25.36000 398.672
25.37000 402.841
25.38000 406.717
25.39000 410.473
25.40000 413.965
25.41000 414.561
25.42000 414.362
25.43000 414.186
25.44000 406.943
25.45000 399.564
25.46000 393.539
25.47000 393.301
25.48000 393.720
25.49000 396.305
25.50000 405.148
25.51000 414.385
25.52000 420.573
25.53000 401.923
25.54000 387.591
25.55000 384.246
25.56000 395.570
25.57000 406.961
25.58000 411.473
25.59000 410.001
25.60000 408.545
25.61000 402.499
25.62000 393.985
25.63000 385.876
25.64000 386.134
25.65000 389.714
25.66000 393.276
25.67000 396.647
25.68000 399.966
25.69000 402.899
25.70000 402.575
25.71000 401.791
25.72000 402.272
25.73000 408.079
25.74000 414.479
25.75000 418.522
25.76000 415.857
25.77000 412.779
25.78000 410.729
25.79000 412.263
25.80000 413.468
25.81000 411.335
25.82000 404.813
25.83000 398.282
25.84000 398.606
25.85000 404.799
25.86000 410.921
25.87000 410.164
25.88000 405.581
25.89000 401.204
25.90000 400.952
25.91000 402.315
25.92000 403.658
25.93000 404.796
25.94000 405.880
25.95000 406.835
25.96000 406.176
25.97000 405.364
25.98000 405.052
25.99000 406.813
26.00000 408.800
26.01000 408.776
26.02000 403.113
26.03000 397.113
26.04000 393.135
26.05000 393.851
26.06000 394.465
26.07000 393.954
26.08000 391.987
26.09000 390.020
26.10000 391.381
26.11000 395.544
26.12000 399.658
26.13000 402.423
26.14000 404.378
26.15000 406.180
26.16000 405.011
26.17000 402.698
26.18000 400.062
26.19000 394.130
26.20000 387.334
26.21000 381.356
26.22000 384.663
26.23000 388.893
26.24000 392.384
26.25000 392.867
26.26000 393.027
26.27000 393.743
26.28000 395.996
26.29000 398.339
26.30000 399.884
26.31000 400.733
26.32000 401.347
26.33000 401.957
26.34000 402.564
26.35000 403.170
26.36000 403.171
26.37000 402.671
26.38000 402.178
26.39000 398.054
26.40000 392.072
26.41000 386.310
26.42000 384.678
26.43000 384.616
26.44000 384.247
26.45000 380.792
26.46000 376.541
26.47000 372.810
26.48000 378.140
26.49000 384.044
26.50000 388.887
26.51000 389.468
26.52000 389.603
26.53000 391.527
26.54000 398.331
26.55000 405.411
26.56000 410.055
26.57000 394.819
26.58000 383.282
26.59000 379.878
26.60000 386.672
26.61000 393.496
26.62000 399.628
26.63000 405.196
26.64000 410.688
26.65000 404.452
26.66000 392.138
26.67000 380.455
26.68000 380.360
26.69000 384.607
26.70000 388.042
26.71000 383.503
26.72000 376.935
26.73000 371.184
26.74000 385.388
26.75000 400.430
26.76000 411.685
26.77000 407.955
26.78000 402.684
26.79000 398.316
26.80000 396.369
26.81000 394.555
26.82000 393.372
26.83000 392.042
26.84000 391.064
26.85000 388.746
26.86000 384.775
26.87000 380.815
26.88000 382.268
26.89000 388.067
26.90000 393.784
26.91000 389.235
26.92000 379.432
26.93000 370.316
26.94000 373.471
26.95000 381.155
26.96000 388.369
26.97000 391.049
26.98000 392.592
26.99000 393.940
27.00000 395.457
27.01000 396.779
27.02000 396.678
27.03000 391.030
27.04000 384.823
27.05000 381.255
27.06000 384.669
27.07000 388.458
27.08000 390.915
27.09000 392.267
27.10000 393.240
27.11000 392.086
27.12000 388.349
27.13000 384.623
27.14000 386.325
27.15000 392.318
27.16000 398.220
27.17000 396.910
27.18000 391.915
27.19000 387.339
27.20000 390.047
27.21000 395.405
27.22000 399.156
27.23000 387.748
27.24000 372.599
27.25000 359.402
27.26000 363.103
27.27000 368.600
27.28000 374.097
27.29000 379.600
27.30000 385.103
27.31000 386.344
27.32000 376.465
27.33000 366.007
27.34000 359.259
27.35000 362.549
27.36000 365.097
27.37000 369.130
27.38000 374.940
27.39000 380.725
27.40000 379.352
27.41000 372.410
27.42000 365.576
27.43000 367.413
27.44000 373.598
27.45000 379.482
27.46000 380.264
27.47000 379.217
27.48000 378.173
27.49000 377.170
27.50000 376.176
27.51000 375.313
27.52000 370.800
27.53000 366.456
27.54000 364.477
27.55000 371.434
27.56000 379.255
27.57000 384.827
27.58000 384.616
27.59000 384.113
27.60000 383.791
27.61000 382.576
27.62000 381.679
27.63000 384.075
27.64000 390.345
27.65000 396.605
27.66000 399.132
27.67000 398.800
27.68000 398.474
27.69000 393.219
27.70000 385.670
27.71000 378.392
27.72000 375.589
27.73000 374.368
27.74000 373.579
27.75000 376.705
27.76000 380.769
27.77000 384.291
27.78000 391.456
27.79000 398.040
27.80000 401.465
27.81000 393.121
27.82000 383.667
27.83000 377.806
27.84000 381.058
27.85000 384.756
27.86000 387.116
27.87000 381.586
27.88000 377.462
27.89000 370.082
27.90000 358.934
27.91000 347.825
27.92000 345.944
27.93000 351.021
27.94000 356.010
27.95000 363.527
27.96000 372.035
27.97000 380.442
27.98000 387.223
27.99000 393.438
28.00000 398.535
28.01000 393.712
28.02000 386.551
28.03000 380.360
28.04000 374.876
28.05000 370.309
28.06000 367.249
28.07000 369.720
28.08000 372.702
28.09000 375.787
28.10000 379.127
28.11000 382.479
28.12000 384.606
28.13000 377.862
28.14000 372.859
28.15000 367.964
28.16000 363.191
28.17000 358.451
28.18000 359.695
28.19000 365.384
28.20000 370.969
28.21000 374.260
28.22000 376.325
28.23000 378.584
28.24000 383.867
28.25000 390.190
28.26000 396.220
28.27000 399.707
28.28000 402.604
28.29000 405.103
28.30000 399.667
28.31000 394.042
28.32000 389.435
28.33000 388.510
28.34000 387.918
28.35000 386.376
28.36000 382.494
28.37000 378.504
28.38000 375.987
28.39000 379.901
28.40000 382.809
28.41000 380.879
28.42000 373.529
28.43000 366.204
28.44000 363.793
28.45000 364.975
28.46000 366.134
28.47000 364.635
28.48000 361.922
28.49000 359.918
28.50000 368.729
28.51000 381.200
28.52000 391.717
28.53000 385.553
28.54000 375.577
28.55000 366.996
28.56000 367.246
28.57000 368.565
28.58000 369.214
28.59000 367.479
28.60000 365.533
28.61000 363.300
28.62000 360.367
28.63000 357.403
28.64000 355.545
28.65000 367.433
28.66000 376.171
28.67000 377.003
28.68000 369.119
28.69000 361.269
28.70000 359.426
28.71000 361.907
28.72000 364.340
28.73000 365.431
28.74000 365.853
28.75000 366.108
28.76000 363.875
28.77000 360.812
28.78000 357.855
28.79000 355.792
28.80000 353.931
28.81000 352.333
28.82000 354.256
28.83000 356.313
28.84000 357.652
28.85000 356.475
28.86000 355.080
28.87000 354.416
28.88000 355.504
28.89000 356.668
28.90000 357.393
28.91000 367.997
28.92000 375.742
28.93000 375.548
28.94000 366.745
28.95000 357.996
28.96000 357.335
28.97000 362.407
28.98000 367.375
28.99000 360.977
29.00000 349.576
29.01000 339.292
29.02000 345.204
29.03000 356.437
29.04000 366.128
29.05000 363.147
29.06000 357.359
29.07000 352.408
29.08000 354.920
29.09000 357.938
29.10000 361.600
29.11000 367.486
29.12000 373.560
29.13000 377.026
29.14000 374.344
29.15000 371.402
29.16000 369.580
29.17000 368.759
29.18000 368.179
29.19000 366.620
29.20000 364.019
29.21000 361.416
29.22000 358.713
29.23000 355.940
29.24000 353.226
29.25000 353.158
29.26000 354.296
29.27000 355.374
29.28000 355.622
29.29000 355.601
29.30000 356.302
29.31000 362.824
29.32000 370.615
29.33000 377.263
29.34000 367.786
29.35000 357.901
29.36000 350.225
29.37000 350.066
29.38000 350.528
29.39000 350.693
29.40000 350.163
29.41000 349.605
29.42000 349.262
29.43000 361.531
29.44000 370.448
29.45000 376.996
29.46000 381.059
29.47000 385.053
29.48000 380.938
29.49000 371.247
29.50000 361.773
29.51000 365.899
29.52000 375.941
29.53000 384.837
29.54000 377.924
29.55000 365.966
29.56000 355.581
29.57000 357.636
29.58000 362.360
29.59000 366.380
29.60000 361.036
29.61000 355.460
29.62000 353.836
29.63000 365.472
29.64000 378.181
29.65000 385.385
29.66000 379.976
29.67000 374.071
29.68000 370.456
29.69000 369.770
29.70000 369.304
29.71000 373.374
29.72000 382.124
29.73000 390.808
29.74000 392.321
29.75000 388.977
29.76000 385.711
29.77000 383.607
29.78000 382.105
29.79000 380.595
29.80000 378.973
29.81000 377.317
29.82000 376.625
29.83000 383.406
29.84000 391.766
29.85000 398.861
29.86000 402.028
29.87000 404.238
29.88000 406.367
29.89000 408.227
29.90000 410.065
29.91000 413.618
29.92000 421.042
29.93000 428.612
29.94000 433.219
29.95000 435.347
29.96000 436.848
29.97000 438.711
29.98000 440.941
29.99000 443.177
30.00000 445.907
30.01000 448.967
30.02000 451.953
30.03000 456.455
30.04000 461.416
30.05000 465.907
30.06000 464.223
30.07000 460.625
30.08000 457.719
30.09000 460.085
30.10000 463.547
30.11000 466.477
30.12000 458.427
30.13000 450.467
30.14000 444.165
30.15000 443.265
30.16000 442.782
30.17000 440.075
30.18000 432.419
30.19000 424.581
30.20000 419.842
30.21000 433.443
30.22000 443.269
30.23000 441.479
30.24000 428.108
30.25000 414.791
30.26000 406.603
30.27000 401.785
30.28000 397.087
30.29000 398.573
30.30000 402.630
30.31000 405.950
30.32000 399.817
30.33000 390.796
30.34000 382.560
30.35000 380.187
30.36000 379.014
30.37000 378.023
30.38000 383.685
30.39000 389.141
30.40000 394.913
30.41000 401.698
30.42000 408.560
30.43000 409.236
30.44000 396.341
30.45000 382.964
30.46000 374.926
30.47000 382.423
30.48000 387.859
30.49000 390.972
30.50000 391.810
30.51000 392.640
30.52000 392.742
30.53000 392.372
30.54000 392.012
30.55000 393.219
30.56000 395.029
30.57000 397.142
30.58000 403.074
30.59000 410.154
30.60000 416.665
30.61000 418.989
30.62000 420.470
30.63000 421.717
30.64000 419.082
30.65000 416.470
30.66000 414.684
30.67000 415.514
30.68000 416.537
30.69000 415.211
30.70000 408.807
30.71000 402.229
30.72000 398.302
30.73000 393.164
30.74000 389.513
30.75000 389.313
30.76000 392.440
30.77000 395.638
30.78000 404.787
30.79000 417.729
30.80000 430.322
30.81000 430.569
30.82000 425.701
30.83000 421.451
30.84000 424.785
30.85000 430.367
30.86000 434.982
30.87000 432.632
30.88000 428.903
30.89000 425.773
30.90000 439.355
30.91000 452.409
30.92000 462.996
30.93000 465.892
30.94000 468.236
30.95000 470.588
30.96000 472.958
30.97000 475.328
30.98000 476.734
30.99000 497.783
31.00000 512.790
31.01000 528.796
31.02000 545.749
31.03000 562.699
31.04000 579.420
31.05000 595.997
31.06000 612.110
31.07000 632.307
31.08000 653.167
31.09000 675.698
31.10000 718.240
31.11000 766.628
31.12000 814.367
31.13000 857.505
31.14000 899.747
31.15000 935.092
31.16000 1012.263
31.17000 1080.669
31.18000 1148.471
31.19000 1214.418
31.20000 1280.235
31.21000 1360.589
31.22000 1471.482
31.23000 1583.346
31.24000 1649.281
31.25000 1782.570
31.26000 1877.011
31.27000 1981.763
31.28000 2096.125
31.29000 2210.403
31.30000 2318.398
31.31000 2422.507
31.32000 2523.594
31.33000 2623.101
31.34000 2716.921
31.35000 2808.005
31.36000 2867.017
31.37000 2916.798
31.38000 2961.529
31.39000 2971.146
31.40000 2974.028
31.41000 2976.433
31.42000 2980.593
31.43000 2984.220
31.44000 2975.544
31.45000 2929.628
31.46000 2881.166
31.47000 2823.645
31.48000 2747.369
31.49000 2670.519
31.50000 2625.519
31.51000 2462.189
31.52000 2346.610
31.53000 2236.543
31.54000 2131.532
31.55000 2026.595
31.56000 1926.755
31.57000 1830.024
31.58000 1736.200
31.59000 1633.421
31.60000 1532.476
31.61000 1432.195
31.62000 1339.516
31.63000 1248.993
31.64000 1163.154
31.65000 1109.302
31.66000 1061.485
31.67000 1021.709
31.68000 969.872
31.69000 925.779
31.70000 877.595
31.71000 817.210
31.72000 756.011
31.73000 709.033
31.74000 691.075
31.75000 673.971
31.76000 664.023
31.77000 633.719
31.78000 612.344
31.79000 592.360
31.80000 573.632
31.81000 554.921
31.82000 537.342
31.83000 520.441
31.84000 504.067
31.85000 490.330
31.86000 478.353
31.87000 466.402
31.88000 454.745
31.89000 443.170
31.90000 432.933
31.91000 431.668
31.92000 432.068
31.93000 432.399
31.94000 419.465
31.95000 407.503
31.96000 398.632
31.97000 398.849
31.98000 399.656
31.99000 401.272
32.00000 404.512
32.01000 407.799
32.02000 409.698
32.03000 392.488
32.04000 380.359
32.05000 375.589
32.06000 377.349
32.07000 379.018
32.08000 375.070
32.09000 367.798
32.10000 360.760
32.11000 361.018
32.12000 364.048
32.13000 366.967
32.14000 368.677
32.15000 370.055
32.16000 370.590
32.17000 365.574
32.18000 359.544
32.19000 354.557
32.20000 358.195
32.21000 362.007
32.22000 364.670
32.23000 364.007
32.24000 363.132
32.25000 359.418
32.26000 350.076
32.27000 340.581
32.28000 335.133
32.29000 343.970
32.30000 350.198
32.31000 354.984
32.32000 358.513
32.33000 361.948
32.34000 359.971
32.35000 354.837
32.36000 349.875
32.37000 348.772
32.38000 349.181
32.39000 349.504
32.40000 348.899
32.41000 348.043
32.42000 346.165
32.43000 337.678
32.44000 328.003
32.45000 320.027
32.46000 327.964
32.47000 335.961
32.48000 343.101
32.49000 347.793
32.50000 352.333
32.51000 353.770
32.52000 349.146
32.53000 344.363
32.54000 341.637
32.55000 338.225
32.56000 335.846
32.57000 335.227
32.58000 336.119
32.59000 336.955
32.60000 334.660
32.61000 330.566
32.62000 326.613
32.63000 331.438
32.64000 339.229
32.65000 346.335
32.66000 346.240
32.67000 344.220
32.68000 341.971
32.69000 338.267
32.70000 334.305
32.71000 331.049
32.72000 335.245
32.73000 339.363
32.74000 341.998
32.75000 340.463
32.76000 338.677
32.77000 335.634
32.78000 330.170
32.79000 324.645
32.80000 321.519
32.81000 330.253
32.82000 336.356
32.83000 338.006
32.84000 335.895
32.85000 333.728
32.86000 328.598
32.87000 321.791
32.88000 315.226
32.89000 316.756
32.90000 321.141
32.91000 325.004
32.92000 323.492
32.93000 320.566
32.94000 318.442
32.95000 321.334
32.96000 325.097
32.97000 328.181
32.98000 324.323
32.99000 320.548
33.00000 318.343
33.01000 320.497
33.02000 322.905
33.03000 323.881
33.04000 322.141
33.05000 320.336
33.06000 319.322
33.07000 327.767
33.08000 333.635
33.09000 331.934
33.10000 323.936
33.11000 316.063
33.12000 314.388
33.13000 316.171
33.14000 317.889
33.15000 312.003
33.16000 303.750
33.17000 296.131
33.18000 294.894
33.19000 295.311
33.20000 296.217
33.21000 300.127
33.22000 304.550
33.23000 308.162
33.24000 310.986
33.25000 313.228
33.26000 313.959
33.27000 310.555
33.28000 306.916
33.29000 305.073
33.30000 306.586
33.31000 308.176
33.32000 309.063
33.33000 302.117
33.34000 297.305
33.35000 297.906
33.36000 302.939
33.37000 307.937
33.38000 311.304
33.39000 313.775
33.40000 316.152
33.41000 311.606
33.42000 304.903
33.43000 298.405
33.44000 293.944
33.45000 290.002
33.46000 287.536
33.47000 293.990
33.48000 301.942
33.49000 308.415
33.50000 304.216
33.51000 299.887
33.52000 296.638
33.53000 296.301
33.54000 296.125
33.55000 293.759
33.56000 287.358
33.57000 280.869
33.58000 277.274
33.59000 281.817
33.60000 284.967
33.61000 287.310
33.62000 289.005
33.63000 290.647
33.64000 289.926
33.65000 287.925
33.66000 286.002
33.67000 288.543
33.68000 292.471
33.69000 295.782
33.70000 293.127
33.71000 288.973
33.72000 286.387
33.73000 293.126
33.74000 301.405
33.75000 308.123
33.76000 298.047
33.77000 288.448
33.78000 282.074
33.79000 284.264
33.80000 286.915
33.81000 289.997
33.82000 293.859
33.83000 297.737
33.84000 299.870
33.85000 292.183
33.86000 286.889
33.87000 286.304
33.88000 289.455
33.89000 292.687
33.90000 299.470
33.91000 308.149
33.92000 316.478
33.93000 314.385
33.94000 308.869
33.95000 303.854
33.96000 303.567
33.97000 304.450
33.98000 304.724
33.99000 301.430
34.00000 297.558
34.01000 294.426
34.02000 293.167
34.03000 292.294
34.04000 290.997
34.05000 288.589
34.06000 286.124
34.07000 285.781
34.08000 289.237
34.09000 292.769
34.10000 294.697
34.11000 300.236
34.12000 304.031
34.13000 303.992
34.14000 300.961
34.15000 298.026
34.16000 299.094
34.17000 302.268
34.18000 305.310
34.19000 299.190
34.20000 290.399
34.21000 282.947
34.22000 287.918
34.23000 295.919
34.24000 302.494
34.25000 300.881
34.26000 297.963
34.27000 295.609
34.28000 285.275
34.29000 276.254
34.30000 270.107
34.31000 271.377
34.32000 273.024
34.33000 277.091
34.34000 285.424
34.35000 293.837
34.36000 298.396
34.37000 293.352
34.38000 289.890
34.39000 287.335
34.40000 285.478
34.41000 283.554
34.42000 278.998
34.43000 273.076
34.44000 267.407
34.45000 270.413
34.46000 276.083
34.47000 281.727
34.48000 287.143
34.49000 292.505
34.50000 296.401
34.51000 292.015
34.52000 286.330
34.53000 281.762
34.54000 288.853
34.55000 295.498
34.56000 299.029
34.57000 294.641
34.58000 289.863
34.59000 287.663
34.60000 289.945
34.61000 292.307
34.62000 293.578
34.63000 282.989
34.64000 275.770
34.65000 274.389
34.66000 277.424
34.67000 280.397
34.68000 281.001
34.69000 280.395
34.70000 279.814
34.71000 278.605
34.72000 277.275
34.73000 276.259
34.74000 278.031
34.75000 280.464
34.76000 282.947
34.77000 285.709
34.78000 288.514
34.79000 290.761
34.80000 288.671
34.81000 286.655
34.82000 284.677
34.83000 282.796
34.84000 280.919
34.85000 281.274
34.86000 285.448
34.87000 289.688
34.88000 291.951
34.89000 284.545
34.90000 279.507
34.91000 277.510
34.92000 277.778
34.93000 278.068
34.94000 279.128
34.95000 280.575
34.96000 281.958
34.97000 287.843
34.98000 294.751
34.99000 300.013
35.00000 290.878
35.01000 278.392
35.02000 268.619
35.03000 273.673
35.04000 280.972
35.05000 286.797
35.06000 282.418
35.07000 278.133
35.08000 276.619
35.09000 281.951
35.10000 287.602
35.11000 288.017
35.12000 279.602
35.13000 271.044
35.14000 266.513
35.15000 270.085
35.16000 272.512
35.17000 273.926
35.18000 274.596
35.19000 275.315
35.20000 277.721
35.21000 280.965
35.22000 284.057
35.23000 285.692
35.24000 286.749
35.25000 287.178
35.26000 282.222
35.27000 276.032
35.28000 270.595
35.29000 269.207
35.30000 268.420
35.31000 267.794
35.32000 269.656
35.33000 271.335
35.34000 272.505
35.35000 272.437
35.36000 272.313
35.37000 271.662
35.38000 270.136
35.39000 268.598
35.40000 267.789
35.41000 271.127
35.42000 273.386
35.43000 274.819
35.44000 275.656
35.45000 276.489
35.46000 277.177
35.47000 277.795
35.48000 278.384
35.49000 273.472
35.50000 267.218
35.51000 262.003
35.52000 265.510
35.53000 270.985
35.54000 275.994
35.55000 278.537
35.56000 280.719
35.57000 282.448
35.58000 278.151
35.59000 274.272
35.60000 271.418
35.61000 271.020
35.62000 270.729
35.63000 270.974
35.64000 272.096
35.65000 273.230
35.66000 273.822
35.67000 270.889
35.68000 268.922
35.69000 269.440
35.70000 271.724
35.71000 274.047
35.72000 277.599
35.73000 281.745
35.74000 285.687
35.75000 278.599
35.76000 268.683
35.77000 259.700
35.78000 258.414
35.79000 258.838
35.80000 259.716
35.81000 262.952
35.82000 266.526
35.83000 269.350
35.84000 270.470
35.85000 271.252
35.86000 272.290
35.87000 273.932
35.88000 275.601
35.89000 275.413
35.90000 272.230
35.91000 269.007
35.92000 267.340
35.93000 260.137
35.94000 255.312
35.95000 254.729
35.96000 257.117
35.97000 259.457
35.98000 260.282
35.99000 260.389
36.00000 260.490
36.01000 263.627
36.02000 267.433
36.03000 270.853
36.04000 271.147
36.05000 270.757
36.06000 269.464
36.07000 263.540
36.08000 256.964
36.09000 251.788
36.10000 251.526
36.11000 251.643
36.12000 253.468
36.13000 259.272
36.14000 265.240
36.15000 268.156
36.16000 266.224
36.17000 264.229
36.18000 263.206
36.19000 257.945
36.20000 254.447
36.21000 255.780
36.22000 260.446
36.23000 264.951
36.24000 264.613
36.25000 262.007
36.26000 259.536
36.27000 263.668
36.28000 269.424
36.29000 274.302
36.30000 272.212
36.31000 268.622
36.32000 265.489
36.33000 264.661
36.34000 264.152
36.35000 263.753
36.36000 265.780
36.37000 267.558
36.38000 269.421
36.39000 271.477
36.40000 273.541
36.41000 274.560
36.42000 273.944
36.43000 273.308
36.44000 272.985
36.45000 269.636
36.46000 267.433
36.47000 269.890
36.48000 275.514
36.49000 280.748
36.50000 274.657
36.51000 263.337
36.52000 252.620
36.53000 255.193
36.54000 261.421
36.55000 266.280
36.56000 260.481
36.57000 252.423
36.58000 246.281
36.59000 249.636
36.60000 254.281
36.61000 257.912
36.62000 256.436
36.63000 254.935
36.64000 254.044
36.65000 254.532
36.66000 255.073
36.67000 256.516
36.68000 259.347
36.69000 262.194
36.70000 263.630
36.71000 258.964
36.72000 255.888
36.73000 257.333
36.74000 261.803
36.75000 266.253
36.76000 270.147
36.77000 273.788
36.78000 277.230
36.79000 271.696
36.80000 264.048
36.81000 257.921
36.82000 263.424
36.83000 271.353
36.84000 276.947
36.85000 271.156
36.86000 263.847
36.87000 258.153
36.88000 267.838
36.89000 276.502
36.90000 282.539
36.91000 282.709
36.92000 282.661
36.93000 283.061
36.94000 284.141
36.95000 285.228
36.96000 285.772
36.97000 286.913
36.98000 287.667
36.99000 287.761
37.00000 287.419
37.01000 287.081
37.02000 286.867
37.03000 286.709
37.04000 286.559
37.05000 288.430
37.06000 290.714
37.07000 292.029
37.08000 286.067
37.09000 278.611
37.10000 272.591
37.11000 273.469
37.12000 275.249
37.13000 276.631
37.14000 268.551
37.15000 261.558
37.16000 258.093
37.17000 262.395
37.18000 266.975
37.19000 269.725
37.20000 269.736
37.21000 269.720
37.22000 268.995
37.23000 267.572
37.24000 266.170
37.25000 266.772
37.26000 268.673
37.27000 270.565
37.28000 272.214
37.29000 273.756
37.30000 275.210
37.31000 269.946
37.32000 263.270
37.33000 257.239
37.34000 255.965
37.35000 255.653
37.36000 255.950
37.37000 259.122
37.38000 262.664
37.39000 265.402
37.40000 270.402
37.41000 274.501
37.42000 275.049
37.43000 267.893
37.44000 260.471
37.45000 256.252
37.46000 256.752
37.47000 257.294
37.48000 259.304
37.49000 262.732
37.50000 266.147
37.51000 268.349
37.52000 269.777
37.53000 270.980
37.54000 266.512
37.55000 259.573
37.56000 253.043
37.57000 257.550
37.58000 264.671
37.59000 270.226
37.60000 264.444
37.61000 256.409
37.62000 250.402
37.63000 253.830
37.64000 258.448
37.65000 262.005
37.66000 263.835
37.67000 265.185
37.68000 266.240
37.69000 266.664
37.70000 267.068
37.71000 267.979
37.72000 269.626
37.73000 271.279
37.74000 268.621
37.75000 261.862
37.76000 255.205
37.77000 256.595
37.78000 263.056
37.79000 269.233
37.80000 268.485
37.81000 264.764
37.82000 261.267
37.83000 266.147
37.84000 272.842
37.85000 278.256
37.86000 274.568
37.87000 269.099
37.88000 264.698
37.89000 265.179
37.90000 266.264
37.91000 267.097
37.92000 266.526
37.93000 265.997
37.94000 266.686
37.95000 269.940
37.96000 273.276
37.97000 273.128
37.98000 267.999
37.99000 262.833
38.00000 264.119
38.01000 271.439
38.02000 278.658
38.03000 278.399
38.04000 273.498
38.05000 268.798
38.06000 268.856
38.07000 270.927
38.08000 272.871
38.09000 274.982
38.10000 276.949
38.11000 278.150
38.12000 274.001
38.13000 268.822
38.14000 265.362
38.15000 269.643
38.16000 274.864
38.17000 278.855
38.18000 281.558
38.19000 283.619
38.20000 282.807
38.21000 276.025
38.22000 269.058
38.23000 267.482
38.24000 273.495
38.25000 279.560
38.26000 286.249
38.27000 293.507
38.28000 300.734
38.29000 305.717
38.30000 309.330
38.31000 312.832
38.32000 313.820
38.33000 313.759
38.34000 313.702
38.35000 317.863
38.36000 322.739
38.37000 328.062
38.38000 336.454
38.39000 345.427
38.40000 353.369
38.41000 356.737
38.42000 359.561
38.43000 361.712
38.44000 381.819
38.45000 398.595
38.46000 414.693
38.47000 429.407
38.48000 444.079
38.49000 464.946
38.50000 494.400
38.51000 523.900
38.52000 544.594
38.53000 557.304
38.54000 570.187
38.55000 594.453
38.56000 625.577
38.57000 656.550
38.58000 684.199
38.59000 710.481
38.60000 735.059
38.61000 750.743
38.62000 762.722
38.63000 776.376
38.64000 801.309
38.65000 828.342
38.66000 853.432
38.67000 870.040
38.68000 885.656
38.69000 897.502
38.70000 902.999
38.71000 906.992
38.72000 911.132
38.73000 915.570
38.74000 920.016
38.75000 914.245
38.76000 894.525
38.77000 874.732
38.78000 856.017
38.79000 838.284
38.80000 820.476
38.81000 798.031
38.82000 772.833
38.83000 747.615
38.84000 721.962
38.85000 696.133
38.86000 672.019
38.87000 644.767
38.88000 619.276
38.89000 593.895
38.90000 569.249
38.91000 544.738
38.92000 520.809
38.93000 499.390
38.94000 478.258
38.95000 462.290
38.96000 435.008
38.97000 413.055
38.98000 393.205
38.99000 377.536
39.00000 361.983
39.01000 351.399
39.02000 347.495
39.03000 343.629
39.04000 339.323
39.05000 334.639
39.06000 329.862
39.07000 319.578
39.08000 306.074
39.09000 293.007
39.10000 289.086
39.11000 288.819
39.12000 288.570
39.13000 284.149
39.14000 279.122
39.15000 274.779
39.16000 274.885
39.17000 275.792
39.18000 276.166
39.19000 274.280
39.20000 272.140
39.21000 270.529
39.22000 269.232
39.23000 268.233
39.24000 268.462
39.25000 271.100
39.26000 273.801
39.27000 272.286
39.28000 265.193
39.29000 258.078
39.30000 251.339
39.31000 244.937
39.32000 238.592
39.33000 235.468
39.34000 234.199
39.35000 233.124
39.36000 235.966
39.37000 240.351
39.38000 244.431
39.39000 244.306
39.40000 243.176
39.41000 242.858
39.42000 247.732
39.43000 253.526
39.44000 257.014
39.45000 250.883
39.46000 243.692
39.47000 238.301
39.48000 245.601
39.49000 251.900
39.50000 255.892
39.51000 255.428
39.52000 254.851
39.53000 254.526
39.54000 254.528
39.55000 254.531
39.56000 255.029
39.57000 255.944
39.58000 256.827
39.59000 255.981
39.60000 254.154
39.61000 252.217
39.62000 248.113
39.63000 243.166
39.64000 238.572
39.65000 236.189
39.66000 234.565
39.67000 233.297
39.68000 234.265
39.69000 235.622
39.70000 237.335
39.71000 240.509
39.72000 243.840
39.73000 246.327
39.74000 239.616
39.75000 233.965
39.76000 232.280
39.77000 238.146
39.78000 244.195
39.79000 247.198
39.80000 246.293
39.81000 245.374
39.82000 244.081
39.83000 242.480
39.84000 240.829
39.85000 236.665
39.86000 231.095
39.87000 225.762
39.88000 224.953
39.89000 225.875
39.90000 226.730
39.91000 231.929
39.92000 237.628
39.93000 242.430
39.94000 241.691
39.95000 240.003
39.96000 238.467
39.97000 237.548
39.98000 236.693
39.99000 236.057
40.00000 239.461
40.01000 242.289
40.02000 242.231
40.03000 236.762
40.04000 231.168
40.05000 227.786
40.06000 227.198
40.07000 226.620
40.08000 229.502
40.09000 235.207
40.10000 240.784
40.11000 240.173
40.12000 236.151
40.13000 232.400
40.14000 233.713
40.15000 236.934
40.16000 239.916
40.17000 236.393
40.18000 231.729
40.19000 228.018
40.20000 230.092
40.21000 233.141
40.22000 235.249
40.23000 233.609
40.24000 231.580
40.25000 230.077
40.26000 229.634
40.27000 229.337
40.28000 230.030
40.29000 232.557
40.30000 235.124
40.31000 233.937
40.32000 228.086
40.33000 222.230
40.34000 219.475
40.35000 219.228
40.36000 219.045
40.37000 221.769
40.38000 226.073
40.39000 230.095
40.40000 229.001
40.41000 226.006
40.42000 223.239
40.43000 221.750
40.44000 220.703
40.45000 219.469
40.46000 217.122
40.47000 214.590
40.48000 213.211
40.49000 216.347
40.50000 219.942
40.51000 222.593
40.52000 223.406
40.53000 223.958
40.54000 222.818
40.55000 218.596
40.56000 214.309
40.57000 214.029
40.58000 218.651
40.59000 223.277
40.60000 226.259
40.61000 227.927
40.62000 229.470
40.63000 225.564
40.64000 218.742
40.65000 212.476
40.66000 216.022
40.67000 223.162
40.68000 229.747
40.69000 230.326
40.70000 229.508
40.71000 228.724
40.72000 228.136
40.73000 227.580
40.74000 226.174
40.75000 221.480
40.76000 216.459
40.77000 212.772
40.78000 219.971
40.79000 225.979
40.80000 227.086
40.81000 219.396
40.82000 211.529
40.83000 208.665
40.84000 211.822
40.85000 214.986
40.86000 214.919
40.87000 212.334
40.88000 209.864
40.89000 212.226
40.90000 217.137
40.91000 221.692
40.92000 220.150
40.93000 216.408
40.94000 212.962
40.95000 214.937
40.96000 217.888
40.97000 220.390
40.98000 220.299
40.99000 219.794
41.00000 218.730
41.01000 215.542
41.02000 212.147
41.03000 209.665
41.04000 210.241
41.05000 210.807
41.06000 214.763
41.07000 224.715
41.08000 234.783
41.09000 237.477
41.10000 231.437
41.11000 225.396
41.12000 225.159
41.13000 229.374
41.14000 233.399
41.15000 229.760
41.16000 222.137
41.17000 214.950
41.18000 215.047
41.19000 217.734
41.20000 220.204
41.21000 219.028
41.22000 217.195
41.23000 215.394
41.24000 213.778
41.25000 212.191
41.26000 212.079
41.27000 217.497
41.28000 223.441
41.29000 227.770
41.30000 214.690
41.31000 203.955
41.32000 199.195
41.33000 204.852
41.34000 210.698
41.35000 215.140
41.36000 217.946
41.37000 220.743
41.38000 220.541
41.39000 218.078
41.40000 215.614
41.41000 213.122
41.42000 210.614
41.43000 208.335
41.44000 209.773
41.45000 212.514
41.46000 215.028
41.47000 215.664
41.48000 215.834
41.49000 215.089
41.50000 209.239
41.51000 202.600
41.52000 199.091
41.53000 207.144
41.54000 216.276
41.55000 222.896
41.56000 219.412
41.57000 216.361
41.58000 211.582
41.59000 203.835
41.60000 196.038
41.61000 195.797
41.62000 204.224
41.63000 212.637
41.64000 212.567
41.65000 206.203
41.66000 200.078
41.67000 202.741
41.68000 209.842
41.69000 216.685
41.70000 219.430
41.71000 220.760
41.72000 221.977
41.73000 219.539
41.74000 216.610
41.75000 214.012
41.76000 213.232
41.77000 212.729
41.78000 212.388
41.79000 212.636
41.80000 212.939
41.81000 213.158
41.82000 213.366
41.83000 213.524
41.84000 213.593
41.85000 213.511
41.86000 213.426
41.87000 212.577
41.88000 210.867
41.89000 209.162
41.90000 205.165
41.91000 199.526
41.92000 194.071
41.93000 195.151
41.94000 199.482
41.95000 203.689
41.96000 205.969
41.97000 207.592
41.98000 209.075
41.99000 210.921
42.00000 212.633
42.01000 214.561
42.02000 217.643
42.03000 220.899
42.04000 222.580
42.05000 218.621
42.06000 214.158
42.07000 210.951
42.08000 215.058
42.09000 218.456
42.10000 218.598
42.11000 213.313
42.12000 207.945
42.13000 204.885
42.14000 204.387
42.15000 203.892
42.16000 204.633
42.17000 206.253
42.18000 207.754
42.19000 205.170
42.20000 200.582
42.21000 196.519
42.22000 200.353
42.23000 206.837
42.24000 212.750
42.25000 214.817
42.26000 215.877
42.27000 216.584
42.28000 215.413
42.29000 213.966
42.30000 211.416
42.31000 204.971
42.32000 198.185
42.33000 193.331
42.34000 199.796
42.35000 205.113
42.36000 208.236
42.37000 207.755
42.38000 207.221
42.39000 206.009
42.40000 204.056
42.41000 202.110
42.42000 201.930
42.43000 202.999
42.44000 203.993
42.45000 202.553
42.46000 199.934
42.47000 197.666
42.48000 200.532
42.49000 205.095
42.50000 209.249
42.51000 209.969
42.52000 209.928
42.53000 208.918
42.54000 202.839
42.55000 196.031
42.56000 192.177
42.57000 198.600
42.58000 205.902
42.59000 211.102
42.60000 209.641
42.61000 208.310
42.62000 208.059
42.63000 209.552
42.64000 211.070
42.65000 212.747
42.66000 214.595
42.67000 216.434
42.68000 215.349
42.69000 212.242
42.70000 209.061
42.71000 203.548
42.72000 196.924
42.73000 191.021
42.74000 195.420
42.75000 203.177
42.76000 210.223
42.77000 204.533
42.78000 197.036
42.79000 191.156
42.80000 193.579
42.81000 197.177
42.82000 199.803
42.83000 199.098
42.84000 198.114
42.85000 197.416
42.86000 202.874
42.87000 207.217
42.88000 209.074
42.89000 206.965
42.90000 204.806
42.91000 204.397
42.92000 205.836
42.93000 207.268
42.94000 207.318
42.95000 206.420
42.96000 205.603
42.97000 207.250
42.98000 210.053
42.99000 212.485
43.00000 209.749
43.01000 205.352
43.02000 201.367
43.03000 202.155
43.04000 203.760
43.05000 204.709
43.06000 202.342
43.07000 199.514
43.08000 198.016
43.09000 201.013
43.10000 204.378
43.11000 206.752
43.12000 209.811
43.13000 212.153
43.14000 211.666
43.15000 206.734
43.16000 201.748
43.17000 202.374
43.18000 208.831
43.19000 215.254
43.20000 216.021
43.21000 212.969
43.22000 209.906
43.23000 206.552
43.24000 203.061
43.25000 199.816
43.26000 199.908
43.27000 201.057
43.28000 202.096
43.29000 201.238
43.30000 200.128
43.31000 199.536
43.32000 201.523
43.33000 203.860
43.34000 205.662
43.35000 205.680
43.36000 205.556
43.37000 205.469
43.38000 200.405
43.39000 196.425
43.40000 196.049
43.41000 201.249
43.42000 206.512
43.43000 207.927
43.44000 205.411
43.45000 202.909
43.46000 206.466
43.47000 213.991
43.48000 221.152
43.49000 217.997
43.50000 210.135
43.51000 202.727
43.52000 201.337
43.53000 201.826
43.54000 202.267
43.55000 199.208
43.56000 195.876
43.57000 193.695
43.58000 197.145
43.59000 201.351
43.60000 204.462
43.61000 203.985
43.62000 203.229
43.63000 202.700
43.64000 201.098
43.65000 199.857
43.66000 199.593
43.67000 200.816
43.68000 202.055
43.69000 202.725
43.70000 202.823
43.71000 202.921
43.72000 203.488
43.73000 204.352
43.74000 205.140
43.75000 203.837
43.76000 201.592
43.77000 199.157
43.78000 194.243
43.79000 188.567
43.80000 183.453
43.81000 186.516
43.82000 190.680
43.83000 193.936
43.84000 192.813
43.85000 191.115
43.86000 190.217
43.87000 191.904
43.88000 193.789
43.89000 195.100
43.90000 193.129
43.91000 191.554
43.92000 190.959
43.93000 191.837
43.94000 192.728
43.95000 194.408
43.96000 196.866
43.97000 199.307
43.98000 198.671
43.99000 196.071
44.00000 193.546
44.01000 193.035
44.02000 193.417
44.03000 194.040
44.04000 197.731
44.05000 202.350
44.06000 206.502
44.07000 205.147
44.08000 202.982
44.09000 200.066
44.10000 193.586
44.11000 186.646
44.12000 183.076
44.13000 190.232
44.14000 198.186
44.15000 203.694
44.16000 210.059
44.17000 214.871
44.18000 214.904
44.19000 207.869
44.20000 200.770
44.21000 199.497
44.22000 203.882
44.23000 208.235
44.24000 209.507
44.25000 208.815
44.26000 208.275
44.27000 211.654
44.28000 216.745
44.29000 221.152
44.30000 217.101
44.31000 210.525
44.32000 204.625
44.33000 202.199
44.34000 200.683
44.35000 199.935
44.36000 202.766
44.37000 206.051
44.38000 210.249
44.39000 217.311
44.40000 224.581
44.41000 229.591
44.42000 219.993
44.43000 212.418
44.44000 209.570
44.45000 213.604
44.46000 217.696
44.47000 218.486
44.48000 216.121
44.49000 213.774
44.50000 211.917
44.51000 210.395
44.52000 209.029
44.53000 211.483
44.54000 215.584
44.55000 219.628
44.56000 222.991
44.57000 226.153
44.58000 228.983
44.59000 225.191
44.60000 220.747
44.61000 217.450
44.62000 219.426
44.63000 222.057
44.64000 225.836
44.65000 233.167
44.66000 240.750
44.67000 245.950
44.68000 244.487
44.69000 243.230
44.70000 241.067
44.71000 237.606
44.72000 234.136
44.73000 236.232
44.74000 243.553
44.75000 250.816
44.76000 255.527
44.77000 258.594
44.78000 261.618
44.79000 263.633
44.80000 265.220
44.81000 266.612
44.82000 265.701
44.83000 264.122
44.84000 262.713
44.85000 276.378
44.86000 290.817
44.87000 304.211
44.88000 312.882
44.89000 320.977
44.90000 327.658
44.91000 330.031
44.92000 332.107
44.93000 333.524
44.94000 345.213
44.95000 354.192
44.96000 362.317
44.97000 369.234
44.98000 376.141
44.99000 378.155
45.00000 375.650
45.01000 373.167
45.02000 374.833
45.03000 378.965
45.04000 383.043
45.05000 385.892
45.06000 388.226
45.07000 390.673
45.08000 394.416
45.09000 398.529
45.10000 402.194
45.11000 388.769
45.12000 374.273
45.13000 364.413
45.14000 375.191
45.15000 388.438
45.16000 396.252
45.17000 387.753
45.18000 378.154
45.19000 371.637
45.20000 361.676
45.21000 354.168
45.22000 347.041
45.23000 340.448
45.24000 333.858
45.25000 328.823
45.26000 325.199
45.27000 321.609
45.28000 316.414
45.29000 310.373
45.30000 304.711
45.31000 307.508
45.32000 313.795
45.33000 319.048
45.34000 312.602
45.35000 302.866
45.36000 294.210
45.37000 290.167
45.38000 287.407
45.39000 284.359
45.40000 280.051
45.41000 275.594
45.42000 270.001
45.43000 261.045
45.44000 251.867
45.45000 245.667
45.46000 249.827
45.47000 253.146
45.48000 253.890
45.49000 251.106
45.50000 248.302
45.51000 246.182
45.52000 244.673
45.53000 243.179
45.54000 238.808
45.55000 232.852
45.56000 226.968
45.57000 222.644
45.58000 218.954
45.59000 215.947
45.60000 220.496
45.61000 227.139
45.62000 233.032
45.63000 226.427
45.64000 218.713
45.65000 213.183
45.66000 217.078
45.67000 222.058
45.68000 224.477
45.69000 219.430
45.70000 213.905
45.71000 210.191
45.72000 220.241
45.73000 227.990
45.74000 230.105
45.75000 224.620
45.76000 219.095
45.77000 213.555
45.78000 208.004
45.79000 202.511
45.80000 200.627
45.81000 200.857
45.82000 201.027
45.83000 199.954
45.84000 198.383
45.85000 196.970
45.86000 197.276
45.87000 198.052
45.88000 198.739
45.89000 198.943
45.90000 199.044
45.91000 198.202
45.92000 193.350
45.93000 188.045
45.94000 184.622
45.95000 186.607
45.96000 188.929
45.97000 190.482
45.98000 191.528
45.99000 192.293
46.00000 192.472
46.01000 191.873
46.02000 191.271
46.03000 191.121
46.04000 191.362
46.05000 191.600
46.06000 192.030
46.07000 192.559
46.08000 193.221
46.09000 196.606
46.10000 201.066
46.11000 204.522
46.12000 197.313
46.13000 187.238
46.14000 178.341
46.15000 178.366
46.16000 179.758
46.17000 181.710
46.18000 186.007
46.19000 190.564
46.20000 193.340
46.21000 191.074
46.22000 188.502
46.23000 186.791
46.24000 185.089
46.25000 183.831
46.26000 181.872
46.27000 178.997
46.28000 176.118
46.29000 173.720
46.30000 171.730
46.31000 169.763
46.32000 168.761
46.33000 168.319
46.34000 167.956
46.35000 169.178
46.36000 171.016
46.37000 172.814
46.38000 174.197
46.39000 175.470
46.40000 176.592
46.41000 172.628
46.42000 168.445
46.43000 165.904
46.44000 170.123
46.45000 175.075
46.46000 178.350
46.47000 176.943
46.48000 175.259
46.49000 174.144
46.50000 169.357
46.51000 165.758
46.52000 164.440
46.53000 166.057
46.54000 167.696
46.55000 174.589
46.56000 185.883
46.57000 197.037
46.58000 196.247
46.59000 188.945
46.60000 181.969
46.61000 181.309
46.62000 183.072
46.63000 184.399
46.64000 181.301
46.65000 177.050
46.66000 173.313
46.67000 176.870
46.68000 181.007
46.69000 184.187
46.70000 183.477
46.71000 182.354
46.72000 179.864
46.73000 173.612
46.74000 167.143
46.75000 162.885
46.76000 165.812
46.77000 168.090
46.78000 170.177
46.79000 172.020
46.80000 173.863
46.81000 176.086
46.82000 178.622
46.83000 181.125
46.84000 179.570
46.85000 175.871
46.86000 172.387
46.87000 172.931
46.88000 174.999
46.89000 176.798
46.90000 175.918
46.91000 174.349
46.92000 172.974
46.93000 175.471
46.94000 178.176
46.95000 180.119
46.96000 179.016
46.97000 177.595
46.98000 175.341
46.99000 170.828
47.00000 166.189
47.01000 163.152
47.02000 160.997
47.03000 159.427
47.04000 159.273
47.05000 160.884
47.06000 162.501
47.07000 164.297
47.08000 166.239
47.09000 168.154
47.10000 171.104
47.11000 174.521
47.12000 177.538
47.13000 173.302
47.14000 166.363
47.15000 160.482
47.16000 164.930
47.17000 171.992
47.18000 178.169
47.19000 177.677
47.20000 176.304
47.21000 175.433
47.22000 176.537
47.23000 177.842
47.24000 177.188
47.25000 171.300
47.26000 165.126
47.27000 161.106
47.28000 157.806
47.29000 155.398
47.30000 156.016
47.31000 160.350
47.32000 164.685
47.33000 166.021
47.34000 164.965
47.35000 163.923
47.36000 166.695
47.37000 171.376
47.38000 175.764
47.39000 174.988
47.40000 172.315
47.41000 169.815
47.42000 168.968
47.43000 168.534
47.44000 168.155
47.45000 168.704
47.46000 169.303
47.47000 169.750
47.48000 169.608
47.49000 169.408
47.50000 169.263
47.51000 169.265
47.52000 169.274
47.53000 169.280
47.54000 169.691
47.55000 169.997
47.56000 169.686
47.57000 168.628
47.58000 167.576
47.59000 168.493
47.60000 170.959
47.61000 173.388
47.62000 170.653
47.63000 165.352
47.64000 160.437
47.65000 162.166
47.66000 166.302
47.67000 169.802
47.68000 167.364
47.69000 163.467
47.70000 160.075
47.71000 157.428
47.72000 155.269
47.73000 154.428
47.74000 158.621
47.75000 163.307
47.76000 166.253
47.77000 164.683
47.78000 162.880
47.79000 161.720
47.80000 162.292
47.81000 162.733
47.82000 162.953
47.83000 162.907
47.84000 162.853
47.85000 160.959
47.86000 157.640
47.87000 154.374
47.88000 155.959
47.89000 159.944
47.90000 163.765
47.91000 164.830
47.92000 164.911
47.93000 164.954
47.94000 164.648
47.95000 164.258
47.96000 163.920
47.97000 170.030
47.98000 176.106
47.99000 180.628
48.00000 179.309
48.01000 177.431
48.02000 175.023
48.03000 171.260
48.04000 167.429
48.05000 164.976
48.06000 165.644
48.07000 166.172
48.08000 164.338
48.09000 159.741
48.10000 155.163
48.11000 155.919
48.12000 160.738
48.13000 165.476
48.14000 168.012
48.15000 169.369
48.16000 170.580
48.17000 169.410
48.18000 167.403
48.19000 165.453
48.20000 164.011
48.21000 162.691
48.22000 161.547
48.23000 162.027
48.24000 162.650
48.25000 163.934
48.26000 167.672
48.27000 171.640
48.28000 174.573
48.29000 174.898
48.30000 175.096
48.31000 175.222
48.32000 174.715
48.33000 174.339
48.34000 173.403
48.35000 171.824
48.36000 170.250
48.37000 170.040
48.38000 170.852
48.39000 171.650
48.40000 172.423
48.41000 173.157
48.42000 173.720
48.43000 171.553
48.44000 168.439
48.45000 165.558
48.46000 164.726
48.47000 164.375
48.48000 164.072
48.49000 160.466
48.50000 156.977
48.51000 154.507
48.52000 155.754
48.53000 157.342
48.54000 159.878
48.55000 164.771
48.56000 169.775
48.57000 172.944
48.58000 165.924
48.59000 160.712
48.60000 159.733
48.61000 163.548
48.62000 167.353
48.63000 168.479
48.64000 167.628
48.65000 166.792
48.66000 164.084
48.67000 160.571
48.68000 157.343
48.69000 158.551
48.70000 161.274
48.71000 163.999
48.72000 166.748
48.73000 169.501
48.74000 171.874
48.75000 166.294
48.76000 160.555
48.77000 157.702
48.78000 165.228
48.79000 173.685
48.80000 177.995
48.81000 172.144
48.82000 165.828
48.83000 161.853
48.84000 159.500
48.85000 157.815
48.86000 156.353
48.87000 155.137
48.88000 153.939
48.89000 155.532
48.90000 159.155
48.91000 162.709
48.92000 165.108
48.93000 166.872
48.94000 168.625
48.95000 170.212
48.96000 171.742
48.97000 172.777
48.98000 169.610
48.99000 165.488
49.00000 161.946
49.01000 164.357
49.02000 167.139
49.03000 168.738
49.04000 166.151
49.05000 163.195
49.06000 160.777
49.07000 159.659
49.08000 158.598
49.09000 157.935
49.10000 151.942
49.11000 147.559
49.12000 146.638
49.13000 149.511
49.14000 152.379
49.15000 154.253
49.16000 155.414
49.17000 156.553
49.18000 158.052
49.19000 159.663
49.20000 161.228
49.21000 162.126
49.22000 162.801
49.23000 163.273
49.24000 162.047
49.25000 160.442
49.26000 159.066
49.27000 155.558
49.28000 152.335
49.29000 150.812
49.30000 155.222
49.31000 160.142
49.32000 163.965
49.33000 165.177
49.34000 166.277
49.35000 166.961
49.36000 161.146
49.37000 156.893
49.38000 155.984
49.39000 158.681
49.40000 161.377
49.41000 163.661
49.42000 165.656
49.43000 167.608
49.44000 163.233
49.45000 156.121
49.46000 149.528
49.47000 150.388
49.48000 153.684
49.49000 156.456
49.50000 154.942
49.51000 152.486
49.52000 150.385
49.53000 148.361
49.54000 146.663
49.55000 145.250
49.56000 144.817
49.57000 144.466
49.58000 145.472
49.59000 149.661
49.60000 153.982
49.61000 156.655
49.62000 157.323
49.63000 157.785
49.64000 161.015
49.65000 167.182
49.66000 173.267
49.67000 168.988
49.68000 157.512
49.69000 146.285
49.70000 145.160
49.71000 148.648
49.72000 152.096
49.73000 154.991
49.74000 157.707
49.75000 159.832
49.76000 157.225
49.77000 153.591
49.78000 150.494
49.79000 149.909
49.80000 149.712
49.81000 149.119
49.82000 147.185
49.83000 145.141
49.84000 144.076
49.85000 145.276
49.86000 146.567
49.87000 147.360
49.88000 156.234
49.89000 162.667
49.90000 164.729
49.91000 162.233
49.92000 159.758
49.93000 159.766
49.94000 161.472
49.95000 163.140
49.96000 161.428
49.97000 158.284
49.98000 155.215
49.99000 153.173
50.00000 151.458
50.01000 149.872
50.02000 149.300
50.03000 148.944
50.04000 148.641
50.05000 150.906
50.06000 153.103
50.07000 154.616
50.08000 153.845
50.09000 152.891
50.10000 153.202
50.11000 156.394
50.12000 159.698
50.13000 161.717
50.14000 161.032
50.15000 160.520
50.16000 162.844
50.17000 168.075
50.18000 173.273
50.19000 174.843
50.20000 173.971
50.21000 173.118
50.22000 170.079
50.23000 166.214
50.24000 162.623
50.25000 162.699
50.26000 163.923
50.27000 164.746
50.28000 162.482
50.29000 159.569
50.30000 157.099
50.31000 158.264
50.32000 159.650
50.33000 162.337
50.34000 169.301
50.35000 176.600
50.36000 182.737
50.37000 186.260
50.38000 189.685
50.39000 191.765
50.40000 187.141
50.41000 183.789
50.42000 181.205
50.43000 179.394
50.44000 177.626
50.45000 180.103
50.46000 185.397
50.47000 190.561
50.48000 194.693
50.49000 198.195
50.50000 201.658
50.51000 204.604
50.52000 207.391
50.53000 209.909
50.54000 210.393
50.55000 210.457
50.56000 210.510
50.57000 209.610
50.58000 208.752
50.59000 210.286
50.60000 219.575
50.61000 229.457
50.62000 237.524
50.63000 241.572
50.64000 245.474
50.65000 247.828
50.66000 246.183
50.67000 244.983
50.68000 241.747
50.69000 236.495
50.70000 231.317
50.71000 233.054
50.72000 239.310
50.73000 245.407
50.74000 246.185
50.75000 244.670
50.76000 243.786
50.77000 250.936
50.78000 260.528
50.79000 268.625
50.80000 265.623
50.81000 260.363
50.82000 255.928
50.83000 253.114
50.84000 250.940
50.85000 247.789
50.86000 241.521
50.87000 235.019
50.88000 228.247
50.89000 220.885
50.90000 213.502
50.91000 209.076
50.92000 212.438
50.93000 214.877
50.94000 212.863
50.95000 206.508
50.96000 200.192
50.97000 197.217
50.98000 196.392
50.99000 195.588
51.00000 197.769
51.01000 201.094
51.02000 204.229
51.03000 205.007
51.04000 205.080
51.05000 204.880
51.06000 202.687
51.07000 200.095
51.08000 197.916
51.09000 184.699
51.10000 172.514
51.11000 164.145
51.12000 167.786
51.13000 172.304
51.14000 175.476
51.15000 175.753
51.16000 175.932
51.17000 176.039
51.18000 174.090
51.19000 172.697
51.20000 171.036
51.21000 169.119
51.22000 167.192
51.23000 164.546
51.24000 161.443
51.25000 158.424
51.26000 159.441
51.27000 162.068
51.28000 164.736
51.29000 167.915
51.30000 171.245
51.31000 173.594
51.32000 168.915
51.33000 162.852
51.34000 157.769
51.35000 150.840
51.36000 144.884
51.37000 142.327
51.38000 150.309
51.39000 159.042
51.40000 165.046
51.41000 165.264
51.42000 165.294
51.43000 165.311
51.44000 169.331
51.45000 172.194
51.46000 171.200
51.47000 166.569
51.48000 161.942
51.49000 157.618
51.50000 153.483
51.51000 149.465
51.52000 148.466
51.53000 148.739
51.54000 148.805
51.55000 146.419
51.56000 143.322
51.57000 141.277
51.58000 146.641
51.59000 153.441
51.60000 159.126
51.61000 152.682
51.62000 146.099
51.63000 142.546
51.64000 148.255
51.65000 154.609
51.66000 156.949
51.67000 150.904
51.68000 144.594
51.69000 140.884
51.70000 143.435
51.71000 145.266
51.72000 145.909
51.73000 145.451
51.74000 145.011
51.75000 145.783
51.76000 147.301
51.77000 148.775
51.78000 149.057
51.79000 148.850
51.80000 148.884
51.81000 151.722
51.82000 155.363
51.83000 158.027
51.84000 153.936
51.85000 148.557
51.86000 144.075
51.87000 140.621
51.88000 137.860
51.89000 136.798
51.90000 140.847
51.91000 145.244
51.92000 149.540
51.93000 153.629
51.94000 157.713
51.95000 160.098
51.96000 153.728
51.97000 149.207
51.98000 146.202
51.99000 144.580
52.00000 142.975
52.01000 142.512
52.02000 142.742
52.03000 142.964
52.04000 140.932
52.05000 138.124
52.06000 135.953
52.07000 141.039
52.08000 148.171
52.09000 153.516
52.10000 146.736
52.11000 137.680
52.12000 130.156
52.13000 134.186
52.14000 138.647
52.15000 142.540
52.16000 144.749
52.17000 146.847
52.18000 148.479
52.19000 149.164
52.20000 149.822
52.21000 150.204
52.22000 150.438
52.23000 150.601
52.24000 148.647
52.25000 144.796
52.26000 141.052
52.27000 144.187
52.28000 151.433
52.29000 158.450
52.30000 157.812
52.31000 154.255
52.32000 150.760
52.33000 147.949
52.34000 145.327
52.35000 143.005
52.36000 142.678
52.37000 142.720
52.38000 142.754
52.39000 141.469
52.40000 140.281
52.41000 139.794
52.42000 141.357
52.43000 143.052
52.44000 145.071
52.45000 147.739
52.46000 150.425
52.47000 151.974
52.48000 149.647
52.49000 148.004
52.50000 146.539
52.51000 145.233
52.52000 143.888
52.53000 140.176
52.54000 135.072
52.55000 130.133
52.56000 129.152
52.57000 129.728
52.58000 130.478
52.59000 133.123
52.60000 136.286
52.61000 138.976
52.62000 138.565
52.63000 137.592
52.64000 136.787
52.65000 134.608
52.66000 132.683
52.67000 132.454
52.68000 137.112
52.69000 142.077
52.70000 144.629
52.71000 142.422
52.72000 140.088
52.73000 138.752
52.74000 143.994
52.75000 147.674
52.76000 148.697
52.77000 147.413
52.78000 146.154
52.79000 146.279
52.80000 147.209
52.81000 148.107
52.82000 147.604
52.83000 146.605
52.84000 145.355
52.85000 141.413
52.86000 136.745
52.87000 133.303
52.88000 137.750
52.89000 143.607
52.90000 148.429
52.91000 147.075
52.92000 145.396
52.93000 143.915
52.94000 142.993
52.95000 142.106
52.96000 141.342
52.97000 140.815
52.98000 140.295
52.99000 139.999
53.00000 137.610
53.01000 135.938
53.02000 134.242
53.03000 132.525
53.04000 130.923
53.05000 135.517
53.06000 143.654
53.07000 151.507
53.08000 151.344
53.09000 148.243
53.10000 145.557
53.11000 147.208
53.12000 150.010
53.13000 152.450
53.14000 152.600
53.15000 152.348
53.16000 152.142
53.17000 148.440
53.18000 145.089
53.19000 144.409
53.20000 151.210
53.21000 158.457
53.22000 161.509
53.23000 156.526
53.24000 151.345
53.25000 148.421
53.26000 150.849
53.27000 152.550
53.28000 153.264
53.29000 153.149
53.30000 153.077
53.31000 155.239
53.32000 158.659
53.33000 161.957
53.34000 160.504
53.35000 157.420
53.36000 154.604
53.37000 154.536
53.38000 155.187
53.39000 155.692
53.40000 155.284
53.41000 154.718
53.42000 154.254
53.43000 156.561
53.44000 158.693
53.45000 159.860
53.46000 158.363
53.47000 156.712
53.48000 155.197
53.49000 153.938
53.50000 152.686
53.51000 151.984
53.52000 151.037
53.53000 150.383
53.54000 151.016
53.55000 152.714
53.56000 154.430
53.57000 157.007
53.58000 160.062
53.59000 163.004
53.60000 160.632
53.61000 156.511
53.62000 152.539
53.63000 150.047
53.64000 147.937
53.65000 146.150
53.66000 146.345
53.67000 146.876
53.68000 147.309
53.69000 148.763
53.70000 150.038
53.71000 150.532
53.72000 148.897
53.73000 147.142
53.74000 145.172
53.75000 142.803
53.76000 140.424
53.77000 139.100
53.78000 135.337
53.79000 132.739
53.80000 133.749
53.81000 137.695
53.82000 141.564
53.83000 141.805
53.84000 140.062
53.85000 138.386
53.86000 141.280
53.87000 145.594
53.88000 149.192
53.89000 145.771
53.90000 140.568
53.91000 136.782
53.92000 141.511
53.93000 147.661
53.94000 152.663
53.95000 147.753
53.96000 142.916
53.97000 139.314
53.98000 139.024
53.99000 138.916
54.00000 139.579
54.01000 141.655
54.02000 143.762
54.03000 144.926
54.04000 147.514
54.05000 149.296
54.06000 148.928
54.07000 146.837
54.08000 144.750
54.09000 142.843
54.10000 141.031
54.11000 139.291
54.12000 142.638
54.13000 147.526
54.14000 151.714
54.15000 149.190
54.16000 144.988
54.17000 141.503
54.18000 142.251
54.19000 143.694
54.20000 144.864
54.21000 143.878
54.22000 142.899
54.23000 142.156
54.24000 142.036
54.25000 141.949
54.26000 142.491
54.27000 144.169
54.28000 145.869
54.29000 146.802
54.30000 147.212
54.31000 147.485
54.32000 145.466
54.33000 141.637
54.34000 137.891
54.35000 137.660
54.36000 139.295
54.37000 140.864
54.38000 138.172
54.39000 134.212
54.40000 131.049
54.41000 135.397
54.42000 141.594
54.43000 146.425
54.44000 143.320
54.45000 138.934
54.46000 135.391
54.47000 141.730
54.48000 147.675
54.49000 151.079
54.50000 147.868
54.51000 144.313
54.52000 139.951
54.53000 134.154
54.54000 128.328
54.55000 125.156
54.56000 128.996
54.57000 131.635
54.58000 132.627
54.59000 132.340
54.60000 131.977
54.61000 128.475
54.62000 123.329
54.63000 118.399
54.64000 125.002
54.65000 135.015
54.66000 144.130
54.67000 144.973
54.68000 143.811
54.69000 142.587
54.70000 141.010
54.71000 139.378
54.72000 138.063
54.73000 137.522
54.74000 137.142
54.75000 137.779
54.76000 141.024
54.77000 144.401
54.78000 147.970
54.79000 151.876
54.80000 155.789
54.81000 157.903
54.82000 152.499
54.83000 148.802
54.84000 147.615
54.85000 148.344
54.86000 149.093
54.87000 150.629
54.88000 152.569
54.89000 154.426
54.90000 154.986
54.91000 155.083
54.92000 155.057
54.93000 153.928
54.94000 152.537
54.95000 151.034
54.96000 148.904
54.97000 146.676
54.98000 144.888
54.99000 148.278
55.00000 151.418
55.01000 153.858
55.02000 154.525
55.03000 155.105
55.04000 154.170
55.05000 150.616
55.06000 147.016
55.07000 145.085
55.08000 150.205
55.09000 153.686
55.10000 153.032
55.11000 149.266
55.12000 145.556
55.13000 143.916
55.14000 143.329
55.15000 142.768
55.16000 143.844
55.17000 145.374
55.18000 146.861
55.19000 147.962
55.20000 148.973
55.21000 150.164
55.22000 152.354
55.23000 154.696
55.24000 156.569
55.25000 162.592
55.26000 167.771
55.27000 169.580
55.28000 162.987
55.29000 155.996
55.30000 153.244
55.31000 157.712
55.32000 162.300
55.33000 164.743
55.34000 163.915
55.35000 163.355
55.36000 163.759
55.37000 164.878
55.38000 165.984
55.39000 166.629
55.40000 167.042
55.41000 167.437
55.42000 172.292
55.43000 178.219
55.44000 183.570
55.45000 183.913
55.46000 183.097
55.47000 181.709
55.48000 177.219
55.49000 172.261
55.50000 168.309
55.51000 181.071
55.52000 192.585
55.53000 200.288
55.54000 198.624
55.55000 196.528
55.56000 200.181
55.57000 213.482
55.58000 226.935
55.59000 234.040
55.60000 229.431
55.61000 226.343
55.62000 231.198
55.63000 241.850
55.64000 252.457
55.65000 261.520
55.66000 269.821
55.67000 277.733
55.68000 288.133
55.69000 298.555
55.70000 308.573
55.71000 315.142
55.72000 320.925
55.73000 327.968
55.74000 341.743
55.75000 356.514
55.76000 368.251
55.77000 400.313
55.78000 427.579
55.79000 449.807
55.80000 459.826
55.81000 469.301
55.82000 481.036
55.83000 496.508
55.84000 512.036
55.85000 520.172
55.86000 543.787
55.87000 559.731
55.88000 567.425
55.89000 569.192
55.90000 570.886
55.91000 570.173
55.92000 568.288
55.93000 566.494
55.94000 574.709
55.95000 585.398
55.96000 595.507
55.97000 600.781
55.98000 604.970
55.99000 606.497
56.00000 594.032
56.01000 579.534
56.02000 568.055
56.03000 567.114
56.04000 567.088
56.05000 563.571
56.06000 551.716
56.07000 539.502
56.08000 528.611
56.09000 519.877
56.10000 511.174
56.11000 506.650
56.12000 481.910
56.13000 465.203
56.14000 449.472
56.15000 434.431
56.16000 419.545
56.17000 409.591
56.18000 402.002
56.19000 394.790
56.20000 385.563
56.21000 376.425
56.22000 366.438
56.23000 349.498
56.24000 331.022
56.25000 313.711
56.26000 302.429
56.27000 292.008
56.28000 283.785
56.29000 278.223
56.30000 273.941
56.31000 268.189
56.32000 258.974
56.33000 249.615
56.34000 240.817
56.35000 232.921
56.36000 225.037
56.37000 220.972
56.38000 224.114
56.39000 226.173
56.40000 220.854
56.41000 210.393
56.42000 200.131
56.43000 196.015
56.44000 194.803
56.45000 193.653
56.46000 192.225
56.47000 190.825
56.48000 189.399
56.49000 187.770
56.50000 186.097
56.51000 184.205
56.52000 181.197
56.53000 178.032
56.54000 175.544
56.55000 177.826
56.56000 179.968
56.57000 179.223
56.58000 171.778
56.59000 164.062
56.60000 159.678
56.61000 160.562
56.62000 161.512
56.63000 161.998
56.64000 159.429
56.65000 157.702
56.66000 155.995
56.67000 154.301
56.68000 152.605
56.69000 150.873
56.70000 149.122
56.71000 147.464
56.72000 144.871
56.73000 142.207
56.74000 140.011
56.75000 141.498
56.76000 143.774
56.77000 145.668
56.78000 145.646
56.79000 145.360
56.80000 145.137
56.81000 139.089
56.82000 133.881
56.83000 133.346
56.84000 143.500
56.85000 154.073
56.86000 157.300
56.87000 149.088
56.88000 140.742
56.89000 136.509
56.90000 137.793
56.91000 138.638
56.92000 137.797
56.93000 135.817
56.94000 134.000
56.95000 136.859
56.96000 141.865
56.97000 146.603
56.98000 140.757
56.99000 132.326
57.00000 125.060
57.01000 126.813
57.02000 130.466
57.03000 133.144
57.04000 131.016
57.05000 128.238
57.06000 126.070
57.07000 132.401
57.08000 137.984
57.09000 141.069
57.10000 138.524
57.11000 135.765
57.12000 133.181
57.13000 130.865
57.14000 128.552
57.15000 127.388
57.16000 132.196
57.17000 135.384
57.18000 136.196
57.19000 135.427
57.20000 134.691
57.21000 134.863
57.22000 135.446
57.23000 135.997
57.24000 135.011
57.25000 133.670
57.26000 132.799
57.27000 135.497
57.28000 138.936
57.29000 141.368
57.30000 138.921
57.31000 135.826
57.32000 133.419
57.33000 131.866
57.34000 130.682
57.35000 131.355
57.36000 136.151
57.37000 141.099
57.38000 142.241
57.39000 137.631
57.40000 132.963
57.41000 131.437
57.42000 133.037
57.43000 134.603
57.44000 132.876
57.45000 128.992
57.46000 125.352
57.47000 128.237
57.48000 134.032
57.49000 139.500
57.50000 135.561
57.51000 129.321
57.52000 123.733
57.53000 123.002
57.54000 123.263
57.55000 123.590
57.56000 124.232
57.57000 124.914
57.58000 125.442
57.59000 127.615
57.60000 129.439
57.61000 131.640
57.62000 134.668
57.63000 137.724
57.64000 137.600
57.65000 132.743
57.66000 127.841
57.67000 123.755
57.68000 120.468
57.69000 117.253
57.70000 120.360
57.71000 127.549
57.72000 134.324
57.73000 130.377
57.74000 121.716
57.75000 113.556
57.76000 111.815
57.77000 111.985
57.78000 112.829
57.79000 118.607
57.80000 125.377
57.81000 130.380
57.82000 127.086
57.83000 122.732
57.84000 119.370
57.85000 125.133
57.86000 130.233
57.87000 134.482
57.88000 136.891
57.89000 139.238
57.90000 138.621
57.91000 133.659
57.92000 128.660
57.93000 125.427
57.94000 123.894
57.95000 122.362
57.96000 120.936
57.97000 119.577
57.98000 118.308
57.99000 119.296
58.00000 121.262
58.01000 123.111
58.02000 123.290
58.03000 123.002
58.04000 122.800
58.05000 123.214
58.06000 123.749
58.07000 124.124
58.08000 123.757
58.09000 123.297
58.10000 122.943
58.11000 121.746
58.12000 120.752
58.13000 120.685
58.14000 122.592
58.15000 124.564
58.16000 124.676
58.17000 122.101
58.18000 119.506
58.19000 119.408
58.20000 121.671
58.21000 123.920
58.22000 125.056
58.23000 125.494
58.24000 125.901
58.25000 125.549
58.26000 124.874
58.27000 124.240
58.28000 125.197
58.29000 126.494
58.30000 127.054
58.31000 122.412
58.32000 116.758
58.33000 112.867
58.34000 117.005
58.35000 122.130
58.36000 126.057
58.37000 125.001
58.38000 123.893
58.39000 122.907
58.40000 122.180
58.41000 121.462
58.42000 121.805
58.43000 123.656
58.44000 125.518
58.45000 125.837
58.46000 124.719
58.47000 123.622
58.48000 123.970
58.49000 125.212
58.50000 126.395
58.51000 126.212
58.52000 125.453
58.53000 124.741
58.54000 128.391
58.55000 132.856
58.56000 136.349
58.57000 133.097
58.58000 128.554
58.59000 124.394
58.60000 121.946
58.61000 119.704
58.62000 117.993
58.63000 118.316
58.64000 118.681
58.65000 120.318
58.66000 124.587
58.67000 128.935
58.68000 130.511
58.69000 128.202
58.70000 125.867
58.71000 123.835
58.72000 122.080
58.73000 120.352
58.74000 120.416
58.75000 121.571
58.76000 122.717
58.77000 123.672
58.78000 124.549
58.79000 125.369
58.80000 123.180
58.81000 120.415
58.82000 117.758
58.83000 115.829
58.84000 114.037
58.85000 113.323
58.86000 117.366
58.87000 121.972
58.88000 125.475
58.89000 123.771
58.90000 122.158
58.91000 121.433
58.92000 122.515
58.93000 123.650
58.94000 122.971
58.95000 119.789
58.96000 116.593
58.97000 117.600
58.98000 122.385
58.99000 127.106
59.00000 127.679
59.01000 125.765
59.02000 123.911
59.03000 123.347
59.04000 123.311
59.05000 123.277
59.06000 125.928
59.07000 129.013
59.08000 131.292
59.09000 128.174
59.10000 124.058
59.11000 120.981
59.12000 122.421
59.13000 124.385
59.14000 125.874
59.15000 123.842
59.16000 122.069
59.17000 121.197
59.18000 122.137
59.19000 123.129
59.20000 123.794
59.21000 124.017
59.22000 124.237
59.23000 123.891
59.24000 123.045
59.25000 122.211
59.26000 122.091
59.27000 122.394
59.28000 122.695
59.29000 122.958
59.30000 123.206
59.31000 123.437
59.32000 122.538
59.33000 121.441
59.34000 120.591
59.35000 121.360
59.36000 122.425
59.37000 122.999
59.38000 121.476
59.39000 119.715
59.40000 118.387
59.41000 118.216
59.42000 118.139
59.43000 118.931
59.44000 121.444
59.45000 124.003
59.46000 124.861
59.47000 123.445
59.48000 122.019
59.49000 119.976
59.50000 117.399
59.51000 114.889
59.52000 116.240
59.53000 119.836
59.54000 123.282
59.55000 123.625
59.56000 122.735
59.57000 121.905
59.58000 118.218
59.59000 114.183
59.60000 110.604
59.61000 109.967
59.62000 109.859
59.63000 110.466
59.64000 114.088
59.65000 118.047
59.66000 121.023
59.67000 119.869
59.68000 118.768
59.69000 117.792
59.70000 117.059
59.71000 116.332
59.72000 117.357
59.73000 120.687
59.74000 124.026
59.75000 124.576
59.76000 122.739
59.77000 120.914
59.78000 119.744
59.79000 118.949
59.80000 118.240
59.81000 119.239
59.82000 120.908
59.83000 122.460
59.84000 122.994
59.85000 123.232
59.86000 122.730
59.87000 117.529
59.88000 111.501
59.89000 107.223
59.90000 110.202
59.91000 113.975
59.92000 116.799
59.93000 116.620
59.94000 116.339
59.95000 116.490
59.96000 117.468
59.97000 118.468
59.98000 119.317
59.99000 119.972
60.00000 120.625
60.01000 120.911
60.02000 120.889
60.03000 120.870
60.04000 121.024
60.05000 121.277
60.06000 121.516
60.07000 121.491
60.08000 121.365
60.09000 121.247
60.10000 119.294
60.11000 117.098
60.12000 115.672
60.13000 119.054
60.14000 123.268
60.15000 125.883
60.16000 121.964
60.17000 117.344
60.18000 113.900
60.19000 118.736
60.20000 122.878
60.21000 125.391
60.22000 124.816
60.23000 124.168
60.24000 123.633
60.25000 123.241
60.26000 122.849
60.27000 123.010
60.28000 123.627
60.29000 124.280
60.30000 126.726
60.31000 130.171
60.32000 133.250
60.33000 129.386
60.34000 122.880
60.35000 116.850
60.36000 115.816
60.37000 116.048
60.38000 116.509
60.39000 118.372
60.40000 120.474
60.41000 122.167
60.42000 122.216
60.43000 122.093
60.44000 122.002
60.45000 121.204
60.46000 120.552
60.47000 121.206
60.48000 124.294
60.49000 127.437
60.50000 127.361
60.51000 123.242
60.52000 119.116
60.53000 117.554
60.54000 118.086
60.55000 118.669
60.56000 121.721
60.57000 126.127
60.58000 130.305
60.59000 130.289
60.60000 128.699
60.61000 127.229
60.62000 120.825
60.63000 113.944
60.64000 108.667
60.65000 113.075
60.66000 119.104
60.67000 123.037
60.68000 118.661
60.69000 113.429
60.70000 109.561
60.71000 110.346
60.72000 111.153
60.73000 110.941
60.74000 108.855
60.75000 106.728
60.76000 108.210
60.77000 114.153
60.78000 120.098
60.79000 121.785
60.80000 120.057
60.81000 118.380
60.82000 119.064
60.83000 121.023
60.84000 122.905
60.85000 123.425
60.86000 123.440
60.87000 123.454
60.88000 125.346
60.89000 127.466
60.90000 129.248
60.91000 129.022
60.92000 128.465
60.93000 127.659
60.94000 125.882
60.95000 124.006
60.96000 122.626
60.97000 124.943
60.98000 126.890
60.99000 126.788
61.00000 122.972
61.01000 119.080
61.02000 118.863
61.03000 123.116
61.04000 127.372
61.05000 127.386
61.06000 124.059
61.07000 120.805
61.08000 120.714
61.09000 122.308
61.10000 123.829
61.11000 124.079
61.12000 123.865
61.13000 123.668
61.14000 124.169
61.15000 124.772
61.16000 125.495
61.17000 126.913
61.18000 128.444
61.19000 129.440
61.20000 128.377
61.21000 127.112
61.22000 126.184
61.23000 127.172
61.24000 128.013
61.25000 127.185
61.26000 123.378
61.27000 119.512
61.28000 117.548
61.29000 117.862
61.30000 118.179
61.31000 121.282
61.32000 126.528
61.33000 131.650
61.34000 131.691
61.35000 129.064
61.36000 126.704
61.37000 128.860
61.38000 132.637
61.39000 136.112
61.40000 135.223
61.41000 133.479
61.42000 132.194
61.43000 133.544
61.44000 135.313
61.45000 139.142
61.46000 150.765
61.47000 163.141
61.48000 172.178
61.49000 172.824
61.50000 172.994
61.51000 178.861
61.52000 194.752
61.53000 210.832
61.54000 232.533
61.55000 260.857
61.56000 289.124
61.57000 308.839
61.58000 321.915
61.59000 335.127
61.60000 353.687
61.61000 375.014
61.62000 395.492
61.63000 401.938
61.64000 403.419
61.65000 404.779
61.66000 420.479
61.67000 437.553
61.68000 452.917
61.69000 458.642
61.70000 462.860
61.71000 465.559
61.72000 462.590
61.73000 459.085
61.74000 456.536
61.75000 438.670
61.76000 424.345
61.77000 404.714
61.78000 375.882
61.79000 346.885
61.80000 320.181
61.81000 296.133
61.82000 272.154
61.83000 250.607
61.84000 231.029
61.85000 211.568
61.86000 196.535
61.87000 183.760
61.88000 171.246
61.89000 162.936
61.90000 156.093
61.91000 149.820
61.92000 149.584
61.93000 150.642
61.94000 151.304
61.95000 149.766
61.96000 147.889
61.97000 146.254
61.98000 145.501
61.99000 144.831
62.00000 144.346
62.01000 141.392
62.02000 139.034
62.03000 138.072
62.04000 139.497
62.05000 140.962
62.06000 141.235
62.07000 140.148
62.08000 139.063
62.09000 138.194
62.10000 137.491
62.11000 136.821
62.12000 137.382
62.13000 138.561
62.14000 139.671
62.15000 139.700
62.16000 139.358
62.17000 139.045
62.18000 135.024
62.19000 130.682
62.20000 127.102
62.21000 127.672
62.22000 128.870
62.23000 130.112
62.24000 131.515
62.25000 132.932
62.26000 133.954
62.27000 135.869
62.28000 137.369
62.29000 139.221
62.30000 141.668
62.31000 144.124
62.32000 144.736
62.33000 143.280
62.34000 141.827
62.35000 138.771
62.36000 134.577
62.37000 130.531
62.38000 131.647
62.39000 135.320
62.40000 138.853
62.41000 140.245
62.42000 140.912
62.43000 141.521
62.44000 140.255
62.45000 138.751
62.46000 137.701
62.47000 139.095
62.48000 140.851
62.49000 141.983
62.50000 140.888
62.51000 139.597
62.52000 138.670
62.53000 138.994
62.54000 139.284
62.55000 140.269
62.56000 142.405
62.57000 144.559
62.58000 145.406
62.59000 144.810
62.60000 144.216
62.61000 143.416
62.62000 142.475
62.63000 141.560
62.64000 141.479
62.65000 141.806
62.66000 142.149
62.67000 142.727
62.68000 143.383
62.69000 143.980
62.70000 142.215
62.71000 140.180
62.72000 138.965
62.73000 142.077
62.74000 145.820
62.75000 147.175
62.76000 140.141
62.77000 132.379
62.78000 126.835
62.79000 138.122
62.80000 147.293
62.81000 151.109
62.82000 146.173
62.83000 141.112
62.84000 137.934
62.85000 136.800
62.86000 135.672
62.87000 135.142
62.88000 135.038
62.89000 135.013
62.90000 137.521
62.91000 141.247
62.92000 144.719
62.93000 144.480
62.94000 143.022
62.95000 141.695
62.96000 139.377
62.97000 137.133
62.98000 135.177
62.99000 134.723
63.00000 134.483
63.01000 134.943
63.02000 137.827
63.03000 140.916
63.04000 143.113
63.05000 144.094
63.06000 144.802
63.07000 145.843
63.08000 147.420
63.09000 149.004
63.10000 149.393
63.11000 148.506
63.12000 147.622
63.13000 146.049
63.14000 144.015
63.15000 142.049
63.16000 142.177
63.17000 143.298
63.18000 144.386
63.19000 145.007
63.20000 145.477
63.21000 145.903
63.22000 147.721
63.23000 149.594
63.24000 150.683
63.25000 147.769
63.26000 144.293
63.27000 141.315
63.28000 140.035
63.29000 138.897
63.30000 138.091
63.31000 137.455
63.32000 136.977
63.33000 137.163
63.34000 138.403
63.35000 139.656
63.36000 138.579
63.37000 135.054
63.38000 131.546
63.39000 133.731
63.40000 139.765
63.41000 145.602
63.42000 145.544
63.43000 142.732
63.44000 140.108
63.45000 140.088
63.46000 140.902
63.47000 141.638
63.48000 145.211
63.49000 148.897
63.50000 151.426
63.51000 148.146
63.52000 144.064
63.53000 141.457
63.54000 143.805
63.55000 146.556
63.56000 148.493
63.57000 149.013
63.58000 149.365
63.59000 149.403
63.60000 148.949
63.61000 148.490
63.62000 146.595
63.63000 143.219
63.64000 139.861
63.65000 138.746
63.66000 139.145
63.67000 139.661
63.68000 143.526
63.69000 148.936
63.70000 153.932
63.71000 153.361
63.72000 151.036
63.73000 148.934
63.74000 154.253
63.75000 160.312
63.76000 164.492
63.77000 159.372
63.78000 152.992
63.79000 148.485
63.80000 150.178
63.81000 152.362
63.82000 153.894
63.83000 148.383
63.84000 144.009
63.85000 143.430
63.86000 148.693
63.87000 154.020
63.88000 157.159
63.89000 158.075
63.90000 158.986
63.91000 156.411
63.92000 151.574
63.93000 146.964
63.94000 148.692
63.95000 153.298
63.96000 157.440
63.97000 155.473
63.98000 151.612
63.99000 148.128
64.00000 150.604
64.01000 153.869
64.02000 156.494
64.03000 156.007
64.04000 155.105
64.05000 154.814
64.06000 156.511
64.07000 158.361
64.08000 159.653
64.09000 160.672
64.10000 161.434
64.11000 162.687
64.12000 164.686
64.13000 166.693
64.14000 166.484
64.15000 164.060
64.16000 161.652
64.17000 161.981
64.18000 164.080
64.19000 166.215
64.20000 169.328
64.21000 172.877
64.22000 175.995
64.23000 173.560
64.24000 169.427
64.25000 165.706
64.26000 163.685
64.27000 162.219
64.28000 161.093
64.29000 161.600
64.30000 162.319
64.31000 162.937
64.32000 163.229
64.33000 163.497
64.34000 163.683
64.35000 171.609
64.36000 177.790
64.37000 180.056
64.38000 176.475
64.39000 172.839
64.40000 171.070
64.41000 171.133
64.42000 171.196
64.43000 171.899
64.44000 172.999
64.45000 174.009
64.46000 172.655
64.47000 170.258
64.48000 168.318
64.49000 172.117
64.50000 177.647
64.51000 182.613
64.52000 179.143
64.53000 174.618
64.54000 171.371
64.55000 174.151
64.56000 177.704
64.57000 179.388
64.58000 175.156
64.59000 170.487
64.60000 167.260
64.61000 170.739
64.62000 173.528
64.63000 177.010
64.64000 181.511
64.65000 186.020
64.66000 187.746
64.67000 186.787
64.68000 185.835
64.69000 186.861
64.70000 189.113
64.71000 191.250
64.72000 190.474
64.73000 188.433
64.74000 186.699
64.75000 188.743
64.76000 191.908
64.77000 194.744
64.78000 195.930
64.79000 196.678
64.80000 197.833
64.81000 200.873
64.82000 204.149
64.83000 206.162
64.84000 204.230
64.85000 202.015
64.86000 200.492
64.87000 192.893
64.88000 187.040
64.89000 186.431
64.90000 193.419
64.91000 200.470
64.92000 205.161
64.93000 207.613
64.94000 210.046
64.95000 211.078
64.96000 211.225
64.97000 211.352
64.98000 211.009
64.99000 210.464
65.00000 209.945
65.01000 209.745
65.02000 209.638
65.03000 209.542
65.04000 216.236
65.05000 223.229
65.06000 229.044
65.07000 229.476
65.08000 229.244
65.09000 229.899
65.10000 233.287
65.11000 236.867
65.12000 239.318
65.13000 242.939
65.14000 245.679
65.15000 247.146
65.16000 246.799
65.17000 246.438
65.18000 248.750
65.19000 253.555
65.20000 258.321
65.21000 265.669
65.22000 274.452
65.23000 282.853
65.24000 282.207
65.25000 277.741
65.26000 274.269
65.27000 282.467
65.28000 294.029
65.29000 304.347
65.30000 303.639
65.31000 301.179
65.32000 300.800
65.33000 309.774
65.34000 319.882
65.35000 329.737
65.36000 338.829
65.37000 347.869
65.38000 354.027
65.39000 360.246
65.40000 364.895
65.41000 375.529
65.42000 394.572
65.43000 413.670
65.44000 424.717
65.45000 428.370
65.46000 431.992
65.47000 435.692
65.48000 439.369
65.49000 443.239
65.50000 451.516
65.51000 461.628
65.52000 471.603
65.53000 480.016
65.54000 487.984
65.55000 495.079
65.56000 512.271
65.57000 528.866
65.58000 547.380
65.59000 574.390
65.60000 602.410
65.61000 630.341
65.62000 658.008
65.63000 685.656
65.64000 704.397
65.65000 768.846
65.66000 817.905
65.67000 887.044
65.68000 983.964
65.69000 1081.081
65.70000 1211.183
65.71000 1371.078
65.72000 1529.461
65.73000 1721.134
65.74000 1928.505
65.75000 2135.482
65.76000 2333.709
65.77000 2528.345
65.78000 2719.169
65.79000 2867.166
65.80000 3003.183
65.81000 3124.032
65.82000 3229.457
65.83000 3318.408
65.84000 3394.970
65.85000 3417.527
65.86000 3433.789
65.87000 3443.948
65.88000 3436.140
65.89000 3427.162
65.90000 3421.107
65.91000 3342.492
65.92000 3282.471
65.93000 3176.194
65.94000 3006.901
65.95000 2837.227
65.96000 2647.008
65.97000 2438.532
65.98000 2232.152
65.99000 2017.867
66.00000 1803.603
66.01000 1590.767
66.02000 1408.580
66.03000 1238.789
66.04000 1073.929
66.05000 963.255
66.06000 867.513
66.07000 782.641
66.08000 729.074
66.09000 687.653
66.10000 649.439
66.11000 624.992
66.12000 602.118
66.13000 582.029
66.14000 570.018
66.15000 558.519
66.16000 550.805
66.17000 549.854
66.18000 549.285
66.19000 543.600
66.20000 531.052
66.21000 518.493
66.22000 527.951
66.23000 556.657
66.24000 585.056
66.25000 607.472
66.26000 625.966
66.27000 644.857
66.28000 672.008
66.29000 702.452
66.30000 733.683
66.31000 773.372
66.32000 815.356
66.33000 852.489
66.34000 884.582
66.35000 911.533
66.36000 934.879
66.37000 942.987
66.38000 949.388
66.39000 955.267
66.40000 959.656
66.41000 963.952
66.42000 966.819
66.43000 964.719
66.44000 963.067
66.45000 961.208
66.46000 959.074
66.47000 956.908
66.48000 931.783
66.49000 886.910
66.50000 842.545
66.51000 805.576
66.52000 773.636
66.53000 741.655
66.54000 708.847
66.55000 675.713
66.56000 643.454
66.57000 620.407
66.58000 599.824
66.59000 581.662
66.60000 564.551
66.61000 549.951
66.62000 534.637
66.63000 516.349
66.64000 497.735
66.65000 483.053
66.66000 479.453
66.67000 476.520
66.68000 474.573
66.69000 474.857
66.70000 475.108
66.71000 470.092
66.72000 458.228
66.73000 446.349
66.74000 442.317
66.75000 444.925
66.76000 447.502
66.77000 446.649
66.78000 443.922
66.79000 441.798
66.80000 451.535
66.81000 465.865
66.82000 478.933
66.83000 478.997
66.84000 475.635
66.85000 472.676
66.86000 479.049
66.87000 485.934
66.88000 490.463
66.89000 485.337
66.90000 479.171
66.91000 474.696
66.92000 474.914
66.93000 475.409
66.94000 475.735
66.95000 477.909
66.96000 479.546
66.97000 482.322
66.98000 486.559
66.99000 490.803
67.00000 496.066
67.01000 502.179
67.02000 508.215
67.03000 507.134
67.04000 502.211
67.05000 497.450
67.06000 495.781
67.07000 495.293
67.08000 494.986
67.09000 496.509
67.10000 498.507
67.11000 500.261
67.12000 497.899
67.13000 495.264
67.14000 494.509
67.15000 501.337
67.16000 508.966
67.17000 517.490
67.18000 528.464
67.19000 539.578
67.20000 546.879
67.21000 544.667
67.22000 542.878
67.23000 537.225
67.24000 526.705
67.25000 516.194
67.26000 516.382
67.27000 525.338
67.28000 534.176
67.29000 537.312
67.30000 537.311
67.31000 537.239
67.32000 535.866
67.33000 534.004
67.34000 533.049
67.35000 541.060
67.36000 551.363
67.37000 560.390
67.38000 553.523
67.39000 545.338
67.40000 539.792
67.41000 544.732
67.42000 550.757
67.43000 555.313
67.44000 555.907
67.45000 556.281
67.46000 556.526
67.47000 560.980
67.48000 564.318
67.49000 563.724
67.50000 558.251
67.51000 552.770
67.52000 549.077
67.53000 546.826
67.54000 544.607
67.55000 546.901
67.56000 551.508
67.57000 556.210
67.58000 562.620
67.59000 569.664
67.60000 576.368
67.61000 579.788
67.62000 582.381
67.63000 584.647
67.64000 585.212
67.65000 585.456
67.66000 586.127
67.67000 588.475
67.68000 590.993
67.69000 595.096
67.70000 603.412
67.71000 611.956
67.72000 617.509
67.73000 613.640
67.74000 610.662
67.75000 605.816
67.76000 598.692
67.77000 591.580
67.78000 589.804
67.79000 592.266
67.80000 594.691
67.81000 600.782
67.82000 608.595
67.83000 616.113
67.84000 618.465
67.85000 618.929
67.86000 619.760
67.87000 624.070
67.88000 629.243
67.89000 633.752
67.90000 630.919
67.91000 627.478
67.92000 624.421
67.93000 622.850
67.94000 621.427
67.95000 620.580
67.96000 621.245
67.97000 621.988
67.98000 622.469
67.99000 632.410
68.00000 639.817
68.01000 646.416
68.02000 652.046
68.03000 657.681
68.04000 665.502
68.05000 675.030
68.06000 684.411
68.07000 686.498
68.08000 684.797
68.09000 683.519
68.10000 689.474
68.11000 698.033
68.12000 705.898
68.13000 707.307
68.14000 707.138
68.15000 706.992
68.16000 713.529
68.17000 720.017
68.18000 725.950
68.19000 729.776
68.20000 733.398
68.21000 734.477
68.22000 728.989
68.23000 723.165
68.24000 719.423
68.25000 737.960
68.26000 751.790
68.27000 761.662
68.28000 766.853
68.29000 772.048
68.30000 780.013
68.31000 790.111
68.32000 800.045
68.33000 800.389
68.34000 795.904
68.35000 791.987
68.36000 797.491
68.37000 806.340
68.38000 815.265
68.39000 824.884
68.40000 834.669
68.41000 843.158
68.42000 854.797
68.43000 865.132
68.44000 875.514
68.45000 886.077
68.46000 896.656
68.47000 907.491
68.48000 918.973
68.49000 930.487
68.50000 937.846
68.51000 976.514
68.52000 1005.069
68.53000 1025.436
68.54000 1036.277
68.55000 1047.150
68.56000 1067.771
68.57000 1095.777
68.58000 1123.307
68.59000 1158.880
68.60000 1197.249
68.61000 1237.199
68.62000 1302.729
68.63000 1377.210
68.64000 1451.924
68.65000 1528.721
68.66000 1606.011
68.67000 1672.888
68.68000 1735.829
68.69000 1788.820
68.70000 1846.730
68.71000 1922.770
68.72000 2000.496
68.73000 2087.764
68.74000 2198.978
68.75000 2311.343
68.76000 2382.749
68.77000 2499.768
68.78000 2585.317
68.79000 2681.978
68.80000 2791.359
68.81000 2900.780
68.82000 3015.266
68.83000 3133.530
68.84000 3249.691
68.85000 3466.716
68.86000 3725.352
68.87000 3992.663
68.88000 4396.713
68.89000 4847.920
68.90000 5359.914
68.91000 6404.125
68.92000 7572.403
68.93000 8580.696
68.94000 11494.619
68.95000 14212.397
68.96000 17384.529
68.97000 22206.244
68.98000 27178.180
68.99000 32550.035
69.00000 38911.141
69.01000 45318.359
69.02000 49366.711
69.03000 56783.402
69.04000 62197.020
69.05000 66661.875
69.06000 70058.352
69.07000 73447.750
69.08000 75766.906
69.09000 77300.031
69.10000 78804.656
69.11000 80110.664
69.12000 81274.844
69.13000 82445.242
69.14000 83711.250
69.15000 85009.758
69.16000 86203.094
69.17000 86493.508
69.18000 86576.680
69.19000 86648.273
69.20000 83975.758
69.21000 81365.977
69.22000 78389.875
69.23000 74103.563
69.24000 69700.508
69.25000 65322.047
69.26000 61003.527
69.27000 56687.723
69.28000 53976.613
69.29000 49533.992
69.30000 46302.996
69.31000 43960.316
69.32000 42601.707
69.33000 41245.984
69.34000 40245.469
69.35000 39501.832
69.36000 38772.641
69.37000 37520.363
69.38000 36067.789
69.39000 34548.605
69.40000 32031.990
69.41000 29181.273
69.42000 26306.537
69.43000 23229.555
69.44000 20106.867
69.45000 17425.828
69.46000 14444.378
69.47000 11886.584
69.48000 9527.830
69.49000 7870.445
69.50000 6274.185
69.51000 4924.587
69.52000 4167.766
69.53000 3436.914
69.54000 2980.496
69.55000 2564.125
69.56000 2264.206
69.57000 2040.658
69.58000 1900.332
69.59000 1760.230
69.60000 1647.145
69.61000 1553.300
69.62000 1461.357
69.63000 1401.829
69.64000 1359.627
69.65000 1316.873
69.66000 1266.062
69.67000 1212.591
69.68000 1159.803
69.69000 1112.658
69.70000 1066.769
69.71000 1027.473
69.72000 999.867
69.73000 977.988
69.74000 957.722
69.75000 943.055
69.76000 928.866
69.77000 908.089
69.78000 871.711
69.79000 834.672
69.80000 811.677
69.81000 803.401
69.82000 797.589
69.83000 786.693
69.84000 770.347
69.85000 754.024
69.86000 741.104
69.87000 730.568
69.88000 720.256
69.89000 712.273
69.90000 705.671
69.91000 698.597
69.92000 684.803
69.93000 668.822
69.94000 653.660
69.95000 645.132
69.96000 638.056
69.97000 632.013
69.98000 630.697
69.99000 630.150
70.00000 626.562
