20.00000 497.878
20.01000 494.885
20.02000 491.465
20.03000 488.201
20.04000 485.553
20.05000 482.969
20.06000 481.061
20.07000 481.766
20.08000 482.423
20.09000 483.634
20.10000 485.861
20.11000 488.110
20.12000 490.126
20.13000 491.854
20.14000 493.579
20.15000 490.250
20.16000 482.910
20.17000 475.796
20.18000 478.824
20.19000 487.310
20.20000 495.131
20.21000 491.141
20.22000 482.803
20.23000 475.108
20.24000 478.489
20.25000 484.000
20.26000 489.735
20.27000 496.795
20.28000 504.072
20.29000 508.517
20.30000 501.965
20.31000 494.311
20.32000 488.682
20.33000 488.637
20.34000 488.832
20.35000 486.244
20.36000 478.635
20.37000 470.923
20.38000 469.693
20.39000 476.310
20.40000 482.932
20.41000 486.517
20.42000 487.703
20.43000 488.827
20.44000 487.324
20.45000 484.426
20.46000 481.714
20.47000 482.206
20.48000 483.859
20.49000 485.382
20.50000 486.790
20.51000 488.025
20.52000 489.330
20.53000 491.040
20.54000 492.816
20.55000 492.790
20.56000 485.874
20.57000 478.283
20.58000 472.723
20.59000 482.813
20.60000 491.226
20.61000 494.473
20.62000 488.532
20.63000 482.413
20.64000 478.676
20.65000 477.778
20.66000 476.888
20.67000 476.966
20.68000 477.790
20.69000 478.619
20.70000 479.622
20.71000 480.717
20.72000 481.599
20.73000 478.902
20.74000 474.927
20.75000 471.272
20.76000 472.678
20.77000 475.029
20.78000 476.929
20.79000 476.259
20.80000 475.181
20.81000 473.977
20.82000 472.296
20.83000 470.568
20.84000 469.309
20.85000 475.678
20.86000 480.880
20.87000 484.841
20.88000 486.629
20.89000 488.376
20.90000 488.900
20.91000 487.989
20.92000 487.079
20.93000 489.033
20.94000 493.147
20.95000 497.010
20.96000 491.070
20.97000 480.081
20.98000 469.510
20.99000 465.785
21.00000 464.472
21.01000 463.267
21.02000 459.938
21.03000 456.517
21.04000 454.341
21.05000 459.151
21.06000 465.047
21.07000 471.959
21.08000 482.642
21.09000 493.680
21.10000 501.694
21.11000 508.382
21.12000 513.474
21.13000 512.599
21.14000 501.423
21.15000 490.066
21.16000 484.457
21.17000 485.478
21.18000 486.504
21.19000 489.985
21.20000 495.273
21.21000 500.300
21.22000 495.584
21.23000 485.922
21.24000 476.947
21.25000 478.945
21.26000 484.755
21.27000 490.076
21.28000 490.302
21.29000 489.438
21.30000 489.086
21.31000 491.565
21.32000 494.476
21.33000 493.861
21.34000 480.352
21.35000 465.656
21.36000 455.033
21.37000 466.092
21.38000 475.365
21.39000 483.020
21.40000 487.926
21.41000 492.786
21.42000 492.588
21.43000 486.650
21.44000 480.724
21.45000 478.390
21.46000 478.709
21.47000 478.952
21.48000 476.433
21.49000 472.532
21.50000 469.024
21.51000 471.629
21.52000 476.325
21.53000 480.618
21.54000 483.889
21.55000 486.584
21.56000 488.499
21.57000 486.178
21.58000 483.221
21.59000 481.244
21.60000 482.801
21.61000 484.676
21.62000 486.026
21.63000 493.404
21.64000 499.265
21.65000 506.362
21.66000 515.529
21.67000 524.729
21.68000 527.184
21.69000 522.109
21.70000 517.046
21.71000 512.254
21.72000 507.698
21.73000 503.363
21.74000 506.632
21.75000 513.649
21.76000 521.009
21.77000 533.552
21.78000 547.844
21.79000 560.886
21.80000 563.599
21.81000 563.920
21.82000 564.978
21.83000 569.972
21.84000 575.548
21.85000 581.464
21.86000 588.592
21.87000 595.827
21.88000 601.011
21.89000 597.352
21.90000 594.256
21.91000 600.139
21.92000 620.849
21.93000 641.779
21.94000 653.897
21.95000 656.336
21.96000 658.760
21.97000 670.945
21.98000 689.953
21.99000 708.567
22.00000 714.083
22.01000 713.233
22.02000 712.208
22.03000 708.598
22.04000 704.129
22.05000 700.059
22.06000 701.810
22.07000 704.516
22.08000 706.809
22.09000 706.928
22.10000 706.732
22.11000 705.900
22.12000 702.846
22.13000 699.600
22.14000 697.284
22.15000 686.401
22.16000 677.820
22.17000 668.617
22.18000 658.401
22.19000 648.172
22.20000 637.126
22.21000 625.198
22.22000 613.319
22.23000 601.643
22.24000 590.226
22.25000 578.998
22.26000 573.824
22.27000 571.549
22.28000 569.249
22.29000 566.580
22.30000 563.791
22.31000 561.255
22.32000 557.455
22.33000 553.850
22.34000 549.436
22.35000 540.848
22.36000 531.666
22.37000 523.994
22.38000 521.525
22.39000 519.494
22.40000 518.052
22.41000 517.627
22.42000 517.336
22.43000 512.049
22.44000 498.758
22.45000 485.361
22.46000 478.215
22.47000 477.713
22.48000 477.214
22.49000 479.964
22.50000 484.919
22.51000 489.741
22.52000 490.459
22.53000 489.239
22.54000 487.925
22.55000 485.284
22.56000 482.215
22.57000 479.432
22.58000 476.476
22.59000 473.835
22.60000 471.557
22.61000 471.126
22.62000 470.955
22.63000 471.336
22.64000 473.598
22.65000 476.013
22.66000 477.721
22.67000 470.817
22.68000 465.309
22.69000 460.793
22.70000 457.839
22.71000 454.906
22.72000 453.336
22.73000 453.193
22.74000 453.050
22.75000 459.034
22.76000 469.094
22.77000 478.638
22.78000 472.857
22.79000 459.946
22.80000 447.893
22.81000 447.617
22.82000 451.087
22.83000 454.229
22.84000 455.803
22.85000 456.894
22.86000 458.180
22.87000 460.441
22.88000 462.836
22.89000 464.261
22.90000 462.436
22.91000 460.351
22.92000 458.883
22.93000 451.450
22.94000 445.640
22.95000 444.276
22.96000 449.827
22.97000 455.458
22.98000 451.765
22.99000 438.491
23.00000 425.289
23.01000 425.959
23.02000 435.864
23.03000 445.553
23.04000 449.062
23.05000 449.737
23.06000 449.993
23.07000 444.635
23.08000 437.516
23.09000 431.085
23.10000 436.926
23.11000 444.333
23.12000 449.896
23.13000 446.385
23.14000 441.652
23.15000 439.059
23.16000 443.525
23.17000 448.546
23.18000 452.062
23.19000 445.194
23.20000 439.705
23.21000 436.711
23.22000 437.541
23.23000 438.412
23.24000 438.179
23.25000 436.830
23.26000 435.490
23.27000 432.588
23.28000 428.701
23.29000 424.918
23.30000 423.987
23.31000 424.345
23.32000 425.224
23.33000 432.909
23.34000 442.697
23.35000 451.522
23.36000 447.949
23.37000 442.558
23.38000 438.180
23.39000 438.711
23.40000 439.890
23.41000 440.874
23.42000 441.222
23.43000 441.521
23.44000 441.729
23.45000 437.894
23.46000 434.888
23.47000 432.955
23.48000 432.642
23.49000 432.345
23.50000 430.332
23.51000 426.614
23.52000 422.920
23.53000 424.291
23.54000 428.910
23.55000 433.501
23.56000 437.342
23.57000 440.850
23.58000 443.722
23.59000 438.468
23.60000 430.741
23.61000 423.789
23.62000 429.569
23.63000 436.907
23.64000 442.582
23.65000 440.328
23.66000 437.043
23.67000 435.609
23.68000 440.094
23.69000 445.024
23.70000 448.443
23.71000 439.065
23.72000 431.663
23.73000 426.780
23.74000 425.643
23.75000 424.541
23.76000 425.992
23.77000 429.937
23.78000 433.855
23.79000 435.405
23.80000 435.428
23.81000 435.490
23.82000 436.566
23.83000 438.087
23.84000 439.583
23.85000 440.779
23.86000 441.884
23.87000 442.876
23.88000 433.908
23.89000 424.316
23.90000 416.224
23.91000 415.168
23.92000 415.008
23.93000 416.793
23.94000 424.708
23.95000 433.072
23.96000 438.845
23.97000 427.399
23.98000 418.357
23.99000 415.792
24.00000 422.708
24.01000 429.707
24.02000 435.760
24.03000 440.905
24.04000 446.012
24.05000 444.730
24.06000 439.478
24.07000 434.472
24.08000 435.584
24.09000 439.344
24.10000 442.551
24.11000 439.002
24.12000 433.457
24.13000 428.490
24.14000 426.426
24.15000 425.124
24.16000 424.450
24.17000 426.679
24.18000 429.272
24.19000 430.465
24.20000 427.308
24.21000 423.841
24.22000 421.460
24.23000 421.478
24.24000 421.551
24.25000 418.991
24.26000 412.634
24.27000 406.248
24.28000 409.467
24.29000 421.759
24.30000 433.952
24.31000 438.427
24.32000 438.078
24.33000 437.494
24.34000 431.266
24.35000 422.630
24.36000 414.662
24.37000 414.665
24.38000 416.990
24.39000 419.067
24.40000 421.936
24.41000 424.570
24.42000 426.273
24.43000 423.746
24.44000 420.699
24.45000 418.811
24.46000 420.472
24.47000 422.381
24.48000 423.686
24.49000 417.879
24.50000 413.365
24.51000 412.758
24.52000 417.699
24.53000 422.678
24.54000 423.512
24.55000 420.495
24.56000 417.504
24.57000 416.615
24.58000 417.016
24.59000 417.504
24.60000 420.006
24.61000 423.356
24.62000 426.777
24.63000 431.019
24.64000 435.497
24.65000 439.491
24.66000 436.335
24.67000 432.401
24.68000 427.898
24.69000 420.849
24.70000 413.494
24.71000 409.286
24.72000 414.577
24.73000 420.514
24.74000 424.552
24.75000 417.352
24.76000 411.722
24.77000 406.796
24.78000 402.855
24.79000 398.923
24.80000 398.434
24.81000 401.089
24.82000 403.720
24.83000 406.972
24.84000 410.530
24.85000 413.882
24.86000 412.558
24.87000 409.297
24.88000 406.866
24.89000 413.905
24.90000 423.622
24.91000 432.269
24.92000 426.734
24.93000 419.612
24.94000 414.562
24.95000 418.641
24.96000 423.799
24.97000 426.794
24.98000 423.355
24.99000 419.488
25.00000 416.872
25.01000 419.126
25.02000 420.910
25.03000 424.846
25.04000 431.743
25.05000 438.654
25.06000 440.065
25.07000 436.532
25.08000 433.033
25.09000 426.782
25.10000 419.047
25.11000 411.450
25.12000 406.886
25.13000 403.560
25.14000 400.774
25.15000 404.013
25.16000 408.929
25.17000 413.294
25.18000 413.274
25.19000 412.554
25.20000 411.400
25.21000 408.369
25.22000 405.120
25.23000 405.274
25.24000 415.404
25.25000 426.179
25.26000 433.434
25.27000 424.144
25.28000 416.891
25.29000 408.626
25.30000 398.989
25.31000 389.348
25.32000 383.973
25.33000 382.371
25.34000 380.785
25.35000 391.643
25.36000 409.443
25.37000 426.309
25.38000 423.308
25.39000 412.305
25.40000 402.204
25.41000 401.941
25.42000 404.377
25.43000 406.535
25.44000 398.268
25.45000 389.473
25.46000 383.738
25.47000 391.074
25.48000 399.895
25.49000 406.733
25.50000 407.844
25.51000 408.594
25.52000 409.096
25.53000 406.245
25.54000 404.062
25.55000 402.531
25.56000 401.867
25.57000 401.211
25.58000 402.347
25.59000 405.043
25.60000 407.709
25.61000 403.240
25.62000 394.821
25.63000 387.106
25.64000 393.900
25.65000 406.453
25.66000 417.199
25.67000 408.631
25.68000 394.844
25.69000 382.659
25.70000 390.649
25.71000 400.669
25.72000 410.231
25.73000 417.872
25.74000 425.298
25.75000 428.501
25.76000 419.678
25.77000 410.118
25.78000 403.746
25.79000 403.375
25.80000 403.214
25.81000 404.076
25.82000 406.280
25.83000 408.489
25.84000 409.485
25.85000 409.445
25.86000 409.405
25.87000 408.394
25.88000 406.864
25.89000 405.243
25.90000 401.788
25.91000 397.615
25.92000 393.932
25.93000 395.364
25.94000 398.158
25.95000 400.621
25.96000 403.934
25.97000 406.920
25.98000 408.219
25.99000 402.532
26.00000 396.082
26.01000 391.411
26.02000 391.730
26.03000 392.346
26.04000 392.755
26.05000 388.935
26.06000 386.036
26.07000 385.396
26.08000 387.681
26.09000 389.968
26.10000 387.208
26.11000 380.198
26.12000 373.273
26.13000 378.828
26.14000 391.108
26.15000 402.840
26.16000 403.918
26.17000 400.888
26.18000 398.203
26.19000 399.059
26.20000 400.843
26.21000 402.413
26.22000 393.328
26.23000 383.923
26.24000 378.007
26.25000 386.324
26.26000 396.164
26.27000 404.142
26.28000 406.973
26.29000 409.505
26.30000 411.174
26.31000 407.226
26.32000 404.218
26.33000 399.489
26.34000 392.568
26.35000 385.658
26.36000 387.406
26.37000 396.330
26.38000 405.140
26.39000 403.314
26.40000 395.780
26.41000 388.606
26.42000 388.243
26.43000 390.470
26.44000 392.998
26.45000 398.553
26.46000 404.889
26.47000 410.449
26.48000 402.792
26.49000 394.282
26.50000 388.113
26.51000 391.350
26.52000 395.574
26.53000 398.559
26.54000 398.170
26.55000 397.589
26.56000 397.209
26.57000 399.929
26.58000 401.982
26.59000 401.538
26.60000 397.963
26.61000 394.377
26.62000 390.730
26.63000 387.033
26.64000 383.385
26.65000 381.559
26.66000 380.754
26.67000 380.287
26.68000 386.044
26.69000 394.132
26.70000 401.526
26.71000 402.092
26.72000 400.922
26.73000 399.897
26.74000 398.629
26.75000 397.506
26.76000 397.638
26.77000 402.737
26.78000 408.347
26.79000 410.347
26.80000 402.654
26.81000 394.426
26.82000 389.059
26.83000 390.773
26.84000 392.143
26.85000 392.245
26.86000 390.782
26.87000 389.313
26.88000 387.261
26.89000 384.740
26.90000 382.255
26.91000 385.963
26.92000 392.812
26.93000 399.272
26.94000 398.774
26.95000 395.707
26.96000 392.873
26.97000 392.289
26.98000 392.269
26.99000 392.251
27.00000 393.327
27.01000 394.401
27.02000 393.891
27.03000 387.204
27.04000 379.895
27.05000 375.053
27.06000 376.739
27.07000 378.776
27.08000 380.097
27.09000 386.340
27.10000 390.987
27.11000 388.868
27.12000 378.533
27.13000 368.201
27.14000 364.562
27.15000 366.214
27.16000 367.840
27.17000 371.237
27.18000 375.446
27.19000 379.568
27.20000 382.190
27.21000 384.265
27.22000 385.931
27.23000 383.741
27.24000 380.598
27.25000 377.861
27.26000 376.541
27.27000 375.609
27.28000 375.532
27.29000 378.736
27.30000 382.264
27.31000 384.917
27.32000 385.288
27.33000 385.540
27.34000 385.703
27.35000 383.516
27.36000 381.885
27.37000 382.043
27.38000 384.342
27.39000 386.632
27.40000 385.830
27.41000 382.623
27.42000 379.465
27.43000 376.594
27.44000 373.957
27.45000 371.575
27.46000 373.514
27.47000 377.002
27.48000 380.350
27.49000 382.400
27.50000 384.135
27.51000 385.643
27.52000 384.626
27.53000 383.416
27.54000 383.395
27.55000 387.866
27.56000 392.770
27.57000 393.884
27.58000 385.248
27.59000 376.119
27.60000 370.262
27.61000 372.734
27.62000 374.650
27.63000 376.608
27.64000 378.616
27.65000 380.622
27.66000 381.855
27.67000 382.498
27.68000 383.130
27.69000 380.415
27.70000 376.114
27.71000 372.394
27.72000 378.246
27.73000 387.481
27.74000 395.692
27.75000 394.617
27.76000 391.320
27.77000 388.462
27.78000 378.813
27.79000 369.696
27.80000 363.644
27.81000 369.010
27.82000 375.453
27.83000 379.432
27.84000 377.162
27.85000 374.585
27.86000 372.941
27.87000 373.231
27.88000 373.468
27.89000 377.669
27.90000 386.460
27.91000 395.213
27.92000 394.654
27.93000 387.073
27.94000 379.623
27.95000 373.276
27.96000 367.686
27.97000 362.678
27.98000 367.025
27.99000 374.633
28.00000 381.635
28.01000 383.264
28.02000 383.628
28.03000 383.942
28.04000 380.890
28.05000 377.857
28.06000 375.312
28.07000 374.557
28.08000 373.969
28.09000 372.875
28.10000 370.521
28.11000 368.107
28.12000 366.576
28.13000 367.849
28.14000 368.807
28.15000 372.776
28.16000 380.177
28.17000 387.562
28.18000 391.477
28.19000 392.816
28.20000 394.131
28.21000 391.844
28.22000 387.893
28.23000 383.965
28.24000 380.410
28.25000 376.983
28.26000 374.063
28.27000 375.553
28.28000 378.067
28.29000 380.234
28.30000 378.329
28.31000 376.193
28.32000 374.407
28.33000 373.885
28.34000 373.478
28.35000 372.741
28.36000 371.192
28.37000 369.605
28.38000 368.605
28.39000 367.116
28.40000 366.032
28.41000 368.596
28.42000 375.247
28.43000 381.872
28.44000 383.582
28.45000 381.698
28.46000 379.850
28.47000 373.355
28.48000 364.879
28.49000 357.266
28.50000 362.823
28.51000 372.835
28.52000 381.911
28.53000 382.992
28.54000 382.247
28.55000 381.605
28.56000 369.319
28.57000 357.457
28.58000 348.567
28.59000 350.254
28.60000 352.877
28.61000 356.989
28.62000 364.713
28.63000 372.598
28.64000 377.543
28.65000 373.181
28.66000 369.928
28.67000 369.765
28.68000 373.008
28.69000 376.221
28.70000 374.666
28.71000 369.678
28.72000 364.788
28.73000 363.320
28.74000 363.514
28.75000 363.811
28.76000 365.651
28.77000 368.006
28.78000 370.197
28.79000 371.010
28.80000 371.514
28.81000 371.946
28.82000 365.217
28.83000 358.651
28.84000 354.518
28.85000 358.920
28.86000 364.061
28.87000 367.236
28.88000 365.704
28.89000 363.968
28.90000 362.885
28.91000 362.385
28.92000 362.030
28.93000 363.098
28.94000 365.710
28.95000 368.285
28.96000 365.785
28.97000 359.688
28.98000 353.715
28.99000 355.516
29.00000 360.838
29.01000 365.636
29.02000 362.836
29.03000 357.538
29.04000 353.600
29.05000 360.823
29.06000 370.518
29.07000 378.813
29.08000 375.443
29.09000 371.194
29.10000 368.702
29.11000 372.280
29.12000 376.373
29.13000 380.051
29.14000 382.752
29.15000 385.412
29.16000 387.061
29.17000 371.603
29.18000 360.322
29.19000 357.947
29.20000 365.069
29.21000 372.124
29.22000 370.273
29.23000 362.204
29.24000 354.308
29.25000 356.818
29.26000 363.959
29.27000 370.471
29.28000 368.077
29.29000 362.799
29.30000 357.687
29.31000 353.916
29.32000 350.437
29.33000 347.468
29.34000 348.050
29.35000 348.960
29.36000 351.966
29.37000 362.110
29.38000 372.845
29.39000 378.955
29.40000 374.316
29.41000 369.240
29.42000 366.113
29.43000 376.640
29.44000 384.316
29.45000 387.001
29.46000 384.452
29.47000 381.904
29.48000 379.507
29.49000 377.215
29.50000 374.974
29.51000 373.469
29.52000 372.356
29.53000 370.912
29.54000 364.895
29.55000 357.420
29.56000 351.510
29.57000 357.985
29.58000 367.117
29.59000 374.889
29.60000 368.507
29.61000 361.505
29.62000 354.934
29.63000 349.811
29.64000 344.806
29.65000 344.490
29.66000 354.923
29.67000 365.778
29.68000 372.424
29.69000 370.333
29.70000 368.762
29.71000 367.584
29.72000 366.811
29.73000 366.067
29.74000 368.449
29.75000 372.947
29.76000 377.341
29.77000 378.892
29.78000 379.125
29.79000 379.657
29.80000 384.212
29.81000 390.033
29.82000 395.713
29.83000 400.301
29.84000 404.658
29.85000 408.356
29.86000 401.348
29.87000 394.255
29.88000 390.711
29.89000 398.897
29.90000 408.010
29.91000 413.311
29.92000 410.003
29.93000 406.368
29.94000 404.156
29.95000 418.414
29.96000 428.726
29.97000 437.877
29.98000 445.850
29.99000 453.757
30.00000 454.847
30.01000 451.392
30.02000 448.019
30.03000 449.502
30.04000 453.024
30.05000 456.118
30.06000 453.567
30.07000 449.267
30.08000 446.143
30.09000 451.974
30.10000 459.666
30.11000 466.176
30.12000 459.651
30.13000 452.739
30.14000 447.385
30.15000 447.108
30.16000 447.222
30.17000 445.989
30.18000 441.756
30.19000 437.413
30.20000 434.787
30.21000 432.023
30.22000 430.052
30.23000 426.790
30.24000 422.239
30.25000 417.698
30.26000 413.969
30.27000 410.774
30.28000 407.659
30.29000 405.461
30.30000 403.755
30.31000 402.516
30.32000 407.286
30.33000 413.890
30.34000 419.194
30.35000 414.777
30.36000 408.371
30.37000 402.964
30.38000 402.079
30.39000 401.832
30.40000 400.952
30.41000 398.038
30.42000 394.971
30.43000 391.288
30.44000 386.256
30.45000 381.176
30.46000 378.123
30.47000 383.708
30.48000 387.737
30.49000 394.097
30.50000 402.740
30.51000 411.358
30.52000 417.699
30.53000 422.565
30.54000 427.305
30.55000 419.363
30.56000 406.467
30.57000 394.772
30.58000 398.152
30.59000 406.069
30.60000 413.312
30.61000 415.607
30.62000 416.905
30.63000 417.998
30.64000 403.647
30.65000 390.030
30.66000 382.952
30.67000 396.561
30.68000 411.694
30.69000 422.407
30.70000 423.566
30.71000 424.397
30.72000 424.894
30.73000 423.931
30.74000 423.239
30.75000 422.513
30.76000 421.754
30.77000 421.009
30.78000 421.439
30.79000 422.617
30.80000 423.764
30.81000 426.989
30.82000 430.918
30.83000 434.655
30.84000 436.042
30.85000 436.730
30.86000 437.279
30.87000 436.818
30.88000 436.157
30.89000 435.602
30.90000 434.479
30.91000 433.484
30.92000 437.808
30.93000 458.710
30.94000 480.803
30.95000 495.713
30.96000 495.310
30.97000 494.402
30.98000 493.863
30.99000 515.543
31.00000 531.010
31.01000 548.498
31.02000 567.901
31.03000 587.343
31.04000 609.803
31.05000 634.158
31.06000 657.832
31.07000 684.632
31.08000 711.380
31.09000 740.018
31.10000 791.316
31.11000 849.235
31.12000 906.344
31.13000 957.725
31.14000 1007.990
31.15000 1050.048
31.16000 1127.781
31.17000 1196.023
31.18000 1268.585
31.19000 1354.416
31.20000 1441.177
31.21000 1531.747
31.22000 1630.315
31.23000 1729.137
31.24000 1787.385
31.25000 1952.031
31.26000 2068.803
31.27000 2167.305
31.28000 2248.775
31.29000 2330.535
31.30000 2433.535
31.31000 2549.675
31.32000 2662.443
31.33000 2745.335
31.34000 2812.052
31.35000 2877.412
31.36000 2926.870
31.37000 2971.750
31.38000 3009.379
31.39000 2996.597
31.40000 2974.148
31.41000 2955.419
31.42000 2925.740
31.43000 2900.029
31.44000 2862.533
31.45000 2789.363
31.46000 2713.753
31.47000 2632.088
31.48000 2537.886
31.49000 2443.300
31.50000 2387.915
31.51000 2245.847
31.52000 2145.386
31.53000 2036.919
31.54000 1921.111
31.55000 1805.576
31.56000 1708.903
31.57000 1623.727
31.58000 1541.111
31.59000 1450.300
31.60000 1360.998
31.61000 1273.115
31.62000 1201.481
31.63000 1134.456
31.64000 1068.188
31.65000 1007.087
31.66000 946.960
31.67000 896.945
31.68000 840.985
31.69000 794.079
31.70000 753.193
31.71000 730.268
31.72000 708.541
31.73000 682.521
31.74000 647.743
31.75000 612.706
31.76000 592.326
31.77000 573.600
31.78000 560.452
31.79000 546.541
31.80000 531.941
31.81000 517.384
31.82000 505.614
31.83000 495.519
31.84000 485.738
31.85000 473.136
31.86000 460.116
31.87000 447.346
31.88000 437.379
31.89000 428.195
31.90000 420.420
31.91000 422.094
31.92000 425.523
31.93000 428.367
31.94000 421.160
31.95000 414.239
31.96000 408.793
31.97000 407.680
31.98000 406.849
31.99000 402.893
32.00000 392.652
32.01000 382.232
32.02000 376.212
32.03000 385.095
32.04000 391.373
32.05000 390.654
32.06000 383.726
32.07000 376.839
32.08000 372.415
32.09000 369.449
32.10000 366.579
32.11000 366.801
32.12000 368.191
32.13000 369.461
32.14000 369.420
32.15000 369.018
32.16000 368.127
32.17000 364.010
32.18000 359.303
32.19000 355.411
32.20000 356.817
32.21000 358.475
32.22000 359.204
32.23000 357.241
32.24000 355.107
32.25000 355.276
32.26000 360.010
32.27000 364.869
32.28000 367.657
32.29000 351.967
32.30000 340.941
32.31000 337.708
32.32000 341.279
32.33000 344.774
32.34000 343.911
32.35000 340.507
32.36000 337.217
32.37000 338.581
32.38000 341.616
32.39000 344.080
32.40000 340.402
32.41000 335.059
32.42000 330.629
32.43000 332.118
32.44000 334.669
32.45000 336.772
32.46000 332.053
32.47000 327.540
32.48000 326.389
32.49000 334.837
32.50000 343.879
32.51000 349.130
32.52000 346.978
32.53000 344.632
32.54000 343.296
32.55000 341.740
32.56000 340.656
32.57000 340.129
32.58000 340.080
32.59000 340.036
32.60000 340.256
32.61000 340.627
32.62000 340.985
32.63000 334.894
32.64000 326.770
32.65000 319.816
32.66000 325.156
32.67000 333.780
32.68000 340.557
32.69000 335.579
32.70000 328.526
32.71000 322.730
32.72000 321.094
32.73000 320.126
32.74000 320.424
32.75000 324.288
32.76000 328.367
32.77000 331.254
32.78000 331.849
32.79000 332.387
32.80000 332.691
32.81000 334.498
32.82000 335.754
32.83000 334.444
32.84000 330.965
32.85000 327.512
32.86000 325.417
32.87000 324.091
32.88000 322.812
32.89000 319.287
32.90000 315.154
32.91000 311.722
32.92000 315.510
32.93000 321.197
32.94000 325.443
32.95000 320.680
32.96000 314.353
32.97000 309.169
32.98000 311.100
32.99000 313.310
33.00000 316.671
33.01000 323.223
33.02000 329.962
33.03000 334.144
33.04000 333.474
33.05000 332.688
33.06000 332.247
33.07000 316.551
33.08000 305.636
33.09000 301.978
33.10000 304.354
33.11000 306.731
33.12000 309.116
33.13000 311.506
33.14000 313.807
33.15000 316.643
33.16000 319.498
33.17000 321.220
33.18000 311.535
33.19000 298.893
33.20000 289.094
33.21000 296.770
33.22000 307.430
33.23000 316.136
33.24000 318.498
33.25000 319.885
33.26000 318.250
33.27000 308.355
33.28000 297.990
33.29000 293.564
33.30000 300.243
33.31000 307.177
33.32000 311.046
33.33000 300.143
33.34000 292.576
33.35000 289.639
33.36000 290.495
33.37000 291.329
33.38000 291.175
33.39000 290.477
33.40000 289.806
33.41000 292.927
33.42000 297.190
33.43000 301.135
33.44000 301.937
33.45000 301.937
33.46000 302.451
33.47000 306.077
33.48000 310.225
33.49000 313.602
33.50000 314.171
33.51000 314.400
33.52000 314.297
33.53000 313.305
33.54000 312.263
33.55000 309.948
33.56000 305.290
33.57000 300.580
33.58000 297.971
33.59000 306.885
33.60000 313.040
33.61000 311.963
33.62000 305.058
33.63000 298.296
33.64000 298.053
33.65000 301.340
33.66000 304.499
33.67000 306.789
33.68000 308.633
33.69000 310.052
33.70000 307.376
33.71000 303.670
33.72000 299.575
33.73000 293.171
33.74000 286.385
33.75000 280.879
33.76000 287.200
33.77000 293.328
33.78000 297.294
33.79000 295.519
33.80000 293.434
33.81000 292.773
33.82000 294.696
33.83000 296.672
33.84000 297.759
33.85000 301.899
33.86000 304.740
33.87000 303.295
33.88000 298.450
33.89000 293.795
33.90000 297.344
33.91000 305.274
33.92000 312.885
33.93000 307.256
33.94000 297.474
33.95000 287.880
33.96000 280.072
33.97000 272.707
33.98000 267.326
33.99000 273.538
34.00000 281.632
34.01000 288.179
34.02000 291.201
34.03000 293.376
34.04000 293.933
34.05000 290.255
34.06000 286.356
34.07000 286.879
34.08000 295.318
34.09000 303.915
34.10000 308.607
34.11000 304.707
34.12000 302.029
34.13000 302.498
34.14000 305.424
34.15000 308.173
34.16000 303.545
34.17000 295.037
34.18000 286.881
34.19000 288.447
34.20000 293.174
34.21000 297.382
34.22000 296.776
34.23000 294.996
34.24000 293.568
34.25000 294.160
34.26000 295.075
34.27000 295.813
34.28000 288.934
34.29000 282.747
34.30000 279.047
34.31000 281.762
34.32000 284.803
34.33000 288.743
34.34000 294.268
34.35000 299.823
34.36000 302.833
34.37000 294.357
34.38000 288.552
34.39000 286.216
34.40000 286.546
34.41000 286.933
34.42000 289.580
34.43000 293.399
34.44000 297.054
34.45000 298.888
34.46000 299.995
34.47000 300.691
34.48000 297.655
34.49000 293.723
34.50000 289.602
34.51000 284.408
34.52000 279.046
34.53000 274.737
34.54000 278.802
34.55000 282.741
34.56000 285.890
34.57000 287.031
34.58000 288.073
34.59000 287.338
34.60000 283.517
34.61000 279.640
34.62000 277.555
34.63000 270.987
34.64000 266.524
34.65000 268.002
34.66000 273.978
34.67000 279.973
34.68000 286.757
34.69000 293.942
34.70000 300.813
34.71000 296.544
34.72000 288.949
34.73000 282.028
34.74000 281.113
34.75000 281.619
34.76000 282.752
34.77000 287.371
34.78000 292.527
34.79000 296.656
34.80000 290.876
34.81000 285.456
34.82000 280.242
34.83000 275.546
34.84000 270.875
34.85000 269.769
34.86000 274.765
34.87000 279.865
34.88000 282.586
34.89000 287.601
34.90000 291.007
34.91000 291.974
34.92000 291.124
34.93000 290.183
34.94000 285.923
34.95000 279.993
34.96000 274.331
34.97000 275.007
34.98000 277.664
34.99000 280.144
35.00000 281.078
35.01000 281.652
35.02000 281.881
35.03000 280.223
35.04000 278.279
35.05000 276.728
35.06000 275.712
35.07000 274.932
35.08000 273.639
35.09000 271.080
35.10000 268.463
35.11000 268.892
35.12000 274.460
35.13000 280.112
35.14000 283.104
35.15000 280.590
35.16000 278.870
35.17000 275.773
35.18000 271.667
35.19000 267.630
35.20000 266.088
35.21000 265.783
35.22000 265.492
35.23000 267.068
35.24000 269.119
35.25000 271.587
35.26000 277.634
35.27000 284.501
35.28000 288.714
35.29000 278.656
35.30000 266.476
35.31000 256.787
35.32000 266.710
35.33000 276.112
35.34000 281.824
35.35000 278.548
35.36000 274.867
35.37000 274.022
35.38000 277.893
35.39000 281.835
35.40000 283.906
35.41000 274.152
35.42000 267.568
35.43000 266.216
35.44000 268.643
35.45000 271.044
35.46000 272.569
35.47000 273.666
35.48000 274.711
35.49000 272.965
35.50000 270.483
35.51000 268.146
35.52000 267.028
35.53000 266.185
35.54000 265.596
35.55000 266.349
35.56000 267.299
35.57000 268.051
35.58000 268.187
35.59000 268.254
35.60000 269.384
35.61000 273.068
35.62000 276.864
35.63000 277.696
35.64000 273.674
35.65000 269.582
35.66000 267.450
35.67000 256.887
35.68000 249.799
35.69000 250.745
35.70000 257.403
35.71000 264.059
35.72000 270.627
35.73000 277.153
35.74000 283.358
35.75000 286.226
35.76000 287.862
35.77000 288.484
35.78000 280.758
35.79000 271.176
35.80000 264.490
35.81000 272.867
35.82000 283.405
35.83000 291.731
35.84000 282.387
35.85000 273.680
35.86000 268.228
35.87000 270.478
35.88000 273.053
35.89000 275.549
35.90000 277.918
35.91000 280.285
35.92000 281.509
35.93000 271.266
35.94000 264.405
35.95000 263.699
35.96000 267.303
35.97000 270.917
35.98000 274.818
35.99000 278.854
36.00000 282.686
36.01000 284.751
36.02000 286.126
36.03000 286.660
36.04000 280.380
36.05000 272.610
36.06000 266.589
36.07000 269.517
36.08000 273.707
36.09000 277.005
36.10000 276.504
36.11000 275.850
36.12000 274.188
36.13000 270.177
36.14000 266.071
36.15000 263.061
36.16000 261.796
36.17000 260.552
36.18000 259.915
36.19000 260.903
36.20000 261.561
36.21000 261.528
36.22000 261.017
36.23000 260.512
36.24000 260.187
36.25000 259.947
36.26000 259.720
36.27000 257.303
36.28000 254.429
36.29000 252.182
36.30000 254.910
36.31000 258.709
36.32000 262.048
36.33000 263.063
36.34000 263.758
36.35000 264.302
36.36000 266.979
36.37000 269.258
36.38000 269.782
36.39000 266.273
36.40000 262.605
36.41000 260.427
36.42000 260.584
36.43000 260.768
36.44000 260.862
36.45000 262.653
36.46000 263.853
36.47000 264.985
36.48000 266.072
36.49000 267.194
36.50000 269.369
36.51000 272.030
36.52000 274.549
36.53000 273.931
36.54000 272.451
36.55000 270.544
36.56000 265.303
36.57000 259.357
36.58000 254.343
36.59000 253.949
36.60000 254.184
36.61000 254.367
36.62000 260.278
36.63000 265.359
36.64000 267.869
36.65000 264.556
36.66000 261.019
36.67000 260.062
36.68000 263.082
36.69000 266.147
36.70000 267.693
36.71000 262.175
36.72000 258.535
36.73000 260.125
36.74000 265.215
36.75000 270.306
36.76000 275.458
36.77000 280.636
36.78000 285.532
36.79000 282.471
36.80000 277.386
36.81000 272.663
36.82000 270.717
36.83000 269.351
36.84000 268.500
36.85000 270.171
36.86000 272.177
36.87000 273.739
36.88000 275.374
36.89000 276.681
36.90000 277.394
36.91000 276.784
36.92000 276.125
36.93000 277.535
36.94000 282.089
36.95000 286.677
36.96000 288.971
36.97000 288.919
36.98000 288.895
36.99000 289.924
37.00000 291.647
37.01000 293.367
37.02000 295.017
37.03000 296.636
37.04000 298.164
37.05000 291.341
37.06000 282.737
37.07000 275.523
37.08000 278.750
37.09000 284.120
37.10000 288.125
37.11000 285.574
37.12000 282.164
37.13000 279.517
37.14000 266.404
37.15000 255.348
37.16000 250.773
37.17000 260.460
37.18000 270.657
37.19000 276.554
37.20000 276.017
37.21000 275.418
37.22000 275.737
37.23000 276.959
37.24000 278.138
37.25000 275.421
37.26000 270.175
37.27000 265.261
37.28000 269.054
37.29000 276.694
37.30000 283.896
37.31000 279.373
37.32000 271.989
37.33000 265.383
37.34000 264.514
37.35000 264.803
37.36000 264.767
37.37000 263.196
37.38000 261.428
37.39000 260.060
37.40000 266.584
37.41000 272.222
37.42000 275.341
37.43000 272.993
37.44000 270.456
37.45000 269.250
37.46000 270.004
37.47000 270.777
37.48000 273.457
37.49000 277.983
37.50000 282.433
37.51000 280.496
37.52000 274.473
37.53000 268.716
37.54000 269.655
37.55000 273.513
37.56000 277.143
37.57000 272.329
37.58000 265.632
37.59000 260.111
37.60000 263.094
37.61000 267.768
37.62000 271.183
37.63000 268.745
37.64000 265.569
37.65000 263.122
37.66000 265.038
37.67000 266.805
37.68000 267.258
37.69000 264.903
37.70000 262.454
37.71000 262.102
37.72000 264.794
37.73000 267.512
37.74000 270.876
37.75000 274.856
37.76000 278.739
37.77000 275.021
37.78000 266.514
37.79000 258.379
37.80000 259.361
37.81000 264.256
37.82000 268.855
37.83000 272.004
37.84000 274.489
37.85000 276.592
37.86000 275.985
37.87000 274.846
37.88000 273.742
37.89000 272.791
37.90000 271.859
37.91000 271.143
37.92000 277.009
37.93000 282.011
37.94000 283.841
37.95000 278.985
37.96000 273.914
37.97000 270.680
37.98000 270.069
37.99000 269.479
38.00000 264.476
38.01000 255.348
38.02000 246.378
38.03000 249.141
38.04000 259.187
38.05000 269.012
38.06000 273.613
38.07000 276.002
38.08000 278.243
38.09000 277.004
38.10000 274.959
38.11000 273.625
38.12000 277.247
38.13000 281.825
38.14000 286.342
38.15000 290.589
38.16000 294.804
38.17000 298.026
38.18000 301.202
38.19000 303.704
38.20000 303.249
38.21000 296.652
38.22000 289.864
38.23000 287.144
38.24000 290.151
38.25000 293.196
38.26000 296.898
38.27000 301.200
38.28000 305.491
38.29000 309.000
38.30000 312.031
38.31000 314.939
38.32000 315.022
38.33000 313.925
38.34000 312.898
38.35000 321.324
38.36000 331.434
38.37000 341.620
38.38000 352.325
38.39000 363.129
38.40000 375.028
38.41000 391.785
38.42000 409.120
38.43000 422.322
38.44000 430.025
38.45000 435.798
38.46000 445.875
38.47000 464.762
38.48000 483.911
38.49000 504.010
38.50000 525.425
38.51000 546.841
38.52000 568.361
38.53000 589.955
38.54000 611.524
38.55000 631.493
38.56000 650.497
38.57000 670.233
38.58000 706.257
38.59000 748.977
38.60000 788.927
38.61000 811.550
38.62000 827.684
38.63000 843.444
38.64000 856.688
38.65000 869.463
38.66000 880.717
38.67000 885.327
38.68000 889.160
38.69000 892.068
38.70000 895.268
38.71000 897.797
38.72000 897.265
38.73000 890.556
38.74000 883.671
38.75000 874.539
38.76000 862.339
38.77000 850.127
38.78000 829.264
38.79000 800.733
38.80000 772.245
38.81000 746.438
38.82000 722.221
38.83000 697.893
38.84000 671.154
38.85000 643.439
38.86000 617.563
38.87000 598.381
38.88000 582.667
38.89000 566.126
38.90000 544.111
38.91000 521.093
38.92000 499.152
38.93000 481.846
38.94000 465.071
38.95000 452.396
38.96000 431.446
38.97000 414.609
38.98000 400.147
38.99000 390.409
39.00000 380.800
39.01000 368.539
39.02000 352.714
39.03000 336.879
39.04000 328.869
39.05000 327.716
39.06000 326.436
39.07000 317.652
39.08000 304.480
39.09000 291.680
39.10000 286.688
39.11000 284.814
39.12000 283.068
39.13000 280.797
39.14000 278.612
39.15000 277.030
39.16000 279.365
39.17000 282.406
39.18000 285.345
39.19000 287.855
39.20000 290.316
39.21000 292.168
39.22000 284.382
39.23000 277.822
39.24000 272.137
39.25000 268.170
39.26000 264.248
39.27000 261.550
39.28000 260.472
39.29000 259.402
39.30000 258.418
39.31000 257.511
39.32000 256.622
39.33000 256.761
39.34000 257.493
39.35000 258.167
39.36000 257.651
39.37000 256.668
39.38000 255.752
39.39000 255.490
39.40000 255.411
39.41000 255.390
39.42000 255.740
39.43000 256.155
39.44000 256.530
39.45000 256.731
39.46000 256.913
39.47000 257.049
39.48000 248.735
39.49000 241.844
39.50000 238.416
39.51000 241.679
39.52000 245.110
39.53000 246.936
39.54000 246.671
39.55000 246.398
39.56000 246.436
39.57000 246.737
39.58000 246.978
39.59000 243.996
39.60000 239.184
39.61000 234.655
39.62000 235.704
39.63000 238.918
39.64000 241.904
39.65000 244.840
39.66000 247.476
39.67000 249.345
39.68000 246.392
39.69000 242.598
39.70000 239.461
39.71000 239.018
39.72000 238.866
39.73000 238.753
39.74000 240.894
39.75000 242.665
39.76000 243.633
39.77000 243.071
39.78000 242.473
39.79000 242.334
39.80000 242.786
39.81000 243.239
39.82000 243.689
39.83000 244.134
39.84000 244.517
39.85000 241.772
39.86000 237.276
39.87000 232.953
39.88000 231.951
39.89000 232.220
39.90000 232.469
39.91000 235.208
39.92000 238.257
39.93000 240.580
39.94000 238.428
39.95000 235.508
39.96000 232.496
39.97000 229.111
39.98000 225.687
39.99000 223.141
40.00000 229.106
40.01000 234.125
40.02000 237.416
40.03000 237.467
40.04000 237.443
40.05000 236.607
40.06000 234.745
40.07000 232.883
40.08000 233.409
40.09000 235.890
40.10000 238.309
40.11000 237.765
40.12000 235.588
40.13000 233.552
40.14000 234.161
40.15000 235.768
40.16000 237.255
40.17000 240.738
40.18000 244.327
40.19000 246.756
40.20000 242.143
40.21000 236.344
40.22000 232.444
40.23000 236.109
40.24000 240.558
40.25000 243.853
40.26000 240.999
40.27000 238.518
40.28000 236.190
40.29000 234.144
40.30000 232.104
40.31000 233.326
40.32000 238.601
40.33000 243.879
40.34000 243.506
40.35000 238.584
40.36000 233.682
40.37000 229.662
40.38000 226.123
40.39000 222.604
40.40000 219.459
40.41000 216.454
40.42000 213.676
40.43000 220.745
40.44000 229.316
40.45000 236.526
40.46000 235.619
40.47000 233.367
40.48000 230.558
40.49000 225.566
40.50000 220.351
40.51000 216.506
40.52000 218.794
40.53000 220.824
40.54000 223.369
40.55000 226.853
40.56000 230.357
40.57000 233.650
40.58000 236.686
40.59000 239.716
40.60000 238.959
40.61000 235.205
40.62000 231.458
40.63000 227.995
40.64000 224.684
40.65000 221.461
40.66000 219.788
40.67000 218.682
40.68000 217.662
40.69000 223.217
40.70000 229.657
40.71000 234.322
40.72000 228.581
40.73000 221.145
40.74000 215.839
40.75000 218.759
40.76000 222.497
40.77000 225.242
40.78000 226.166
40.79000 226.806
40.80000 225.342
40.81000 220.103
40.82000 214.788
40.83000 214.750
40.84000 221.065
40.85000 227.381
40.86000 229.109
40.87000 227.253
40.88000 225.421
40.89000 224.623
40.90000 224.371
40.91000 223.929
40.92000 220.234
40.93000 215.364
40.94000 210.882
40.95000 212.860
40.96000 216.043
40.97000 217.920
40.98000 212.266
40.99000 205.406
41.00000 201.501
41.01000 208.841
41.02000 217.275
41.03000 223.443
41.04000 224.841
41.05000 225.732
41.06000 225.375
41.07000 222.812
41.08000 220.207
41.09000 222.037
41.10000 229.124
41.11000 236.204
41.12000 238.618
41.13000 237.441
41.14000 236.221
41.15000 233.219
41.16000 229.291
41.17000 225.567
41.18000 225.260
41.19000 226.167
41.20000 227.001
41.21000 222.407
41.22000 217.139
41.23000 213.008
41.24000 215.326
41.25000 218.658
41.26000 220.879
41.27000 218.933
41.28000 216.590
41.29000 214.884
41.30000 215.123
41.31000 215.380
41.32000 215.383
41.33000 214.941
41.34000 214.491
41.35000 214.424
41.36000 214.803
41.37000 215.182
41.38000 214.616
41.39000 213.342
41.40000 212.106
41.41000 212.389
41.42000 213.451
41.43000 214.570
41.44000 216.632
41.45000 219.025
41.46000 221.220
41.47000 215.424
41.48000 208.569
41.49000 203.464
41.50000 208.113
41.51000 214.272
41.52000 217.657
41.53000 210.805
41.54000 202.997
41.55000 197.337
41.56000 204.080
41.57000 209.721
41.58000 213.575
41.59000 214.360
41.60000 215.091
41.61000 215.422
41.62000 215.294
41.63000 215.165
41.64000 215.176
41.65000 215.291
41.66000 215.393
41.67000 215.014
41.68000 214.392
41.69000 213.649
41.70000 210.991
41.71000 207.670
41.72000 204.630
41.73000 207.692
41.74000 211.685
41.75000 215.724
41.76000 220.015
41.77000 224.344
41.78000 227.514
41.79000 226.468
41.80000 225.036
41.81000 224.002
41.82000 216.452
41.83000 210.429
41.84000 206.671
41.85000 206.747
41.86000 206.885
41.87000 207.153
41.88000 207.569
41.89000 207.983
41.90000 209.328
41.91000 211.342
41.92000 213.301
41.93000 213.309
41.94000 212.345
41.95000 211.491
41.96000 212.318
41.97000 213.718
41.98000 214.996
41.99000 207.274
42.00000 198.577
42.01000 192.204
42.02000 198.367
42.03000 206.401
42.04000 212.272
42.05000 210.388
42.06000 207.811
42.07000 205.959
42.08000 203.672
42.09000 201.908
42.10000 203.901
42.11000 212.162
42.12000 220.518
42.13000 224.335
42.14000 223.111
42.15000 221.887
42.16000 217.262
42.17000 210.233
42.18000 203.378
42.19000 202.457
42.20000 204.446
42.21000 206.381
42.22000 207.491
42.23000 208.324
42.24000 209.084
42.25000 210.065
42.26000 210.979
42.27000 211.843
42.28000 212.439
42.29000 212.995
42.30000 214.309
42.31000 218.300
42.32000 222.525
42.33000 225.547
42.34000 218.567
42.35000 212.901
42.36000 209.308
42.37000 209.122
42.38000 208.985
42.39000 207.224
42.40000 203.688
42.41000 200.165
42.42000 200.131
42.43000 202.563
42.44000 204.863
42.45000 202.863
42.46000 198.784
42.47000 195.156
42.48000 198.130
42.49000 203.288
42.50000 207.983
42.51000 204.821
42.52000 200.472
42.53000 196.667
42.54000 195.702
42.55000 195.146
42.56000 194.969
42.57000 196.106
42.58000 197.356
42.59000 198.246
42.60000 201.819
42.61000 204.630
42.62000 207.598
42.63000 210.823
42.64000 214.051
42.65000 214.910
42.66000 213.225
42.67000 211.545
42.68000 210.319
42.69000 209.421
42.70000 208.500
42.71000 206.887
42.72000 204.944
42.73000 203.138
42.74000 203.301
42.75000 204.106
42.76000 204.837
42.77000 212.235
42.78000 220.063
42.79000 226.000
42.80000 222.221
42.81000 217.067
42.82000 212.588
42.83000 210.419
42.84000 208.444
42.85000 207.043
42.86000 206.638
42.87000 206.362
42.88000 207.060
42.89000 209.310
42.90000 211.581
42.91000 211.284
42.92000 208.274
42.93000 205.277
42.94000 206.344
42.95000 210.178
42.96000 213.895
42.97000 214.033
42.98000 212.491
42.99000 210.908
43.00000 208.767
43.01000 206.447
43.02000 204.344
43.03000 201.133
43.04000 198.090
43.05000 196.433
43.06000 201.785
43.07000 208.110
43.08000 212.460
43.09000 210.139
43.10000 207.274
43.11000 205.252
43.12000 207.508
43.13000 209.349
43.14000 209.574
43.15000 207.262
43.16000 204.919
43.17000 205.465
43.18000 209.014
43.19000 212.544
43.20000 212.901
43.21000 211.116
43.22000 209.430
43.23000 210.658
43.24000 213.234
43.25000 215.430
43.26000 212.430
43.27000 207.787
43.28000 203.587
43.29000 202.840
43.30000 202.830
43.31000 203.096
43.32000 204.737
43.33000 206.565
43.34000 207.620
43.35000 206.100
43.36000 204.376
43.37000 203.164
43.38000 200.397
43.39000 198.257
43.40000 194.782
43.41000 189.243
43.42000 183.680
43.43000 184.779
43.44000 192.682
43.45000 200.541
43.46000 205.946
43.47000 209.654
43.48000 213.061
43.49000 207.969
43.50000 198.999
43.51000 190.923
43.52000 194.735
43.53000 202.255
43.54000 209.044
43.55000 205.864
43.56000 201.236
43.57000 198.528
43.58000 205.218
43.59000 213.168
43.60000 217.633
43.61000 210.672
43.62000 202.820
43.63000 197.330
43.64000 193.442
43.65000 190.549
43.66000 188.477
43.67000 187.657
43.68000 186.851
43.69000 189.749
43.70000 196.368
43.71000 202.946
43.72000 205.403
43.73000 205.138
43.74000 204.920
43.75000 205.968
43.76000 207.587
43.77000 208.680
43.78000 202.961
43.79000 195.149
43.80000 188.110
43.81000 194.933
43.82000 203.422
43.83000 210.405
43.84000 210.129
43.85000 208.898
43.86000 206.559
43.87000 200.640
43.88000 194.449
43.89000 190.141
43.90000 195.182
43.91000 199.237
43.92000 203.012
43.93000 206.366
43.94000 209.716
43.95000 208.918
43.96000 204.023
43.97000 199.161
43.98000 198.557
43.99000 200.693
44.00000 202.788
44.01000 203.780
44.02000 204.281
44.03000 204.882
44.04000 206.734
44.05000 208.964
44.06000 210.970
44.07000 208.903
44.08000 206.371
44.09000 204.782
44.10000 207.669
44.11000 211.134
44.12000 213.643
44.13000 213.107
44.14000 212.344
44.15000 211.816
44.16000 205.656
44.17000 200.872
44.18000 198.487
44.19000 199.649
44.20000 200.843
44.21000 203.189
44.22000 206.653
44.23000 210.092
44.24000 210.229
44.25000 208.279
44.26000 206.441
44.27000 207.469
44.28000 209.750
44.29000 211.594
44.30000 208.034
44.31000 202.860
44.32000 198.219
44.33000 203.350
44.34000 209.538
44.35000 214.068
44.36000 210.861
44.37000 206.673
44.38000 204.928
44.39000 210.845
44.40000 217.318
44.41000 221.778
44.42000 222.950
44.43000 223.748
44.44000 222.615
44.45000 218.673
44.46000 214.707
44.47000 213.204
44.48000 214.052
44.49000 214.894
44.50000 216.650
44.51000 218.943
44.52000 221.187
44.53000 222.232
44.54000 222.760
44.55000 223.328
44.56000 224.384
44.57000 225.584
44.58000 226.658
44.59000 229.808
44.60000 232.912
44.61000 235.714
44.62000 237.131
44.63000 238.376
44.64000 240.140
44.65000 243.509
44.66000 246.991
44.67000 249.379
44.68000 252.454
44.69000 254.775
44.70000 255.607
44.71000 254.304
44.72000 252.986
44.73000 257.453
44.74000 267.353
44.75000 277.172
44.76000 283.961
44.77000 288.775
44.78000 293.616
44.79000 299.110
44.80000 304.881
44.81000 310.138
44.82000 309.307
44.83000 306.712
44.84000 304.395
44.85000 312.036
44.86000 320.366
44.87000 328.016
44.88000 332.585
44.89000 336.779
44.90000 342.180
44.91000 351.258
44.92000 360.591
44.93000 366.959
44.94000 372.112
44.95000 375.937
44.96000 382.487
44.97000 392.885
44.98000 403.309
44.99000 406.875
45.00000 404.108
45.01000 401.364
45.02000 401.971
45.03000 404.583
45.04000 407.200
45.05000 409.946
45.06000 412.746
45.07000 414.803
45.08000 408.263
45.09000 399.269
45.10000 391.253
45.11000 388.319
45.12000 386.608
45.13000 385.690
45.14000 388.299
45.15000 391.332
45.16000 391.457
45.17000 382.854
45.18000 373.662
45.19000 367.421
45.20000 362.697
45.21000 359.206
45.22000 356.334
45.23000 354.322
45.24000 352.313
45.25000 345.845
45.26000 335.325
45.27000 324.903
45.28000 318.888
45.29000 315.603
45.30000 312.433
45.31000 311.835
45.32000 312.298
45.33000 312.158
45.34000 305.190
45.35000 296.303
45.36000 288.400
45.37000 289.267
45.38000 291.441
45.39000 292.246
45.40000 287.049
45.41000 281.147
45.42000 275.594
45.43000 271.075
45.44000 266.624
45.45000 263.617
45.46000 267.035
45.47000 269.718
45.48000 267.038
45.49000 257.015
45.50000 246.953
45.51000 243.796
45.52000 246.808
45.53000 249.792
45.54000 250.814
45.55000 250.672
45.56000 250.422
45.57000 247.845
45.58000 244.320
45.59000 240.758
45.60000 236.773
45.61000 232.671
45.62000 229.032
45.63000 227.804
45.64000 227.124
45.65000 226.925
45.66000 228.795
45.67000 230.904
45.68000 231.267
45.69000 226.544
45.70000 221.495
45.71000 218.101
45.72000 215.893
45.73000 214.277
45.74000 212.008
45.75000 208.855
45.76000 205.700
45.77000 204.186
45.78000 204.114
45.79000 204.042
45.80000 205.939
45.81000 208.923
45.82000 211.702
45.83000 210.162
45.84000 206.892
45.85000 203.198
45.86000 194.905
45.87000 185.358
45.88000 176.908
45.89000 179.769
45.90000 184.012
45.91000 188.991
45.92000 197.094
45.93000 205.550
45.94000 209.936
45.95000 202.622
45.96000 194.578
45.97000 189.200
45.98000 192.672
45.99000 195.420
46.00000 195.511
46.01000 192.074
46.02000 188.628
46.03000 191.935
46.04000 201.084
46.05000 210.131
46.06000 207.604
46.07000 198.599
46.08000 189.813
46.09000 185.479
46.10000 182.904
46.11000 180.760
46.12000 183.188
46.13000 186.845
46.14000 190.074
46.15000 188.331
46.16000 186.062
46.17000 183.626
46.18000 180.489
46.19000 177.274
46.20000 175.228
46.21000 176.494
46.22000 177.962
46.23000 178.938
46.24000 186.668
46.25000 192.513
46.26000 192.991
46.27000 186.452
46.28000 179.890
46.29000 177.897
46.30000 179.791
46.31000 181.664
46.32000 181.460
46.33000 180.108
46.34000 178.930
46.35000 181.225
46.36000 184.872
46.37000 188.007
46.38000 185.831
46.39000 182.249
46.40000 179.093
46.41000 178.580
46.42000 178.537
46.43000 178.493
46.44000 178.450
46.45000 178.406
46.46000 178.605
46.47000 179.478
46.48000 180.392
46.49000 180.997
46.50000 180.602
46.51000 180.292
46.52000 178.807
46.53000 175.808
46.54000 172.809
46.55000 172.709
46.56000 175.038
46.57000 177.338
46.58000 179.447
46.59000 181.397
46.60000 183.126
46.61000 180.607
46.62000 176.457
46.63000 172.462
46.64000 170.043
46.65000 168.035
46.66000 166.270
46.67000 173.778
46.68000 181.608
46.69000 186.736
46.70000 180.907
46.71000 173.913
46.72000 170.060
46.73000 174.846
46.74000 180.130
46.75000 183.608
46.76000 182.246
46.77000 181.160
46.78000 181.476
46.79000 183.567
46.80000 185.655
46.81000 183.647
46.82000 178.261
46.83000 172.946
46.84000 171.371
46.85000 171.851
46.86000 172.385
46.87000 173.927
46.88000 175.850
46.89000 177.716
46.90000 179.021
46.91000 180.181
46.92000 181.198
46.93000 177.946
46.94000 174.535
46.95000 170.792
46.96000 165.725
46.97000 160.520
46.98000 158.443
46.99000 164.847
47.00000 171.726
47.01000 176.230
47.02000 167.534
47.03000 160.927
47.04000 159.507
47.05000 164.557
47.06000 169.621
47.07000 173.080
47.08000 175.236
47.09000 177.362
47.10000 176.977
47.11000 175.272
47.12000 173.664
47.13000 173.829
47.14000 174.654
47.15000 175.332
47.16000 174.580
47.17000 173.466
47.18000 172.491
47.19000 172.462
47.20000 172.571
47.21000 171.980
47.22000 168.626
47.23000 164.991
47.24000 162.591
47.25000 163.490
47.26000 164.569
47.27000 165.271
47.28000 169.016
47.29000 171.809
47.30000 171.913
47.31000 168.715
47.32000 165.521
47.33000 166.162
47.34000 169.865
47.35000 173.516
47.36000 174.301
47.37000 173.568
47.38000 172.823
47.39000 171.848
47.40000 170.788
47.41000 170.249
47.42000 174.680
47.43000 180.349
47.44000 185.296
47.45000 180.115
47.46000 174.267
47.47000 168.925
47.48000 165.540
47.49000 162.351
47.50000 160.080
47.51000 160.230
47.52000 160.508
47.53000 160.688
47.54000 170.735
47.55000 178.233
47.56000 180.195
47.57000 175.469
47.58000 170.742
47.59000 169.593
47.60000 171.257
47.61000 172.895
47.62000 173.018
47.63000 172.359
47.64000 171.802
47.65000 173.007
47.66000 174.849
47.67000 176.110
47.68000 171.932
47.69000 166.417
47.70000 161.618
47.71000 165.842
47.72000 170.687
47.73000 173.525
47.74000 168.698
47.75000 163.122
47.76000 159.416
47.77000 160.562
47.78000 161.959
47.79000 162.859
47.80000 168.120
47.81000 172.022
47.82000 173.369
47.83000 171.678
47.84000 169.969
47.85000 165.079
47.86000 157.728
47.87000 150.494
47.88000 149.528
47.89000 151.758
47.90000 153.945
47.91000 155.399
47.92000 156.591
47.93000 157.875
47.94000 160.001
47.95000 162.331
47.96000 164.354
47.97000 163.284
47.98000 161.955
47.99000 160.327
48.00000 157.572
48.01000 154.708
48.02000 153.437
48.03000 156.239
48.04000 159.244
48.05000 161.169
48.06000 156.463
48.07000 152.946
48.08000 152.656
48.09000 156.139
48.10000 159.629
48.11000 163.182
48.12000 166.784
48.13000 170.326
48.14000 169.542
48.15000 166.633
48.16000 163.908
48.17000 164.204
48.18000 165.562
48.19000 166.695
48.20000 165.806
48.21000 164.437
48.22000 163.250
48.23000 160.509
48.24000 157.972
48.25000 156.947
48.26000 161.525
48.27000 166.629
48.28000 169.102
48.29000 164.940
48.30000 160.456
48.31000 157.600
48.32000 166.307
48.33000 172.781
48.34000 173.702
48.35000 168.230
48.36000 162.779
48.37000 162.954
48.38000 167.348
48.39000 171.665
48.40000 172.735
48.41000 172.180
48.42000 171.488
48.43000 168.620
48.44000 164.998
48.45000 162.226
48.46000 166.955
48.47000 173.442
48.48000 179.046
48.49000 173.553
48.50000 167.453
48.51000 163.811
48.52000 169.145
48.53000 175.302
48.54000 178.529
48.55000 174.476
48.56000 170.079
48.57000 167.295
48.58000 163.323
48.59000 160.429
48.60000 156.625
48.61000 151.789
48.62000 146.984
48.63000 147.885
48.64000 152.998
48.65000 158.017
48.66000 164.763
48.67000 172.102
48.68000 178.685
48.69000 173.546
48.70000 164.401
48.71000 156.121
48.72000 155.318
48.73000 156.241
48.74000 157.035
48.75000 158.206
48.76000 159.246
48.77000 160.239
48.78000 161.066
48.79000 161.878
48.80000 162.031
48.81000 160.569
48.82000 159.034
48.83000 158.067
48.84000 162.057
48.85000 164.999
48.86000 165.090
48.87000 162.004
48.88000 158.934
48.89000 159.068
48.90000 161.531
48.91000 163.947
48.92000 164.054
48.93000 163.063
48.94000 161.922
48.95000 158.506
48.96000 154.325
48.97000 150.611
48.98000 150.852
48.99000 151.993
49.00000 152.973
49.01000 157.543
49.02000 161.856
49.03000 164.700
49.04000 162.340
49.05000 159.524
49.06000 157.364
49.07000 156.789
49.08000 156.283
49.09000 155.967
49.10000 155.032
49.11000 154.351
49.12000 154.219
49.13000 154.687
49.14000 155.167
49.15000 157.260
49.16000 160.509
49.17000 163.693
49.18000 162.152
49.19000 158.464
49.20000 154.985
49.21000 154.604
49.22000 155.249
49.23000 155.734
49.24000 154.885
49.25000 153.738
49.26000 152.755
49.27000 150.508
49.28000 148.456
49.29000 147.827
49.30000 152.161
49.31000 156.921
49.32000 161.530
49.33000 165.778
49.34000 170.010
49.35000 172.643
49.36000 161.459
49.37000 153.265
49.38000 150.617
49.39000 153.946
49.40000 157.266
49.41000 158.933
49.42000 159.434
49.43000 159.925
49.44000 158.288
49.45000 155.737
49.46000 153.284
49.47000 152.243
49.48000 151.665
49.49000 151.953
49.50000 159.315
49.51000 168.234
49.52000 175.858
49.53000 173.348
49.54000 170.020
49.55000 166.812
49.56000 164.014
49.57000 161.251
49.58000 157.891
49.59000 153.129
49.60000 148.310
49.61000 145.329
49.62000 150.228
49.63000 153.823
49.64000 156.905
49.65000 159.444
49.66000 161.963
49.67000 161.980
49.68000 160.259
49.69000 158.576
49.70000 157.209
49.71000 156.040
49.72000 155.287
49.73000 160.360
49.74000 167.311
49.75000 173.500
49.76000 173.595
49.77000 172.369
49.78000 171.324
49.79000 160.972
49.80000 151.171
49.81000 144.591
49.82000 148.921
49.83000 154.147
49.84000 157.110
49.85000 154.840
49.86000 152.360
49.87000 150.836
49.88000 147.794
49.89000 145.601
49.90000 148.768
49.91000 157.526
49.92000 166.224
49.93000 167.885
49.94000 164.734
49.95000 161.653
49.96000 160.321
49.97000 159.823
49.98000 159.562
49.99000 162.562
50.00000 166.596
50.01000 169.637
50.02000 164.867
50.03000 158.430
50.04000 152.957
50.05000 153.458
50.06000 154.565
50.07000 155.506
50.08000 155.889
50.09000 156.227
50.10000 156.963
50.11000 158.603
50.12000 160.278
50.13000 161.302
50.14000 163.555
50.15000 165.178
50.16000 167.244
50.17000 169.765
50.18000 172.265
50.19000 172.501
50.20000 171.212
50.21000 169.954
50.22000 167.663
50.23000 165.018
50.24000 162.808
50.25000 166.410
50.26000 171.831
50.27000 175.848
50.28000 169.043
50.29000 159.964
50.30000 152.267
50.31000 157.602
50.32000 163.542
50.33000 169.170
50.34000 173.769
50.35000 178.288
50.36000 179.709
50.37000 174.172
50.38000 168.374
50.39000 164.853
50.40000 174.097
50.41000 180.792
50.42000 187.257
50.43000 193.490
50.44000 199.653
50.45000 198.879
50.46000 193.503
50.47000 188.259
50.48000 190.180
50.49000 195.106
50.50000 199.662
50.51000 199.409
50.52000 197.673
50.53000 196.873
50.54000 203.156
50.55000 210.902
50.56000 217.452
50.57000 218.180
50.58000 218.146
50.59000 218.750
50.60000 221.420
50.61000 224.249
50.62000 227.318
50.63000 230.919
50.64000 234.540
50.65000 236.724
50.66000 240.790
50.67000 243.699
50.68000 245.066
50.69000 244.907
50.70000 244.756
50.71000 245.405
50.72000 246.577
50.73000 247.719
50.74000 246.503
50.75000 244.342
50.76000 242.326
50.77000 242.153
50.78000 242.540
50.79000 242.588
50.80000 240.112
50.81000 237.122
50.82000 234.602
50.83000 232.682
50.84000 231.144
50.85000 228.878
50.86000 224.288
50.87000 219.523
50.88000 216.649
50.89000 217.901
50.90000 219.298
50.91000 220.135
50.92000 216.442
50.93000 213.790
50.94000 211.965
50.95000 210.946
50.96000 209.927
50.97000 208.821
50.98000 207.659
50.99000 206.528
51.00000 199.741
51.01000 190.912
51.02000 182.623
51.03000 181.043
51.04000 181.472
51.05000 181.481
51.06000 178.421
51.07000 174.748
51.08000 171.660
51.09000 174.556
51.10000 177.604
51.11000 179.748
51.12000 179.048
51.13000 178.140
51.14000 176.694
51.15000 174.090
51.16000 171.447
51.17000 169.873
51.18000 169.560
51.19000 169.347
51.20000 167.696
51.21000 164.670
51.22000 161.662
51.23000 160.157
51.24000 159.607
51.25000 159.071
51.26000 160.290
51.27000 162.172
51.28000 163.826
51.29000 162.714
51.30000 160.787
51.31000 159.332
51.32000 161.265
51.33000 163.865
51.34000 166.045
51.35000 161.789
51.36000 157.580
51.37000 154.482
51.38000 154.833
51.39000 155.428
51.40000 156.796
51.41000 159.803
51.42000 162.862
51.43000 164.673
51.44000 161.441
51.45000 159.128
51.46000 157.024
51.47000 155.115
51.48000 153.236
51.49000 153.642
51.50000 155.475
51.51000 157.257
51.52000 157.382
51.53000 156.832
51.54000 156.377
51.55000 157.040
51.56000 158.028
51.57000 159.287
51.58000 162.442
51.59000 165.966
51.60000 168.912
51.61000 163.291
51.62000 157.753
51.63000 154.178
51.64000 156.601
51.65000 159.441
51.66000 160.378
51.67000 157.338
51.68000 154.172
51.69000 152.311
51.70000 153.531
51.71000 154.406
51.72000 153.653
51.73000 151.391
51.74000 149.146
51.75000 148.204
51.76000 148.063
51.77000 147.927
51.78000 147.038
51.79000 145.896
51.80000 144.820
51.81000 144.513
51.82000 144.426
51.83000 144.338
51.84000 144.244
51.85000 144.148
51.86000 144.069
51.87000 143.549
51.88000 143.074
51.89000 143.589
51.90000 147.085
51.91000 150.784
51.92000 152.427
51.93000 149.838
51.94000 147.120
51.95000 145.533
51.96000 142.781
51.97000 140.840
51.98000 139.716
51.99000 139.336
52.00000 138.980
52.01000 140.274
52.02000 142.567
52.03000 144.791
52.04000 145.879
52.05000 146.465
52.06000 146.956
52.07000 146.362
52.08000 145.462
52.09000 145.006
52.10000 147.563
52.11000 150.685
52.12000 153.279
52.13000 150.860
52.14000 148.371
52.15000 146.959
52.16000 148.746
52.17000 150.744
52.18000 152.900
52.19000 155.375
52.20000 157.860
52.21000 159.302
52.22000 152.751
52.23000 148.120
52.24000 146.238
52.25000 146.820
52.26000 147.365
52.27000 145.615
52.28000 142.492
52.29000 139.467
52.30000 138.754
52.31000 138.970
52.32000 139.407
52.33000 142.299
52.34000 145.874
52.35000 148.913
52.36000 148.379
52.37000 147.186
52.38000 146.197
52.39000 146.959
52.40000 147.754
52.41000 148.556
52.42000 149.375
52.43000 150.195
52.44000 151.549
52.45000 153.973
52.46000 156.427
52.47000 157.841
52.48000 145.986
52.49000 137.640
52.50000 134.901
52.51000 137.109
52.52000 139.317
52.53000 141.583
52.54000 143.881
52.55000 146.105
52.56000 148.817
52.57000 151.564
52.58000 154.002
52.59000 153.080
52.60000 151.239
52.61000 149.730
52.62000 150.401
52.63000 151.468
52.64000 152.349
52.65000 147.262
52.66000 142.513
52.67000 138.781
52.68000 137.978
52.69000 137.359
52.70000 136.921
52.71000 136.839
52.72000 136.766
52.73000 136.725
52.74000 140.804
52.75000 143.661
52.76000 141.219
52.77000 134.176
52.78000 127.282
52.79000 128.900
52.80000 135.456
52.81000 141.790
52.82000 144.351
52.83000 145.355
52.84000 146.218
52.85000 145.569
52.86000 144.512
52.87000 143.671
52.88000 144.215
52.89000 145.008
52.90000 145.660
52.91000 143.936
52.92000 142.300
52.93000 140.971
52.94000 140.512
52.95000 140.106
52.96000 140.084
52.97000 140.806
52.98000 141.547
52.99000 141.968
53.00000 147.826
53.01000 151.922
53.02000 154.162
53.03000 154.819
53.04000 155.412
53.05000 152.571
53.06000 147.767
53.07000 143.130
53.08000 142.164
53.09000 142.605
53.10000 143.005
53.11000 142.974
53.12000 142.829
53.13000 142.345
53.14000 139.719
53.15000 136.718
53.16000 134.253
53.17000 136.856
53.18000 139.446
53.19000 142.305
53.20000 145.916
53.21000 149.572
53.22000 151.168
53.23000 148.820
53.24000 146.374
53.25000 144.994
53.26000 147.155
53.27000 148.667
53.28000 150.393
53.29000 152.297
53.30000 154.156
53.31000 153.645
53.32000 151.800
53.33000 150.021
53.34000 152.345
53.35000 156.015
53.36000 159.636
53.37000 162.771
53.38000 165.777
53.39000 167.971
53.40000 165.110
53.41000 161.376
53.42000 158.321
53.43000 159.906
53.44000 161.611
53.45000 162.054
53.46000 159.011
53.47000 155.767
53.48000 153.415
53.49000 152.747
53.50000 152.119
53.51000 151.766
53.52000 157.883
53.53000 162.131
53.54000 163.235
53.55000 161.737
53.56000 160.192
53.57000 156.363
53.58000 151.266
53.59000 146.359
53.60000 145.069
53.61000 145.148
53.62000 145.427
53.63000 147.719
53.64000 150.530
53.65000 152.724
53.66000 151.148
53.67000 148.932
53.68000 147.125
53.69000 145.794
53.70000 144.746
53.71000 143.859
53.72000 143.411
53.73000 142.987
53.74000 143.006
53.75000 143.848
53.76000 144.709
53.77000 145.188
53.78000 145.091
53.79000 145.018
53.80000 143.162
53.81000 139.856
53.82000 136.644
53.83000 137.835
53.84000 141.434
53.85000 144.896
53.86000 146.767
53.87000 147.964
53.88000 148.829
53.89000 146.458
53.90000 143.265
53.91000 140.963
53.92000 144.016
53.93000 147.963
53.94000 151.172
53.95000 148.577
53.96000 145.973
53.97000 143.761
53.98000 142.600
53.99000 141.495
54.00000 141.065
54.01000 141.869
54.02000 142.700
54.03000 143.160
54.04000 144.136
54.05000 144.814
54.06000 146.460
54.07000 148.882
54.08000 151.220
54.09000 149.741
54.10000 146.205
54.11000 142.809
54.12000 141.751
54.13000 141.569
54.14000 141.291
54.15000 140.104
54.16000 138.689
54.17000 137.594
54.18000 138.384
54.19000 139.484
54.20000 140.375
54.21000 143.238
54.22000 145.732
54.23000 147.705
54.24000 148.303
54.25000 148.827
54.26000 148.180
54.27000 145.418
54.28000 142.614
54.29000 141.075
54.30000 140.654
54.31000 140.370
54.32000 141.106
54.33000 142.645
54.34000 144.102
54.35000 142.061
54.36000 138.164
54.37000 134.424
54.38000 135.340
54.39000 137.776
54.40000 139.938
54.41000 139.514
54.42000 138.453
54.43000 138.033
54.44000 141.335
54.45000 145.237
54.46000 148.389
54.47000 143.784
54.48000 139.420
54.49000 136.573
54.50000 137.677
54.51000 138.987
54.52000 138.358
54.53000 134.280
54.54000 130.134
54.55000 127.877
54.56000 129.064
54.57000 129.889
54.58000 132.193
54.59000 135.645
54.60000 139.092
54.61000 142.347
54.62000 145.502
54.63000 148.524
54.64000 148.544
54.65000 147.560
54.66000 146.274
54.67000 142.212
54.68000 137.476
54.69000 133.779
54.70000 136.014
54.71000 139.189
54.72000 141.747
54.73000 143.966
54.74000 145.740
54.75000 147.142
54.76000 147.586
54.77000 147.981
54.78000 147.420
54.79000 145.180
54.80000 142.909
54.81000 141.682
54.82000 142.519
54.83000 143.095
54.84000 143.693
54.85000 144.309
54.86000 144.890
54.87000 144.104
54.88000 142.613
54.89000 141.185
54.90000 144.669
54.91000 149.528
54.92000 153.794
54.93000 152.705
54.94000 150.337
54.95000 147.785
54.96000 144.197
54.97000 140.447
54.98000 137.438
54.99000 142.306
55.00000 146.851
55.01000 149.328
55.02000 146.574
55.03000 143.565
55.04000 141.451
55.05000 140.886
55.06000 140.348
55.07000 140.060
55.08000 143.657
55.09000 146.096
55.10000 144.343
55.11000 139.437
55.12000 134.764
55.13000 138.894
55.14000 147.499
55.15000 155.722
55.16000 156.585
55.17000 155.006
55.18000 153.690
55.19000 154.693
55.20000 156.242
55.21000 157.757
55.22000 159.084
55.23000 160.382
55.24000 161.421
55.25000 158.092
55.26000 155.075
55.27000 152.616
55.28000 151.547
55.29000 150.544
55.30000 151.669
55.31000 156.420
55.32000 161.231
55.33000 163.792
55.34000 169.546
55.35000 173.437
55.36000 172.032
55.37000 166.701
55.38000 161.548
55.39000 162.807
55.40000 167.278
55.41000 171.546
55.42000 177.411
55.43000 183.367
55.44000 188.940
55.45000 191.196
55.46000 192.683
55.47000 194.610
55.48000 198.919
55.49000 203.586
55.50000 207.307
55.51000 206.173
55.52000 204.905
55.53000 205.729
55.54000 211.696
55.55000 217.900
55.56000 223.776
55.57000 229.102
55.58000 234.419
55.59000 237.227
55.60000 245.599
55.61000 251.284
55.62000 256.580
55.63000 261.593
55.64000 266.812
55.65000 279.196
55.66000 295.117
55.67000 310.292
55.68000 314.543
55.69000 315.063
55.70000 317.177
55.71000 332.867
55.72000 351.651
55.73000 368.677
55.74000 376.303
55.75000 382.539
55.76000 387.494
55.77000 408.893
55.78000 427.296
55.79000 445.451
55.80000 463.004
55.81000 480.530
55.82000 497.458
55.83000 513.399
55.84000 529.324
55.85000 537.668
55.86000 542.384
55.87000 545.576
55.88000 548.643
55.89000 551.621
55.90000 554.746
55.91000 562.773
55.92000 573.185
55.93000 583.095
55.94000 590.997
55.95000 597.693
55.96000 602.567
55.97000 592.229
55.98000 578.476
55.99000 565.254
56.00000 554.820
56.01000 544.791
56.02000 536.850
56.03000 525.286
56.04000 515.740
56.05000 506.038
56.06000 495.963
56.07000 485.872
56.08000 477.883
56.09000 473.319
56.10000 468.803
56.11000 466.455
56.12000 442.900
56.13000 426.988
56.14000 411.558
56.15000 396.468
56.16000 381.532
56.17000 371.564
56.18000 363.977
56.19000 356.767
56.20000 346.445
56.21000 335.963
56.22000 325.930
56.23000 319.575
56.24000 314.032
56.25000 307.282
56.26000 294.289
56.27000 280.406
56.28000 269.451
56.29000 264.507
56.30000 260.948
56.31000 255.266
56.32000 244.586
56.33000 233.698
56.34000 228.646
56.35000 232.963
56.36000 237.404
56.37000 239.693
56.38000 225.429
56.39000 215.845
56.40000 209.616
56.41000 205.726
56.42000 201.915
56.43000 200.556
56.44000 200.355
56.45000 200.165
56.46000 196.207
56.47000 191.432
56.48000 186.681
56.49000 182.135
56.50000 177.633
56.51000 173.494
56.52000 171.199
56.53000 169.162
56.54000 167.560
56.55000 164.358
56.56000 161.688
56.57000 160.192
56.58000 161.421
56.59000 162.760
56.60000 162.921
56.61000 161.220
56.62000 159.495
56.63000 158.613
56.64000 150.480
56.65000 145.064
56.66000 145.147
56.67000 149.005
56.68000 152.735
56.69000 152.681
56.70000 150.864
56.71000 149.143
56.72000 148.780
56.73000 148.844
56.74000 148.391
56.75000 143.861
56.76000 138.457
56.77000 135.064
56.78000 141.743
56.79000 149.807
56.80000 156.125
56.81000 150.152
56.82000 144.588
56.83000 140.646
56.84000 140.415
56.85000 140.329
56.86000 140.436
56.87000 140.843
56.88000 141.253
56.89000 141.461
56.90000 134.438
56.91000 129.771
56.92000 129.162
56.93000 131.296
56.94000 133.400
56.95000 134.663
56.96000 135.541
56.97000 136.371
56.98000 134.355
56.99000 131.679
57.00000 129.729
57.01000 133.403
57.02000 138.262
57.03000 142.378
57.04000 142.837
57.05000 142.802
57.06000 142.774
57.07000 140.283
57.08000 138.142
57.09000 136.637
57.10000 136.568
57.11000 136.553
57.12000 135.791
57.13000 133.880
57.14000 131.958
57.15000 130.991
57.16000 130.748
57.17000 130.600
57.18000 131.897
57.19000 134.156
57.20000 136.234
57.21000 133.301
57.22000 128.101
57.23000 123.187
57.24000 124.132
57.25000 126.663
57.26000 129.442
57.27000 134.104
57.28000 139.158
57.29000 142.007
57.30000 134.170
57.31000 124.915
57.32000 117.717
57.33000 121.622
57.34000 125.411
57.35000 127.822
57.36000 127.173
57.37000 126.412
57.38000 126.369
57.39000 127.413
57.40000 128.468
57.41000 130.153
57.42000 132.464
57.43000 134.733
57.44000 132.945
57.45000 128.498
57.46000 124.185
57.47000 123.456
57.48000 124.326
57.49000 125.147
57.50000 127.167
57.51000 129.353
57.52000 131.168
57.53000 130.217
57.54000 128.702
57.55000 127.322
57.56000 126.591
57.57000 125.944
57.58000 125.443
57.59000 127.393
57.60000 129.089
57.61000 130.302
57.62000 130.460
57.63000 130.580
57.64000 132.007
57.65000 135.378
57.66000 138.768
57.67000 138.456
57.68000 134.524
57.69000 130.623
57.70000 129.467
57.71000 130.082
57.72000 130.617
57.73000 129.059
57.74000 126.580
57.75000 124.244
57.76000 124.672
57.77000 125.823
57.78000 127.014
57.79000 128.498
57.80000 130.041
57.81000 130.688
57.82000 127.126
57.83000 123.027
57.84000 119.861
57.85000 125.488
57.86000 130.460
57.87000 132.720
57.88000 129.129
57.89000 125.338
57.90000 124.110
57.91000 126.640
57.92000 129.203
57.93000 131.202
57.94000 132.658
57.95000 134.078
57.96000 132.520
57.97000 129.066
57.98000 125.782
57.99000 126.742
58.00000 129.541
58.01000 132.175
58.02000 134.251
58.03000 135.998
58.04000 137.166
58.05000 134.170
58.06000 130.351
58.07000 127.188
58.08000 127.060
58.09000 127.312
58.10000 127.506
58.11000 133.802
58.12000 139.129
58.13000 142.069
58.14000 139.930
58.15000 137.625
58.16000 134.828
58.17000 131.321
58.18000 127.810
58.19000 124.289
58.20000 120.762
58.21000 117.297
58.22000 118.745
58.23000 123.270
58.24000 127.659
58.25000 128.744
58.26000 128.418
58.27000 128.111
58.28000 126.545
58.29000 124.783
58.30000 123.751
58.31000 127.882
58.32000 133.018
58.33000 137.050
58.34000 136.055
58.35000 134.442
58.36000 133.205
58.37000 131.073
58.38000 129.340
58.39000 127.127
58.40000 123.908
58.41000 120.656
58.42000 119.298
58.43000 120.632
58.44000 121.985
58.45000 122.362
58.46000 121.832
58.47000 121.356
58.48000 124.728
58.49000 130.476
58.50000 135.962
58.51000 135.299
58.52000 132.048
58.53000 128.999
58.54000 129.397
58.55000 130.662
58.56000 131.489
58.57000 129.285
58.58000 126.501
58.59000 124.126
58.60000 123.587
58.61000 123.268
58.62000 123.026
58.63000 121.875
58.64000 120.920
58.65000 119.909
58.66000 118.783
58.67000 117.654
58.68000 117.409
58.69000 118.405
58.70000 119.408
58.71000 120.772
58.72000 122.465
58.73000 124.124
58.74000 123.529
58.75000 121.563
58.76000 119.681
58.77000 119.730
58.78000 120.579
58.79000 121.374
58.80000 122.988
58.81000 124.665
58.82000 125.991
58.83000 124.917
58.84000 123.391
58.85000 121.613
58.86000 118.724
58.87000 115.703
58.88000 113.406
58.89000 115.180
58.90000 116.789
58.91000 117.888
58.92000 117.947
58.93000 117.976
58.94000 116.474
58.95000 112.859
58.96000 109.232
58.97000 110.572
58.98000 116.377
58.99000 122.107
59.00000 123.006
59.01000 121.010
59.02000 119.054
59.03000 117.974
59.04000 117.251
59.05000 116.576
59.06000 120.099
59.07000 124.359
59.08000 127.726
59.09000 125.119
59.10000 121.406
59.11000 118.121
59.12000 116.691
59.13000 115.476
59.14000 114.556
59.15000 115.507
59.16000 116.348
59.17000 117.493
59.18000 119.249
59.19000 121.021
59.20000 120.975
59.21000 118.461
59.22000 115.933
59.23000 113.266
59.24000 110.478
59.25000 107.736
59.26000 107.773
59.27000 109.450
59.28000 111.081
59.29000 111.705
59.30000 111.923
59.31000 112.127
59.32000 116.449
59.33000 121.390
59.34000 125.221
59.35000 121.751
59.36000 116.950
59.37000 113.067
59.38000 113.110
59.39000 113.599
59.40000 113.968
59.41000 115.266
59.42000 116.329
59.43000 116.827
59.44000 116.205
59.45000 115.554
59.46000 118.309
59.47000 125.619
59.48000 132.947
59.49000 134.825
59.50000 131.959
59.51000 129.100
59.52000 126.560
59.53000 124.207
59.54000 122.051
59.55000 123.982
59.56000 127.536
59.57000 130.847
59.58000 132.550
59.59000 133.698
59.60000 133.848
59.61000 127.555
59.62000 120.109
59.63000 114.233
59.64000 114.977
59.65000 116.459
59.66000 117.573
59.67000 117.115
59.68000 116.680
59.69000 117.166
59.70000 119.446
59.71000 121.772
59.72000 123.782
59.73000 125.377
59.74000 126.969
59.75000 126.435
59.76000 124.084
59.77000 121.804
59.78000 123.400
59.79000 127.220
59.80000 130.772
59.81000 128.967
59.82000 125.064
59.83000 121.434
59.84000 119.797
59.85000 118.800
59.86000 118.322
59.87000 121.145
59.88000 124.550
59.89000 127.756
59.90000 130.135
59.91000 132.424
59.92000 134.137
59.93000 124.656
59.94000 116.734
59.95000 112.159
59.96000 114.012
59.97000 116.025
59.98000 115.900
59.99000 113.005
60.00000 110.102
60.01000 111.119
60.02000 115.433
60.03000 119.669
60.04000 119.835
60.05000 117.701
60.06000 115.882
60.07000 120.193
60.08000 126.870
60.09000 133.069
60.10000 128.835
60.11000 122.549
60.12000 117.403
60.13000 119.369
60.14000 122.567
60.15000 125.329
60.16000 126.309
60.17000 127.098
60.18000 127.685
60.19000 123.593
60.20000 120.194
60.21000 117.117
60.22000 114.648
60.23000 112.195
60.24000 112.706
60.25000 116.999
60.26000 121.301
60.27000 123.551
60.28000 124.096
60.29000 124.613
60.30000 123.668
60.31000 121.911
60.32000 120.146
60.33000 118.237
60.34000 116.274
60.35000 114.455
60.36000 116.838
60.37000 119.961
60.38000 122.275
60.39000 119.628
60.40000 116.136
60.41000 113.677
60.42000 115.373
60.43000 117.506
60.44000 119.089
60.45000 116.946
60.46000 115.116
60.47000 114.717
60.48000 116.987
60.49000 119.319
60.50000 121.418
60.51000 123.225
60.52000 125.028
60.53000 124.372
60.54000 121.716
60.55000 119.093
60.56000 118.068
60.57000 117.919
60.58000 117.805
60.59000 118.318
60.60000 119.068
60.61000 119.761
60.62000 121.813
60.63000 123.967
60.64000 124.674
60.65000 116.662
60.66000 107.188
60.67000 100.547
60.68000 105.125
60.69000 110.858
60.70000 115.097
60.71000 114.077
60.72000 113.061
60.73000 112.787
60.74000 113.876
60.75000 114.996
60.76000 115.344
60.77000 114.739
60.78000 114.132
60.79000 115.034
60.80000 117.140
60.81000 119.181
60.82000 118.317
60.83000 115.883
60.84000 113.850
60.85000 119.011
60.86000 126.833
60.87000 134.056
60.88000 130.942
60.89000 125.824
60.90000 121.443
60.91000 121.439
60.92000 122.155
60.93000 122.653
60.94000 122.301
60.95000 121.863
60.96000 121.540
60.97000 119.837
60.98000 118.462
60.99000 117.950
61.00000 119.001
61.01000 120.086
61.02000 121.503
61.03000 123.327
61.04000 125.147
61.05000 130.036
61.06000 137.316
61.07000 144.372
61.08000 141.738
61.09000 133.941
61.10000 126.376
61.11000 122.840
61.12000 120.771
61.13000 118.865
61.14000 122.196
61.15000 126.337
61.16000 129.587
61.17000 127.646
61.18000 124.864
61.19000 122.514
61.20000 121.828
61.21000 121.307
61.22000 120.924
61.23000 123.295
61.24000 125.237
61.25000 126.673
61.26000 127.206
61.27000 127.721
61.28000 127.800
61.29000 127.358
61.30000 126.916
61.31000 127.446
61.32000 128.727
61.33000 129.988
61.34000 130.383
61.35000 130.324
61.36000 130.200
61.37000 128.971
61.38000 127.346
61.39000 125.852
61.40000 126.740
61.41000 128.053
61.42000 129.124
61.43000 128.811
61.44000 128.278
61.45000 128.733
61.46000 132.932
61.47000 137.493
61.48000 140.823
61.49000 162.721
61.50000 180.328
61.51000 195.131
61.52000 205.000
61.53000 214.777
61.54000 232.657
61.55000 260.083
61.56000 287.459
61.57000 311.927
61.58000 334.031
61.59000 356.111
61.60000 377.247
61.61000 397.895
61.62000 418.050
61.63000 430.072
61.64000 439.214
61.65000 447.610
61.66000 462.545
61.67000 477.267
61.68000 487.711
61.69000 474.032
61.70000 456.580
61.71000 442.845
61.72000 442.971
61.73000 444.408
61.74000 445.453
61.75000 420.341
61.76000 400.032
61.77000 378.415
61.78000 354.528
61.79000 330.600
61.80000 304.777
61.81000 276.755
61.82000 248.806
61.83000 225.461
61.84000 205.727
61.85000 186.241
61.86000 176.144
61.87000 170.835
61.88000 165.452
61.89000 158.896
61.90000 151.930
61.91000 145.545
61.92000 143.147
61.93000 141.850
61.94000 140.917
61.95000 142.008
61.96000 143.409
61.97000 145.485
61.98000 150.040
61.99000 154.825
62.00000 158.289
62.01000 152.859
62.02000 148.364
62.03000 146.663
62.04000 149.733
62.05000 152.884
62.06000 151.729
62.07000 145.662
62.08000 139.609
62.09000 137.149
62.10000 137.361
62.11000 137.546
62.12000 136.776
62.13000 135.525
62.14000 134.359
62.15000 134.524
62.16000 135.146
62.17000 135.716
62.18000 134.250
62.19000 132.527
62.20000 131.546
62.21000 134.618
62.22000 138.302
62.23000 141.050
62.24000 140.413
62.25000 139.469
62.26000 138.789
62.27000 135.876
62.28000 133.565
62.29000 133.668
62.30000 137.834
62.31000 142.065
62.32000 143.604
62.33000 142.122
62.34000 140.642
62.35000 139.981
62.36000 139.920
62.37000 139.860
62.38000 139.829
62.39000 139.811
62.40000 139.595
62.41000 136.353
62.42000 132.086
62.43000 128.189
62.44000 131.070
62.45000 135.002
62.46000 138.360
62.47000 138.643
62.48000 138.470
62.49000 138.194
62.50000 137.553
62.51000 136.880
62.52000 136.398
62.53000 139.614
62.54000 142.201
62.55000 143.793
62.56000 143.736
62.57000 143.654
62.58000 142.544
62.59000 140.300
62.60000 138.063
62.61000 137.579
62.62000 138.351
62.63000 139.160
62.64000 141.199
62.65000 143.837
62.66000 146.027
62.67000 141.534
62.68000 134.810
62.69000 128.683
62.70000 126.821
62.71000 126.023
62.72000 125.901
62.73000 129.353
62.74000 133.325
62.75000 137.120
62.76000 140.289
62.77000 143.403
62.78000 145.628
62.79000 144.732
62.80000 143.945
62.81000 143.756
62.82000 144.546
62.83000 145.350
62.84000 143.526
62.85000 138.847
62.86000 134.187
62.87000 135.778
62.88000 141.748
62.89000 147.574
62.90000 148.765
62.91000 147.727
62.92000 146.500
62.93000 142.523
62.94000 137.642
62.95000 133.202
62.96000 137.424
62.97000 142.858
62.98000 146.803
62.99000 143.022
63.00000 138.134
63.01000 135.026
63.02000 138.078
63.03000 141.652
63.04000 144.193
63.05000 140.662
63.06000 137.778
63.07000 135.540
63.08000 134.344
63.09000 133.161
63.10000 134.060
63.11000 137.181
63.12000 140.289
63.13000 139.251
63.14000 135.356
63.15000 131.694
63.16000 135.300
63.17000 142.351
63.18000 149.090
63.19000 151.391
63.20000 152.253
63.21000 153.036
63.22000 147.414
63.23000 141.217
63.24000 136.237
63.25000 137.475
63.26000 139.588
63.27000 140.852
63.28000 139.222
63.29000 137.353
63.30000 136.029
63.31000 139.003
63.32000 141.396
63.33000 144.102
63.34000 147.306
63.35000 150.515
63.36000 149.472
63.37000 143.963
63.38000 138.480
63.39000 136.656
63.40000 137.344
63.41000 138.108
63.42000 141.146
63.43000 145.247
63.44000 149.112
63.45000 149.706
63.46000 149.254
63.47000 148.845
63.48000 150.027
63.49000 151.369
63.50000 151.899
63.51000 148.350
63.52000 144.237
63.53000 140.721
63.54000 139.210
63.55000 137.861
63.56000 136.911
63.57000 142.569
63.58000 147.057
63.59000 149.586
63.60000 149.054
63.61000 148.486
63.62000 147.734
63.63000 146.791
63.64000 145.854
63.65000 146.200
63.66000 147.401
63.67000 148.572
63.68000 148.896
63.69000 148.829
63.70000 148.827
63.71000 149.687
63.72000 150.820
63.73000 151.843
63.74000 153.882
63.75000 155.864
63.76000 156.662
63.77000 151.600
63.78000 145.743
63.79000 142.125
63.80000 145.917
63.81000 150.296
63.82000 153.366
63.83000 156.675
63.84000 159.185
63.85000 160.705
63.86000 160.701
63.87000 160.679
63.88000 158.892
63.89000 155.312
63.90000 151.753
63.91000 151.349
63.92000 153.030
63.93000 154.659
63.94000 154.828
63.95000 154.334
63.96000 154.194
63.97000 158.710
63.98000 164.671
63.99000 170.049
64.00000 163.495
64.01000 155.558
64.02000 149.431
64.03000 152.111
64.04000 155.964
64.05000 158.252
64.06000 155.438
64.07000 152.229
64.08000 149.989
64.09000 152.981
64.10000 155.386
64.11000 155.289
64.12000 151.399
64.13000 147.470
64.14000 148.380
64.15000 154.122
64.16000 159.829
64.17000 162.478
64.18000 163.107
64.19000 163.732
64.20000 164.260
64.21000 164.743
64.22000 165.155
64.23000 164.647
64.24000 163.857
64.25000 163.145
64.26000 161.461
64.27000 159.810
64.28000 159.393
64.29000 164.888
64.30000 171.155
64.31000 176.122
64.32000 176.911
64.33000 177.384
64.34000 177.713
64.35000 172.334
64.36000 168.128
64.37000 169.183
64.38000 178.097
64.39000 187.087
64.40000 187.537
64.41000 179.605
64.42000 171.727
64.43000 171.607
64.44000 176.438
64.45000 181.072
64.46000 180.568
64.47000 177.798
64.48000 175.009
64.49000 171.999
64.50000 168.922
64.51000 166.157
64.52000 171.828
64.53000 178.279
64.54000 183.218
64.55000 181.029
64.56000 177.926
64.57000 176.531
64.58000 180.546
64.59000 184.959
64.60000 188.010
64.61000 185.433
64.62000 183.350
64.63000 183.246
64.64000 186.053
64.65000 188.886
64.66000 188.790
64.67000 185.867
64.68000 182.964
64.69000 185.112
64.70000 190.396
64.71000 195.394
64.72000 193.212
64.73000 187.907
64.74000 183.300
64.75000 187.266
64.76000 193.777
64.77000 199.614
64.78000 204.537
64.79000 208.680
64.80000 211.533
64.81000 208.403
64.82000 204.520
64.83000 201.948
64.84000 203.472
64.85000 205.291
64.86000 206.542
64.87000 207.299
64.88000 207.855
64.89000 207.406
64.90000 205.501
64.91000 203.584
64.92000 203.713
64.93000 205.783
64.94000 207.837
64.95000 211.116
64.96000 215.095
64.97000 218.903
64.98000 218.538
64.99000 216.385
65.00000 214.388
65.01000 214.273
65.02000 214.709
65.03000 215.098
65.04000 224.614
65.05000 234.465
65.06000 242.035
65.07000 239.188
65.08000 235.054
65.09000 233.024
65.10000 237.463
65.11000 242.357
65.12000 245.707
65.13000 251.799
65.14000 256.427
65.15000 260.295
65.16000 263.081
65.17000 265.859
65.18000 271.144
65.19000 278.769
65.20000 286.331
65.21000 284.106
65.22000 275.970
65.23000 268.446
65.24000 275.347
65.25000 288.342
65.26000 300.478
65.27000 302.527
65.28000 301.670
65.29000 300.904
65.30000 309.652
65.31000 318.857
65.32000 326.878
65.33000 329.580
65.34000 331.637
65.35000 334.873
65.36000 341.681
65.37000 348.735
65.38000 353.539
65.39000 362.515
65.40000 369.317
65.41000 378.894
65.42000 392.370
65.43000 405.871
65.44000 415.253
65.45000 420.851
65.46000 426.400
65.47000 430.309
65.48000 433.162
65.49000 436.602
65.50000 453.474
65.51000 475.939
65.52000 497.667
65.53000 510.941
65.54000 521.815
65.55000 531.498
65.56000 548.231
65.57000 563.926
65.58000 579.912
65.59000 597.183
65.60000 614.607
65.61000 634.050
65.62000 659.526
65.63000 685.405
65.64000 702.946
65.65000 782.753
65.66000 843.627
65.67000 921.540
65.68000 1023.028
65.69000 1124.701
65.70000 1281.612
65.71000 1488.414
65.72000 1693.260
65.73000 1901.217
65.74000 2106.764
65.75000 2312.113
65.76000 2513.076
65.77000 2712.238
65.78000 2906.801
65.79000 3049.692
65.80000 3178.129
65.81000 3292.243
65.82000 3345.958
65.83000 3382.810
65.84000 3413.833
65.85000 3419.447
65.86000 3422.100
65.87000 3420.876
65.88000 3408.241
65.89000 3394.863
65.90000 3385.841
65.91000 3275.484
65.92000 3191.240
65.93000 3075.099
65.94000 2915.502
65.95000 2755.620
65.96000 2555.692
65.97000 2320.182
65.98000 2087.039
65.99000 1866.113
66.00000 1657.016
66.01000 1449.923
66.02000 1285.894
66.03000 1139.282
66.04000 997.253
66.05000 905.573
66.06000 827.768
66.07000 758.797
66.08000 703.941
66.09000 658.683
66.10000 617.363
66.11000 592.949
66.12000 570.467
66.13000 549.848
66.14000 534.634
66.15000 519.763
66.16000 509.786
66.17000 524.403
66.18000 535.753
66.19000 536.272
66.20000 522.263
66.21000 508.208
66.22000 519.693
66.23000 553.506
66.24000 586.959
66.25000 610.688
66.26000 628.333
66.27000 646.549
66.28000 676.666
66.29000 711.527
66.30000 746.758
66.31000 785.967
66.32000 826.257
66.33000 861.890
66.34000 887.229
66.35000 907.527
66.36000 926.764
66.37000 941.510
66.38000 955.754
66.39000 969.073
66.40000 979.752
66.41000 990.267
66.42000 997.285
66.43000 975.779
66.44000 959.295
66.45000 949.375
66.46000 948.122
66.47000 946.882
66.48000 925.909
66.49000 887.962
66.50000 850.444
66.51000 825.300
66.52000 807.701
66.53000 788.714
66.54000 741.635
66.55000 683.520
66.56000 627.701
66.57000 596.066
66.58000 570.897
66.59000 548.689
66.60000 538.487
66.61000 531.519
66.62000 523.244
66.63000 509.535
66.64000 495.230
66.65000 483.745
66.66000 480.211
66.67000 477.155
66.68000 475.127
66.69000 470.296
66.70000 466.673
66.71000 467.032
66.72000 472.567
66.73000 478.117
66.74000 479.174
66.75000 476.430
66.76000 473.718
66.77000 468.897
66.78000 463.030
66.79000 457.465
66.80000 457.837
66.81000 460.508
66.82000 463.305
66.83000 467.398
66.84000 471.832
66.85000 475.735
66.86000 473.875
66.87000 471.411
66.88000 468.737
66.89000 465.205
66.90000 461.582
66.91000 461.349
66.92000 470.532
66.93000 480.267
66.94000 486.697
66.95000 489.651
66.96000 491.768
66.97000 494.156
66.98000 496.890
66.99000 499.622
67.00000 500.522
67.01000 499.896
67.02000 499.278
67.03000 502.597
67.04000 507.972
67.05000 512.841
67.06000 508.070
67.07000 499.619
67.08000 491.738
67.09000 489.611
67.10000 488.977
67.11000 488.421
67.12000 506.219
67.13000 524.215
67.14000 537.217
67.15000 530.062
67.16000 520.780
67.17000 512.547
67.18000 507.185
67.19000 501.987
67.20000 498.572
67.21000 510.023
67.22000 518.702
67.23000 520.433
67.24000 513.410
67.25000 506.378
67.26000 507.550
67.27000 515.446
67.28000 523.238
67.29000 524.599
67.30000 522.482
67.31000 520.300
67.32000 516.928
67.33000 513.109
67.34000 510.739
67.35000 522.700
67.36000 538.323
67.37000 552.011
67.38000 554.889
67.39000 555.798
67.40000 554.850
67.41000 546.514
67.42000 537.414
67.43000 530.982
67.44000 531.747
67.45000 532.911
67.46000 533.672
67.47000 544.293
67.48000 552.251
67.49000 561.258
67.50000 571.565
67.51000 581.854
67.52000 584.585
67.53000 581.219
67.54000 577.899
67.55000 573.753
67.56000 569.287
67.57000 565.244
67.58000 568.792
67.59000 575.155
67.60000 581.391
67.61000 586.391
67.62000 591.079
67.63000 595.177
67.64000 602.927
67.65000 610.082
67.66000 615.733
67.67000 615.496
67.68000 614.663
67.69000 613.812
67.70000 612.914
67.71000 612.013
67.72000 611.428
67.73000 610.774
67.74000 610.294
67.75000 607.128
67.76000 600.684
67.77000 594.255
67.78000 595.008
67.79000 601.464
67.80000 607.825
67.81000 609.827
67.82000 609.508
67.83000 609.620
67.84000 617.286
67.85000 627.713
67.86000 636.896
67.87000 634.275
67.88000 628.728
67.89000 623.892
67.90000 625.110
67.91000 626.992
67.92000 628.310
67.93000 627.451
67.94000 626.376
67.95000 627.504
67.96000 634.407
67.97000 641.613
67.98000 646.270
67.99000 649.230
68.00000 651.370
68.01000 654.857
68.02000 659.964
68.03000 665.077
68.04000 670.967
68.05000 677.464
68.06000 683.862
68.07000 690.454
68.08000 696.944
68.09000 703.331
68.10000 707.980
68.11000 712.002
68.12000 715.365
68.13000 712.606
68.14000 708.352
68.15000 704.653
68.16000 712.862
68.17000 721.489
68.18000 729.319
68.19000 734.123
68.20000 738.634
68.21000 740.751
68.22000 736.685
68.23000 732.305
68.24000 729.489
68.25000 735.014
68.26000 739.159
68.27000 749.000
68.28000 765.574
68.29000 782.126
68.30000 790.629
68.31000 792.939
68.32000 795.211
68.33000 801.078
68.34000 808.565
68.35000 816.134
68.36000 825.089
68.37000 834.535
68.38000 843.391
68.39000 846.871
68.40000 849.058
68.41000 850.955
68.42000 863.997
68.43000 876.596
68.44000 887.725
68.45000 893.355
68.46000 898.462
68.47000 910.219
68.48000 938.907
68.49000 968.434
68.50000 987.304
68.51000 980.259
68.52000 974.792
68.53000 984.603
68.54000 1012.186
68.55000 1039.822
68.56000 1073.426
68.57000 1111.552
68.58000 1149.029
68.59000 1194.844
68.60000 1243.259
68.61000 1293.007
68.62000 1364.318
68.63000 1443.174
68.64000 1520.025
68.65000 1578.971
68.66000 1633.678
68.67000 1681.016
68.68000 1781.142
68.69000 1873.186
68.70000 1960.085
68.71000 2028.022
68.72000 2094.195
68.73000 2165.591
68.74000 2250.098
68.75000 2335.234
68.76000 2389.337
68.77000 2516.586
68.78000 2609.906
68.79000 2701.857
68.80000 2792.243
68.81000 2882.814
68.82000 3009.439
68.83000 3162.958
68.84000 3313.746
68.85000 3556.891
68.86000 3836.607
68.87000 4127.284
68.88000 4590.738
68.89000 5113.778
68.90000 5707.280
68.91000 6917.729
68.92000 8271.995
68.93000 9440.808
68.94000 12887.945
68.95000 16106.132
68.96000 19774.377
68.97000 25076.617
68.98000 30527.658
68.99000 36243.422
69.00000 42614.012
69.01000 49015.125
69.02000 53059.617
69.03000 60277.547
69.04000 65544.859
69.05000 69670.305
69.06000 72509.906
69.07000 75343.336
69.08000 77297.344
69.09000 78605.469
69.10000 79889.266
69.11000 81145.305
69.12000 82343.141
69.13000 83543.195
69.14000 84777.313
69.15000 86023.000
69.16000 87157.008
69.17000 87332.133
69.18000 87287.172
69.19000 87248.469
69.20000 83919.398
69.21000 80684.594
69.22000 77066.672
69.23000 72078.422
69.24000 66968.078
69.25000 62116.168
69.26000 57894.352
69.27000 53701.020
69.28000 51066.848
69.29000 47490.941
69.30000 44895.285
69.31000 43032.621
69.32000 41981.953
69.33000 40932.793
69.34000 40038.875
69.35000 39257.223
69.36000 38490.754
69.37000 37084.789
69.38000 35429.328
69.39000 33707.949
69.40000 30999.516
69.41000 27960.455
69.42000 24901.076
69.43000 21670.611
69.44000 18401.482
69.45000 15594.711
69.46000 12789.404
69.47000 10417.868
69.48000 8255.473
69.49000 6830.037
69.50000 5468.827
69.51000 4322.516
69.52000 3692.646
69.53000 3085.401
69.54000 2706.176
69.55000 2359.058
69.56000 2109.011
69.57000 1922.219
69.58000 1804.354
69.59000 1686.718
69.60000 1597.562
69.61000 1528.687
69.62000 1461.208
69.63000 1401.809
69.64000 1348.437
69.65000 1295.276
69.66000 1245.217
69.67000 1196.182
69.68000 1148.265
69.69000 1109.585
69.70000 1072.959
69.71000 1041.597
69.72000 1019.840
69.73000 1002.644
69.74000 981.698
69.75000 947.735
69.76000 912.661
69.77000 882.923
69.78000 865.823
69.79000 849.258
69.80000 838.975
69.81000 819.080
69.82000 804.667
69.83000 789.586
69.84000 773.790
69.85000 758.021
69.86000 746.001
69.87000 736.611
69.88000 727.419
69.89000 709.617
69.90000 688.588
69.91000 668.065
69.92000 654.754
69.93000 643.791
69.94000 634.751
69.95000 641.303
69.96000 651.270
69.97000 659.781
69.98000 650.117
69.99000 639.815
70.00000 629.180
