20.00000 487.743
20.01000 487.357
20.02000 486.916
20.03000 486.728
20.04000 487.535
20.05000 488.445
20.06000 489.117
20.07000 496.520
20.08000 502.544
20.09000 504.497
20.10000 498.995
20.11000 493.333
20.12000 487.190
20.13000 480.455
20.14000 473.730
20.15000 475.993
20.16000 485.408
20.17000 494.523
20.18000 490.227
20.19000 478.713
20.20000 467.886
20.21000 469.269
20.22000 475.145
20.23000 480.568
20.24000 484.088
20.25000 486.818
20.26000 488.726
20.27000 485.787
20.28000 482.053
20.29000 479.947
20.30000 484.161
20.31000 489.007
20.32000 492.572
20.33000 494.024
20.34000 495.061
20.35000 493.108
20.36000 485.760
20.37000 478.302
20.38000 475.863
20.39000 479.501
20.40000 483.144
20.41000 486.774
20.42000 490.375
20.43000 493.899
20.44000 494.182
20.45000 492.745
20.46000 491.141
20.47000 486.658
20.48000 481.130
20.49000 476.037
20.50000 476.746
20.51000 478.657
20.52000 479.465
20.53000 473.873
20.54000 467.250
20.55000 461.556
20.56000 459.415
20.57000 457.623
20.58000 456.310
20.59000 468.483
20.60000 478.418
20.61000 481.779
20.62000 473.453
20.63000 464.900
20.64000 465.804
20.65000 477.975
20.66000 490.141
20.67000 495.220
20.68000 494.806
20.69000 494.398
20.70000 494.217
20.71000 494.154
20.72000 494.093
20.73000 494.067
20.74000 494.054
20.75000 494.042
20.76000 483.123
20.77000 471.009
20.78000 462.345
20.79000 473.357
20.80000 487.482
20.81000 496.299
20.82000 485.107
20.83000 471.994
20.84000 462.431
20.85000 471.687
20.86000 479.546
20.87000 484.836
20.88000 485.623
20.89000 486.327
20.90000 485.569
20.91000 483.097
20.92000 480.629
20.93000 482.180
20.94000 486.772
20.95000 491.207
20.96000 489.548
20.97000 484.749
20.98000 480.311
20.99000 481.801
21.00000 485.379
21.01000 488.663
21.02000 482.726
21.03000 475.471
21.04000 468.933
21.05000 466.425
21.06000 464.543
21.07000 463.813
21.08000 467.354
21.09000 471.296
21.10000 474.159
21.11000 474.297
21.12000 474.301
21.13000 473.752
21.14000 472.248
21.15000 470.728
21.16000 474.440
21.17000 484.188
21.18000 493.916
21.19000 502.129
21.20000 509.152
21.21000 515.845
21.22000 510.160
21.23000 498.192
21.24000 486.306
21.25000 475.734
21.26000 465.619
21.27000 456.352
21.28000 459.847
21.29000 465.626
21.30000 470.097
21.31000 467.355
21.32000 463.509
21.33000 461.814
21.34000 467.980
21.35000 474.870
21.36000 479.851
21.37000 479.759
21.38000 479.505
21.39000 479.279
21.40000 479.103
21.41000 478.928
21.42000 478.430
21.43000 477.565
21.44000 476.702
21.45000 479.587
21.46000 485.203
21.47000 490.625
21.48000 489.094
21.49000 484.084
21.50000 479.385
21.51000 479.527
21.52000 481.326
21.53000 482.970
21.54000 483.758
21.55000 484.282
21.56000 484.035
21.57000 479.599
21.58000 474.535
21.59000 470.414
21.60000 469.695
21.61000 469.281
21.62000 468.984
21.63000 483.773
21.64000 495.628
21.65000 502.073
21.66000 499.452
21.67000 496.688
21.68000 496.984
21.69000 500.697
21.70000 504.399
21.71000 507.883
21.72000 511.181
21.73000 514.323
21.74000 512.103
21.75000 507.238
21.76000 503.017
21.77000 508.551
21.78000 517.375
21.79000 525.427
21.80000 539.380
21.81000 552.950
21.82000 565.132
21.83000 569.906
21.84000 573.586
21.85000 578.383
21.86000 587.141
21.87000 596.247
21.88000 602.772
21.89000 595.997
21.90000 590.369
21.91000 588.223
21.92000 591.827
21.93000 595.517
21.94000 603.576
21.95000 616.432
21.96000 629.242
21.97000 638.168
21.98000 644.251
21.99000 650.400
22.00000 658.741
22.01000 668.146
22.02000 677.281
22.03000 682.404
22.04000 686.194
22.05000 689.645
22.06000 690.624
22.07000 691.000
22.08000 690.590
22.09000 686.052
22.10000 680.916
22.11000 674.076
22.12000 661.275
22.13000 647.961
22.14000 638.463
22.15000 645.612
22.16000 651.610
22.17000 652.841
22.18000 646.315
22.19000 639.680
22.20000 633.516
22.21000 627.859
22.22000 622.226
22.23000 612.462
22.24000 599.906
22.25000 587.463
22.26000 578.621
22.27000 571.505
22.28000 564.610
22.29000 560.911
22.30000 558.259
22.31000 555.848
22.32000 555.409
22.33000 555.406
22.34000 554.012
22.35000 545.434
22.36000 535.834
22.37000 526.056
22.38000 515.663
22.39000 505.218
22.40000 497.801
22.41000 497.890
22.42000 498.197
22.43000 498.445
22.44000 498.598
22.45000 498.750
22.46000 496.984
22.47000 493.179
22.48000 489.391
22.49000 491.050
22.50000 496.438
22.51000 501.741
22.52000 504.412
22.53000 505.840
22.54000 506.766
22.55000 500.641
22.56000 492.240
22.57000 484.619
22.58000 480.726
22.59000 478.005
22.60000 475.583
22.61000 474.677
22.62000 473.984
22.63000 470.679
22.64000 458.514
22.65000 445.619
22.66000 436.505
22.67000 451.785
22.68000 464.137
22.69000 469.380
22.70000 463.396
22.71000 457.274
22.72000 453.021
22.73000 450.723
22.74000 448.436
22.75000 450.074
22.76000 454.349
22.77000 458.373
22.78000 454.925
22.79000 448.000
22.80000 441.851
22.81000 446.349
22.82000 454.235
22.83000 461.375
22.84000 463.789
22.85000 465.027
22.86000 466.036
22.87000 465.904
22.88000 465.615
22.89000 464.281
22.90000 459.452
22.91000 454.341
22.92000 450.746
22.93000 444.714
22.94000 440.070
22.95000 437.413
22.96000 437.844
22.97000 438.311
22.98000 440.488
22.99000 444.425
23.00000 448.340
23.01000 447.816
23.02000 444.342
23.03000 441.099
23.04000 444.476
23.05000 450.890
23.06000 456.936
23.07000 458.052
23.08000 457.622
23.09000 457.234
23.10000 453.231
23.11000 449.043
23.12000 445.143
23.13000 442.663
23.14000 440.376
23.15000 438.077
23.16000 435.743
23.17000 433.406
23.18000 431.769
23.19000 436.577
23.20000 440.397
23.21000 441.616
23.22000 438.852
23.23000 436.045
23.24000 434.961
23.25000 435.620
23.26000 436.276
23.27000 435.482
23.28000 433.749
23.29000 431.807
23.30000 424.107
23.31000 413.803
23.32000 404.609
23.33000 409.928
23.34000 419.730
23.35000 428.568
23.36000 433.621
23.37000 437.368
23.38000 440.742
23.39000 442.309
23.40000 443.637
23.41000 445.120
23.42000 447.106
23.43000 449.130
23.44000 450.541
23.45000 447.705
23.46000 445.448
23.47000 444.095
23.48000 444.108
23.49000 444.134
23.50000 443.598
23.51000 442.503
23.52000 441.415
23.53000 437.996
23.54000 433.124
23.55000 428.497
23.56000 430.432
23.57000 435.292
23.58000 439.251
23.59000 431.700
23.60000 420.645
23.61000 410.698
23.62000 416.488
23.63000 424.373
23.64000 431.007
23.65000 431.683
23.66000 431.585
23.67000 429.870
23.68000 422.982
23.69000 415.705
23.70000 410.658
23.71000 426.473
23.72000 438.936
23.73000 446.016
23.74000 445.096
23.75000 444.100
23.76000 439.699
23.77000 431.973
23.78000 424.299
23.79000 425.387
23.80000 432.020
23.81000 438.293
23.82000 435.270
23.83000 428.164
23.84000 422.043
23.85000 428.217
23.86000 438.079
23.87000 446.933
23.88000 446.109
23.89000 443.689
23.90000 442.251
23.91000 445.419
23.92000 449.174
23.93000 452.648
23.94000 455.235
23.95000 457.756
23.96000 459.497
23.97000 452.119
23.98000 446.341
23.99000 440.055
24.00000 433.025
24.01000 425.990
24.02000 422.895
24.03000 423.584
24.04000 424.269
24.05000 419.367
24.06000 411.055
24.07000 403.440
24.08000 413.218
24.09000 430.525
24.10000 446.539
24.11000 446.791
24.12000 442.385
24.13000 438.437
24.14000 432.854
24.15000 427.699
24.16000 423.964
24.17000 426.792
24.18000 430.442
24.19000 433.321
24.20000 433.805
24.21000 434.117
24.22000 434.332
24.23000 431.754
24.24000 429.753
24.25000 430.417
24.26000 434.926
24.27000 439.464
24.28000 438.398
24.29000 432.037
24.30000 425.727
24.31000 422.597
24.32000 421.476
24.33000 420.254
24.34000 416.569
24.35000 411.834
24.36000 407.986
24.37000 414.729
24.38000 424.555
24.39000 433.339
24.40000 424.892
24.41000 414.614
24.42000 407.072
24.43000 411.973
24.44000 418.401
24.45000 422.348
24.46000 418.694
24.47000 414.509
24.48000 411.649
24.49000 415.564
24.50000 418.654
24.51000 422.563
24.52000 427.637
24.53000 432.718
24.54000 435.056
24.55000 434.844
24.56000 434.634
24.57000 434.363
24.58000 434.061
24.59000 433.721
24.60000 432.516
24.61000 430.947
24.62000 428.781
24.63000 419.657
24.64000 408.537
24.65000 398.620
24.66000 406.201
24.67000 415.707
24.68000 422.608
24.69000 417.853
24.70000 411.695
24.71000 408.426
24.72000 413.877
24.73000 419.922
24.74000 424.033
24.75000 415.841
24.76000 409.446
24.77000 407.096
24.78000 410.404
24.79000 413.749
24.80000 416.769
24.81000 419.490
24.82000 422.186
24.83000 421.064
24.84000 417.689
24.85000 414.535
24.86000 416.377
24.87000 420.289
24.88000 424.211
24.89000 428.246
24.90000 432.313
24.91000 435.932
24.92000 430.009
24.93000 423.307
24.94000 416.844
24.95000 411.434
24.96000 406.148
24.97000 401.956
24.98000 401.016
24.99000 400.292
25.00000 399.801
25.01000 400.772
25.02000 401.526
25.03000 401.242
25.04000 399.528
25.05000 397.806
25.06000 399.537
25.07000 404.370
25.08000 409.157
25.09000 415.935
25.10000 423.740
25.11000 430.836
25.12000 422.352
25.13000 407.504
25.14000 393.936
25.15000 394.656
25.16000 399.354
25.17000 403.525
25.18000 406.097
25.19000 408.070
25.20000 409.530
25.21000 408.769
25.22000 407.750
25.23000 408.566
25.24000 414.759
25.25000 421.299
25.26000 425.704
25.27000 419.347
25.28000 414.397
25.29000 411.609
25.30000 411.753
25.31000 411.915
25.32000 413.443
25.33000 416.177
25.34000 418.883
25.35000 416.072
25.36000 410.139
25.37000 404.314
25.38000 400.774
25.39000 398.154
25.40000 396.008
25.41000 399.026
25.42000 403.460
25.43000 407.389
25.44000 413.046
25.45000 418.214
25.46000 421.706
25.47000 418.037
25.48000 413.554
25.49000 411.989
25.50000 418.849
25.51000 426.240
25.52000 431.191
25.53000 412.609
25.54000 398.353
25.55000 393.275
25.56000 400.451
25.57000 407.683
25.58000 410.175
25.59000 408.543
25.60000 406.928
25.61000 404.910
25.62000 402.708
25.63000 400.838
25.64000 405.793
25.65000 413.458
25.66000 419.464
25.67000 407.744
25.68000 391.233
25.69000 376.640
25.70000 376.610
25.71000 378.834
25.72000 381.337
25.73000 385.012
25.74000 388.818
25.75000 392.214
25.76000 394.443
25.77000 396.600
25.78000 398.038
25.79000 400.860
25.80000 402.975
25.81000 405.150
25.82000 407.402
25.83000 409.651
25.84000 408.706
25.85000 405.029
25.86000 401.393
25.87000 400.443
25.88000 401.016
25.89000 401.422
25.90000 398.456
25.91000 394.171
25.92000 390.788
25.93000 396.836
25.94000 405.394
25.95000 412.940
25.96000 412.266
25.97000 410.439
25.98000 407.953
25.99000 402.741
26.00000 397.231
26.01000 393.170
26.02000 393.173
26.03000 393.419
26.04000 393.583
26.05000 394.510
26.06000 395.210
26.07000 398.434
26.08000 404.925
26.09000 411.419
26.10000 412.165
26.11000 408.070
26.12000 404.024
26.13000 405.111
26.14000 408.994
26.15000 412.320
26.16000 404.821
26.17000 393.148
26.18000 382.602
26.19000 383.598
26.20000 387.621
26.21000 391.160
26.22000 393.933
26.23000 396.206
26.24000 398.610
26.25000 401.551
26.26000 404.550
26.27000 405.333
26.28000 399.985
26.29000 394.281
26.30000 390.520
26.31000 388.548
26.32000 387.125
26.33000 387.099
26.34000 388.852
26.35000 390.614
26.36000 393.096
26.37000 396.177
26.38000 399.219
26.39000 403.273
26.40000 407.769
26.41000 412.011
26.42000 411.440
26.43000 409.040
26.44000 406.403
26.45000 401.391
26.46000 395.767
26.47000 390.831
26.48000 385.761
26.49000 381.386
26.50000 378.232
26.51000 379.987
26.52000 382.257
26.53000 385.491
26.54000 391.356
26.55000 397.369
26.56000 401.313
26.57000 395.716
26.58000 391.441
26.59000 391.449
26.60000 396.828
26.61000 402.197
26.62000 397.361
26.63000 384.199
26.64000 371.215
26.65000 373.467
26.66000 383.774
26.67000 393.897
26.68000 400.626
26.69000 406.083
26.70000 410.825
26.71000 408.548
26.72000 404.486
26.73000 400.929
26.74000 393.799
26.75000 387.173
26.76000 381.223
26.77000 377.949
26.78000 374.950
26.79000 372.047
26.80000 369.402
26.81000 366.771
26.82000 365.055
26.83000 374.791
26.84000 382.117
26.85000 385.124
26.86000 382.800
26.87000 380.483
26.88000 385.180
26.89000 395.508
26.90000 405.689
26.91000 405.134
26.92000 398.965
26.93000 392.777
26.94000 386.246
26.95000 379.589
26.96000 373.402
26.97000 371.737
26.98000 371.206
26.99000 370.742
27.00000 378.663
27.01000 386.623
27.02000 391.603
27.03000 384.969
27.04000 377.165
27.05000 372.489
27.06000 376.090
27.07000 380.134
27.08000 382.758
27.09000 399.841
27.10000 412.568
27.11000 414.048
27.12000 401.865
27.13000 389.676
27.14000 385.026
27.15000 386.335
27.16000 387.624
27.17000 381.082
27.18000 370.694
27.19000 361.070
27.20000 364.734
27.21000 373.235
27.22000 380.599
27.23000 377.249
27.24000 371.256
27.25000 366.036
27.26000 367.318
27.27000 369.311
27.28000 371.243
27.29000 372.939
27.30000 374.612
27.31000 376.702
27.32000 379.879
27.33000 383.114
27.34000 385.201
27.35000 383.103
27.36000 381.511
27.37000 383.721
27.38000 390.479
27.39000 397.215
27.40000 396.092
27.41000 388.853
27.42000 381.727
27.43000 383.420
27.44000 389.540
27.45000 395.389
27.46000 396.651
27.47000 396.269
27.48000 395.445
27.49000 390.553
27.50000 384.673
27.51000 379.562
27.52000 371.559
27.53000 364.342
27.54000 361.871
27.55000 377.346
27.56000 394.552
27.57000 404.477
27.58000 395.673
27.59000 385.922
27.60000 379.666
27.61000 382.702
27.62000 385.041
27.63000 387.910
27.64000 391.403
27.65000 394.869
27.66000 391.802
27.67000 383.732
27.68000 375.794
27.69000 375.780
27.70000 379.729
27.71000 383.309
27.72000 380.807
27.73000 376.156
27.74000 371.797
27.75000 370.091
27.76000 369.019
27.77000 368.090
27.78000 374.691
27.79000 381.312
27.80000 385.324
27.81000 379.618
27.82000 372.994
27.83000 368.590
27.84000 369.813
27.85000 371.312
27.86000 372.268
27.87000 365.251
27.88000 360.043
27.89000 360.109
27.90000 366.277
27.91000 372.442
27.92000 376.211
27.93000 378.173
27.94000 380.102
27.95000 383.846
27.96000 388.359
27.97000 392.553
27.98000 391.648
27.99000 388.967
28.00000 386.416
28.01000 385.031
28.02000 383.921
28.03000 382.961
28.04000 377.845
28.05000 372.956
28.06000 369.573
28.07000 371.715
28.08000 374.368
28.09000 377.571
28.10000 382.150
28.11000 386.794
28.12000 389.740
28.13000 381.709
28.14000 375.747
28.15000 374.795
28.16000 379.549
28.17000 384.291
28.18000 385.640
28.19000 384.470
28.20000 383.321
28.21000 383.116
28.22000 383.375
28.23000 383.730
28.24000 385.585
28.25000 387.955
28.26000 389.644
28.27000 385.405
28.28000 379.791
28.29000 374.949
28.30000 373.182
28.31000 372.076
28.32000 370.353
28.33000 366.396
28.34000 362.236
28.35000 359.449
28.36000 360.039
28.37000 360.786
28.38000 361.256
28.39000 370.537
28.40000 377.359
28.41000 380.024
28.42000 378.031
28.43000 376.037
28.44000 374.499
28.45000 373.294
28.46000 372.113
28.47000 370.449
28.48000 368.615
28.49000 366.866
28.50000 366.405
28.51000 366.381
28.52000 366.701
28.53000 369.965
28.54000 373.901
28.55000 377.287
28.56000 371.661
28.57000 365.769
28.58000 360.797
28.59000 359.105
28.60000 357.703
28.61000 357.857
28.62000 361.787
28.63000 365.886
28.64000 368.456
28.65000 368.988
28.66000 369.349
28.67000 370.876
28.68000 373.686
28.69000 376.484
28.70000 377.228
28.71000 376.494
28.72000 375.774
28.73000 374.875
28.74000 373.927
28.75000 372.788
28.76000 368.824
28.77000 363.918
28.78000 359.764
28.79000 361.904
28.80000 365.460
28.81000 368.510
28.82000 369.263
28.83000 369.618
28.84000 369.165
28.85000 365.883
28.86000 362.357
28.87000 362.121
28.88000 369.762
28.89000 377.744
28.90000 382.720
28.91000 386.681
28.92000 389.526
28.93000 382.961
28.94000 366.192
28.95000 349.533
28.96000 348.978
28.97000 359.837
28.98000 370.474
28.99000 375.202
29.00000 377.018
29.01000 378.866
29.02000 381.178
29.03000 383.641
29.04000 385.753
29.05000 384.977
29.06000 383.562
29.07000 382.351
29.08000 378.523
29.09000 374.979
29.10000 371.362
29.11000 367.492
29.12000 363.601
29.13000 362.137
29.14000 366.397
29.15000 370.897
29.16000 373.686
29.17000 363.273
29.18000 355.657
29.19000 354.233
29.20000 359.410
29.21000 364.603
29.22000 371.416
29.23000 379.362
29.24000 387.138
29.25000 385.647
29.26000 380.003
29.27000 374.554
29.28000 371.860
29.29000 370.059
29.30000 367.954
29.31000 363.405
29.32000 358.322
29.33000 353.985
29.34000 355.970
29.35000 358.389
29.36000 359.571
29.37000 356.541
29.38000 353.162
29.39000 352.614
29.40000 358.650
29.41000 364.954
29.42000 368.836
29.43000 363.222
29.44000 359.108
29.45000 356.979
29.46000 356.933
29.47000 356.878
29.48000 355.781
29.49000 353.967
29.50000 352.193
29.51000 354.850
29.52000 359.378
29.53000 364.042
29.54000 370.565
29.55000 377.680
29.56000 383.300
29.57000 377.089
29.58000 368.340
29.59000 360.895
29.60000 366.336
29.61000 372.400
29.62000 376.674
29.63000 374.938
29.64000 372.716
29.65000 371.586
29.66000 372.959
29.67000 374.430
29.68000 375.331
29.69000 372.525
29.70000 370.485
29.71000 369.988
29.72000 371.081
29.73000 372.185
29.74000 374.453
29.75000 377.511
29.76000 380.497
29.77000 386.277
29.78000 393.041
29.79000 399.164
29.80000 396.657
29.81000 391.437
29.82000 387.845
29.83000 396.890
29.84000 408.604
29.85000 418.546
29.86000 422.615
29.87000 425.361
29.88000 427.978
29.89000 430.166
29.90000 432.320
29.91000 435.305
29.92000 440.169
29.93000 445.103
29.94000 448.106
29.95000 447.017
29.96000 446.207
29.97000 448.701
29.98000 454.547
29.99000 460.360
30.00000 462.860
30.01000 463.152
30.02000 463.436
30.03000 463.667
30.04000 463.866
30.05000 464.109
30.06000 464.921
30.07000 465.910
30.08000 466.835
30.09000 467.282
30.10000 467.628
30.11000 467.922
30.12000 462.343
30.13000 457.020
30.14000 452.508
30.15000 450.635
30.16000 448.967
30.17000 444.949
30.18000 435.703
30.19000 426.264
30.20000 420.556
30.21000 423.956
30.22000 426.444
30.23000 425.785
30.24000 421.986
30.25000 418.207
30.26000 416.301
30.27000 415.624
30.28000 414.964
30.29000 415.729
30.30000 417.066
30.31000 418.022
30.32000 414.067
30.33000 408.613
30.34000 403.886
30.35000 404.595
30.36000 406.415
30.37000 407.951
30.38000 403.621
30.39000 399.364
30.40000 394.859
30.41000 389.559
30.42000 384.198
30.43000 384.893
30.44000 398.874
30.45000 413.326
30.46000 422.011
30.47000 412.147
30.48000 405.010
30.49000 403.037
30.50000 406.125
30.51000 409.157
30.52000 407.163
30.53000 401.915
30.54000 396.803
30.55000 397.551
30.56000 400.725
30.57000 404.072
30.58000 409.586
30.59000 415.751
30.60000 420.913
30.61000 418.715
30.62000 415.034
30.63000 411.937
30.64000 411.874
30.65000 412.145
30.66000 411.903
30.67000 410.034
30.68000 408.046
30.69000 407.137
30.70000 408.565
30.71000 410.073
30.72000 410.973
30.73000 413.233
30.74000 414.845
30.75000 416.833
30.76000 419.186
30.77000 421.566
30.78000 426.205
30.79000 432.284
30.80000 438.200
30.81000 442.446
30.82000 445.798
30.83000 448.825
30.84000 447.857
30.85000 445.704
30.86000 444.989
30.87000 454.631
30.88000 466.325
30.89000 476.138
30.90000 470.624
30.91000 464.432
30.92000 461.622
30.93000 469.353
30.94000 477.843
30.95000 484.821
30.96000 488.580
30.97000 492.232
30.98000 494.399
30.99000 524.843
31.00000 546.547
31.01000 564.358
31.02000 578.481
31.03000 592.645
31.04000 609.995
31.05000 629.346
31.06000 648.156
31.07000 681.875
31.08000 719.994
31.09000 757.920
31.10000 793.535
31.11000 828.475
31.12000 865.467
31.13000 916.991
31.14000 971.346
31.15000 1016.828
31.16000 1115.953
31.17000 1203.810
31.18000 1289.953
31.19000 1370.835
31.20000 1451.347
31.21000 1542.359
31.22000 1655.426
31.23000 1769.195
31.24000 1836.252
31.25000 1954.357
31.26000 2037.997
31.27000 2145.893
31.28000 2276.401
31.29000 2406.650
31.30000 2517.943
31.31000 2617.507
31.32000 2714.181
31.33000 2777.139
31.34000 2823.397
31.35000 2870.164
31.36000 2922.883
31.37000 2977.316
31.38000 3026.539
31.39000 3039.543
31.40000 3045.601
31.41000 3050.655
31.42000 2985.581
31.43000 2924.579
31.44000 2869.308
31.45000 2831.385
31.46000 2794.649
31.47000 2743.573
31.48000 2662.803
31.49000 2581.124
31.50000 2533.297
31.51000 2351.058
31.52000 2222.087
31.53000 2100.063
31.54000 1984.410
31.55000 1869.080
31.56000 1776.082
31.57000 1696.694
31.58000 1619.693
31.59000 1516.252
31.60000 1407.789
31.61000 1301.777
31.62000 1223.863
31.63000 1153.916
31.64000 1085.300
31.65000 1025.768
31.66000 967.949
31.67000 919.854
31.68000 878.263
31.69000 844.474
31.70000 807.638
31.71000 761.711
31.72000 715.178
31.73000 675.484
31.74000 649.744
31.75000 624.415
31.76000 609.682
31.77000 587.658
31.78000 572.154
31.79000 554.998
31.80000 536.353
31.81000 517.866
31.82000 509.706
31.83000 507.747
31.84000 505.849
31.85000 495.408
31.86000 482.213
31.87000 469.708
31.88000 464.933
31.89000 462.319
31.90000 458.731
31.91000 448.603
31.92000 437.262
31.93000 427.856
31.94000 424.005
31.95000 421.357
31.96000 417.460
31.97000 409.895
31.98000 402.090
31.99000 395.857
32.00000 392.783
32.01000 389.798
32.02000 388.073
32.03000 386.312
32.04000 385.078
32.05000 383.938
32.06000 382.882
32.07000 381.839
32.08000 381.628
32.09000 381.908
32.10000 382.180
32.11000 375.031
32.12000 365.441
32.13000 356.480
32.14000 354.411
32.15000 354.238
32.16000 353.798
32.17000 351.604
32.18000 349.089
32.19000 347.010
32.20000 351.681
32.21000 356.167
32.22000 359.706
32.23000 360.496
32.24000 361.112
32.25000 359.659
32.26000 354.105
32.27000 348.438
32.28000 345.187
32.29000 347.171
32.30000 348.577
32.31000 350.355
32.32000 352.459
32.33000 354.546
32.34000 355.604
32.35000 356.063
32.36000 356.507
32.37000 356.523
32.38000 356.377
32.39000 355.892
32.40000 351.768
32.41000 346.656
32.42000 342.017
32.43000 340.441
32.44000 339.415
32.45000 338.569
32.46000 348.817
32.47000 358.273
32.48000 363.237
32.49000 355.371
32.50000 346.713
32.51000 340.451
32.52000 338.870
32.53000 337.411
32.54000 336.580
32.55000 332.164
32.56000 329.083
32.57000 332.675
32.58000 341.999
32.59000 351.197
32.60000 353.362
32.61000 351.488
32.62000 349.679
32.63000 347.446
32.64000 345.186
32.65000 342.686
32.66000 337.660
32.67000 331.958
32.68000 327.145
32.69000 327.979
32.70000 329.811
32.71000 331.316
32.72000 333.643
32.73000 335.629
32.74000 335.588
32.75000 329.839
32.76000 323.748
32.77000 318.983
32.78000 316.773
32.79000 314.626
32.80000 313.411
32.81000 321.001
32.82000 326.295
32.83000 325.620
32.84000 319.902
32.85000 314.271
32.86000 313.261
32.87000 314.868
32.88000 316.417
32.89000 319.508
32.90000 322.978
32.91000 325.966
32.92000 324.002
32.93000 320.736
32.94000 317.938
32.95000 318.069
32.96000 318.709
32.97000 319.233
32.98000 318.536
32.99000 317.856
33.00000 318.059
33.01000 320.713
33.02000 323.510
33.03000 324.385
33.04000 321.612
33.05000 318.753
33.06000 317.146
33.07000 315.783
33.08000 314.841
33.09000 314.907
33.10000 315.812
33.11000 316.790
33.12000 321.390
33.13000 328.011
33.14000 334.388
33.15000 330.521
33.16000 323.218
33.17000 316.906
33.18000 320.566
33.19000 326.812
33.20000 331.544
33.21000 326.979
33.22000 320.826
33.23000 315.801
33.24000 306.393
33.25000 298.316
33.26000 293.808
33.27000 299.059
33.28000 304.866
33.29000 310.027
33.30000 313.981
33.31000 317.908
33.32000 320.099
33.33000 314.423
33.34000 310.479
33.35000 307.529
33.36000 305.392
33.37000 303.335
33.38000 305.140
33.39000 309.066
33.40000 312.844
33.41000 312.111
33.42000 309.833
33.43000 307.608
33.44000 305.897
33.45000 304.318
33.46000 303.563
33.47000 307.784
33.48000 312.841
33.49000 316.958
33.50000 313.320
33.51000 309.694
33.52000 307.369
33.53000 308.545
33.54000 309.916
33.55000 308.663
33.56000 302.575
33.57000 296.381
33.58000 292.949
33.59000 298.521
33.60000 302.370
33.61000 301.362
33.62000 296.438
33.63000 291.618
33.64000 291.470
33.65000 293.852
33.66000 296.142
33.67000 297.919
33.68000 299.405
33.69000 300.646
33.70000 299.504
33.71000 297.763
33.72000 295.768
33.73000 292.267
33.74000 288.517
33.75000 285.473
33.76000 287.463
33.77000 289.499
33.78000 291.864
33.79000 295.099
33.80000 298.381
33.81000 300.883
33.82000 301.970
33.83000 303.027
33.84000 303.608
33.85000 300.252
33.86000 297.940
33.87000 297.495
33.88000 298.529
33.89000 299.516
33.90000 298.483
33.91000 296.371
33.92000 294.344
33.93000 291.351
33.94000 288.222
33.95000 285.502
33.96000 286.649
33.97000 288.754
33.98000 290.811
33.99000 292.592
34.00000 294.328
34.01000 295.732
34.02000 293.318
34.03000 291.046
34.04000 290.216
34.05000 293.163
34.06000 296.307
34.07000 297.198
34.08000 294.056
34.09000 290.834
34.10000 289.076
34.11000 291.289
34.12000 292.818
34.13000 295.210
34.14000 298.277
34.15000 301.247
34.16000 300.168
34.17000 296.960
34.18000 293.885
34.19000 290.755
34.20000 287.814
34.21000 285.377
34.22000 287.606
34.23000 290.973
34.24000 293.244
34.25000 289.216
34.26000 284.184
34.27000 280.127
34.28000 281.885
34.29000 283.771
34.30000 283.429
34.31000 277.340
34.32000 270.959
34.33000 268.381
34.34000 272.508
34.35000 276.761
34.36000 279.066
34.37000 279.984
34.38000 280.618
34.39000 282.673
34.40000 285.819
34.41000 288.902
34.42000 289.425
34.43000 288.622
34.44000 287.852
34.45000 285.864
34.46000 283.607
34.47000 281.976
34.48000 286.031
34.49000 291.450
34.50000 295.340
34.51000 290.586
34.52000 284.477
34.53000 279.568
34.54000 286.776
34.55000 293.551
34.56000 296.539
34.57000 289.897
34.58000 282.780
34.59000 278.690
34.60000 279.860
34.61000 281.124
34.62000 281.804
34.63000 286.847
34.64000 290.288
34.65000 291.959
34.66000 292.291
34.67000 292.522
34.68000 288.948
34.69000 283.430
34.70000 278.155
34.71000 275.496
34.72000 273.873
34.73000 272.608
34.74000 274.539
34.75000 277.226
34.76000 279.770
34.77000 281.525
34.78000 283.157
34.79000 284.465
34.80000 283.745
34.81000 283.010
34.82000 280.183
34.83000 272.113
34.84000 263.791
34.85000 262.706
34.86000 274.012
34.87000 285.529
34.88000 291.675
34.89000 285.527
34.90000 281.332
34.91000 277.894
34.92000 275.020
34.93000 272.370
34.94000 277.934
34.95000 287.633
34.96000 296.895
34.97000 295.223
34.98000 290.171
34.99000 285.241
35.00000 281.374
35.01000 277.755
35.02000 274.718
35.03000 274.862
35.04000 275.488
35.05000 275.987
35.06000 275.694
35.07000 275.399
35.08000 275.020
35.09000 274.433
35.10000 273.836
35.11000 275.689
35.12000 281.672
35.13000 287.721
35.14000 290.924
35.15000 285.774
35.16000 282.288
35.17000 282.297
35.18000 284.870
35.19000 287.434
35.20000 289.693
35.21000 291.802
35.22000 293.813
35.23000 288.302
35.24000 280.822
35.25000 274.052
35.26000 273.368
35.27000 274.079
35.28000 275.484
35.29000 280.624
35.30000 286.319
35.31000 290.850
35.32000 279.835
35.33000 269.843
35.34000 263.698
35.35000 266.917
35.36000 270.558
35.37000 272.982
35.38000 273.384
35.39000 273.754
35.40000 273.949
35.41000 284.504
35.42000 291.640
35.43000 295.193
35.44000 296.157
35.45000 296.929
35.46000 291.180
35.47000 282.243
35.48000 273.733
35.49000 273.981
35.50000 276.925
35.51000 279.330
35.52000 277.203
35.53000 274.054
35.54000 271.738
35.55000 273.830
35.56000 276.567
35.57000 278.736
35.58000 272.719
35.59000 267.307
35.60000 263.752
35.61000 264.656
35.62000 265.755
35.63000 266.464
35.64000 266.534
35.65000 266.594
35.66000 266.626
35.67000 265.729
35.68000 265.112
35.69000 262.968
35.70000 259.738
35.71000 256.723
35.72000 260.714
35.73000 268.082
35.74000 275.089
35.75000 274.517
35.76000 271.679
35.77000 269.030
35.78000 267.944
35.79000 267.206
35.80000 267.161
35.81000 270.719
35.82000 274.794
35.83000 278.013
35.84000 272.243
35.85000 266.998
35.86000 261.675
35.87000 256.169
35.88000 250.656
35.89000 249.714
35.90000 256.145
35.91000 262.676
35.92000 266.052
35.93000 276.250
35.94000 283.084
35.95000 284.280
35.96000 281.527
35.97000 278.889
35.98000 279.885
35.99000 282.607
36.00000 285.192
36.01000 281.111
36.02000 275.345
36.03000 270.207
36.04000 270.159
36.05000 271.225
36.06000 271.700
36.07000 269.157
36.08000 266.189
36.09000 263.852
36.10000 266.402
36.11000 268.771
36.12000 270.731
36.13000 271.734
36.14000 272.698
36.15000 272.070
36.16000 268.914
36.17000 265.726
36.18000 264.091
36.19000 272.690
36.20000 278.420
36.21000 277.825
36.22000 272.867
36.23000 268.036
36.24000 267.050
36.25000 267.865
36.26000 268.638
36.27000 268.263
36.28000 267.580
36.29000 266.559
36.30000 262.852
36.31000 258.566
36.32000 255.260
36.33000 256.886
36.34000 259.193
36.35000 261.004
36.36000 255.675
36.37000 250.950
36.38000 248.803
36.39000 252.578
36.40000 256.589
36.41000 260.550
36.42000 264.432
36.43000 268.314
36.44000 270.288
36.45000 269.143
36.46000 268.371
36.47000 267.142
36.48000 265.604
36.49000 264.167
36.50000 265.702
36.51000 268.608
36.52000 271.359
36.53000 272.876
36.54000 273.914
36.55000 274.523
36.56000 271.792
36.57000 268.353
36.58000 264.887
36.59000 261.292
36.60000 257.678
36.61000 254.854
36.62000 255.864
36.63000 256.913
36.64000 258.400
36.65000 260.879
36.66000 263.395
36.67000 264.390
36.68000 263.040
36.69000 261.664
36.70000 260.969
36.71000 271.005
36.72000 277.616
36.73000 273.864
36.74000 263.178
36.75000 252.906
36.76000 254.253
36.77000 260.886
36.78000 267.158
36.79000 272.274
36.80000 276.643
36.81000 279.775
36.82000 273.444
36.83000 265.139
36.84000 259.109
36.85000 264.173
36.86000 270.718
36.87000 275.815
36.88000 277.171
36.89000 278.020
36.90000 280.112
36.91000 284.982
36.92000 289.954
36.93000 290.657
36.94000 284.875
36.95000 279.025
36.96000 276.099
36.97000 272.634
36.98000 270.360
36.99000 271.527
37.00000 274.963
37.01000 278.422
37.02000 282.504
37.03000 286.865
37.04000 290.982
37.05000 283.110
37.06000 272.521
37.07000 263.797
37.08000 269.069
37.09000 277.215
37.10000 284.068
37.11000 284.722
37.12000 284.564
37.13000 284.441
37.14000 281.962
37.15000 279.850
37.16000 277.467
37.17000 274.487
37.18000 271.486
37.19000 268.447
37.20000 265.352
37.21000 262.256
37.22000 259.460
37.23000 256.958
37.24000 254.498
37.25000 255.872
37.26000 259.735
37.27000 263.416
37.28000 262.355
37.29000 259.197
37.30000 256.221
37.31000 260.823
37.32000 267.132
37.33000 272.063
37.34000 266.841
37.35000 259.567
37.36000 253.846
37.37000 255.460
37.38000 258.017
37.39000 259.994
37.40000 262.908
37.41000 265.275
37.42000 266.232
37.43000 264.133
37.44000 261.928
37.45000 261.058
37.46000 262.154
37.47000 263.268
37.48000 264.673
37.49000 266.360
37.50000 268.038
37.51000 269.009
37.52000 269.529
37.53000 270.123
37.54000 272.608
37.55000 275.916
37.56000 279.030
37.57000 273.474
37.58000 266.037
37.59000 259.282
37.60000 257.464
37.61000 256.628
37.62000 256.230
37.63000 257.868
37.64000 259.763
37.65000 261.223
37.66000 261.222
37.67000 261.138
37.68000 260.097
37.69000 257.011
37.70000 253.857
37.71000 252.822
37.72000 254.861
37.73000 256.925
37.74000 259.743
37.75000 263.276
37.76000 266.860
37.77000 274.378
37.78000 284.375
37.79000 293.746
37.80000 287.813
37.81000 275.310
37.82000 263.561
37.83000 262.785
37.84000 265.012
37.85000 267.037
37.86000 267.623
37.87000 267.927
37.88000 267.079
37.89000 260.955
37.90000 254.178
37.91000 248.977
37.92000 249.606
37.93000 250.427
37.94000 251.423
37.95000 252.788
37.96000 254.164
37.97000 257.106
37.98000 262.285
37.99000 267.481
38.00000 268.407
38.01000 265.338
38.02000 262.342
38.03000 264.728
38.04000 270.454
38.05000 275.868
38.06000 273.881
38.07000 268.762
38.08000 263.959
38.09000 265.841
38.10000 269.316
38.11000 272.370
38.12000 272.495
38.13000 272.056
38.14000 272.812
38.15000 278.952
38.16000 285.746
38.17000 290.940
38.18000 293.016
38.19000 294.484
38.20000 294.774
38.21000 292.618
38.22000 290.386
38.23000 290.796
38.24000 294.927
38.25000 299.082
38.26000 300.618
38.27000 299.742
38.28000 298.882
38.29000 299.127
38.30000 300.048
38.31000 301.088
38.32000 304.832
38.33000 309.706
38.34000 314.270
38.35000 324.674
38.36000 335.649
38.37000 346.393
38.38000 355.561
38.39000 364.430
38.40000 373.240
38.41000 381.786
38.42000 390.301
38.43000 396.786
38.44000 418.902
38.45000 437.135
38.46000 453.340
38.47000 465.393
38.48000 477.323
38.49000 494.106
38.50000 517.618
38.51000 541.165
38.52000 565.099
38.53000 589.362
38.54000 613.711
38.55000 643.736
38.56000 677.183
38.57000 710.499
38.58000 740.927
38.59000 770.168
38.60000 797.512
38.61000 820.669
38.62000 840.633
38.63000 862.233
38.64000 894.855
38.65000 929.530
38.66000 959.375
38.67000 968.118
38.68000 974.396
38.69000 979.158
38.70000 994.977
38.71000 1007.972
38.72000 1012.224
38.73000 998.835
38.74000 984.942
38.75000 969.669
38.76000 952.511
38.77000 935.349
38.78000 915.416
38.79000 893.042
38.80000 870.607
38.81000 844.333
38.82000 815.781
38.83000 786.937
38.84000 751.809
38.85000 714.134
38.86000 678.960
38.87000 645.948
38.88000 616.560
38.89000 587.614
38.90000 561.596
38.91000 536.115
38.92000 511.922
38.93000 493.268
38.94000 475.248
38.95000 461.632
38.96000 430.972
38.97000 406.084
38.98000 387.374
38.99000 380.949
39.00000 374.862
39.01000 365.881
39.02000 353.012
39.03000 340.130
39.04000 327.806
39.05000 315.988
39.06000 304.275
39.07000 298.689
39.08000 296.688
39.09000 294.718
39.10000 293.422
39.11000 292.395
39.12000 291.438
39.13000 289.705
39.14000 287.947
39.15000 285.585
39.16000 279.302
39.17000 272.312
39.18000 266.558
39.19000 266.038
39.20000 266.105
39.21000 266.156
39.22000 272.124
39.23000 277.081
39.24000 277.378
39.25000 268.545
39.26000 259.470
39.27000 253.456
39.28000 251.492
39.29000 249.548
39.30000 249.914
39.31000 252.267
39.32000 254.580
39.33000 254.709
39.34000 253.580
39.35000 252.521
39.36000 252.896
39.37000 253.836
39.38000 254.711
39.39000 253.119
39.40000 251.084
39.41000 249.227
39.42000 248.511
39.43000 247.998
39.44000 248.623
39.45000 253.992
39.46000 259.885
39.47000 264.301
39.48000 254.984
39.49000 247.060
39.50000 242.737
39.51000 245.371
39.52000 248.180
39.53000 249.890
39.54000 250.169
39.55000 250.440
39.56000 247.557
39.57000 242.010
39.58000 236.553
39.59000 235.897
39.60000 237.967
39.61000 239.929
39.62000 239.761
39.63000 238.766
39.64000 237.841
39.65000 246.158
39.66000 255.860
39.67000 263.431
39.68000 257.623
39.69000 249.483
39.70000 243.343
39.71000 245.415
39.72000 248.374
39.73000 250.583
39.74000 247.528
39.75000 244.907
39.76000 244.557
39.77000 248.534
39.78000 252.615
39.79000 252.390
39.80000 246.641
39.81000 240.879
39.82000 233.288
39.83000 224.197
39.84000 215.300
39.85000 216.210
39.86000 222.607
39.87000 228.957
39.88000 234.409
39.89000 239.516
39.90000 244.253
39.91000 244.622
39.92000 243.933
39.93000 243.139
39.94000 241.708
39.95000 240.167
39.96000 238.058
39.97000 233.649
39.98000 228.997
39.99000 225.538
40.00000 230.506
40.01000 234.745
40.02000 236.567
40.03000 233.852
40.04000 231.033
40.05000 228.172
40.06000 225.257
40.07000 222.346
40.08000 224.072
40.09000 229.590
40.10000 235.021
40.11000 236.307
40.12000 235.306
40.13000 234.359
40.14000 234.412
40.15000 234.842
40.16000 235.240
40.17000 234.379
40.18000 233.315
40.19000 231.795
40.20000 227.510
40.21000 222.760
40.22000 218.796
40.23000 217.963
40.24000 217.455
40.25000 217.078
40.26000 220.984
40.27000 224.201
40.28000 227.935
40.29000 232.624
40.30000 237.334
40.31000 238.892
40.32000 236.533
40.33000 234.167
40.34000 230.576
40.35000 226.013
40.36000 221.498
40.37000 219.209
40.38000 218.131
40.39000 217.152
40.40000 217.964
40.41000 219.442
40.42000 220.808
40.43000 224.275
40.44000 227.862
40.45000 230.932
40.46000 230.918
40.47000 230.392
40.48000 230.193
40.49000 231.271
40.50000 232.478
40.51000 233.369
40.52000 231.506
40.53000 229.947
40.54000 229.848
40.55000 232.409
40.56000 235.026
40.57000 233.014
40.58000 225.337
40.59000 217.660
40.60000 212.678
40.61000 209.853
40.62000 207.164
40.63000 210.440
40.64000 216.910
40.65000 223.105
40.66000 224.462
40.67000 224.048
40.68000 223.665
40.69000 220.704
40.70000 217.478
40.71000 215.287
40.72000 219.171
40.73000 224.043
40.74000 227.861
40.75000 227.603
40.76000 226.940
40.77000 226.453
40.78000 221.168
40.79000 216.887
40.80000 215.624
40.81000 219.779
40.82000 224.043
40.83000 224.640
40.84000 220.822
40.85000 217.003
40.86000 217.783
40.87000 222.144
40.88000 226.407
40.89000 226.547
40.90000 224.513
40.91000 222.496
40.92000 220.774
40.93000 219.157
40.94000 217.669
40.95000 218.668
40.96000 220.106
40.97000 221.657
40.98000 223.855
40.99000 226.157
41.00000 228.195
41.01000 229.226
41.02000 230.159
41.03000 230.841
41.04000 234.279
41.05000 237.041
41.06000 236.657
41.07000 230.710
41.08000 224.657
41.09000 220.768
41.10000 219.442
41.11000 218.124
41.12000 219.641
41.13000 223.323
41.14000 226.838
41.15000 223.596
41.16000 216.840
41.17000 210.517
41.18000 211.413
41.19000 214.877
41.20000 218.060
41.21000 222.615
41.22000 226.977
41.23000 230.458
41.24000 228.943
41.25000 226.641
41.26000 224.468
41.27000 222.775
41.28000 221.128
41.29000 219.929
41.30000 218.401
41.31000 217.213
41.32000 216.313
41.33000 215.916
41.34000 215.529
41.35000 217.996
41.36000 223.791
41.37000 229.575
41.38000 231.482
41.39000 230.451
41.40000 229.375
41.41000 226.531
41.42000 222.782
41.43000 219.249
41.44000 219.221
41.45000 220.421
41.46000 221.522
41.47000 222.117
41.48000 222.539
41.49000 222.906
41.50000 222.962
41.51000 222.970
41.52000 221.634
41.53000 215.333
41.54000 208.569
41.55000 203.665
41.56000 208.894
41.57000 213.287
41.58000 216.530
41.59000 217.797
41.60000 219.031
41.61000 218.873
41.62000 217.120
41.63000 215.370
41.64000 217.302
41.65000 221.953
41.66000 226.442
41.67000 224.986
41.68000 220.526
41.69000 216.328
41.70000 216.263
41.71000 217.627
41.72000 218.876
41.73000 217.838
41.74000 216.439
41.75000 214.910
41.76000 212.669
41.77000 210.318
41.78000 209.236
41.79000 212.766
41.80000 216.717
41.81000 219.569
41.82000 217.512
41.83000 215.760
41.84000 215.527
41.85000 217.867
41.86000 220.249
41.87000 220.083
41.88000 217.041
41.89000 214.007
41.90000 211.370
41.91000 209.044
41.92000 206.783
41.93000 206.853
41.94000 208.083
41.95000 209.358
41.96000 211.330
41.97000 213.539
41.98000 215.557
41.99000 213.175
42.00000 210.160
42.01000 207.399
42.02000 206.007
42.03000 204.819
42.04000 203.459
42.05000 201.480
42.06000 199.446
42.07000 197.984
42.08000 197.576
42.09000 197.300
42.10000 198.616
42.11000 202.585
42.12000 206.595
42.13000 208.034
42.14000 206.618
42.15000 205.206
42.16000 204.570
42.17000 204.498
42.18000 204.549
42.19000 208.807
42.20000 215.129
42.21000 220.935
42.22000 218.974
42.23000 214.408
42.24000 210.243
42.25000 208.331
42.26000 207.088
42.27000 205.906
42.28000 205.053
42.29000 204.247
42.30000 203.203
42.31000 201.317
42.32000 199.358
42.33000 197.957
42.34000 201.092
42.35000 203.639
42.36000 204.666
42.37000 203.195
42.38000 201.687
42.39000 200.221
42.40000 198.799
42.41000 197.384
42.42000 202.823
42.43000 213.055
42.44000 222.982
42.45000 222.911
42.46000 218.007
42.47000 213.305
42.48000 211.578
42.49000 210.835
42.50000 210.159
42.51000 208.115
42.52000 206.036
42.53000 204.187
42.54000 203.535
42.55000 203.056
42.56000 202.040
42.57000 199.159
42.58000 196.117
42.59000 193.952
42.60000 198.480
42.61000 202.147
42.62000 204.878
42.63000 206.092
42.64000 207.286
42.65000 209.447
42.66000 212.649
42.67000 215.837
42.68000 217.701
42.69000 218.625
42.70000 219.465
42.71000 217.644
42.72000 214.555
42.73000 211.575
42.74000 210.174
42.75000 209.288
42.76000 208.483
42.77000 205.611
42.78000 202.673
42.79000 200.538
42.80000 202.532
42.81000 205.111
42.82000 206.688
42.83000 204.837
42.84000 202.698
42.85000 201.182
42.86000 204.891
42.87000 207.876
42.88000 210.480
42.89000 212.477
42.90000 214.466
42.91000 216.472
42.92000 218.497
42.93000 220.513
42.94000 220.347
42.95000 218.691
42.96000 216.952
42.97000 212.675
42.98000 207.206
42.99000 202.105
43.00000 202.132
43.01000 203.806
43.02000 205.323
43.03000 207.758
43.04000 210.081
43.05000 210.994
43.06000 204.788
43.07000 197.593
43.08000 193.023
43.09000 197.319
43.10000 202.338
43.11000 205.881
43.12000 207.218
43.13000 208.166
43.14000 209.507
43.15000 211.466
43.16000 213.433
43.17000 211.613
43.18000 205.857
43.19000 200.131
43.20000 201.836
43.21000 208.523
43.22000 214.966
43.23000 214.268
43.24000 210.264
43.25000 206.493
43.26000 205.889
43.27000 206.287
43.28000 206.647
43.29000 203.833
43.30000 200.761
43.31000 198.437
43.32000 199.834
43.33000 201.738
43.34000 203.524
43.35000 204.919
43.36000 206.282
43.37000 207.240
43.38000 204.355
43.39000 202.058
43.40000 202.277
43.41000 206.389
43.42000 210.545
43.43000 210.334
43.44000 205.662
43.45000 201.016
43.46000 198.520
43.47000 197.483
43.48000 196.585
43.49000 199.634
43.50000 204.484
43.51000 209.059
43.52000 209.979
43.53000 209.759
43.54000 209.560
43.55000 205.888
43.56000 202.022
43.57000 198.633
43.58000 197.574
43.59000 196.828
43.60000 196.631
43.61000 198.235
43.62000 199.978
43.63000 201.197
43.64000 201.507
43.65000 201.716
43.66000 202.152
43.67000 202.936
43.68000 203.723
43.69000 200.408
43.70000 192.975
43.71000 185.587
43.72000 185.672
43.73000 190.628
43.74000 195.477
43.75000 197.407
43.76000 198.023
43.77000 198.535
43.78000 197.693
43.79000 196.435
43.80000 195.301
43.81000 194.226
43.82000 193.294
43.83000 192.407
43.84000 191.740
43.85000 191.102
43.86000 191.080
43.87000 193.047
43.88000 195.166
43.89000 196.641
43.90000 197.421
43.91000 197.991
43.92000 198.026
43.93000 197.257
43.94000 196.480
43.95000 194.669
43.96000 191.836
43.97000 189.021
43.98000 194.321
43.99000 204.747
44.00000 214.646
44.01000 210.645
44.02000 200.480
44.03000 191.323
44.04000 194.940
44.05000 202.426
44.06000 209.155
44.07000 207.352
44.08000 204.259
44.09000 201.564
44.10000 200.758
44.11000 200.195
44.12000 198.043
44.13000 190.830
44.14000 183.241
44.15000 177.986
44.16000 188.916
44.17000 197.564
44.18000 202.533
44.19000 202.062
44.20000 201.540
44.21000 202.362
44.22000 204.489
44.23000 206.601
44.24000 203.211
44.25000 196.402
44.26000 190.011
44.27000 194.302
44.28000 203.259
44.29000 211.630
44.30000 212.733
44.31000 211.667
44.32000 210.711
44.33000 202.787
44.34000 194.646
44.35000 188.802
44.36000 193.674
44.37000 199.904
44.38000 206.466
44.39000 214.069
44.40000 221.748
44.41000 227.040
44.42000 218.866
44.43000 212.390
44.44000 205.499
44.45000 198.006
44.46000 190.508
44.47000 192.198
44.48000 202.661
44.49000 213.043
44.50000 217.589
44.51000 218.432
44.52000 219.133
44.53000 216.324
44.54000 212.003
44.55000 208.058
44.56000 208.648
44.57000 210.572
44.58000 212.294
44.59000 213.812
44.60000 215.103
44.61000 216.005
44.62000 215.128
44.63000 214.029
44.64000 214.604
44.65000 220.350
44.66000 226.464
44.67000 230.656
44.68000 234.605
44.69000 237.557
44.70000 238.356
44.71000 236.065
44.72000 233.751
44.73000 235.779
44.74000 241.884
44.75000 247.939
44.76000 248.918
44.77000 246.776
44.78000 244.892
44.79000 249.168
44.80000 256.060
44.81000 262.791
44.82000 267.629
44.83000 271.919
44.84000 275.750
44.85000 275.545
44.86000 274.688
44.87000 275.071
44.88000 281.064
44.89000 287.742
44.90000 295.052
44.91000 304.292
44.92000 313.665
44.93000 320.061
44.94000 332.637
44.95000 342.184
44.96000 346.011
44.97000 341.758
44.98000 337.450
44.99000 339.189
45.00000 346.513
45.01000 353.773
45.02000 360.921
45.03000 367.865
45.04000 374.739
45.05000 379.976
45.06000 384.529
45.07000 388.519
45.08000 385.995
45.09000 381.611
45.10000 377.705
45.11000 379.857
45.12000 382.728
45.13000 384.059
45.14000 378.527
45.15000 372.175
45.16000 367.852
45.17000 369.621
45.18000 371.802
45.19000 373.282
45.20000 368.053
45.21000 364.001
45.22000 355.870
45.23000 342.066
45.24000 328.229
45.25000 323.802
45.26000 327.923
45.27000 332.005
45.28000 332.147
45.29000 329.952
45.30000 327.715
45.31000 324.530
45.32000 320.955
45.33000 317.331
45.34000 313.156
45.35000 308.826
45.36000 304.977
45.37000 295.908
45.38000 287.191
45.39000 279.618
45.40000 277.064
45.41000 275.098
45.42000 271.001
45.43000 260.598
45.44000 249.781
45.45000 242.473
45.46000 248.888
45.47000 253.959
45.48000 256.632
45.49000 256.022
45.50000 255.392
45.51000 252.979
45.52000 248.975
45.53000 245.011
45.54000 249.257
45.55000 258.199
45.56000 266.422
45.57000 259.024
45.58000 245.277
45.59000 232.345
45.60000 228.447
45.61000 227.051
45.62000 225.813
45.63000 225.501
45.64000 225.377
45.65000 225.193
45.66000 224.745
45.67000 224.267
45.68000 224.509
45.69000 226.848
45.70000 229.322
45.71000 230.985
45.72000 226.965
45.73000 223.860
45.74000 219.438
45.75000 213.236
45.76000 207.029
45.77000 204.456
45.78000 205.078
45.79000 205.695
45.80000 206.109
45.81000 206.398
45.82000 206.678
45.83000 206.766
45.84000 206.776
45.85000 206.251
45.86000 199.919
45.87000 192.002
45.88000 184.995
45.89000 188.684
45.90000 193.547
45.91000 197.963
45.92000 200.482
45.93000 202.787
45.94000 203.982
45.95000 201.987
45.96000 199.793
45.97000 198.326
45.98000 190.605
45.99000 184.758
46.00000 182.392
46.01000 184.647
46.02000 186.921
46.03000 187.159
46.04000 185.634
46.05000 184.126
46.06000 183.970
46.07000 184.579
46.08000 185.428
46.09000 191.180
46.10000 198.867
46.11000 205.235
46.12000 197.616
46.13000 186.236
46.14000 176.187
46.15000 180.247
46.16000 185.919
46.17000 190.262
46.18000 189.046
46.19000 187.214
46.20000 184.763
46.21000 180.556
46.22000 176.242
46.23000 173.373
46.24000 185.379
46.25000 194.540
46.26000 195.605
46.27000 186.084
46.28000 176.530
46.29000 174.659
46.30000 179.327
46.31000 183.941
46.32000 183.004
46.33000 179.005
46.34000 175.364
46.35000 178.818
46.36000 185.034
46.37000 190.385
46.38000 186.751
46.39000 180.737
46.40000 175.439
46.41000 175.605
46.42000 176.572
46.43000 176.900
46.44000 174.603
46.45000 172.021
46.46000 170.921
46.47000 173.957
46.48000 177.239
46.49000 179.411
46.50000 178.740
46.51000 178.193
46.52000 177.090
46.53000 175.269
46.54000 173.451
46.55000 174.754
46.56000 178.672
46.57000 182.542
46.58000 182.905
46.59000 181.340
46.60000 179.932
46.61000 181.567
46.62000 184.368
46.63000 186.646
46.64000 183.606
46.65000 179.179
46.66000 175.287
46.67000 170.553
46.68000 166.356
46.69000 163.941
46.70000 168.756
46.71000 174.339
46.72000 178.366
46.73000 178.113
46.74000 177.614
46.75000 177.285
46.76000 180.738
46.77000 183.345
46.78000 184.287
46.79000 183.116
46.80000 181.932
46.81000 178.014
46.82000 171.842
46.83000 165.751
46.84000 169.798
46.85000 179.196
46.86000 187.879
46.87000 183.194
46.88000 173.453
46.89000 164.990
46.90000 169.239
46.91000 176.756
46.92000 183.346
46.93000 182.691
46.94000 181.077
46.95000 179.629
46.96000 178.851
46.97000 178.142
46.98000 177.055
46.99000 174.941
47.00000 172.770
47.01000 171.349
47.02000 167.779
47.03000 165.120
47.04000 165.948
47.05000 171.125
47.06000 176.313
47.07000 180.969
47.08000 185.192
47.09000 189.356
47.10000 187.017
47.11000 181.296
47.12000 175.762
47.13000 173.622
47.14000 172.747
47.15000 171.747
47.16000 169.529
47.17000 167.003
47.18000 164.793
47.19000 161.891
47.20000 159.305
47.21000 157.951
47.22000 161.444
47.23000 165.431
47.24000 167.905
47.25000 166.332
47.26000 164.539
47.27000 163.371
47.28000 166.819
47.29000 169.419
47.30000 169.054
47.31000 165.048
47.32000 161.043
47.33000 160.161
47.34000 161.774
47.35000 163.364
47.36000 167.131
47.37000 171.925
47.38000 176.326
47.39000 173.760
47.40000 168.635
47.41000 163.844
47.42000 162.243
47.43000 161.438
47.44000 160.735
47.45000 160.160
47.46000 159.686
47.47000 159.695
47.48000 161.572
47.49000 163.635
47.50000 165.911
47.51000 168.746
47.52000 171.611
47.53000 173.466
47.54000 173.212
47.55000 172.995
47.56000 171.860
47.57000 169.615
47.58000 167.375
47.59000 167.144
47.60000 168.491
47.61000 169.818
47.62000 169.770
47.63000 169.018
47.64000 168.131
47.65000 164.903
47.66000 160.828
47.67000 157.362
47.68000 159.599
47.69000 163.236
47.70000 166.402
47.71000 166.961
47.72000 167.081
47.73000 166.961
47.74000 165.921
47.75000 164.792
47.76000 163.909
47.77000 163.667
47.78000 163.458
47.79000 163.323
47.80000 161.699
47.81000 160.492
47.82000 161.914
47.83000 166.463
47.84000 170.995
47.85000 169.764
47.86000 164.073
47.87000 158.472
47.88000 160.265
47.89000 165.736
47.90000 171.008
47.91000 172.960
47.92000 173.727
47.93000 174.203
47.94000 172.017
47.95000 169.187
47.96000 166.729
47.97000 166.827
47.98000 167.254
47.99000 167.032
48.00000 164.370
48.01000 161.474
48.02000 159.379
48.03000 159.334
48.04000 159.392
48.05000 159.429
48.06000 162.924
48.07000 165.516
48.08000 165.913
48.09000 163.742
48.10000 161.574
48.11000 161.008
48.12000 161.661
48.13000 162.304
48.14000 160.040
48.15000 156.406
48.16000 153.030
48.17000 153.872
48.18000 156.198
48.19000 158.461
48.20000 160.152
48.21000 161.707
48.22000 163.053
48.23000 164.935
48.24000 166.606
48.25000 168.366
48.26000 170.455
48.27000 172.574
48.28000 173.910
48.29000 173.267
48.30000 172.527
48.31000 172.056
48.32000 176.104
48.33000 179.102
48.34000 178.769
48.35000 174.601
48.36000 170.425
48.37000 165.562
48.38000 160.185
48.39000 154.901
48.40000 155.306
48.41000 158.480
48.42000 161.696
48.43000 165.555
48.44000 169.638
48.45000 172.760
48.46000 167.409
48.47000 160.073
48.48000 153.736
48.49000 154.848
48.50000 156.756
48.51000 159.524
48.52000 165.430
48.53000 171.624
48.54000 174.277
48.55000 168.129
48.56000 161.567
48.57000 157.412
48.58000 162.387
48.59000 166.104
48.60000 166.786
48.61000 164.031
48.62000 161.283
48.63000 160.283
48.64000 160.575
48.65000 160.861
48.66000 160.215
48.67000 159.144
48.68000 157.906
48.69000 154.103
48.70000 149.424
48.71000 145.308
48.72000 146.073
48.73000 147.963
48.74000 149.592
48.75000 150.936
48.76000 152.039
48.77000 153.263
48.78000 154.926
48.79000 156.628
48.80000 157.821
48.81000 157.767
48.82000 157.655
48.83000 157.584
48.84000 151.896
48.85000 147.718
48.86000 148.241
48.87000 154.004
48.88000 159.740
48.89000 160.424
48.90000 157.435
48.91000 154.503
48.92000 154.988
48.93000 157.076
48.94000 158.945
48.95000 157.503
48.96000 154.947
48.97000 153.169
48.98000 157.980
48.99000 164.289
49.00000 169.711
49.01000 163.648
49.02000 157.090
49.03000 152.013
49.04000 152.186
49.05000 152.820
49.06000 153.902
49.07000 156.068
49.08000 158.281
49.09000 159.666
49.10000 154.618
49.11000 150.906
49.12000 151.962
49.13000 158.244
49.14000 164.490
49.15000 164.893
49.16000 161.113
49.17000 157.407
49.18000 154.047
49.19000 150.976
49.20000 148.122
49.21000 148.475
49.22000 149.892
49.23000 151.067
49.24000 150.220
49.25000 148.921
49.26000 147.807
49.27000 148.285
49.28000 148.882
49.29000 150.617
49.30000 156.321
49.31000 162.366
49.32000 166.076
49.33000 164.228
49.34000 162.141
49.35000 160.843
49.36000 149.001
49.37000 140.367
49.38000 140.822
49.39000 151.077
49.40000 161.273
49.41000 163.071
49.42000 158.947
49.43000 154.909
49.44000 151.108
49.45000 147.564
49.46000 144.474
49.47000 147.899
49.48000 153.455
49.49000 158.613
49.50000 160.520
49.51000 161.711
49.52000 162.730
49.53000 159.580
49.54000 156.427
49.55000 154.252
49.56000 155.444
49.57000 156.918
49.58000 158.469
49.59000 160.199
49.60000 161.937
49.61000 163.011
49.62000 162.178
49.63000 161.561
49.64000 158.007
49.65000 151.338
49.66000 144.726
49.67000 145.340
49.68000 150.970
49.69000 156.478
49.70000 157.339
49.71000 156.063
49.72000 154.847
49.73000 154.450
49.74000 154.318
49.75000 154.523
49.76000 157.424
49.77000 160.909
49.78000 163.881
49.79000 161.954
49.80000 159.757
49.81000 158.599
49.82000 160.959
49.83000 163.607
49.84000 163.778
49.85000 158.219
49.86000 152.430
49.87000 148.871
49.88000 157.083
49.89000 163.073
49.90000 164.985
49.91000 162.642
49.92000 160.322
49.93000 160.678
49.94000 162.864
49.95000 165.000
49.96000 160.997
49.97000 154.431
49.98000 148.375
49.99000 149.315
50.00000 152.476
50.01000 155.474
50.02000 157.191
50.03000 158.635
50.04000 159.862
50.05000 158.533
50.06000 157.122
50.07000 156.107
50.08000 156.415
50.09000 156.828
50.10000 157.533
50.11000 158.904
50.12000 160.300
50.13000 161.153
50.14000 153.051
50.15000 147.182
50.16000 146.016
50.17000 149.673
50.18000 153.335
50.19000 157.524
50.20000 162.068
50.21000 166.505
50.22000 166.648
50.23000 164.904
50.24000 163.577
50.25000 167.826
50.26000 173.819
50.27000 178.841
50.28000 176.384
50.29000 172.355
50.30000 168.939
50.31000 163.856
50.32000 159.407
50.33000 157.906
50.34000 166.099
50.35000 175.051
50.36000 180.065
50.37000 176.230
50.38000 172.062
50.39000 169.531
50.40000 166.829
50.41000 164.900
50.42000 168.103
50.43000 176.480
50.44000 184.786
50.45000 186.018
50.46000 182.558
50.47000 179.182
50.48000 181.308
50.49000 185.711
50.50000 189.967
50.51000 192.294
50.52000 194.026
50.53000 195.779
50.54000 197.698
50.55000 199.651
50.56000 201.302
50.57000 206.220
50.58000 210.694
50.59000 215.715
50.60000 222.505
50.61000 229.431
50.62000 233.780
50.63000 232.423
50.64000 230.859
50.65000 229.915
50.66000 231.913
50.67000 233.356
50.68000 235.750
50.69000 239.086
50.70000 242.387
50.71000 242.412
50.72000 240.296
50.73000 238.234
50.74000 236.245
50.75000 234.377
50.76000 232.649
50.77000 232.696
50.78000 233.283
50.79000 233.203
50.80000 228.173
50.81000 222.137
50.82000 217.047
50.83000 216.229
50.84000 216.008
50.85000 216.319
50.86000 218.333
50.87000 220.473
50.88000 220.323
50.89000 215.170
50.90000 209.843
50.91000 206.648
50.92000 209.484
50.93000 211.537
50.94000 208.842
50.95000 201.521
50.96000 194.245
50.97000 190.927
50.98000 190.156
50.99000 189.405
51.00000 186.437
51.01000 182.683
51.02000 179.400
51.03000 181.978
51.04000 186.310
51.05000 189.618
51.06000 185.456
51.07000 179.798
51.08000 175.041
51.09000 173.727
51.10000 172.996
51.11000 171.618
51.12000 168.203
51.13000 164.640
51.14000 161.238
51.15000 158.183
51.16000 155.140
51.17000 153.327
51.18000 157.980
51.19000 161.315
51.20000 160.731
51.21000 156.389
51.22000 152.133
51.23000 154.823
51.24000 161.916
51.25000 168.815
51.26000 165.688
51.27000 158.590
51.28000 151.986
51.29000 151.393
51.30000 152.572
51.31000 153.649
51.32000 153.987
51.33000 154.179
51.34000 154.341
51.35000 157.966
51.36000 161.342
51.37000 162.675
51.38000 157.672
51.39000 152.219
51.40000 149.381
51.41000 152.091
51.42000 154.981
51.43000 156.692
51.44000 157.935
51.45000 158.810
51.46000 156.425
51.47000 150.965
51.48000 145.545
51.49000 143.091
51.50000 142.490
51.51000 141.906
51.52000 146.708
51.53000 153.449
51.54000 159.574
51.55000 158.363
51.56000 155.021
51.57000 151.216
51.58000 144.155
51.59000 136.464
51.60000 130.035
51.61000 136.105
51.62000 142.416
51.63000 147.231
51.64000 147.469
51.65000 147.390
51.66000 147.957
51.67000 149.875
51.68000 151.836
51.69000 152.988
51.70000 155.639
51.71000 157.514
51.72000 155.792
51.73000 150.737
51.74000 145.734
51.75000 144.498
51.76000 145.581
51.77000 146.631
51.78000 145.819
51.79000 144.307
51.80000 142.941
51.81000 143.267
51.82000 144.077
51.83000 144.345
51.84000 140.864
51.85000 136.669
51.86000 133.172
51.87000 138.245
51.88000 143.302
51.89000 147.911
51.90000 151.172
51.91000 154.341
51.92000 154.892
51.93000 150.047
51.94000 145.039
51.95000 142.114
51.96000 147.872
51.97000 151.962
51.98000 152.608
51.99000 150.114
52.00000 147.645
52.01000 146.797
52.02000 146.934
52.03000 147.066
52.04000 145.375
52.05000 143.059
52.06000 140.937
52.07000 141.025
52.08000 141.737
52.09000 142.799
52.10000 146.237
52.11000 150.120
52.12000 153.347
52.13000 152.004
52.14000 150.448
52.15000 148.787
52.16000 146.816
52.17000 144.824
52.18000 143.558
52.19000 143.765
52.20000 144.015
52.21000 144.160
52.22000 139.220
52.23000 135.733
52.24000 135.944
52.25000 139.470
52.26000 142.946
52.27000 143.244
52.28000 141.644
52.29000 140.094
52.30000 138.882
52.31000 137.867
52.32000 136.877
52.33000 136.162
52.34000 135.524
52.35000 135.055
52.36000 135.721
52.37000 136.596
52.38000 137.321
52.39000 142.430
52.40000 147.066
52.41000 150.339
52.42000 149.625
52.43000 148.654
52.44000 148.102
52.45000 148.386
52.46000 148.694
52.47000 148.872
52.48000 144.670
52.49000 141.714
52.50000 141.265
52.51000 143.027
52.52000 144.737
52.53000 143.232
52.54000 139.835
52.55000 136.548
52.56000 136.006
52.57000 136.536
52.58000 136.951
52.59000 136.108
52.60000 134.921
52.61000 134.377
52.62000 138.050
52.63000 142.489
52.64000 146.156
52.65000 144.905
52.66000 143.415
52.67000 143.505
52.68000 148.146
52.69000 153.074
52.70000 154.988
52.71000 150.957
52.72000 146.767
52.73000 144.368
52.74000 142.126
52.75000 140.562
52.76000 140.846
52.77000 142.733
52.78000 144.587
52.79000 144.526
52.80000 143.354
52.81000 142.222
52.82000 140.533
52.83000 138.734
52.84000 136.961
52.85000 135.479
52.86000 134.077
52.87000 133.146
52.88000 135.260
52.89000 137.916
52.90000 140.104
52.91000 137.063
52.92000 134.084
52.93000 132.797
52.94000 136.315
52.95000 140.128
52.96000 143.085
52.97000 144.378
52.98000 145.628
52.99000 146.339
53.00000 137.372
53.01000 131.102
53.02000 130.575
53.03000 134.952
53.04000 139.263
53.05000 139.952
53.06000 138.571
53.07000 137.239
53.08000 138.231
53.09000 140.020
53.10000 141.502
53.11000 139.783
53.12000 137.215
53.13000 135.701
53.14000 140.860
53.15000 147.191
53.16000 152.389
53.17000 146.801
53.18000 141.250
53.19000 137.755
53.20000 140.017
53.21000 142.622
53.22000 144.755
53.23000 145.987
53.24000 147.197
53.25000 147.879
53.26000 156.028
53.27000 161.699
53.28000 160.610
53.29000 153.839
53.30000 147.198
53.31000 147.246
53.32000 151.061
53.33000 154.739
53.34000 155.865
53.35000 156.000
53.36000 156.211
53.37000 157.204
53.38000 158.401
53.39000 158.969
53.40000 155.627
53.41000 151.611
53.42000 148.324
53.43000 148.141
53.44000 148.263
53.45000 148.772
53.46000 150.349
53.47000 151.989
53.48000 152.041
53.49000 149.098
53.50000 146.083
53.51000 144.394
53.52000 147.298
53.53000 149.321
53.54000 150.461
53.55000 150.872
53.56000 151.286
53.57000 151.826
53.58000 152.438
53.59000 153.026
53.60000 153.423
53.61000 153.728
53.62000 153.560
53.63000 148.665
53.64000 142.552
53.65000 137.388
53.66000 138.023
53.67000 139.642
53.68000 140.963
53.69000 139.481
53.70000 138.029
53.71000 138.528
53.72000 144.336
53.73000 150.444
53.74000 154.515
53.75000 154.797
53.76000 154.995
53.77000 155.105
53.78000 152.215
53.79000 150.210
53.80000 148.140
53.81000 146.017
53.82000 143.938
53.83000 143.867
53.84000 144.896
53.85000 145.885
53.86000 145.464
53.87000 144.574
53.88000 143.832
53.89000 144.526
53.90000 145.585
53.91000 146.383
53.92000 145.609
53.93000 144.572
53.94000 143.729
53.95000 139.892
53.96000 136.508
53.97000 134.475
53.98000 136.060
53.99000 137.843
54.00000 140.237
54.01000 143.749
54.02000 147.286
54.03000 149.240
54.04000 152.459
54.05000 154.669
54.06000 152.736
54.07000 147.484
54.08000 142.352
54.09000 142.562
54.10000 145.651
54.11000 148.618
54.12000 143.104
54.13000 135.018
54.14000 128.120
54.15000 132.618
54.16000 139.965
54.17000 146.230
54.18000 146.099
54.19000 144.918
54.20000 143.961
54.21000 143.212
54.22000 142.619
54.23000 143.342
54.24000 147.544
54.25000 151.931
54.26000 153.169
54.27000 148.719
54.28000 144.153
54.29000 141.648
54.30000 146.931
54.31000 150.561
54.32000 149.046
54.33000 143.475
54.34000 138.044
54.35000 138.591
54.36000 142.313
54.37000 145.883
54.38000 146.644
54.39000 146.401
54.40000 145.808
54.41000 141.922
54.42000 137.224
54.43000 133.446
54.44000 135.008
54.45000 137.432
54.46000 139.390
54.47000 134.926
54.48000 130.783
54.49000 128.972
54.50000 133.236
54.51000 137.814
54.52000 139.488
54.53000 135.993
54.54000 132.397
54.55000 130.439
54.56000 138.151
54.57000 143.441
54.58000 144.801
54.59000 143.110
54.60000 141.443
54.61000 140.723
54.62000 140.499
54.63000 140.284
54.64000 139.399
54.65000 138.348
54.66000 137.424
54.67000 137.665
54.68000 138.190
54.69000 138.729
54.70000 139.349
54.71000 139.981
54.72000 140.491
54.73000 138.169
54.74000 136.063
54.75000 135.175
54.76000 137.412
54.77000 139.806
54.78000 141.241
54.79000 140.991
54.80000 140.710
54.81000 140.559
54.82000 147.176
54.83000 151.692
54.84000 151.395
54.85000 147.420
54.86000 143.549
54.87000 143.736
54.88000 146.017
54.89000 148.199
54.90000 148.285
54.91000 147.677
54.92000 147.004
54.93000 145.746
54.94000 144.347
54.95000 143.758
54.96000 147.712
54.97000 152.374
54.98000 156.116
54.99000 155.511
55.00000 154.688
55.01000 153.453
55.02000 151.173
55.03000 148.842
55.04000 147.144
55.05000 146.540
55.06000 145.955
55.07000 145.642
55.08000 154.194
55.09000 160.008
55.10000 159.504
55.11000 154.244
55.12000 149.128
55.13000 149.412
55.14000 152.439
55.15000 155.333
55.16000 154.006
55.17000 151.407
55.18000 149.031
55.19000 148.621
55.20000 148.673
55.21000 149.050
55.22000 151.220
55.23000 153.664
55.24000 155.619
55.25000 158.610
55.26000 161.105
55.27000 162.828
55.28000 162.626
55.29000 162.333
55.30000 161.950
55.31000 161.416
55.32000 160.880
55.33000 160.595
55.34000 164.271
55.35000 166.770
55.36000 167.847
55.37000 167.873
55.38000 167.817
55.39000 164.849
55.40000 160.422
55.41000 156.197
55.42000 159.724
55.43000 165.466
55.44000 170.976
55.45000 174.471
55.46000 177.498
55.47000 180.112
55.48000 180.475
55.49000 180.500
55.50000 180.520
55.51000 183.983
55.52000 187.029
55.53000 189.843
55.54000 192.091
55.55000 194.312
55.56000 198.309
55.57000 205.283
55.58000 212.305
55.59000 216.013
55.60000 231.887
55.61000 242.641
55.62000 248.179
55.63000 249.912
55.64000 251.782
55.65000 258.384
55.66000 267.322
55.67000 275.842
55.68000 281.386
55.69000 285.594
55.70000 290.666
55.71000 303.090
55.72000 317.190
55.73000 331.541
55.74000 347.231
55.75000 363.118
55.76000 375.742
55.77000 390.317
55.78000 402.194
55.79000 416.598
55.80000 437.124
55.81000 457.922
55.82000 475.120
55.83000 486.365
55.84000 497.522
55.85000 503.367
55.86000 520.455
55.87000 531.996
55.88000 538.140
55.89000 540.407
55.90000 542.900
55.91000 552.922
55.92000 566.607
55.93000 579.632
55.94000 585.409
55.95000 588.523
55.96000 591.169
55.97000 589.899
55.98000 587.750
55.99000 584.916
56.00000 578.480
56.01000 571.520
56.02000 566.009
56.03000 550.781
56.04000 537.868
56.05000 525.978
56.06000 516.532
56.07000 507.192
56.08000 494.827
56.09000 477.537
56.10000 460.178
56.11000 451.155
56.12000 431.834
56.13000 418.833
56.14000 412.887
56.15000 411.933
56.16000 410.726
56.17000 401.408
56.18000 388.199
56.19000 375.645
56.20000 359.754
56.21000 344.056
56.22000 328.668
56.23000 315.822
56.24000 303.538
56.25000 292.767
56.26000 289.823
56.27000 287.997
56.28000 286.555
56.29000 272.432
56.30000 260.244
56.31000 249.791
56.32000 243.425
56.33000 237.229
56.34000 231.627
56.35000 226.977
56.36000 222.340
56.37000 219.949
56.38000 215.446
56.39000 212.412
56.40000 209.397
56.41000 206.395
56.42000 203.315
56.43000 197.822
56.44000 191.188
56.45000 184.892
56.46000 181.609
56.47000 179.479
56.48000 177.909
56.49000 180.839
56.50000 184.749
56.51000 187.035
56.52000 181.057
56.53000 173.922
56.54000 168.312
56.55000 169.871
56.56000 171.593
56.57000 171.195
56.58000 165.879
56.59000 160.364
56.60000 157.803
56.61000 159.912
56.62000 162.080
56.63000 163.188
56.64000 152.602
56.65000 145.566
56.66000 147.298
56.67000 155.048
56.68000 162.477
56.69000 160.388
56.70000 153.865
56.71000 147.683
56.72000 147.438
56.73000 148.953
56.74000 150.359
56.75000 150.893
56.76000 151.240
56.77000 150.911
56.78000 147.200
56.79000 143.022
56.80000 139.750
56.81000 144.660
56.82000 149.110
56.83000 150.443
56.84000 144.644
56.85000 138.565
56.86000 134.578
56.87000 133.846
56.88000 133.153
56.89000 132.801
56.90000 139.311
56.91000 143.622
56.92000 142.590
56.93000 137.946
56.94000 133.415
56.95000 132.121
56.96000 132.314
56.97000 132.496
56.98000 133.130
56.99000 133.843
57.00000 134.516
57.01000 134.881
57.02000 135.182
57.03000 135.096
57.04000 133.104
57.05000 130.855
57.06000 129.099
57.07000 129.758
57.08000 130.435
57.09000 131.101
57.10000 131.742
57.11000 132.383
57.12000 133.033
57.13000 133.698
57.14000 134.363
57.15000 134.698
57.16000 128.676
57.17000 124.703
57.18000 125.684
57.19000 129.963
57.20000 134.081
57.21000 133.729
57.22000 131.353
57.23000 129.108
57.24000 128.929
57.25000 129.350
57.26000 129.795
57.27000 130.417
57.28000 131.076
57.29000 131.346
57.30000 129.729
57.31000 127.862
57.32000 126.410
57.33000 129.803
57.34000 132.800
57.35000 133.861
57.36000 130.621
57.37000 127.224
57.38000 124.812
57.39000 123.887
57.40000 122.978
57.41000 122.779
57.42000 123.288
57.43000 123.805
57.44000 125.051
57.45000 126.776
57.46000 128.494
57.47000 130.050
57.48000 131.534
57.49000 132.934
57.50000 130.900
57.51000 128.076
57.52000 125.992
57.53000 129.426
57.54000 133.987
57.55000 137.092
57.56000 133.249
57.57000 128.503
57.58000 124.824
57.59000 120.907
57.60000 117.782
57.61000 116.115
57.62000 117.644
57.63000 119.286
57.64000 122.931
57.65000 129.557
57.66000 136.210
57.67000 137.177
57.68000 132.581
57.69000 128.029
57.70000 127.277
57.71000 128.979
57.72000 130.582
57.73000 129.614
57.74000 127.516
57.75000 125.539
57.76000 124.396
57.77000 123.579
57.78000 123.230
57.79000 126.302
57.80000 130.062
57.81000 132.912
57.82000 131.485
57.83000 129.512
57.84000 127.988
57.85000 122.333
57.86000 117.608
57.87000 117.024
57.88000 125.376
57.89000 134.032
57.90000 137.222
57.91000 132.399
57.92000 127.505
57.93000 125.798
57.94000 127.154
57.95000 128.485
57.96000 127.751
57.97000 125.703
57.98000 123.750
57.99000 124.163
58.00000 125.600
58.01000 126.953
58.02000 128.402
58.03000 129.752
58.04000 130.914
58.05000 130.730
58.06000 130.279
58.07000 129.652
58.08000 128.208
58.09000 126.661
58.10000 125.471
58.11000 126.386
58.12000 127.229
58.13000 128.410
58.14000 130.313
58.15000 132.239
58.16000 132.148
58.17000 129.147
58.18000 126.123
58.19000 125.087
58.20000 125.932
58.21000 126.778
58.22000 127.720
58.23000 128.722
58.24000 129.741
58.25000 131.163
58.26000 132.757
58.27000 134.254
58.28000 128.811
58.29000 122.001
58.30000 116.261
58.31000 118.077
58.32000 121.363
58.33000 125.140
58.34000 131.150
58.35000 137.435
58.36000 142.251
58.37000 134.891
58.38000 128.406
58.39000 123.421
58.40000 121.582
58.41000 119.842
58.42000 119.516
58.43000 121.198
58.44000 122.895
58.45000 123.893
58.46000 124.240
58.47000 124.564
58.48000 123.181
58.49000 120.744
58.50000 118.397
58.51000 118.158
58.52000 118.807
58.53000 119.416
58.54000 122.223
58.55000 125.354
58.56000 128.408
58.57000 130.924
58.58000 133.337
58.59000 134.656
58.60000 131.075
58.61000 126.903
58.62000 123.718
58.63000 124.216
58.64000 124.806
58.65000 124.652
58.66000 122.960
58.67000 121.221
58.68000 120.269
58.69000 120.419
58.70000 120.577
58.71000 122.311
58.72000 125.483
58.73000 128.602
58.74000 128.034
58.75000 125.224
58.76000 122.425
58.77000 119.904
58.78000 117.498
58.79000 115.245
58.80000 121.351
58.81000 129.054
58.82000 135.476
58.83000 133.178
58.84000 129.238
58.85000 126.002
58.86000 125.870
58.87000 126.105
58.88000 126.284
58.89000 127.614
58.90000 128.721
58.91000 128.992
58.92000 127.561
58.93000 126.080
58.94000 124.146
58.95000 121.586
58.96000 119.023
58.97000 117.376
58.98000 116.555
58.99000 115.761
59.00000 116.813
59.01000 118.971
59.02000 121.118
59.03000 123.014
59.04000 124.807
59.05000 126.483
59.06000 125.193
59.07000 123.271
59.08000 121.854
59.09000 123.816
59.10000 126.404
59.11000 128.912
59.12000 131.073
59.13000 133.194
59.14000 134.800
59.15000 131.338
59.16000 128.363
59.17000 126.080
59.18000 125.187
59.19000 124.333
59.20000 125.143
59.21000 128.213
59.22000 131.294
59.23000 130.394
59.24000 125.974
59.25000 121.615
59.26000 120.933
59.27000 122.422
59.28000 123.784
59.29000 122.421
59.30000 119.959
59.31000 117.662
59.32000 114.097
59.33000 110.552
59.34000 107.972
59.35000 111.733
59.36000 116.650
59.37000 120.582
59.38000 120.302
59.39000 119.542
59.40000 118.969
59.41000 116.767
59.42000 114.961
59.43000 115.001
59.44000 118.692
59.45000 122.482
59.46000 124.019
59.47000 122.545
59.48000 121.056
59.49000 119.866
59.50000 118.938
59.51000 118.038
59.52000 118.749
59.53000 120.398
59.54000 121.953
59.55000 121.561
59.56000 120.394
59.57000 119.308
59.58000 123.083
59.59000 127.687
59.60000 131.185
59.61000 127.535
59.62000 122.604
59.63000 118.456
59.64000 117.605
59.65000 117.122
59.66000 116.758
59.67000 118.022
59.68000 119.089
59.69000 120.432
59.70000 122.314
59.71000 124.210
59.72000 125.444
59.73000 125.807
59.74000 126.166
59.75000 125.804
59.76000 124.824
59.77000 123.814
59.78000 121.176
59.79000 117.605
59.80000 114.158
59.81000 113.212
59.82000 113.246
59.83000 113.278
59.84000 113.680
59.85000 114.133
59.86000 114.578
59.87000 114.973
59.88000 115.359
59.89000 115.690
59.90000 115.796
59.91000 115.877
59.92000 115.938
59.93000 117.484
59.94000 118.760
59.95000 118.409
59.96000 114.932
59.97000 111.376
59.98000 111.347
59.99000 115.886
60.00000 120.439
60.01000 120.925
60.02000 117.989
60.03000 115.127
60.04000 116.102
60.05000 119.245
60.06000 122.166
60.07000 120.757
60.08000 117.677
60.09000 114.817
60.10000 120.434
60.11000 127.504
60.12000 132.621
60.13000 125.553
60.14000 116.374
60.15000 109.719
60.16000 113.380
60.17000 118.147
60.18000 121.701
60.19000 118.206
60.20000 115.165
60.21000 113.135
60.22000 113.020
60.23000 112.951
60.24000 114.135
60.25000 116.918
60.26000 119.704
60.27000 120.157
60.28000 118.678
60.29000 117.248
60.30000 118.241
60.31000 120.585
60.32000 122.707
60.33000 120.628
60.34000 116.952
60.35000 113.544
60.36000 113.487
60.37000 114.215
60.38000 115.530
60.39000 120.448
60.40000 125.979
60.41000 130.469
60.42000 130.770
60.43000 130.631
60.44000 130.527
60.45000 127.549
60.46000 125.108
60.47000 123.373
60.48000 122.955
60.49000 122.567
60.50000 121.631
60.51000 120.007
60.52000 118.383
60.53000 118.419
60.54000 119.805
60.55000 121.176
60.56000 121.805
60.57000 122.027
60.58000 122.386
60.59000 125.273
60.60000 129.108
60.61000 132.656
60.62000 128.190
60.63000 122.343
60.64000 117.479
60.65000 118.540
60.66000 120.593
60.67000 122.216
60.68000 122.133
60.69000 121.875
60.70000 121.685
60.71000 115.759
60.72000 110.918
60.73000 109.333
60.74000 113.738
60.75000 118.272
60.76000 120.433
60.77000 119.662
60.78000 118.884
60.79000 120.269
60.80000 123.380
60.81000 126.399
60.82000 125.257
60.83000 121.866
60.84000 118.651
60.85000 118.592
60.86000 119.700
60.87000 120.724
60.88000 122.296
60.89000 123.829
60.90000 124.849
60.91000 122.830
60.92000 120.310
60.93000 117.828
60.94000 115.495
60.95000 113.178
60.96000 111.471
60.97000 117.937
60.98000 123.282
60.99000 126.688
61.00000 126.582
61.01000 126.403
61.02000 126.496
61.03000 126.922
61.04000 127.348
61.05000 128.447
61.06000 130.072
61.07000 131.630
61.08000 130.254
61.09000 127.315
61.10000 124.597
61.11000 125.712
61.12000 128.225
61.13000 130.540
61.14000 130.436
61.15000 129.807
61.16000 129.323
61.17000 129.685
61.18000 130.185
61.19000 130.030
61.20000 127.362
61.21000 124.446
61.22000 122.308
61.23000 120.109
61.24000 118.409
61.25000 118.168
61.26000 120.535
61.27000 122.952
61.28000 125.000
61.29000 126.604
61.30000 128.204
61.31000 127.202
61.32000 124.189
61.33000 121.256
61.34000 121.641
61.35000 123.767
61.36000 125.976
61.37000 129.596
61.38000 133.723
61.39000 137.520
61.40000 133.728
61.41000 128.688
61.42000 124.408
61.43000 124.483
61.44000 125.252
61.45000 128.132
61.46000 139.008
61.47000 150.657
61.48000 159.163
61.49000 172.127
61.50000 182.295
61.51000 192.665
61.52000 203.390
61.53000 214.122
61.54000 231.241
61.55000 255.886
61.56000 280.484
61.57000 301.128
61.58000 318.633
61.59000 336.051
61.60000 349.990
61.61000 362.129
61.62000 374.121
61.63000 383.695
61.64000 392.413
61.65000 400.418
61.66000 401.267
61.67000 400.494
61.68000 400.023
61.69000 401.255
61.70000 402.752
61.71000 404.522
61.72000 407.306
61.73000 410.186
61.74000 412.279
61.75000 394.492
61.76000 380.055
61.77000 364.627
61.78000 347.480
61.79000 330.302
61.80000 305.391
61.81000 271.514
61.82000 237.718
61.83000 215.715
61.84000 202.706
61.85000 189.751
61.86000 178.847
61.87000 168.987
61.88000 159.402
61.89000 154.226
61.90000 150.589
61.91000 147.254
61.92000 146.838
61.93000 147.081
61.94000 146.931
61.95000 144.602
61.96000 141.938
61.97000 138.947
61.98000 134.757
61.99000 130.456
62.00000 127.342
62.01000 130.624
62.02000 133.378
62.03000 134.994
62.04000 134.664
62.05000 134.301
62.06000 135.095
62.07000 137.209
62.08000 139.319
62.09000 138.053
62.10000 134.307
62.11000 130.667
62.12000 130.913
62.13000 133.112
62.14000 135.136
62.15000 134.421
62.16000 132.764
62.17000 131.249
62.18000 134.503
62.19000 138.382
62.20000 141.585
62.21000 141.106
62.22000 140.071
62.23000 138.727
62.24000 136.268
62.25000 133.709
62.26000 131.864
62.27000 129.181
62.28000 127.097
62.29000 126.859
62.30000 129.730
62.31000 132.651
62.32000 131.618
62.33000 126.148
62.34000 120.693
62.35000 121.910
62.36000 127.960
62.37000 133.933
62.38000 137.201
62.39000 139.129
62.40000 140.764
62.41000 137.924
62.42000 133.569
62.43000 129.591
62.44000 131.895
62.45000 135.215
62.46000 138.184
62.47000 139.265
62.48000 140.066
62.49000 140.278
62.50000 138.387
62.51000 136.309
62.52000 134.818
62.53000 144.462
62.54000 152.217
62.55000 155.532
62.56000 151.479
62.57000 147.315
62.58000 144.413
62.59000 142.903
62.60000 141.399
62.61000 138.054
62.62000 133.423
62.63000 128.964
62.64000 130.312
62.65000 134.494
62.66000 138.440
62.67000 138.872
62.68000 138.130
62.69000 137.454
62.70000 140.323
62.71000 143.573
62.72000 146.204
62.73000 145.568
62.74000 144.457
62.75000 144.106
62.76000 146.428
62.77000 148.980
62.78000 150.804
62.79000 147.025
62.80000 143.956
62.81000 140.099
62.82000 134.956
62.83000 129.794
62.84000 128.366
62.85000 130.990
62.86000 133.606
62.87000 135.574
62.88000 137.068
62.89000 138.525
62.90000 138.770
62.91000 138.433
62.92000 137.960
62.93000 135.532
62.94000 132.460
62.95000 129.666
62.96000 132.021
62.97000 135.113
62.98000 137.618
62.99000 137.068
63.00000 136.082
63.01000 135.500
63.02000 136.321
63.03000 137.261
63.04000 137.930
63.05000 139.683
63.06000 141.053
63.07000 141.672
63.08000 141.082
63.09000 140.476
63.10000 139.827
63.11000 139.133
63.12000 138.443
63.13000 137.547
63.14000 136.518
63.15000 135.445
63.16000 133.009
63.17000 129.926
63.18000 127.217
63.19000 129.800
63.20000 134.098
63.21000 138.000
63.22000 136.842
63.23000 134.844
63.24000 133.625
63.25000 136.379
63.26000 139.692
63.27000 142.327
63.28000 142.651
63.29000 142.784
63.30000 142.878
63.31000 142.691
63.32000 142.540
63.33000 143.152
63.34000 144.974
63.35000 146.811
63.36000 145.959
63.37000 142.283
63.38000 138.623
63.39000 137.134
63.40000 137.138
63.41000 137.188
63.42000 138.596
63.43000 140.639
63.44000 142.516
63.45000 142.105
63.46000 140.964
63.47000 139.930
63.48000 140.658
63.49000 141.633
63.50000 142.342
63.51000 141.710
63.52000 140.893
63.53000 140.944
63.54000 143.908
63.55000 147.109
63.56000 149.364
63.57000 146.112
63.58000 143.481
63.59000 141.551
63.60000 140.716
63.61000 139.895
63.62000 142.214
63.63000 147.778
63.64000 153.313
63.65000 155.890
63.66000 156.456
63.67000 156.968
63.68000 155.942
63.69000 154.208
63.70000 152.827
63.71000 156.230
63.72000 161.138
63.73000 165.575
63.74000 157.309
63.75000 147.673
63.76000 140.013
63.77000 142.127
63.78000 145.567
63.79000 148.031
63.80000 147.263
63.81000 146.240
63.82000 145.522
63.83000 147.477
63.84000 149.033
63.85000 149.844
63.86000 149.507
63.87000 149.158
63.88000 150.096
63.89000 152.341
63.90000 154.573
63.91000 157.289
63.92000 160.287
63.93000 163.086
63.94000 160.336
63.95000 155.065
63.96000 150.174
63.97000 150.284
63.98000 151.945
63.99000 153.444
64.00000 153.565
64.01000 153.419
64.02000 153.570
64.03000 155.165
64.04000 156.952
64.05000 157.963
64.06000 156.441
64.07000 154.724
64.08000 153.525
64.09000 154.868
64.10000 155.952
64.11000 154.748
64.12000 150.075
64.13000 145.367
64.14000 143.692
64.15000 145.046
64.16000 146.392
64.17000 148.757
64.18000 151.749
64.19000 154.727
64.20000 157.360
64.21000 159.837
64.22000 162.338
64.23000 165.142
64.24000 168.037
64.25000 170.644
64.26000 168.050
64.27000 164.841
64.28000 161.825
64.29000 159.728
64.30000 157.752
64.31000 156.796
64.32000 159.123
64.33000 161.698
64.34000 163.487
64.35000 159.505
64.36000 156.350
64.37000 157.728
64.38000 165.873
64.39000 174.083
64.40000 175.816
64.41000 171.191
64.42000 166.598
64.43000 166.074
64.44000 168.154
64.45000 170.077
64.46000 167.919
64.47000 163.959
64.48000 160.689
64.49000 166.071
64.50000 174.061
64.51000 181.238
64.52000 179.379
64.53000 176.157
64.54000 174.144
64.55000 177.833
64.56000 182.253
64.57000 185.012
64.58000 182.510
64.59000 179.621
64.60000 177.624
64.61000 178.931
64.62000 179.999
64.63000 182.499
64.64000 187.104
64.65000 191.728
64.66000 192.320
64.67000 189.021
64.68000 185.745
64.69000 184.299
64.70000 184.024
64.71000 183.722
64.72000 182.717
64.73000 181.407
64.74000 180.406
64.75000 183.211
64.76000 187.147
64.77000 190.674
64.78000 192.861
64.79000 194.540
64.80000 196.258
64.81000 198.161
64.82000 200.088
64.83000 201.253
64.84000 200.044
64.85000 198.665
64.86000 197.716
64.87000 198.029
64.88000 198.296
64.89000 197.887
64.90000 196.500
64.91000 195.106
64.92000 196.882
64.93000 201.668
64.94000 206.417
64.95000 204.929
64.96000 199.612
64.97000 194.503
64.98000 194.449
64.99000 196.562
65.00000 198.722
65.01000 201.460
65.02000 204.366
65.03000 206.965
65.04000 213.082
65.05000 219.015
65.06000 224.365
65.07000 227.048
65.08000 229.403
65.09000 231.951
65.10000 235.097
65.11000 238.284
65.12000 240.466
65.13000 244.688
65.14000 247.897
65.15000 251.585
65.16000 255.954
65.17000 260.327
65.18000 262.496
65.19000 262.607
65.20000 262.718
65.21000 262.624
65.22000 262.407
65.23000 262.317
65.24000 265.214
65.25000 269.372
65.26000 273.640
65.27000 279.193
65.28000 285.118
65.29000 290.405
65.30000 302.221
65.31000 313.597
65.32000 324.595
65.33000 333.896
65.34000 342.991
65.35000 349.529
65.36000 348.313
65.37000 346.566
65.38000 345.376
65.39000 355.925
65.40000 364.076
65.41000 373.601
65.42000 385.057
65.43000 396.524
65.44000 403.823
65.45000 407.297
65.46000 410.740
65.47000 426.306
65.48000 448.827
65.49000 470.581
65.50000 474.811
65.51000 471.745
65.52000 469.714
65.53000 479.574
65.54000 492.810
65.55000 504.596
65.56000 517.793
65.57000 529.492
65.58000 541.347
65.59000 553.899
65.60000 566.534
65.61000 586.679
65.62000 629.258
65.63000 673.336
65.64000 703.212
65.65000 784.519
65.66000 846.273
65.67000 925.575
65.68000 1029.155
65.69000 1132.907
65.70000 1263.094
65.71000 1417.158
65.72000 1569.765
65.73000 1757.489
65.74000 1962.067
65.75000 2165.051
65.76000 2332.755
65.77000 2485.980
65.78000 2636.037
65.79000 2750.501
65.80000 2855.008
65.81000 2947.861
65.82000 3025.755
65.83000 3090.903
65.84000 3141.311
65.85000 3127.465
65.86000 3106.129
65.87000 3089.411
65.88000 3086.286
65.89000 3084.047
65.90000 3082.537
65.91000 3000.708
65.92000 2938.132
65.93000 2825.004
65.94000 2643.006
65.95000 2460.597
65.96000 2261.132
65.97000 2046.511
65.98000 1834.047
65.99000 1641.717
66.00000 1465.191
66.01000 1290.647
66.02000 1158.681
66.03000 1043.936
66.04000 931.439
66.05000 843.645
66.06000 762.657
66.07000 690.864
66.08000 638.592
66.09000 596.426
66.10000 559.034
66.11000 542.133
66.12000 527.574
66.13000 515.986
66.14000 513.020
66.15000 510.602
66.16000 508.979
66.17000 494.524
66.18000 483.533
66.19000 479.065
66.20000 483.345
66.21000 487.682
66.22000 502.084
66.23000 525.284
66.24000 548.237
66.25000 572.524
66.26000 597.023
66.27000 621.622
66.28000 648.301
66.29000 675.810
66.30000 704.059
66.31000 740.275
66.32000 778.652
66.33000 812.594
66.34000 832.109
66.35000 846.732
66.36000 861.857
66.37000 879.109
66.38000 896.599
66.39000 910.947
66.40000 916.310
66.41000 921.117
66.42000 924.325
66.43000 915.142
66.44000 908.099
66.45000 899.159
66.46000 887.715
66.47000 876.250
66.48000 857.861
66.49000 833.517
66.50000 809.447
66.51000 776.355
66.52000 738.981
66.53000 701.854
66.54000 669.718
66.55000 639.543
66.56000 609.184
66.57000 576.882
66.58000 544.060
66.59000 515.099
66.60000 500.239
66.61000 489.572
66.62000 480.228
66.63000 476.392
66.64000 473.161
66.65000 469.158
66.66000 462.981
66.67000 456.673
66.68000 452.484
66.69000 436.938
66.70000 425.235
66.71000 426.791
66.72000 445.584
66.73000 464.434
66.74000 475.029
66.75000 478.636
66.76000 482.199
66.77000 475.742
66.78000 463.906
66.79000 452.345
66.80000 446.182
66.81000 442.109
66.82000 438.509
66.83000 439.781
66.84000 442.337
66.85000 444.586
66.86000 450.597
66.87000 456.337
66.88000 460.582
66.89000 458.701
66.90000 456.162
66.91000 455.416
66.92000 459.653
66.93000 464.182
66.94000 467.173
66.95000 457.304
66.96000 449.797
66.97000 448.384
66.98000 454.773
66.99000 461.181
67.00000 462.962
67.01000 460.889
67.02000 458.841
67.03000 459.307
67.04000 461.126
67.05000 463.027
67.06000 466.477
67.07000 470.520
67.08000 474.147
67.09000 473.580
67.10000 471.926
67.11000 470.473
67.12000 479.204
67.13000 488.205
67.14000 496.205
67.15000 500.166
67.16000 503.700
67.17000 505.884
67.18000 504.372
67.19000 502.649
67.20000 501.517
67.21000 493.784
67.22000 487.981
67.23000 484.977
67.24000 485.498
67.25000 486.033
67.26000 487.473
67.27000 489.654
67.28000 491.807
67.29000 487.950
67.30000 480.981
67.31000 474.775
67.32000 482.728
67.33000 496.008
67.34000 507.652
67.35000 503.127
67.36000 494.470
67.37000 486.886
67.38000 498.119
67.39000 510.471
67.40000 520.933
67.41000 523.884
67.42000 526.059
67.43000 528.903
67.44000 533.551
67.45000 538.299
67.46000 541.401
67.47000 531.978
67.48000 524.856
67.49000 526.400
67.50000 538.690
67.51000 550.974
67.52000 550.462
67.53000 539.627
67.54000 528.943
67.55000 531.530
67.56000 541.035
67.57000 550.038
67.58000 549.985
67.59000 546.574
67.60000 543.627
67.61000 545.174
67.62000 547.854
67.63000 550.195
67.64000 553.266
67.65000 555.999
67.66000 557.264
67.67000 552.781
67.68000 547.716
67.69000 544.270
67.70000 545.128
67.71000 546.219
67.72000 546.927
67.73000 558.512
67.74000 567.167
67.75000 569.121
67.76000 562.894
67.77000 556.678
67.78000 559.812
67.79000 570.372
67.80000 580.776
67.81000 589.651
67.82000 597.470
67.83000 604.806
67.84000 603.656
67.85000 599.404
67.86000 595.349
67.87000 593.160
67.88000 591.433
67.89000 589.928
67.90000 592.915
67.91000 596.093
67.92000 600.780
67.93000 611.288
67.94000 622.374
67.95000 629.983
67.96000 628.483
67.97000 626.504
67.98000 625.225
67.99000 622.128
68.00000 619.837
68.01000 621.498
68.02000 627.906
68.03000 634.323
68.04000 640.449
68.05000 646.349
68.06000 652.158
68.07000 648.546
68.08000 640.236
68.09000 632.992
68.10000 643.942
68.11000 661.446
68.12000 677.754
68.13000 682.948
68.14000 685.428
68.15000 687.584
68.16000 685.637
68.17000 683.416
68.18000 681.120
68.19000 678.537
68.20000 675.927
68.21000 677.318
68.22000 689.046
68.23000 701.302
68.24000 709.179
68.25000 723.848
68.26000 734.643
68.27000 740.501
68.28000 740.522
68.29000 740.540
68.30000 741.986
68.31000 744.531
68.32000 747.035
68.33000 751.911
68.34000 757.821
68.35000 763.631
68.36000 767.763
68.37000 771.299
68.38000 775.455
68.39000 785.249
68.40000 796.400
68.41000 806.073
68.42000 816.557
68.43000 825.596
68.44000 834.800
68.45000 844.627
68.46000 854.513
68.47000 864.471
68.48000 874.612
68.49000 884.762
68.50000 891.249
68.51000 919.287
68.52000 939.978
68.53000 963.325
68.54000 989.762
68.55000 1016.189
68.56000 1039.591
68.57000 1060.701
68.58000 1081.452
68.59000 1113.516
68.60000 1150.107
68.61000 1188.332
68.62000 1252.976
68.63000 1326.864
68.64000 1399.524
68.65000 1461.220
68.66000 1520.321
68.67000 1571.460
68.68000 1646.812
68.69000 1714.047
68.70000 1782.757
68.71000 1856.900
68.72000 1931.550
68.73000 2005.295
68.74000 2076.770
68.75000 2148.137
68.76000 2193.489
68.77000 2307.684
68.78000 2391.469
68.79000 2483.420
68.80000 2584.717
68.81000 2686.162
68.82000 2814.260
68.83000 2962.237
68.84000 3107.583
68.85000 3314.183
68.86000 3543.473
68.87000 3784.599
68.88000 4212.278
68.89000 4704.294
68.90000 5260.524
68.91000 6378.987
68.92000 7628.514
68.93000 8706.930
68.94000 11901.975
68.95000 14885.444
68.96000 18288.432
68.97000 23214.525
68.98000 28279.322
68.99000 33578.375
69.00000 39456.895
69.01000 45362.426
69.02000 49093.789
69.03000 55258.633
69.04000 59754.195
69.05000 63339.105
69.06000 65898.531
69.07000 68452.625
69.08000 70232.828
69.09000 71444.672
69.10000 72633.977
69.11000 73690.672
69.12000 74646.055
69.13000 75610.305
69.14000 76710.680
69.15000 77857.313
69.16000 78898.922
69.17000 79038.750
69.18000 78971.594
69.19000 78913.789
69.20000 75710.469
69.21000 72600.461
69.22000 69157.734
69.23000 64524.984
69.24000 59786.203
69.25000 55336.793
69.26000 51592.895
69.27000 47880.895
69.28000 45549.082
69.29000 42461.492
69.30000 40220.926
69.31000 38583.305
69.32000 37613.617
69.33000 36645.602
69.34000 35873.359
69.35000 35242.699
69.36000 34624.289
69.37000 33400.098
69.38000 31935.572
69.39000 30402.842
69.40000 27848.771
69.41000 24952.590
69.42000 22050.623
69.43000 19099.928
69.44000 16138.223
69.45000 13595.396
69.46000 11120.535
69.47000 9036.596
69.48000 7143.446
69.49000 5922.592
69.50000 4760.329
69.51000 3788.864
69.52000 3275.921
69.53000 2783.065
69.54000 2475.276
69.55000 2185.323
69.56000 1976.362
69.57000 1811.688
69.58000 1695.276
69.59000 1579.040
69.60000 1485.079
69.61000 1406.982
69.62000 1330.468
69.63000 1278.020
69.64000 1238.750
69.65000 1198.870
69.66000 1150.067
69.67000 1098.319
69.68000 1048.744
69.69000 1017.127
69.70000 989.505
69.71000 965.853
69.72000 931.546
69.73000 901.303
69.74000 874.928
69.75000 861.982
69.76000 850.179
69.77000 837.817
69.78000 824.129
69.79000 810.385
69.80000 801.853
69.81000 770.850
69.82000 748.318
69.83000 732.548
69.84000 724.025
69.85000 715.501
69.86000 706.492
69.87000 697.144
69.88000 687.993
69.89000 678.696
69.90000 669.701
69.91000 660.439
69.92000 647.387
69.93000 633.101
69.94000 619.490
69.95000 611.342
69.96000 604.391
69.97000 598.455
69.98000 608.230
69.99000 618.332
70.00000 622.297
