20.00000 469.441
20.01000 481.969
20.02000 496.288
20.03000 507.164
20.04000 504.463
20.05000 500.373
20.06000 497.353
20.07000 496.711
20.08000 496.315
20.09000 496.631
20.10000 498.250
20.11000 499.898
20.12000 495.496
20.13000 483.654
20.14000 471.812
20.15000 474.842
20.16000 489.709
20.17000 504.231
20.18000 503.377
20.19000 494.246
20.20000 485.856
20.21000 490.608
20.22000 500.198
20.23000 509.048
20.24000 498.171
20.25000 484.005
20.26000 472.582
20.27000 477.340
20.28000 484.749
20.29000 490.800
20.30000 491.575
20.31000 491.821
20.32000 492.002
20.33000 494.099
20.34000 495.801
20.35000 496.927
20.36000 497.016
20.37000 497.083
20.38000 493.811
20.39000 486.496
20.40000 479.186
20.41000 479.429
20.42000 485.592
20.43000 491.643
20.44000 492.996
20.45000 491.856
20.46000 490.657
20.47000 488.443
20.48000 485.861
20.49000 483.483
20.50000 479.669
20.51000 475.941
20.52000 473.881
20.53000 481.498
20.54000 490.674
20.55000 496.677
20.56000 490.539
20.57000 483.210
20.58000 477.842
20.59000 480.390
20.60000 482.672
20.61000 483.634
20.62000 482.245
20.63000 480.811
20.64000 481.270
20.65000 483.985
20.66000 486.698
20.67000 489.715
20.68000 492.950
20.69000 496.137
20.70000 497.363
20.71000 497.565
20.72000 497.401
20.73000 491.090
20.74000 482.581
20.75000 474.757
20.76000 478.113
20.77000 483.531
20.78000 487.533
20.79000 483.461
20.80000 478.111
20.81000 473.223
20.82000 470.078
20.83000 467.101
20.84000 464.930
20.85000 461.711
20.86000 459.191
20.87000 460.798
20.88000 469.636
20.89000 478.608
20.90000 485.851
20.91000 491.069
20.92000 496.270
20.93000 492.032
20.94000 480.660
20.95000 469.500
20.96000 466.611
20.97000 467.983
20.98000 469.472
20.99000 472.892
21.00000 476.993
21.01000 480.757
21.02000 489.028
21.03000 497.363
21.04000 503.363
21.05000 496.266
21.06000 487.131
21.07000 479.589
21.08000 477.956
21.09000 476.878
21.10000 476.096
21.11000 467.422
21.12000 460.458
21.13000 459.688
21.14000 469.612
21.15000 479.723
21.16000 488.420
21.17000 495.486
21.18000 502.530
21.19000 508.599
21.20000 513.898
21.21000 519.068
21.22000 519.375
21.23000 517.213
21.24000 514.675
21.25000 506.131
21.26000 495.501
21.27000 485.763
21.28000 488.272
21.29000 493.067
21.30000 495.269
21.31000 483.169
21.32000 468.883
21.33000 457.287
21.34000 455.526
21.35000 454.671
21.36000 454.053
21.37000 472.530
21.38000 487.399
21.39000 494.055
21.40000 486.741
21.41000 479.195
21.42000 474.593
21.43000 473.333
21.44000 472.081
21.45000 473.615
21.46000 477.183
21.47000 480.754
21.48000 484.459
21.49000 488.230
21.50000 491.735
21.51000 491.086
21.52000 489.016
21.53000 487.123
21.54000 480.650
21.55000 473.957
21.56000 468.434
21.57000 469.255
21.58000 471.029
21.59000 473.182
21.60000 476.699
21.61000 480.338
21.62000 482.958
21.63000 481.458
21.64000 480.164
21.65000 482.002
21.66000 489.089
21.67000 496.258
21.68000 492.706
21.69000 477.181
21.70000 461.701
21.71000 465.692
21.72000 483.715
21.73000 501.326
21.74000 504.734
21.75000 501.138
21.76000 497.895
21.77000 499.999
21.78000 503.907
21.79000 507.473
21.80000 512.162
21.81000 516.549
21.82000 521.408
21.83000 528.791
21.84000 536.546
21.85000 543.381
21.86000 546.952
21.87000 550.236
21.88000 552.589
21.89000 554.735
21.90000 556.368
21.91000 560.130
21.92000 567.410
21.93000 574.741
21.94000 579.238
21.95000 580.620
21.96000 581.995
21.97000 585.969
21.98000 591.752
21.99000 597.358
22.00000 597.093
22.01000 593.974
22.02000 591.896
22.03000 605.207
22.04000 623.635
22.05000 640.419
22.06000 633.782
22.07000 623.256
22.08000 615.662
22.09000 623.465
22.10000 633.500
22.11000 641.791
22.12000 643.981
22.13000 645.645
22.14000 646.832
22.15000 640.263
22.16000 635.000
22.17000 633.628
22.18000 638.588
22.19000 643.636
22.20000 640.163
22.21000 627.484
22.22000 614.854
22.23000 602.012
22.24000 589.151
22.25000 576.641
22.26000 575.340
22.27000 579.408
22.28000 582.899
22.29000 578.070
22.30000 570.514
22.31000 563.646
22.32000 554.581
22.33000 546.138
22.34000 538.754
22.35000 536.838
22.36000 535.700
22.37000 533.685
22.38000 528.648
22.39000 523.356
22.40000 519.599
22.41000 520.040
22.42000 520.509
22.43000 516.827
22.44000 506.491
22.45000 496.068
22.46000 490.911
22.47000 491.350
22.48000 491.789
22.49000 487.479
22.50000 479.948
22.51000 472.543
22.52000 469.011
22.53000 467.306
22.54000 465.859
22.55000 468.021
22.56000 471.350
22.57000 474.369
22.58000 475.025
22.59000 475.151
22.60000 474.630
22.61000 470.823
22.62000 466.556
22.63000 464.970
22.64000 472.481
22.65000 480.742
22.66000 486.581
22.67000 492.282
22.68000 496.608
22.69000 491.545
22.70000 471.656
22.71000 451.584
22.72000 444.495
22.73000 450.972
22.74000 457.418
22.75000 462.656
22.76000 467.015
22.77000 471.171
22.78000 469.275
22.79000 464.564
22.80000 460.383
22.81000 463.464
22.82000 468.857
22.83000 473.738
22.84000 471.255
22.85000 467.681
22.86000 463.875
22.87000 458.913
22.88000 453.792
22.89000 447.049
22.90000 434.880
22.91000 422.275
22.92000 413.407
22.93000 427.919
22.94000 439.609
22.95000 444.680
22.96000 439.453
22.97000 434.107
22.98000 432.860
22.99000 435.827
23.00000 438.777
23.01000 438.797
23.02000 436.865
23.03000 435.220
23.04000 441.835
23.05000 452.237
23.06000 461.667
23.07000 458.059
23.08000 450.364
23.09000 443.412
23.10000 438.925
23.11000 435.436
23.12000 432.372
23.13000 431.400
23.14000 430.710
23.15000 431.554
23.16000 437.453
23.17000 443.749
23.18000 448.158
23.19000 442.198
23.20000 437.394
23.21000 434.888
23.22000 435.902
23.23000 436.954
23.24000 442.144
23.25000 451.515
23.26000 460.830
23.27000 461.422
23.28000 456.284
23.29000 451.085
23.30000 444.163
23.31000 436.463
23.32000 429.492
23.33000 432.072
23.34000 437.603
23.35000 442.589
23.36000 441.217
23.37000 438.856
23.38000 436.521
23.39000 434.314
23.40000 432.124
23.41000 430.784
23.42000 432.204
23.43000 433.835
23.44000 434.973
23.45000 426.326
23.46000 419.532
23.47000 417.364
23.48000 422.179
23.49000 427.064
23.50000 434.616
23.51000 444.815
23.52000 454.949
23.53000 454.826
23.54000 448.088
23.55000 441.496
23.56000 438.827
23.57000 437.906
23.58000 436.547
23.59000 429.587
23.60000 420.923
23.61000 413.129
23.62000 415.988
23.63000 420.398
23.64000 423.062
23.65000 417.410
23.66000 410.677
23.67000 407.995
23.68000 418.275
23.69000 429.526
23.70000 437.331
23.71000 435.971
23.72000 434.704
23.73000 432.600
23.74000 429.254
23.75000 425.895
23.76000 428.874
23.77000 438.043
23.78000 447.148
23.79000 446.510
23.80000 439.696
23.81000 432.968
23.82000 428.482
23.83000 424.980
23.84000 421.992
23.85000 425.429
23.86000 430.792
23.87000 435.607
23.88000 432.740
23.89000 428.883
23.90000 425.704
23.91000 425.698
23.92000 426.098
23.93000 427.870
23.94000 433.970
23.95000 440.387
23.96000 444.817
23.97000 428.587
23.98000 415.864
23.99000 411.298
24.00000 418.676
24.01000 426.158
24.02000 427.900
24.03000 424.129
24.04000 420.387
24.05000 417.849
24.06000 416.106
24.07000 414.439
24.08000 414.663
24.09000 415.704
24.10000 417.028
24.11000 421.798
24.12000 427.585
24.13000 432.770
24.14000 433.961
24.15000 434.313
24.16000 434.690
24.17000 435.181
24.18000 435.687
24.19000 433.680
24.20000 423.866
24.21000 413.494
24.22000 406.369
24.23000 407.248
24.24000 408.104
24.25000 413.394
24.26000 425.077
24.27000 436.811
24.28000 442.952
24.29000 443.811
24.30000 444.663
24.31000 439.237
24.32000 430.046
24.33000 421.205
24.34000 420.786
24.35000 423.961
24.36000 426.464
24.37000 420.956
24.38000 413.115
24.39000 406.107
24.40000 414.081
24.41000 423.566
24.42000 431.791
24.43000 434.284
24.44000 436.073
24.45000 436.129
24.46000 430.880
24.47000 425.260
24.48000 421.419
24.49000 420.879
24.50000 420.553
24.51000 420.433
24.52000 420.606
24.53000 420.780
24.54000 420.669
24.55000 420.291
24.56000 419.918
24.57000 414.531
24.58000 406.210
24.59000 398.274
24.60000 399.333
24.61000 404.174
24.62000 408.346
24.63000 404.719
24.64000 398.855
24.65000 393.625
24.66000 397.317
24.67000 402.013
24.68000 405.878
24.69000 406.026
24.70000 405.727
24.71000 407.299
24.72000 414.519
24.73000 422.124
24.74000 427.296
24.75000 428.430
24.76000 429.186
24.77000 425.089
24.78000 414.206
24.79000 403.282
24.80000 402.402
24.81000 410.698
24.82000 418.920
24.83000 418.782
24.84000 413.668
24.85000 408.852
24.86000 410.790
24.87000 415.527
24.88000 420.237
24.89000 424.626
24.90000 428.923
24.91000 432.748
24.92000 421.103
24.93000 408.465
24.94000 399.846
24.95000 408.934
24.96000 420.116
24.97000 426.173
24.98000 416.994
24.99000 406.803
25.00000 399.907
25.01000 407.003
25.02000 412.594
25.03000 415.238
25.04000 413.824
25.05000 412.384
25.06000 411.296
25.07000 410.523
25.08000 409.758
25.09000 406.754
25.10000 402.500
25.11000 398.555
25.12000 401.408
25.13000 407.039
25.14000 411.769
25.15000 406.451
25.16000 398.335
25.17000 391.130
25.18000 394.364
25.19000 398.842
25.20000 404.127
25.21000 412.910
25.22000 422.099
25.23000 428.357
25.24000 426.027
25.25000 423.141
25.26000 421.198
25.27000 427.282
25.28000 431.973
25.29000 432.067
25.30000 425.928
25.31000 419.756
25.32000 416.130
25.33000 414.755
25.34000 413.394
25.35000 411.975
25.36000 410.554
25.37000 409.050
25.38000 405.779
25.39000 401.797
25.40000 398.176
25.41000 398.510
25.42000 399.929
25.43000 401.186
25.44000 403.970
25.45000 406.619
25.46000 409.431
25.47000 412.935
25.48000 416.518
25.49000 416.955
25.50000 408.303
25.51000 399.079
25.52000 392.900
25.53000 396.441
25.54000 399.262
25.55000 400.701
25.56000 400.297
25.57000 399.886
25.58000 401.078
25.59000 403.666
25.60000 406.226
25.61000 406.715
25.62000 406.017
25.63000 405.615
25.64000 411.303
25.65000 419.410
25.66000 426.123
25.67000 417.950
25.68000 405.753
25.69000 394.973
25.70000 397.534
25.71000 401.807
25.72000 404.930
25.73000 403.212
25.74000 400.954
25.75000 399.545
25.76000 400.552
25.77000 401.708
25.78000 402.478
25.79000 400.743
25.80000 399.412
25.81000 398.682
25.82000 398.744
25.83000 398.808
25.84000 397.731
25.85000 395.676
25.86000 393.646
25.87000 396.819
25.88000 402.825
25.89000 408.380
25.90000 404.902
25.91000 397.890
25.92000 391.626
25.93000 393.183
25.94000 396.823
25.95000 400.033
25.96000 401.170
25.97000 401.837
25.98000 402.456
25.99000 402.877
26.00000 403.277
26.01000 403.371
26.02000 402.606
26.03000 401.790
26.04000 401.249
26.05000 399.173
26.06000 397.612
26.07000 397.115
26.08000 397.996
26.09000 398.882
26.10000 399.360
26.11000 399.495
26.12000 399.628
26.13000 403.196
26.14000 408.564
26.15000 413.287
26.16000 405.481
26.17000 392.842
26.18000 381.616
26.19000 384.846
26.20000 391.867
26.21000 398.043
26.22000 401.948
26.23000 404.970
26.24000 406.454
26.25000 401.666
26.26000 396.207
26.27000 392.615
26.28000 394.186
26.29000 396.056
26.30000 397.290
26.31000 403.503
26.32000 408.169
26.33000 405.797
26.34000 394.456
26.35000 383.094
26.36000 376.419
26.37000 373.628
26.38000 370.873
26.39000 373.257
26.40000 378.360
26.41000 383.407
26.42000 387.396
26.43000 390.982
26.44000 393.941
26.45000 390.610
26.46000 385.653
26.47000 381.303
26.48000 381.309
26.49000 381.952
26.50000 382.801
26.51000 384.484
26.52000 386.254
26.53000 388.622
26.54000 392.618
26.55000 396.706
26.56000 399.388
26.57000 401.150
26.58000 402.431
26.59000 401.305
26.60000 397.160
26.61000 393.009
26.62000 390.450
26.63000 389.189
26.64000 387.944
26.65000 384.786
26.66000 380.696
26.67000 377.112
26.68000 382.839
26.69000 392.055
26.70000 400.230
26.71000 398.193
26.72000 393.557
26.73000 389.499
26.74000 391.238
26.75000 393.562
26.76000 394.239
26.77000 388.406
26.78000 381.904
26.79000 379.042
26.80000 385.958
26.81000 393.413
26.82000 398.276
26.83000 387.985
26.84000 380.192
26.85000 377.104
26.86000 379.823
26.87000 382.550
26.88000 382.995
26.89000 381.608
26.90000 380.240
26.91000 388.980
26.92000 402.769
26.93000 415.581
26.94000 410.912
26.95000 399.789
26.96000 389.612
26.97000 388.532
26.98000 389.731
26.99000 390.779
27.00000 386.677
27.01000 382.442
27.02000 377.696
27.03000 370.959
27.04000 364.022
27.05000 359.300
27.06000 360.440
27.07000 361.895
27.08000 362.839
27.09000 376.986
27.10000 387.544
27.11000 390.643
27.12000 384.681
27.13000 378.729
27.14000 381.553
27.15000 391.314
27.16000 400.930
27.17000 396.429
27.18000 384.777
27.19000 373.779
27.20000 374.167
27.21000 378.697
27.22000 382.904
27.23000 384.059
27.24000 384.462
27.25000 384.812
27.26000 387.003
27.27000 389.130
27.28000 390.445
27.29000 388.646
27.30000 386.540
27.31000 385.132
27.32000 385.547
27.33000 386.058
27.34000 386.387
27.35000 386.339
27.36000 386.300
27.37000 385.583
27.38000 384.058
27.39000 382.537
27.40000 382.474
27.41000 383.544
27.42000 384.598
27.43000 383.711
27.44000 381.865
27.45000 380.077
27.46000 379.260
27.47000 378.791
27.48000 379.042
27.49000 385.935
27.50000 394.443
27.51000 401.836
27.52000 394.724
27.53000 386.694
27.54000 379.785
27.55000 377.112
27.56000 374.847
27.57000 373.242
27.58000 373.331
27.59000 373.505
27.60000 373.617
27.61000 384.405
27.62000 392.414
27.63000 393.495
27.64000 386.426
27.65000 379.364
27.66000 377.278
27.67000 379.002
27.68000 380.698
27.69000 380.149
27.70000 378.495
27.71000 376.827
27.72000 374.943
27.73000 372.984
27.74000 371.098
27.75000 369.882
27.76000 368.826
27.77000 367.910
27.78000 366.206
27.79000 364.650
27.80000 364.984
27.81000 372.356
27.82000 380.393
27.83000 385.740
27.84000 384.271
27.85000 382.468
27.86000 381.317
27.87000 383.007
27.88000 384.272
27.89000 387.772
27.90000 393.859
27.91000 399.905
27.92000 396.848
27.93000 386.925
27.94000 377.173
27.95000 370.875
27.96000 366.488
27.97000 362.573
27.98000 366.235
27.99000 372.538
28.00000 378.188
28.01000 378.045
28.02000 376.537
28.03000 375.233
28.04000 380.061
28.05000 384.963
28.06000 388.517
28.07000 387.125
28.08000 385.276
28.09000 383.391
28.10000 381.417
28.11000 379.438
28.12000 378.183
28.13000 370.637
28.14000 365.083
28.15000 362.672
28.16000 363.840
28.17000 365.027
28.18000 369.225
28.19000 375.657
28.20000 381.973
28.21000 388.319
28.22000 394.459
28.23000 399.774
28.24000 392.181
28.25000 380.157
28.26000 368.765
28.27000 362.868
28.28000 358.246
28.29000 354.260
28.30000 365.593
28.31000 377.163
28.32000 387.234
28.33000 391.890
28.34000 396.055
28.35000 393.439
28.36000 374.120
28.37000 354.029
28.38000 341.357
28.39000 354.432
28.40000 364.196
28.41000 366.691
28.42000 361.042
28.43000 355.426
28.44000 356.688
28.45000 362.978
28.46000 369.150
28.47000 370.871
28.48000 370.408
28.49000 370.039
28.50000 371.092
28.51000 372.628
28.52000 374.192
28.53000 376.012
28.54000 377.890
28.55000 379.505
28.56000 374.663
28.57000 369.754
28.58000 365.996
28.59000 366.332
28.60000 367.031
28.61000 368.043
28.62000 369.815
28.63000 371.621
28.64000 372.754
28.65000 375.702
28.66000 377.853
28.67000 379.368
28.68000 380.182
28.69000 380.983
28.70000 379.687
28.71000 376.882
28.72000 374.132
28.73000 373.465
28.74000 373.802
28.75000 373.797
28.76000 368.733
28.77000 361.981
28.78000 355.832
28.79000 354.729
28.80000 354.761
28.81000 354.788
28.82000 353.539
28.83000 352.326
28.84000 352.158
28.85000 355.654
28.86000 359.466
28.87000 363.981
28.88000 370.177
28.89000 376.445
28.90000 380.353
28.91000 374.864
28.92000 370.811
28.93000 372.510
28.94000 380.444
28.95000 388.304
28.96000 385.488
28.97000 375.104
28.98000 364.932
28.99000 364.020
29.00000 367.420
29.01000 370.438
29.02000 367.918
29.03000 363.578
29.04000 359.716
29.05000 359.783
29.06000 360.719
29.07000 361.521
29.08000 357.570
29.09000 353.665
29.10000 352.550
29.11000 361.077
29.12000 370.420
29.13000 378.016
29.14000 381.490
29.15000 384.792
29.16000 386.838
29.17000 373.973
29.18000 364.577
29.19000 361.972
29.20000 366.608
29.21000 371.210
29.22000 371.123
29.23000 367.762
29.24000 364.473
29.25000 364.147
29.26000 365.183
29.27000 366.110
29.28000 365.504
29.29000 364.403
29.30000 363.688
29.31000 366.093
29.32000 369.177
29.33000 371.810
29.34000 370.542
29.35000 369.013
29.36000 369.380
29.37000 376.203
29.38000 383.560
29.39000 386.348
29.40000 378.512
29.41000 370.245
29.42000 365.152
29.43000 360.623
29.44000 357.379
29.45000 354.931
29.46000 353.319
29.47000 351.758
29.48000 356.241
29.49000 364.880
29.50000 373.326
29.51000 373.382
29.52000 369.680
29.53000 366.171
29.54000 365.332
29.55000 365.344
29.56000 365.565
29.57000 367.429
29.58000 369.646
29.59000 371.533
29.60000 373.153
29.61000 374.482
29.62000 374.225
29.63000 368.642
29.64000 362.628
29.65000 360.148
29.66000 365.766
29.67000 371.701
29.68000 375.335
29.69000 382.955
29.70000 388.443
29.71000 388.794
29.72000 383.847
29.73000 378.950
29.74000 379.524
29.75000 383.802
29.76000 387.981
29.77000 386.217
29.78000 381.911
29.79000 378.416
29.80000 385.841
29.81000 396.700
29.82000 406.158
29.83000 404.732
29.84000 401.009
29.85000 397.849
29.86000 409.576
29.87000 421.101
29.88000 429.307
29.89000 426.538
29.90000 422.902
29.91000 420.882
29.92000 422.513
29.93000 424.284
29.94000 425.361
29.95000 442.707
29.96000 455.224
29.97000 458.889
29.98000 453.577
29.99000 448.346
30.00000 451.297
30.01000 459.706
30.02000 467.912
30.03000 467.129
30.04000 462.483
30.05000 458.274
30.06000 459.800
30.07000 463.103
30.08000 465.623
30.09000 462.177
30.10000 457.490
30.11000 453.524
30.12000 455.622
30.13000 458.053
30.14000 458.495
30.15000 452.459
30.16000 445.922
30.17000 445.297
30.18000 457.834
30.19000 470.855
30.20000 478.728
30.21000 452.284
30.22000 433.190
30.23000 425.174
30.24000 428.204
30.25000 431.180
30.26000 429.104
30.27000 423.709
30.28000 418.448
30.29000 410.961
30.30000 402.863
30.31000 395.563
30.32000 398.509
30.33000 404.585
30.34000 410.090
30.35000 411.331
30.36000 411.700
30.37000 412.011
30.38000 416.840
30.39000 421.367
30.40000 424.752
30.41000 424.471
30.42000 423.915
30.43000 421.400
30.44000 414.590
30.45000 407.627
30.46000 403.443
30.47000 402.399
30.48000 401.678
30.49000 401.110
30.50000 400.692
30.51000 400.270
30.52000 399.449
30.53000 398.370
30.54000 397.319
30.55000 400.587
30.56000 405.517
30.57000 409.796
30.58000 405.910
30.59000 399.568
30.60000 394.266
30.61000 396.602
30.62000 400.477
30.63000 403.738
30.64000 409.916
30.65000 415.379
30.66000 419.433
30.67000 419.027
30.68000 418.294
30.69000 419.386
30.70000 424.428
30.71000 429.604
30.72000 432.695
30.73000 428.581
30.74000 425.619
30.75000 422.689
30.76000 419.791
30.77000 417.011
30.78000 423.967
30.79000 437.129
30.80000 449.936
30.81000 449.764
30.82000 444.235
30.83000 439.826
30.84000 449.160
30.85000 462.568
30.86000 474.255
30.87000 473.545
30.88000 470.378
30.89000 467.720
30.90000 474.512
30.91000 481.155
30.92000 486.527
30.93000 487.941
30.94000 489.071
30.95000 492.311
30.96000 500.050
30.97000 507.937
30.98000 512.617
30.99000 529.223
31.00000 541.042
31.01000 558.224
31.02000 580.491
31.03000 602.688
31.04000 619.485
31.05000 632.891
31.06000 645.921
31.07000 662.188
31.08000 678.969
31.09000 698.251
31.10000 747.530
31.11000 805.573
31.12000 862.124
31.13000 908.120
31.14000 952.058
31.15000 988.823
31.16000 1068.922
31.17000 1139.915
31.18000 1215.355
31.19000 1304.459
31.20000 1394.521
31.21000 1486.590
31.22000 1582.873
31.23000 1679.291
31.24000 1736.120
31.25000 1906.325
31.26000 2027.062
31.27000 2143.888
31.28000 2257.068
31.29000 2370.271
31.30000 2485.197
31.31000 2601.189
31.32000 2713.814
31.33000 2823.656
31.34000 2926.803
31.35000 3026.905
31.36000 3091.307
31.37000 3145.433
31.38000 3194.463
31.39000 3208.059
31.40000 3214.859
31.41000 3220.533
31.42000 3219.161
31.43000 3217.317
31.44000 3194.672
31.45000 3109.060
31.46000 3019.142
31.47000 2924.560
31.48000 2820.322
31.49000 2715.788
31.50000 2654.579
31.51000 2533.311
31.52000 2447.616
31.53000 2333.549
31.54000 2193.468
31.55000 2053.705
31.56000 1935.933
31.57000 1831.565
31.58000 1730.335
31.59000 1637.478
31.60000 1552.768
31.61000 1467.144
31.62000 1371.060
31.63000 1272.008
31.64000 1177.831
31.65000 1116.937
31.66000 1062.323
31.67000 1016.893
31.68000 961.401
31.69000 914.479
31.70000 868.240
31.71000 824.037
31.72000 779.970
31.73000 738.958
31.74000 704.180
31.75000 669.585
31.76000 649.463
31.77000 616.141
31.78000 592.678
31.79000 573.460
31.80000 558.072
31.81000 542.822
31.82000 536.607
31.83000 535.819
31.84000 535.055
31.85000 522.570
31.86000 506.206
31.87000 489.977
31.88000 475.262
31.89000 460.970
31.90000 447.895
31.91000 442.980
31.92000 439.580
31.93000 436.760
31.94000 434.839
31.95000 433.339
31.96000 431.196
31.97000 427.165
31.98000 423.012
31.99000 417.704
32.00000 410.074
32.01000 402.378
32.02000 397.931
32.03000 394.446
32.04000 392.008
32.05000 389.845
32.06000 387.927
32.07000 385.941
32.08000 379.775
32.09000 371.136
32.10000 362.775
32.11000 361.829
32.12000 363.765
32.13000 365.268
32.14000 362.015
32.15000 357.453
32.16000 354.127
32.17000 358.945
32.18000 365.251
32.19000 370.465
32.20000 369.245
32.21000 367.634
32.22000 365.583
32.23000 362.260
32.24000 358.856
32.25000 358.711
32.26000 365.024
32.27000 371.513
32.28000 375.237
32.29000 368.396
32.30000 363.575
32.31000 357.328
32.32000 349.835
32.33000 342.431
32.34000 340.192
32.35000 340.965
32.36000 341.712
32.37000 340.274
32.38000 338.098
32.39000 336.291
32.40000 338.444
32.41000 341.671
32.42000 344.503
32.43000 344.769
32.44000 344.574
32.45000 344.414
32.46000 331.979
32.47000 320.614
32.48000 313.240
32.49000 317.266
32.50000 321.995
32.51000 324.570
32.52000 322.935
32.53000 321.190
32.54000 320.196
32.55000 342.017
32.56000 357.288
32.57000 359.238
32.58000 349.744
32.59000 340.352
32.60000 336.576
32.61000 336.026
32.62000 335.495
32.63000 338.435
32.64000 342.487
32.65000 346.240
32.66000 346.844
32.67000 346.607
32.68000 346.377
32.69000 346.198
32.70000 346.028
32.71000 345.888
32.72000 344.919
32.73000 344.049
32.74000 343.188
32.75000 342.353
32.76000 341.519
32.77000 340.435
32.78000 338.869
32.79000 337.290
32.80000 336.397
32.81000 338.307
32.82000 339.643
32.83000 340.739
32.84000 341.632
32.85000 342.416
32.86000 337.454
32.87000 329.239
32.88000 321.316
32.89000 316.321
32.90000 312.688
32.91000 309.767
32.92000 314.179
32.93000 320.520
32.94000 326.284
32.95000 328.438
32.96000 329.965
32.97000 331.216
32.98000 331.065
32.99000 330.817
33.00000 329.150
33.01000 323.544
33.02000 317.708
33.03000 312.933
33.04000 310.174
33.05000 307.463
33.06000 305.940
33.07000 315.934
33.08000 322.877
33.09000 319.902
33.10000 308.676
33.11000 297.560
33.12000 291.927
33.13000 289.352
33.14000 286.871
33.15000 293.172
33.16000 302.235
33.17000 310.624
33.18000 312.209
33.19000 312.031
33.20000 311.550
33.21000 309.200
33.22000 306.530
33.23000 304.350
33.24000 306.086
33.25000 307.844
33.26000 309.307
33.27000 309.961
33.28000 310.570
33.29000 310.719
33.30000 310.010
33.31000 309.281
33.32000 308.875
33.33000 301.046
33.34000 295.623
33.35000 295.313
33.36000 299.187
33.37000 303.004
33.38000 304.089
33.39000 303.673
33.40000 303.272
33.41000 303.740
33.42000 304.484
33.43000 304.976
33.44000 302.971
33.45000 300.329
33.46000 298.107
33.47000 298.427
33.48000 299.174
33.49000 299.782
33.50000 290.490
33.51000 282.066
33.52000 277.966
33.53000 285.520
33.54000 293.718
33.55000 299.710
33.56000 301.636
33.57000 303.473
33.58000 304.491
33.59000 305.930
33.60000 306.915
33.61000 304.200
33.62000 298.505
33.63000 292.856
33.64000 289.294
33.65000 286.862
33.66000 284.525
33.67000 287.517
33.68000 292.167
33.69000 296.734
33.70000 300.498
33.71000 304.061
33.72000 306.100
33.73000 299.080
33.74000 290.565
33.75000 283.655
33.76000 285.100
33.77000 286.967
33.78000 288.282
33.79000 288.134
33.80000 287.906
33.81000 289.467
33.82000 294.274
33.83000 299.150
33.84000 301.831
33.85000 306.822
33.86000 310.250
33.87000 309.833
33.88000 306.365
33.89000 303.031
33.90000 305.467
33.91000 310.983
33.92000 316.277
33.93000 310.747
33.94000 301.881
33.95000 293.965
33.96000 295.039
33.97000 298.340
33.98000 300.774
33.99000 298.147
34.00000 294.699
34.01000 291.910
34.02000 288.062
34.03000 284.846
34.04000 283.162
34.05000 285.493
34.06000 288.033
34.07000 290.138
34.08000 291.464
34.09000 292.774
34.10000 293.489
34.11000 291.488
34.12000 290.100
34.13000 286.362
34.14000 280.789
34.15000 275.470
34.16000 280.719
34.17000 291.527
34.18000 301.888
34.19000 307.358
34.20000 310.822
34.21000 312.908
34.22000 302.214
34.23000 288.404
34.24000 276.918
34.25000 278.784
34.26000 282.780
34.27000 286.001
34.28000 292.156
34.29000 297.386
34.30000 299.822
34.31000 295.047
34.32000 289.907
34.33000 287.915
34.34000 291.474
34.35000 295.139
34.36000 297.125
34.37000 289.876
34.38000 284.916
34.39000 283.762
34.40000 285.535
34.41000 287.231
34.42000 285.901
34.43000 283.004
34.44000 280.230
34.45000 282.492
34.46000 286.266
34.47000 290.050
34.48000 293.931
34.49000 297.836
34.50000 300.385
34.51000 295.277
34.52000 288.968
34.53000 283.899
34.54000 284.713
34.55000 285.825
34.56000 286.691
34.57000 286.932
34.58000 287.142
34.59000 286.799
34.60000 285.497
34.61000 284.177
34.62000 283.468
34.63000 286.501
34.64000 288.561
34.65000 287.181
34.66000 283.197
34.67000 279.254
34.68000 276.833
34.69000 275.190
34.70000 273.619
34.71000 275.632
34.72000 278.671
34.73000 281.510
34.74000 282.569
34.75000 283.207
34.76000 283.597
34.77000 282.612
34.78000 281.414
34.79000 280.455
34.80000 289.022
34.81000 296.669
34.82000 301.819
34.83000 300.711
34.84000 299.303
34.85000 296.462
34.86000 291.167
34.87000 285.831
34.88000 282.984
34.89000 278.162
34.90000 274.888
34.91000 274.042
34.92000 275.005
34.93000 275.908
34.94000 274.632
34.95000 272.258
34.96000 269.992
34.97000 267.488
34.98000 265.085
34.99000 263.720
35.00000 271.430
35.01000 281.254
35.02000 289.181
35.03000 286.740
35.04000 282.730
35.05000 279.529
35.06000 283.288
35.07000 286.834
35.08000 289.258
35.09000 288.910
35.10000 288.432
35.11000 286.149
35.12000 280.819
35.13000 275.441
35.14000 272.593
35.15000 272.949
35.16000 273.197
35.17000 274.139
35.18000 275.590
35.19000 276.973
35.20000 275.964
35.21000 273.769
35.22000 271.676
35.23000 271.187
35.24000 271.239
35.25000 271.187
35.26000 270.255
35.27000 269.120
35.28000 267.897
35.29000 266.197
35.30000 264.425
35.31000 263.016
35.32000 268.330
35.33000 273.095
35.34000 276.148
35.35000 275.035
35.36000 273.733
35.37000 272.348
35.38000 270.824
35.39000 269.299
35.40000 268.497
35.41000 273.025
35.42000 276.092
35.43000 278.371
35.44000 280.081
35.45000 281.518
35.46000 273.740
35.47000 261.455
35.48000 249.756
35.49000 252.904
35.50000 260.420
35.51000 267.731
35.52000 273.309
35.53000 278.496
35.54000 282.630
35.55000 281.188
35.56000 278.932
35.57000 277.144
35.58000 271.498
35.59000 266.687
35.60000 263.551
35.61000 264.437
35.62000 265.499
35.63000 265.025
35.64000 262.038
35.65000 259.015
35.66000 257.439
35.67000 260.499
35.68000 262.568
35.69000 264.596
35.70000 266.594
35.71000 268.501
35.72000 267.457
35.73000 264.990
35.74000 262.643
35.75000 263.759
35.76000 265.845
35.77000 268.072
35.78000 271.450
35.79000 275.083
35.80000 277.944
35.81000 276.781
35.82000 275.042
35.83000 273.668
35.84000 269.729
35.85000 266.392
35.86000 267.246
35.87000 278.016
35.88000 289.205
35.89000 291.780
35.90000 280.459
35.91000 268.949
35.92000 262.997
35.93000 264.702
35.94000 265.860
35.95000 268.095
35.96000 271.084
35.97000 273.911
35.98000 271.683
35.99000 267.053
36.00000 262.656
36.01000 260.233
36.02000 258.589
36.03000 257.430
36.04000 260.207
36.05000 263.845
36.06000 266.793
36.07000 266.214
36.08000 265.138
36.09000 264.291
36.10000 257.367
36.11000 251.414
36.12000 248.995
36.13000 254.818
36.14000 260.978
36.15000 263.297
36.16000 259.513
36.17000 255.651
36.18000 253.671
36.19000 255.993
36.20000 257.565
36.21000 260.495
36.22000 264.359
36.23000 268.026
36.24000 265.746
36.25000 260.681
36.26000 255.878
36.27000 257.681
36.28000 261.292
36.29000 264.693
36.30000 266.434
36.31000 267.817
36.32000 269.327
36.33000 271.481
36.34000 273.723
36.35000 275.482
36.36000 266.992
36.37000 259.538
36.38000 255.898
36.39000 261.026
36.40000 266.501
36.41000 269.781
36.42000 269.622
36.43000 269.422
36.44000 269.320
36.45000 253.946
36.46000 243.737
36.47000 244.763
36.48000 253.422
36.49000 261.843
36.50000 263.365
36.51000 261.704
36.52000 260.130
36.53000 265.035
36.54000 271.428
36.55000 276.775
36.56000 273.963
36.57000 269.422
36.58000 265.883
36.59000 267.312
36.60000 269.415
36.61000 271.059
36.62000 266.539
36.63000 262.540
36.64000 259.611
36.65000 259.104
36.66000 258.691
36.67000 258.959
36.68000 260.279
36.69000 261.609
36.70000 262.281
36.71000 261.387
36.72000 260.815
36.73000 262.933
36.74000 266.851
36.75000 270.701
36.76000 272.657
36.77000 273.752
36.78000 274.787
36.79000 275.368
36.80000 275.772
36.81000 275.960
36.82000 274.491
36.83000 272.677
36.84000 271.902
36.85000 276.192
36.86000 281.158
36.87000 285.025
36.88000 279.475
36.89000 274.472
36.90000 272.408
36.91000 276.907
36.92000 281.649
36.93000 283.744
36.94000 281.818
36.95000 279.850
36.96000 278.866
36.97000 280.007
36.98000 280.788
36.99000 283.473
37.00000 287.411
37.01000 291.271
37.02000 292.995
37.03000 293.761
37.04000 294.484
37.05000 293.252
37.06000 291.573
37.07000 290.232
37.08000 291.435
37.09000 293.161
37.10000 293.749
37.11000 288.880
37.12000 283.295
37.13000 278.962
37.14000 278.616
37.15000 278.581
37.16000 280.364
37.17000 286.148
37.18000 292.075
37.19000 292.040
37.20000 283.086
37.21000 274.046
37.22000 271.385
37.23000 275.000
37.24000 278.561
37.25000 277.323
37.26000 272.968
37.27000 268.765
37.28000 268.532
37.29000 270.054
37.30000 271.488
37.31000 273.161
37.32000 274.759
37.33000 275.004
37.34000 265.282
37.35000 253.547
37.36000 245.220
37.37000 252.998
37.38000 262.846
37.39000 270.459
37.40000 269.559
37.41000 268.345
37.42000 268.340
37.43000 270.957
37.44000 273.664
37.45000 273.033
37.46000 267.483
37.47000 261.888
37.48000 257.982
37.49000 255.712
37.50000 253.461
37.51000 252.904
37.52000 253.429
37.53000 253.988
37.54000 255.383
37.55000 257.142
37.56000 258.798
37.57000 259.135
37.58000 259.085
37.59000 259.100
37.60000 259.587
37.61000 260.167
37.62000 260.996
37.63000 262.975
37.64000 265.100
37.65000 266.736
37.66000 266.223
37.67000 265.694
37.68000 265.352
37.69000 265.409
37.70000 265.480
37.71000 264.657
37.72000 262.537
37.73000 260.407
37.74000 260.189
37.75000 261.792
37.76000 263.367
37.77000 262.822
37.78000 260.940
37.79000 259.069
37.80000 257.485
37.81000 256.024
37.82000 254.652
37.83000 255.736
37.84000 257.383
37.85000 259.283
37.86000 262.979
37.87000 267.026
37.88000 269.638
37.89000 265.676
37.90000 260.901
37.91000 257.236
37.92000 260.149
37.93000 262.817
37.94000 266.134
37.95000 270.819
37.96000 275.547
37.97000 276.664
37.98000 272.617
37.99000 268.531
38.00000 265.301
38.01000 262.873
38.02000 260.505
38.03000 262.666
38.04000 267.638
38.05000 272.559
38.06000 276.297
38.07000 279.533
38.08000 282.569
38.09000 276.930
38.10000 269.509
38.11000 262.692
38.12000 260.088
38.13000 258.295
38.14000 257.380
38.15000 260.422
38.16000 263.944
38.17000 266.636
38.18000 277.141
38.19000 285.850
38.20000 291.420
38.21000 290.468
38.22000 289.314
38.23000 289.231
38.24000 290.654
38.25000 292.088
38.26000 293.613
38.27000 295.222
38.28000 296.854
38.29000 300.041
38.30000 304.181
38.31000 308.090
38.32000 306.711
38.33000 303.125
38.34000 299.767
38.35000 304.662
38.36000 311.250
38.37000 318.002
38.38000 325.879
38.39000 333.968
38.40000 342.127
38.41000 350.589
38.42000 359.088
38.43000 365.560
38.44000 377.114
38.45000 386.477
38.46000 397.497
38.47000 411.908
38.48000 426.420
38.49000 445.939
38.50000 472.399
38.51000 498.896
38.52000 530.224
38.53000 565.895
38.54000 601.457
38.55000 629.879
38.56000 653.999
38.57000 678.330
38.58000 707.341
38.59000 738.277
38.60000 767.206
38.61000 805.451
38.62000 842.553
38.63000 880.081
38.64000 920.479
38.65000 961.412
38.66000 1001.154
38.67000 1035.694
38.68000 1069.626
38.69000 1095.366
38.70000 1103.927
38.71000 1109.770
38.72000 1113.737
38.73000 1113.919
38.74000 1113.993
38.75000 1114.174
38.76000 1114.500
38.77000 1114.827
38.78000 1096.891
38.79000 1062.735
38.80000 1028.724
38.81000 1003.776
38.82000 984.206
38.83000 964.108
38.84000 932.618
38.85000 896.510
38.86000 862.800
38.87000 823.849
38.88000 787.224
38.89000 750.336
38.90000 711.699
38.91000 672.742
38.92000 633.193
38.93000 591.096
38.94000 548.708
38.95000 516.679
38.96000 492.177
38.97000 473.344
38.98000 455.702
38.99000 440.425
39.00000 425.214
39.01000 409.765
39.02000 393.995
39.03000 378.233
39.04000 363.490
39.05000 349.663
39.06000 335.900
39.07000 325.962
39.08000 318.261
39.09000 310.770
39.10000 307.677
39.11000 306.340
39.12000 305.094
39.13000 300.607
39.14000 295.747
39.15000 290.534
39.16000 283.019
39.17000 275.089
39.18000 268.397
39.19000 266.943
39.20000 266.078
39.21000 265.427
39.22000 257.938
39.23000 251.746
39.24000 248.528
39.25000 251.141
39.26000 253.906
39.27000 256.752
39.28000 259.703
39.29000 262.653
39.30000 262.520
39.31000 259.736
39.32000 257.044
39.33000 259.519
39.34000 264.973
39.35000 269.937
39.36000 264.969
39.37000 256.090
39.38000 247.829
39.39000 248.768
39.40000 251.845
39.41000 254.913
39.42000 257.928
39.43000 260.933
39.44000 262.032
39.45000 255.181
39.46000 247.454
39.47000 241.661
39.48000 245.770
39.49000 249.446
39.50000 251.486
39.51000 250.366
39.52000 249.165
39.53000 248.958
39.54000 250.044
39.55000 251.134
39.56000 250.269
39.57000 247.750
39.58000 245.175
39.59000 239.601
39.60000 232.325
39.61000 225.368
39.62000 224.698
39.63000 226.467
39.64000 228.111
39.65000 227.910
39.66000 227.290
39.67000 226.469
39.68000 224.388
39.69000 222.087
39.70000 221.881
39.71000 230.274
39.72000 239.595
39.73000 246.555
39.74000 248.156
39.75000 249.157
39.76000 247.851
39.77000 242.154
39.78000 236.350
39.79000 232.787
39.80000 232.100
39.81000 231.424
39.82000 230.537
39.83000 229.478
39.84000 228.455
39.85000 229.241
39.86000 231.039
39.87000 232.743
39.88000 232.672
39.89000 231.922
39.90000 231.226
39.91000 232.450
39.92000 234.002
39.93000 235.420
39.94000 236.007
39.95000 236.452
39.96000 237.057
39.97000 238.312
39.98000 239.635
39.99000 240.619
40.00000 235.802
40.01000 231.798
40.02000 230.517
40.03000 234.347
40.04000 238.294
40.05000 239.658
40.06000 237.759
40.07000 235.852
40.08000 233.941
40.09000 232.034
40.10000 230.132
40.11000 228.460
40.12000 226.916
40.13000 225.484
40.14000 226.156
40.15000 227.621
40.16000 228.977
40.17000 225.095
40.18000 220.399
40.19000 216.909
40.20000 220.732
40.21000 225.788
40.22000 230.760
40.23000 235.401
40.24000 240.007
40.25000 243.417
40.26000 236.248
40.27000 230.226
40.28000 227.731
40.29000 231.757
40.30000 235.927
40.31000 236.852
40.32000 233.745
40.33000 230.632
40.34000 229.331
40.35000 229.497
40.36000 229.645
40.37000 229.040
40.38000 228.025
40.39000 226.994
40.40000 225.665
40.41000 224.225
40.42000 222.895
40.43000 225.468
40.44000 228.659
40.45000 231.029
40.46000 228.495
40.47000 225.149
40.48000 221.921
40.49000 219.158
40.50000 216.443
40.51000 214.440
40.52000 216.123
40.53000 217.581
40.54000 219.713
40.55000 223.073
40.56000 226.458
40.57000 229.648
40.58000 232.599
40.59000 235.544
40.60000 235.420
40.61000 232.864
40.62000 230.302
40.63000 227.506
40.64000 224.584
40.65000 221.880
40.66000 223.010
40.67000 225.544
40.68000 227.881
40.69000 229.145
40.70000 230.039
40.71000 230.343
40.72000 227.191
40.73000 223.476
40.74000 220.649
40.75000 221.254
40.76000 222.199
40.77000 222.894
40.78000 225.229
40.79000 227.102
40.80000 226.430
40.81000 221.193
40.82000 215.864
40.83000 215.177
40.84000 220.078
40.85000 224.980
40.86000 225.124
40.87000 221.557
40.88000 217.981
40.89000 213.986
40.90000 209.772
40.91000 205.782
40.92000 205.659
40.93000 206.932
40.94000 208.104
40.95000 214.804
40.96000 222.005
40.97000 227.548
40.98000 223.530
40.99000 217.982
41.00000 213.749
41.01000 214.525
41.02000 215.789
41.03000 216.713
41.04000 222.382
41.05000 226.942
41.06000 227.369
41.07000 220.482
41.08000 213.457
41.09000 211.405
41.10000 215.247
41.11000 219.091
41.12000 222.590
41.13000 225.803
41.14000 228.824
41.15000 224.130
41.16000 215.423
41.17000 207.090
41.18000 204.998
41.19000 205.127
41.20000 205.244
41.21000 210.366
41.22000 216.014
41.23000 220.192
41.24000 216.028
41.25000 210.552
41.26000 206.303
41.27000 206.652
41.28000 207.439
41.29000 208.013
41.30000 208.008
41.31000 207.983
41.32000 209.467
41.33000 213.582
41.34000 217.745
41.35000 219.580
41.36000 218.701
41.37000 217.821
41.38000 216.150
41.39000 213.893
41.40000 211.675
41.41000 210.919
41.42000 210.913
41.43000 210.885
41.44000 210.506
41.45000 210.004
41.46000 209.543
41.47000 211.612
41.48000 213.991
41.49000 216.281
41.50000 218.072
41.51000 219.787
41.52000 220.551
41.53000 217.806
41.54000 214.734
41.55000 212.507
41.56000 211.128
41.57000 210.100
41.58000 210.110
41.59000 211.902
41.60000 213.725
41.61000 213.787
41.62000 211.829
41.63000 209.875
41.64000 209.676
41.65000 210.782
41.66000 211.824
41.67000 210.509
41.68000 208.004
41.69000 205.728
41.70000 207.090
41.71000 209.708
41.72000 212.105
41.73000 217.294
41.74000 222.490
41.75000 226.643
41.76000 225.067
41.77000 222.621
41.78000 219.864
41.79000 215.972
41.80000 211.977
41.81000 209.093
41.82000 209.594
41.83000 210.100
41.84000 209.478
41.85000 206.949
41.86000 204.389
41.87000 204.957
41.88000 209.057
41.89000 213.146
41.90000 216.616
41.91000 219.605
41.92000 222.435
41.93000 219.610
41.94000 213.970
41.95000 208.831
41.96000 211.420
41.97000 216.641
41.98000 221.411
41.99000 219.980
42.00000 217.443
42.01000 215.011
42.02000 213.140
42.03000 211.353
42.04000 208.562
42.05000 202.173
42.06000 195.462
42.07000 190.639
42.08000 195.310
42.09000 199.214
42.10000 203.751
42.11000 209.343
42.12000 214.950
42.13000 214.539
42.14000 207.446
42.15000 200.374
42.16000 199.783
42.17000 203.852
42.18000 207.761
42.19000 206.234
42.20000 202.040
42.21000 198.138
42.22000 198.641
42.23000 200.621
42.24000 202.427
42.25000 200.595
42.26000 198.240
42.27000 197.302
42.28000 203.886
42.29000 211.573
42.30000 217.147
42.31000 215.259
42.32000 212.719
42.33000 210.902
42.34000 205.502
42.35000 201.259
42.36000 198.295
42.37000 197.430
42.38000 196.596
42.39000 197.922
42.40000 201.607
42.41000 205.279
42.42000 207.923
42.43000 209.818
42.44000 211.702
42.45000 213.252
42.46000 214.641
42.47000 215.715
42.48000 212.185
42.49000 207.131
42.50000 202.532
42.51000 204.370
42.52000 207.266
42.53000 209.668
42.54000 209.483
42.55000 208.926
42.56000 208.907
42.57000 210.758
42.58000 212.769
42.59000 214.201
42.60000 210.325
42.61000 207.199
42.62000 204.711
42.63000 203.254
42.64000 201.811
42.65000 200.180
42.66000 198.345
42.67000 196.517
42.68000 197.222
42.69000 199.681
42.70000 202.075
42.71000 202.451
42.72000 201.864
42.73000 201.330
42.74000 201.555
42.75000 202.027
42.76000 202.456
42.77000 203.829
42.78000 205.226
42.79000 206.505
42.80000 207.182
42.81000 207.774
42.82000 207.603
42.83000 204.816
42.84000 201.811
42.85000 199.681
42.86000 198.953
42.87000 198.444
42.88000 198.854
42.89000 200.733
42.90000 202.630
42.91000 205.982
42.92000 210.871
42.93000 215.737
42.94000 216.564
42.95000 214.616
42.96000 212.618
42.97000 209.081
42.98000 204.821
42.99000 200.653
43.00000 197.766
43.01000 195.290
43.02000 193.045
43.03000 198.107
43.04000 203.963
43.05000 208.396
43.06000 205.637
43.07000 201.878
43.08000 198.949
43.09000 198.817
43.10000 198.915
43.11000 198.984
43.12000 202.295
43.13000 204.907
43.14000 207.317
43.15000 209.410
43.16000 211.499
43.17000 214.120
43.18000 217.294
43.19000 220.451
43.20000 220.491
43.21000 218.431
43.22000 216.231
43.23000 209.942
43.24000 201.760
43.25000 194.374
43.26000 197.811
43.27000 204.675
43.28000 210.884
43.29000 206.489
43.30000 200.635
43.31000 195.444
43.32000 193.552
43.33000 192.111
43.34000 192.002
43.35000 196.330
43.36000 201.012
43.37000 204.300
43.38000 205.792
43.39000 206.870
43.40000 206.009
43.41000 202.151
43.42000 198.258
43.43000 197.262
43.44000 199.224
43.45000 201.175
43.46000 204.443
43.47000 208.542
43.48000 212.473
43.49000 211.691
43.50000 208.758
43.51000 205.959
43.52000 204.944
43.53000 204.486
43.54000 204.073
43.55000 201.236
43.56000 198.297
43.57000 196.008
43.58000 196.897
43.59000 198.212
43.60000 199.390
43.61000 200.119
43.62000 200.813
43.63000 201.299
43.64000 200.270
43.65000 199.451
43.66000 198.989
43.67000 199.073
43.68000 199.164
43.69000 201.654
43.70000 206.556
43.71000 211.428
43.72000 209.273
43.73000 202.566
43.74000 196.052
43.75000 194.795
43.76000 195.902
43.77000 197.066
43.78000 198.962
43.79000 201.082
43.80000 202.992
43.81000 200.793
43.82000 198.120
43.83000 195.494
43.84000 193.087
43.85000 190.710
43.86000 189.947
43.87000 194.398
43.88000 199.246
43.89000 202.619
43.90000 201.049
43.91000 199.730
43.92000 197.498
43.93000 193.893
43.94000 190.275
43.95000 191.263
43.96000 196.798
43.97000 202.298
43.98000 204.859
43.99000 205.497
44.00000 206.077
44.01000 205.141
44.02000 203.533
44.03000 202.029
44.04000 201.854
44.05000 202.081
44.06000 202.285
44.07000 204.270
44.08000 206.323
44.09000 207.211
44.10000 202.571
44.11000 197.218
44.12000 192.750
44.13000 191.102
44.14000 189.664
44.15000 188.667
44.16000 192.044
44.17000 194.700
44.18000 195.963
44.19000 195.166
44.20000 194.350
44.21000 195.659
44.22000 199.032
44.23000 202.381
44.24000 203.033
44.25000 201.972
44.26000 200.980
44.27000 201.770
44.28000 203.339
44.29000 204.577
44.30000 201.732
44.31000 197.667
44.32000 194.021
44.33000 197.542
44.34000 201.869
44.35000 205.370
44.36000 205.021
44.37000 204.183
44.38000 203.052
44.39000 200.997
44.40000 198.876
44.41000 197.413
44.42000 196.742
44.43000 196.257
44.44000 196.968
44.45000 199.419
44.46000 201.885
44.47000 203.317
44.48000 203.764
44.49000 204.206
44.50000 205.269
44.51000 206.699
44.52000 208.063
44.53000 207.824
44.54000 206.893
44.55000 205.998
44.56000 205.525
44.57000 205.177
44.58000 204.865
44.59000 207.419
44.60000 210.140
44.61000 212.502
44.62000 213.220
44.63000 213.733
44.64000 213.212
44.65000 209.493
44.66000 205.547
44.67000 202.840
44.68000 212.325
44.69000 219.727
44.70000 221.340
44.71000 214.651
44.72000 207.898
44.73000 208.527
44.74000 216.086
44.75000 223.584
44.76000 225.847
44.77000 224.870
44.78000 223.778
44.79000 219.983
44.80000 215.040
44.81000 210.788
44.82000 214.715
44.83000 221.011
44.84000 226.634
44.85000 232.598
44.86000 237.849
44.87000 242.866
44.88000 246.824
44.89000 250.652
44.90000 254.054
44.91000 256.154
44.92000 258.164
44.93000 259.536
44.94000 272.620
44.95000 282.677
44.96000 288.261
44.97000 287.529
44.98000 286.754
44.99000 290.087
45.00000 297.217
45.01000 304.284
45.02000 307.610
45.03000 308.620
45.04000 309.701
45.05000 312.428
45.06000 315.843
45.07000 318.506
45.08000 312.468
45.09000 303.947
45.10000 296.353
45.11000 298.732
45.12000 302.449
45.13000 306.780
45.14000 313.845
45.15000 321.237
45.16000 325.487
45.17000 320.306
45.18000 314.490
45.19000 310.540
45.20000 316.921
45.21000 321.912
45.22000 322.186
45.23000 315.898
45.24000 309.570
45.25000 309.454
45.26000 314.980
45.27000 320.456
45.28000 321.047
45.29000 318.733
45.30000 316.445
45.31000 314.744
45.32000 313.284
45.33000 311.457
45.34000 305.469
45.35000 298.312
45.36000 291.948
45.37000 282.485
45.38000 273.770
45.39000 267.710
45.40000 273.284
45.41000 280.224
45.42000 284.795
45.43000 282.360
45.44000 279.464
45.45000 277.508
45.46000 265.391
45.47000 256.152
45.48000 250.909
45.49000 251.141
45.50000 251.404
45.51000 250.282
45.52000 247.923
45.53000 245.587
45.54000 246.000
45.55000 248.007
45.56000 249.811
45.57000 247.217
45.58000 242.835
45.59000 238.303
45.60000 232.123
45.61000 225.486
45.62000 219.598
45.63000 223.795
45.64000 229.038
45.65000 232.396
45.66000 227.625
45.67000 221.918
45.68000 218.581
45.69000 222.151
45.70000 226.165
45.71000 228.862
45.72000 235.001
45.73000 239.632
45.74000 236.788
45.75000 223.863
45.76000 210.888
45.77000 202.660
45.78000 198.606
45.79000 194.594
45.80000 195.250
45.81000 198.568
45.82000 201.800
45.83000 203.194
45.84000 203.852
45.85000 204.597
45.86000 206.277
45.87000 208.212
45.88000 209.925
45.89000 204.682
45.90000 199.059
45.91000 195.315
45.92000 199.550
45.93000 204.685
45.94000 208.364
45.95000 207.859
45.96000 207.094
45.97000 206.582
45.98000 198.619
45.99000 192.570
46.00000 190.535
46.01000 193.832
46.02000 197.152
46.03000 197.794
46.04000 196.122
46.05000 194.468
46.06000 193.516
46.07000 192.981
46.08000 192.304
46.09000 188.700
46.10000 183.941
46.11000 180.014
46.12000 184.911
46.13000 192.181
46.14000 198.601
46.15000 196.079
46.16000 192.529
46.17000 190.076
46.18000 192.207
46.19000 194.846
46.20000 195.444
46.21000 190.264
46.22000 184.732
46.23000 181.053
46.24000 183.357
46.25000 185.173
46.26000 182.733
46.27000 174.728
46.28000 166.708
46.29000 164.766
46.30000 167.997
46.31000 171.190
46.32000 176.179
46.33000 182.045
46.34000 187.495
46.35000 184.719
46.36000 178.740
46.37000 173.081
46.38000 170.749
46.39000 169.299
46.40000 168.021
46.41000 169.915
46.42000 172.024
46.43000 174.614
46.44000 179.182
46.45000 183.964
46.46000 186.882
46.47000 184.596
46.48000 182.002
46.49000 180.285
46.50000 179.371
46.51000 178.710
46.52000 179.046
46.53000 180.665
46.54000 182.285
46.55000 181.663
46.56000 179.164
46.57000 176.695
46.58000 176.629
46.59000 177.879
46.60000 179.104
46.61000 179.866
46.62000 180.451
46.63000 181.032
46.64000 181.569
46.65000 182.095
46.66000 182.557
46.67000 178.631
46.68000 174.604
46.69000 172.287
46.70000 176.909
46.71000 182.268
46.72000 184.940
46.73000 180.219
46.74000 175.071
46.75000 171.683
46.76000 175.241
46.77000 177.981
46.78000 180.276
46.79000 182.008
46.80000 183.735
46.81000 184.496
46.82000 184.462
46.83000 184.429
46.84000 181.850
46.85000 177.970
46.86000 174.277
46.87000 174.096
46.88000 175.244
46.89000 176.166
46.90000 174.853
46.91000 172.965
46.92000 171.310
46.93000 170.122
46.94000 169.170
46.95000 169.071
46.96000 172.382
46.97000 176.049
46.98000 178.701
46.99000 178.602
47.00000 178.348
47.01000 178.182
47.02000 178.864
47.03000 179.379
47.04000 178.161
47.05000 174.780
47.06000 171.397
47.07000 169.769
47.08000 169.565
47.09000 169.364
47.10000 170.338
47.11000 171.906
47.12000 173.505
47.13000 175.659
47.14000 178.019
47.15000 180.110
47.16000 179.578
47.17000 178.383
47.18000 177.338
47.19000 174.222
47.20000 171.256
47.21000 168.467
47.22000 166.374
47.23000 164.352
47.24000 163.171
47.25000 164.235
47.26000 165.421
47.27000 166.194
47.28000 167.544
47.29000 168.544
47.30000 170.269
47.31000 172.884
47.32000 175.485
47.33000 172.626
47.34000 165.406
47.35000 158.290
47.36000 158.474
47.37000 162.459
47.38000 166.319
47.39000 167.962
47.40000 168.792
47.41000 169.324
47.42000 167.019
47.43000 164.007
47.44000 161.378
47.45000 160.503
47.46000 160.000
47.47000 160.276
47.48000 163.572
47.49000 167.170
47.50000 169.870
47.51000 170.207
47.52000 170.418
47.53000 170.555
47.54000 164.569
47.55000 160.099
47.56000 158.958
47.57000 161.838
47.58000 164.717
47.59000 164.879
47.60000 162.905
47.61000 160.960
47.62000 164.626
47.63000 171.061
47.64000 176.957
47.65000 173.575
47.66000 166.834
47.67000 160.571
47.68000 158.775
47.69000 158.075
47.70000 157.466
47.71000 161.160
47.72000 164.905
47.73000 167.390
47.74000 165.066
47.75000 162.272
47.76000 160.167
47.77000 159.854
47.78000 159.634
47.79000 159.491
47.80000 162.554
47.81000 164.834
47.82000 164.542
47.83000 161.189
47.84000 157.847
47.85000 158.437
47.86000 162.069
47.87000 165.644
47.88000 171.022
47.89000 177.143
47.90000 182.740
47.91000 179.578
47.92000 173.289
47.93000 167.565
47.94000 167.011
47.95000 167.706
47.96000 168.311
47.97000 166.077
47.98000 163.792
47.99000 161.929
48.00000 161.653
48.01000 161.530
48.02000 161.787
48.03000 163.017
48.04000 164.295
48.05000 165.113
48.06000 168.946
48.07000 171.779
48.08000 171.355
48.09000 167.123
48.10000 162.897
48.11000 161.647
48.12000 162.664
48.13000 163.663
48.14000 163.240
48.15000 162.124
48.16000 161.172
48.17000 162.901
48.18000 165.572
48.19000 167.766
48.20000 165.665
48.21000 162.542
48.22000 159.837
48.23000 157.135
48.24000 154.836
48.25000 152.715
48.26000 151.256
48.27000 149.858
48.28000 149.677
48.29000 152.564
48.30000 155.601
48.31000 157.534
48.32000 162.253
48.33000 165.718
48.34000 165.770
48.35000 161.894
48.36000 158.033
48.37000 158.408
48.38000 161.960
48.39000 165.449
48.40000 165.505
48.41000 163.880
48.42000 162.295
48.43000 161.364
48.44000 160.659
48.45000 160.135
48.46000 161.208
48.47000 162.656
48.48000 163.907
48.49000 165.681
48.50000 167.255
48.51000 168.189
48.52000 166.785
48.53000 165.166
48.54000 164.300
48.55000 165.306
48.56000 166.401
48.57000 167.094
48.58000 168.510
48.59000 169.546
48.60000 168.263
48.61000 164.354
48.62000 160.474
48.63000 162.133
48.64000 167.883
48.65000 173.527
48.66000 172.158
48.67000 167.459
48.68000 162.889
48.69000 160.314
48.70000 158.421
48.71000 156.650
48.72000 155.929
48.73000 155.450
48.74000 155.037
48.75000 155.833
48.76000 156.661
48.77000 157.234
48.78000 156.894
48.79000 156.472
48.80000 155.262
48.81000 152.121
48.82000 148.891
48.83000 146.858
48.84000 159.913
48.85000 169.529
48.86000 173.758
48.87000 171.983
48.88000 170.199
48.89000 167.574
48.90000 164.338
48.91000 161.164
48.92000 160.896
48.93000 162.016
48.94000 162.722
48.95000 157.159
48.96000 149.486
48.97000 143.087
48.98000 147.488
48.99000 154.343
49.00000 160.233
49.01000 158.887
49.02000 156.847
49.03000 156.042
49.04000 159.607
49.05000 163.557
49.06000 164.914
49.07000 160.008
49.08000 154.824
49.09000 151.581
49.10000 150.443
49.11000 149.645
49.12000 151.695
49.13000 156.868
49.14000 162.020
49.15000 163.786
49.16000 163.128
49.17000 162.483
49.18000 164.215
49.19000 166.991
49.20000 169.301
49.21000 164.759
49.22000 157.943
49.23000 151.721
49.24000 150.440
49.25000 150.264
49.26000 150.113
49.27000 154.256
49.28000 158.279
49.29000 160.542
49.30000 156.660
49.31000 152.250
49.32000 150.381
49.33000 154.562
49.34000 159.002
49.35000 161.765
49.36000 162.263
49.37000 162.600
49.38000 160.111
49.39000 154.575
49.40000 149.071
49.41000 148.049
49.42000 150.187
49.43000 152.280
49.44000 152.388
49.45000 151.582
49.46000 150.907
49.47000 152.128
49.48000 153.970
49.49000 155.185
49.50000 151.282
49.51000 146.252
49.52000 141.952
49.53000 146.617
49.54000 151.623
49.55000 155.233
49.56000 154.044
49.57000 152.452
49.58000 151.947
49.59000 153.993
49.60000 156.144
49.61000 157.475
49.62000 154.919
49.63000 153.047
49.64000 151.351
49.65000 149.844
49.66000 148.369
49.67000 150.844
49.68000 156.061
49.69000 161.166
49.70000 161.655
49.71000 160.039
49.72000 158.513
49.73000 158.253
49.74000 158.402
49.75000 158.242
49.76000 155.614
49.77000 152.451
49.78000 149.754
49.79000 151.804
49.80000 154.085
49.81000 156.674
49.82000 160.304
49.83000 164.020
49.84000 166.242
49.85000 165.010
49.86000 163.638
49.87000 162.796
49.88000 159.414
49.89000 156.967
49.90000 153.359
49.91000 148.540
49.92000 143.772
49.93000 144.949
49.94000 150.190
49.95000 155.313
49.96000 153.899
49.97000 149.634
49.98000 145.605
49.99000 144.814
50.00000 145.052
50.01000 145.606
50.02000 148.653
50.03000 152.231
50.04000 155.274
50.05000 157.089
50.06000 158.472
50.07000 160.468
50.08000 164.510
50.09000 168.716
50.10000 170.798
50.11000 168.036
50.12000 165.087
50.13000 163.284
50.14000 165.902
50.15000 167.811
50.16000 169.741
50.17000 171.693
50.18000 173.608
50.19000 171.532
50.20000 166.767
50.21000 162.114
50.22000 162.245
50.23000 164.467
50.24000 166.364
50.25000 163.925
50.26000 160.130
50.27000 157.216
50.28000 161.090
50.29000 166.391
50.30000 170.885
50.31000 164.572
50.32000 158.061
50.33000 153.369
50.34000 154.657
50.35000 156.414
50.36000 159.463
50.37000 165.414
50.38000 171.474
50.39000 175.154
50.40000 166.785
50.41000 160.721
50.42000 160.005
50.43000 164.682
50.44000 169.341
50.45000 172.338
50.46000 174.232
50.47000 176.080
50.48000 177.350
50.49000 178.315
50.50000 179.201
50.51000 179.067
50.52000 178.619
50.53000 178.339
50.54000 179.333
50.55000 180.591
50.56000 181.654
50.57000 186.876
50.58000 191.704
50.59000 195.467
50.60000 195.774
50.61000 195.817
50.62000 198.187
50.63000 205.709
50.64000 213.419
50.65000 218.070
50.66000 224.465
50.67000 229.031
50.68000 229.422
50.69000 225.676
50.70000 221.971
50.71000 222.066
50.72000 224.644
50.73000 227.156
50.74000 225.733
50.75000 222.706
50.76000 220.200
50.77000 224.344
50.78000 230.509
50.79000 236.021
50.80000 236.684
50.81000 236.361
50.82000 236.088
50.83000 234.507
50.84000 233.046
50.85000 231.592
50.86000 230.164
50.87000 228.737
50.88000 225.874
50.89000 219.876
50.90000 213.768
50.91000 210.106
50.92000 205.160
50.93000 201.639
50.94000 198.358
50.95000 195.312
50.96000 192.310
50.97000 193.069
50.98000 196.248
50.99000 199.344
51.00000 198.743
51.01000 196.628
51.02000 194.575
51.03000 193.313
51.04000 192.288
51.05000 190.598
51.06000 184.060
51.07000 176.551
51.08000 170.238
51.09000 167.914
51.10000 166.400
51.11000 165.213
51.12000 165.054
51.13000 164.971
51.14000 166.705
51.15000 172.352
51.16000 178.130
51.17000 181.573
51.18000 173.324
51.19000 167.408
51.20000 167.403
51.21000 173.061
51.22000 178.598
51.23000 174.268
51.24000 163.680
51.25000 153.382
51.26000 155.395
51.27000 162.372
51.28000 168.927
51.29000 170.349
51.30000 170.256
51.31000 169.849
51.32000 167.193
51.33000 164.094
51.34000 161.496
51.35000 160.450
51.36000 159.742
51.37000 159.196
51.38000 159.154
51.39000 159.149
51.40000 157.447
51.41000 152.149
51.42000 146.734
51.43000 143.528
51.44000 149.715
51.45000 154.141
51.46000 156.156
51.47000 155.899
51.48000 155.682
51.49000 158.540
51.50000 163.320
51.51000 167.964
51.52000 165.954
51.53000 161.351
51.54000 157.090
51.55000 156.888
51.56000 157.866
51.57000 158.309
51.58000 154.989
51.59000 150.939
51.60000 147.555
51.61000 144.042
51.62000 141.112
51.63000 139.894
51.64000 143.903
51.65000 148.275
51.66000 150.517
51.67000 148.306
51.68000 145.955
51.69000 144.572
51.70000 145.095
51.71000 145.473
51.72000 143.220
51.73000 138.527
51.74000 133.909
51.75000 134.619
51.76000 138.608
51.77000 142.479
51.78000 140.652
51.79000 136.650
51.80000 133.131
51.81000 135.231
51.82000 138.941
51.83000 142.297
51.84000 143.208
51.85000 143.653
51.86000 144.024
51.87000 136.621
51.88000 129.711
51.89000 126.039
51.90000 132.120
51.91000 138.862
51.92000 144.664
51.93000 148.533
51.94000 152.343
51.95000 154.569
51.96000 155.795
51.97000 156.651
51.98000 155.402
51.99000 152.233
52.00000 149.083
52.01000 147.287
52.02000 146.312
52.03000 145.367
52.04000 147.045
52.05000 149.662
52.06000 152.047
52.07000 151.794
52.08000 150.797
52.09000 149.789
52.10000 148.707
52.11000 147.611
52.12000 146.700
52.13000 143.548
52.14000 140.722
52.15000 138.479
52.16000 137.967
52.17000 137.569
52.18000 138.529
52.19000 142.247
52.20000 146.046
52.21000 148.250
52.22000 145.920
52.23000 144.264
52.24000 141.450
52.25000 137.597
52.26000 133.805
52.27000 133.886
52.28000 136.281
52.29000 138.601
52.30000 143.209
52.31000 148.450
52.32000 153.127
52.33000 151.533
52.34000 148.195
52.35000 144.851
52.36000 141.467
52.37000 138.076
52.38000 135.267
52.39000 141.433
52.40000 147.380
52.41000 151.190
52.42000 148.748
52.43000 145.904
52.44000 144.296
52.45000 145.163
52.46000 146.100
52.47000 146.639
52.48000 145.084
52.49000 143.985
52.50000 140.958
52.51000 136.229
52.52000 131.581
52.53000 131.823
52.54000 134.941
52.55000 137.958
52.56000 140.807
52.57000 143.433
52.58000 145.593
52.59000 142.678
52.60000 138.374
52.61000 134.851
52.62000 136.452
52.63000 138.983
52.64000 141.073
52.65000 138.508
52.66000 135.959
52.67000 134.333
52.68000 135.369
52.69000 136.572
52.70000 139.888
52.71000 147.371
52.72000 154.965
52.73000 159.313
52.74000 146.854
52.75000 138.100
52.76000 134.478
52.77000 135.311
52.78000 136.155
52.79000 137.651
52.80000 139.525
52.81000 141.335
52.82000 141.186
52.83000 140.314
52.84000 139.449
52.85000 138.658
52.86000 137.887
52.87000 137.341
52.88000 138.234
52.89000 139.385
52.90000 140.332
52.91000 144.239
52.92000 147.723
52.93000 149.634
52.94000 147.077
52.95000 144.247
52.96000 143.231
52.97000 145.743
52.98000 148.345
52.99000 149.825
53.00000 154.867
53.01000 158.386
53.02000 158.298
53.03000 155.130
53.04000 152.000
53.05000 150.951
53.06000 151.093
53.07000 151.229
53.08000 151.172
53.09000 151.047
53.10000 150.607
53.11000 146.889
53.12000 142.299
53.13000 138.889
53.14000 142.946
53.15000 148.315
53.16000 152.722
53.17000 150.409
53.18000 147.910
53.19000 146.246
53.20000 146.921
53.21000 147.735
53.22000 148.516
53.23000 149.233
53.24000 149.948
53.25000 150.352
53.26000 148.040
53.27000 146.430
53.28000 146.931
53.29000 149.205
53.30000 151.420
53.31000 150.578
53.32000 148.015
53.33000 145.545
53.34000 147.344
53.35000 150.581
53.36000 153.365
53.37000 151.519
53.38000 148.461
53.39000 145.852
53.40000 146.030
53.41000 146.689
53.42000 147.229
53.43000 150.165
53.44000 152.781
53.45000 155.302
53.46000 157.562
53.47000 159.806
53.48000 159.520
53.49000 154.454
53.50000 149.276
53.51000 146.373
53.52000 151.817
53.53000 155.604
53.54000 156.295
53.55000 154.424
53.56000 152.600
53.57000 153.051
53.58000 154.764
53.59000 156.413
53.60000 153.220
53.61000 148.498
53.62000 144.063
53.63000 142.492
53.64000 141.661
53.65000 141.082
53.66000 142.045
53.67000 143.269
53.68000 144.268
53.69000 145.472
53.70000 146.474
53.71000 146.403
53.72000 143.414
53.73000 140.260
53.74000 139.980
53.75000 145.048
53.76000 150.237
53.77000 153.125
53.78000 149.369
53.79000 146.760
53.80000 145.129
53.81000 144.292
53.82000 143.494
53.83000 144.491
53.84000 146.469
53.85000 148.372
53.86000 144.854
53.87000 139.657
53.88000 135.408
53.89000 140.443
53.90000 147.836
53.91000 154.090
53.92000 153.507
53.93000 151.782
53.94000 150.380
53.95000 147.898
53.96000 145.783
53.97000 144.073
53.98000 143.451
53.99000 142.889
54.00000 141.172
54.01000 137.339
54.02000 133.460
54.03000 131.317
54.04000 137.077
54.05000 141.053
54.06000 141.468
54.07000 139.029
54.08000 136.692
54.09000 138.904
54.10000 143.568
54.11000 148.049
54.12000 145.875
54.13000 141.545
54.14000 137.864
54.15000 140.409
54.16000 144.511
54.17000 147.622
54.18000 144.875
54.19000 141.167
54.20000 138.162
54.21000 142.738
54.22000 147.086
54.23000 148.062
54.24000 140.127
54.25000 131.716
54.26000 127.709
54.27000 131.658
54.28000 135.769
54.29000 138.024
54.30000 142.230
54.31000 145.114
54.32000 144.569
54.33000 141.319
54.34000 138.115
54.35000 136.866
54.36000 136.656
54.37000 136.454
54.38000 142.788
54.39000 150.925
54.40000 158.032
54.41000 155.452
54.42000 150.488
54.43000 145.863
54.44000 143.211
54.45000 140.877
54.46000 138.991
54.47000 138.939
54.48000 139.044
54.49000 139.062
54.50000 138.853
54.51000 138.632
54.52000 138.052
54.53000 136.833
54.54000 135.603
54.55000 134.932
54.56000 134.857
54.57000 134.818
54.58000 137.808
54.59000 143.150
54.60000 148.356
54.61000 147.942
54.62000 144.588
54.63000 141.374
54.64000 141.594
54.65000 142.946
54.66000 144.188
54.67000 144.409
54.68000 144.383
54.69000 143.960
54.70000 141.269
54.71000 138.219
54.72000 135.763
54.73000 136.145
54.74000 136.677
54.75000 136.475
54.76000 134.385
54.77000 132.200
54.78000 131.456
54.79000 133.240
54.80000 135.070
54.81000 136.059
54.82000 141.857
54.83000 145.816
54.84000 146.310
54.85000 144.155
54.86000 142.012
54.87000 140.291
54.88000 138.788
54.89000 137.350
54.90000 137.010
54.91000 137.055
54.92000 137.454
54.93000 141.046
54.94000 145.401
54.95000 148.595
54.96000 145.270
54.97000 140.929
54.98000 137.445
54.99000 134.838
55.00000 132.794
55.01000 133.016
55.02000 138.974
55.03000 145.212
55.04000 148.609
55.05000 147.095
55.06000 145.495
55.07000 144.637
55.08000 144.903
55.09000 145.093
55.10000 146.942
55.11000 150.040
55.12000 153.052
55.13000 152.824
55.14000 150.950
55.15000 149.159
55.16000 147.562
55.17000 146.139
55.18000 144.954
55.19000 145.877
55.20000 147.296
55.21000 148.357
55.22000 147.444
55.23000 146.229
55.24000 145.257
55.25000 144.175
55.26000 143.292
55.27000 143.419
55.28000 146.065
55.29000 148.831
55.30000 150.838
55.31000 151.554
55.32000 152.248
55.33000 152.617
55.34000 167.456
55.35000 177.522
55.36000 178.932
55.37000 173.930
55.38000 169.006
55.39000 166.921
55.40000 166.259
55.41000 165.627
55.42000 166.606
55.43000 168.028
55.44000 169.464
55.45000 171.016
55.46000 172.596
55.47000 173.989
55.48000 174.367
55.49000 174.591
55.50000 174.770
55.51000 176.630
55.52000 178.254
55.53000 180.207
55.54000 182.973
55.55000 185.776
55.56000 188.529
55.57000 191.198
55.58000 193.867
55.59000 195.276
55.60000 192.841
55.61000 191.219
55.62000 195.047
55.63000 202.850
55.64000 210.684
55.65000 219.541
55.66000 228.905
55.67000 237.830
55.68000 242.600
55.69000 245.721
55.70000 250.059
55.71000 264.756
55.72000 281.815
55.73000 297.664
55.74000 307.040
55.75000 315.460
55.76000 322.149
55.77000 330.644
55.78000 337.613
55.79000 346.425
55.80000 359.705
55.81000 373.184
55.82000 387.517
55.83000 403.262
55.84000 419.028
55.85000 427.288
55.86000 442.702
55.87000 453.154
55.88000 465.159
55.89000 478.280
55.90000 491.353
55.91000 502.784
55.92000 513.418
55.93000 523.539
55.94000 529.133
55.95000 532.917
55.96000 537.013
55.97000 543.725
55.98000 551.023
55.99000 556.349
56.00000 551.307
56.01000 544.759
56.02000 539.574
56.03000 547.210
56.04000 554.238
56.05000 555.390
56.06000 542.514
56.07000 529.031
56.08000 514.594
56.09000 498.603
56.10000 482.589
56.11000 474.266
56.12000 446.435
56.13000 427.698
56.14000 418.010
56.15000 414.722
56.16000 411.379
56.17000 406.272
56.18000 400.318
56.19000 394.659
56.20000 378.438
56.21000 360.246
56.22000 342.991
56.23000 333.417
56.24000 325.540
56.25000 317.680
56.26000 309.911
56.27000 302.154
56.28000 296.034
56.29000 290.828
56.30000 286.714
56.31000 279.931
56.32000 266.865
56.33000 253.537
56.34000 247.126
56.35000 251.813
56.36000 256.648
56.37000 259.141
56.38000 236.978
56.39000 222.104
56.40000 214.772
56.41000 212.696
56.42000 210.582
56.43000 207.328
56.44000 203.535
56.45000 199.934
56.46000 195.781
56.47000 191.783
56.48000 187.899
56.49000 184.921
56.50000 182.140
56.51000 179.815
56.52000 179.809
56.53000 180.127
56.54000 180.377
56.55000 182.035
56.56000 183.455
56.57000 181.306
56.58000 170.879
56.59000 160.115
56.60000 154.752
56.61000 157.925
56.62000 161.204
56.63000 162.881
56.64000 160.390
56.65000 158.727
56.66000 158.292
56.67000 158.700
56.68000 159.136
56.69000 160.407
56.70000 162.066
56.71000 163.639
56.72000 161.921
56.73000 159.373
56.74000 156.838
56.75000 154.402
56.76000 151.988
56.77000 149.611
56.78000 147.417
56.79000 145.247
56.80000 143.548
56.81000 144.180
56.82000 144.836
56.83000 145.163
56.84000 144.737
56.85000 144.283
56.86000 144.933
56.87000 147.304
56.88000 149.696
56.89000 150.909
56.90000 142.673
56.91000 137.214
56.92000 138.136
56.93000 143.370
56.94000 148.446
56.95000 148.966
56.96000 147.395
56.97000 145.908
56.98000 146.982
56.99000 148.710
57.00000 150.211
57.01000 149.964
57.02000 149.349
57.03000 148.189
57.04000 144.347
57.05000 140.142
57.06000 136.859
57.07000 131.911
57.08000 127.861
57.09000 125.855
57.10000 128.459
57.11000 131.237
57.12000 131.833
57.13000 129.082
57.14000 126.295
57.15000 124.893
57.16000 129.892
57.17000 133.197
57.18000 133.018
57.19000 130.518
57.20000 128.124
57.21000 128.625
57.22000 130.436
57.23000 132.148
57.24000 131.705
57.25000 130.687
57.26000 129.938
57.27000 131.228
57.28000 132.942
57.29000 133.835
57.30000 130.748
57.31000 127.133
57.32000 124.322
57.33000 129.086
57.34000 133.342
57.35000 135.963
57.36000 134.951
57.37000 133.807
57.38000 133.594
57.39000 134.790
57.40000 136.000
57.41000 135.009
57.42000 131.827
57.43000 128.665
57.44000 127.308
57.45000 127.134
57.46000 126.970
57.47000 127.075
57.48000 127.299
57.49000 127.511
57.50000 130.381
57.51000 133.755
57.52000 136.363
57.53000 133.260
57.54000 128.991
57.55000 125.309
57.56000 124.426
57.57000 123.907
57.58000 123.504
57.59000 121.748
57.60000 120.272
57.61000 120.680
57.62000 125.215
57.63000 129.895
57.64000 130.701
57.65000 125.740
57.66000 120.724
57.67000 120.230
57.68000 124.159
57.69000 128.063
57.70000 129.701
57.71000 129.876
57.72000 129.983
57.73000 128.318
57.74000 125.875
57.75000 123.573
57.76000 121.894
57.77000 120.528
57.78000 119.472
57.79000 120.686
57.80000 122.356
57.81000 123.470
57.82000 121.967
57.83000 120.131
57.84000 118.713
57.85000 121.916
57.86000 124.724
57.87000 126.998
57.88000 128.116
57.89000 129.196
57.90000 128.092
57.91000 123.788
57.92000 119.456
57.93000 118.677
57.94000 121.314
57.95000 123.938
57.96000 125.487
57.97000 126.351
57.98000 127.305
57.99000 130.498
58.00000 134.660
58.01000 138.576
58.02000 135.509
58.03000 130.819
58.04000 126.789
58.05000 127.495
58.06000 129.137
58.07000 130.233
58.08000 128.802
58.09000 127.054
58.10000 125.709
58.11000 126.718
58.12000 127.649
58.13000 127.436
58.14000 124.788
58.15000 122.060
58.16000 122.313
58.17000 126.869
58.18000 131.460
58.19000 132.276
58.20000 129.522
58.21000 126.775
58.22000 124.534
58.23000 122.609
58.24000 120.815
58.25000 122.200
58.26000 124.942
58.27000 127.517
58.28000 125.844
58.29000 123.188
58.30000 121.121
58.31000 123.207
58.32000 126.100
58.33000 128.257
58.34000 127.062
58.35000 125.454
58.36000 124.221
58.37000 125.205
58.38000 126.104
58.39000 125.494
58.40000 121.718
58.41000 117.842
58.42000 115.802
58.43000 116.373
58.44000 116.963
58.45000 120.669
58.46000 127.272
58.47000 133.753
58.48000 131.350
58.49000 123.462
58.50000 115.887
58.51000 115.646
58.52000 118.492
58.53000 121.161
58.54000 123.177
58.55000 124.841
58.56000 125.894
58.57000 122.704
58.58000 118.702
58.59000 115.804
58.60000 117.848
58.61000 120.489
58.62000 122.505
58.63000 127.191
58.64000 131.028
58.65000 131.084
58.66000 123.326
58.67000 115.331
58.68000 110.783
58.69000 111.064
58.70000 111.379
58.71000 113.379
58.72000 116.920
58.73000 120.404
58.74000 120.078
58.75000 117.432
58.76000 114.991
58.77000 117.204
58.78000 121.349
58.79000 125.229
58.80000 127.651
58.81000 129.479
58.82000 130.544
58.83000 126.422
58.84000 121.322
58.85000 117.314
58.86000 118.118
58.87000 119.492
58.88000 120.537
58.89000 122.254
58.90000 123.639
58.91000 124.473
58.92000 124.185
58.93000 123.865
58.94000 124.447
58.95000 126.275
58.96000 128.110
58.97000 126.260
58.98000 121.100
58.99000 116.014
59.00000 115.724
59.01000 118.308
59.02000 120.874
59.03000 123.018
59.04000 124.988
59.05000 126.830
59.06000 129.430
59.07000 131.981
59.08000 134.174
59.09000 133.971
59.10000 133.324
59.11000 132.426
59.12000 130.433
59.13000 128.313
59.14000 126.707
59.15000 123.881
59.16000 121.602
59.17000 119.827
59.18000 119.066
59.19000 118.333
59.20000 119.163
59.21000 122.116
59.22000 125.079
59.23000 125.062
59.24000 122.411
59.25000 119.820
59.26000 120.957
59.27000 124.295
59.28000 127.544
59.29000 128.880
59.30000 129.446
59.31000 129.973
59.32000 127.014
59.33000 123.466
59.34000 120.374
59.35000 120.285
59.36000 120.743
59.37000 120.946
59.38000 120.061
59.39000 119.053
59.40000 118.292
59.41000 120.227
59.42000 121.876
59.43000 123.407
59.44000 124.705
59.45000 125.996
59.46000 125.347
59.47000 122.104
59.48000 118.849
59.49000 118.390
59.50000 120.361
59.51000 122.299
59.52000 122.263
59.53000 121.079
59.54000 119.893
59.55000 118.651
59.56000 117.388
59.57000 116.211
59.58000 114.214
59.59000 112.207
59.60000 110.384
59.61000 109.752
59.62000 109.335
59.63000 109.200
59.64000 110.257
59.65000 111.447
59.66000 112.342
59.67000 112.003
59.68000 111.679
59.69000 112.223
59.70000 114.461
59.71000 116.742
59.72000 117.908
59.73000 117.605
59.74000 117.295
59.75000 116.391
59.76000 114.981
59.77000 113.636
59.78000 115.903
59.79000 120.240
59.80000 124.334
59.81000 123.544
59.82000 120.840
59.83000 118.327
59.84000 118.479
59.85000 119.258
59.86000 119.402
59.87000 115.516
59.88000 110.920
59.89000 107.699
59.90000 110.181
59.91000 113.286
59.92000 115.611
59.93000 114.774
59.94000 113.974
59.95000 113.023
59.96000 111.783
59.97000 110.536
59.98000 111.280
59.99000 114.605
60.00000 117.937
60.01000 118.379
60.02000 116.387
60.03000 114.468
60.04000 116.350
60.05000 120.381
60.06000 124.212
60.07000 124.149
60.08000 122.583
60.09000 121.129
60.10000 118.765
60.11000 116.419
60.12000 114.644
60.13000 116.436
60.14000 118.845
60.15000 120.772
60.16000 120.726
60.17000 120.469
60.18000 120.278
60.19000 119.942
60.20000 119.674
60.21000 118.763
60.22000 116.637
60.23000 114.482
60.24000 113.469
60.25000 113.913
60.26000 114.361
60.27000 116.597
60.28000 120.304
60.29000 123.927
60.30000 123.306
60.31000 120.324
60.32000 117.447
60.33000 116.563
60.34000 116.437
60.35000 116.320
60.36000 117.352
60.37000 118.547
60.38000 119.533
60.39000 119.231
60.40000 118.710
60.41000 118.664
60.42000 120.529
60.43000 122.595
60.44000 124.129
60.45000 120.622
60.46000 117.675
60.47000 115.715
60.48000 115.598
60.49000 115.523
60.50000 114.720
60.51000 113.003
60.52000 111.286
60.53000 112.040
60.54000 114.803
60.55000 117.519
60.56000 117.988
60.57000 117.225
60.58000 116.465
60.59000 115.761
60.60000 115.079
60.61000 114.447
60.62000 118.905
60.63000 124.074
60.64000 128.573
60.65000 129.032
60.66000 128.814
60.67000 128.085
60.68000 125.333
60.69000 122.372
60.70000 120.183
60.71000 121.154
60.72000 122.042
60.73000 122.354
60.74000 121.608
60.75000 120.838
60.76000 119.379
60.77000 117.067
60.78000 114.756
60.79000 117.457
60.80000 124.159
60.81000 130.726
60.82000 131.190
60.83000 128.356
60.84000 125.686
60.85000 125.956
60.86000 127.313
60.87000 128.566
60.88000 122.141
60.89000 114.652
60.90000 108.839
60.91000 112.961
60.92000 118.720
60.93000 123.029
60.94000 121.683
60.95000 119.766
60.96000 118.355
60.97000 118.731
60.98000 119.097
60.99000 118.865
61.00000 117.553
61.01000 116.218
61.02000 117.515
61.03000 122.014
61.04000 126.511
61.05000 129.628
61.06000 131.642
61.07000 133.539
61.08000 130.358
61.09000 124.471
61.10000 118.774
61.11000 116.391
61.12000 115.216
61.13000 114.132
61.14000 117.582
61.15000 121.673
61.16000 125.458
61.17000 127.460
61.18000 129.173
61.19000 130.528
61.20000 130.509
61.21000 130.355
61.22000 130.241
61.23000 122.303
61.24000 115.856
61.25000 112.870
61.26000 116.067
61.27000 119.385
61.28000 121.783
61.29000 123.079
61.30000 124.369
61.31000 123.846
61.32000 121.921
61.33000 120.032
61.34000 119.651
61.35000 120.062
61.36000 120.450
61.37000 120.473
61.38000 120.365
61.39000 120.265
61.40000 127.189
61.41000 134.905
61.42000 141.160
61.43000 139.041
61.44000 135.589
61.45000 133.181
61.46000 134.725
61.47000 136.652
61.48000 138.058
61.49000 146.896
61.50000 153.999
61.51000 162.221
61.52000 172.409
61.53000 182.635
61.54000 197.211
61.55000 216.914
61.56000 236.577
61.57000 253.580
61.58000 268.452
61.59000 283.268
61.60000 295.827
61.61000 307.219
61.62000 318.480
61.63000 327.569
61.64000 335.890
61.65000 343.532
61.66000 343.820
61.67000 342.504
61.68000 342.122
61.69000 347.005
61.70000 352.710
61.71000 356.976
61.72000 355.872
61.73000 354.259
61.74000 353.087
61.75000 329.475
61.76000 310.460
61.77000 293.216
61.78000 279.043
61.79000 264.925
61.80000 249.092
61.81000 231.270
61.82000 213.494
61.83000 197.229
61.84000 182.207
61.85000 167.399
61.86000 160.718
61.87000 158.181
61.88000 155.638
61.89000 152.986
61.90000 150.296
61.91000 147.830
61.92000 144.754
61.93000 141.886
61.94000 139.328
61.95000 138.491
61.96000 137.918
61.97000 136.934
61.98000 134.437
61.99000 131.800
62.00000 129.892
62.01000 134.646
62.02000 138.540
62.03000 141.012
62.04000 141.056
62.05000 141.058
62.06000 140.353
62.07000 138.839
62.08000 137.329
62.09000 134.366
62.10000 130.353
62.11000 126.536
62.12000 129.814
62.13000 136.659
62.14000 142.982
62.15000 141.134
62.16000 136.476
62.17000 132.216
62.18000 131.462
62.19000 131.516
62.20000 131.583
62.21000 131.723
62.22000 131.874
62.23000 133.007
62.24000 137.700
62.25000 142.714
62.26000 146.328
62.27000 137.848
62.28000 130.922
62.29000 127.779
62.30000 131.003
62.31000 134.330
62.32000 135.859
62.33000 135.372
62.34000 134.884
62.35000 133.539
62.36000 131.582
62.37000 129.731
62.38000 131.593
62.39000 135.295
62.40000 138.735
62.41000 138.183
62.42000 136.279
62.43000 134.540
62.44000 135.787
62.45000 137.500
62.46000 138.978
62.47000 139.201
62.48000 139.237
62.49000 139.070
62.50000 138.184
62.51000 137.234
62.52000 136.553
62.53000 142.284
62.54000 146.886
62.55000 148.489
62.56000 145.117
62.57000 141.670
62.58000 138.030
62.59000 134.176
62.60000 130.337
62.61000 129.794
62.62000 131.611
62.63000 133.371
62.64000 133.199
62.65000 132.083
62.66000 131.126
62.67000 132.534
62.68000 134.732
62.69000 136.735
62.70000 136.185
62.71000 135.188
62.72000 134.437
62.73000 134.983
62.74000 135.718
62.75000 135.710
62.76000 133.091
62.77000 130.245
62.78000 128.212
62.79000 134.596
62.80000 139.747
62.81000 142.572
62.82000 141.598
62.83000 140.569
62.84000 139.077
62.85000 137.083
62.86000 135.097
62.87000 134.610
62.88000 135.180
62.89000 135.693
62.90000 134.361
62.91000 132.139
62.92000 130.127
62.93000 131.154
62.94000 133.179
62.95000 135.022
62.96000 136.193
62.97000 137.098
62.98000 138.145
62.99000 139.933
63.00000 141.827
63.01000 143.760
63.02000 145.833
63.03000 147.917
63.04000 149.399
63.05000 147.845
63.06000 146.565
63.07000 144.719
63.08000 141.963
63.09000 139.194
63.10000 135.726
63.11000 131.510
63.12000 127.313
63.13000 129.082
63.14000 134.958
63.15000 140.699
63.16000 142.233
63.17000 141.771
63.18000 141.099
63.19000 137.433
63.20000 132.797
63.21000 128.589
63.22000 134.732
63.23000 142.151
63.24000 148.105
63.25000 146.579
63.26000 144.002
63.27000 141.619
63.28000 139.896
63.29000 138.229
63.30000 137.049
63.31000 138.607
63.32000 139.876
63.33000 139.951
63.34000 138.133
63.35000 136.292
63.36000 135.493
63.37000 135.790
63.38000 136.085
63.39000 137.774
63.40000 140.393
63.41000 142.938
63.42000 143.262
63.43000 142.548
63.44000 141.799
63.45000 140.556
63.46000 139.155
63.47000 137.886
63.48000 140.386
63.49000 143.303
63.50000 145.055
63.51000 140.956
63.52000 136.050
63.53000 132.525
63.54000 133.643
63.55000 135.137
63.56000 136.189
63.57000 141.800
63.58000 146.191
63.59000 148.097
63.60000 146.119
63.61000 144.095
63.62000 143.222
63.63000 143.538
63.64000 143.853
63.65000 144.344
63.66000 144.948
63.67000 145.491
63.68000 144.250
63.69000 142.188
63.70000 140.348
63.71000 141.507
63.72000 143.610
63.73000 145.511
63.74000 144.741
63.75000 143.567
63.76000 142.058
63.77000 138.894
63.78000 135.505
63.79000 134.400
63.80000 140.851
63.81000 147.901
63.82000 152.845
63.83000 154.058
63.84000 154.868
63.85000 153.478
63.86000 148.703
63.87000 143.891
63.88000 144.658
63.89000 151.093
63.90000 157.491
63.91000 157.569
63.92000 153.482
63.93000 149.520
63.94000 149.043
63.95000 150.149
63.96000 151.481
63.97000 155.802
63.98000 161.049
63.99000 165.783
64.00000 165.213
64.01000 163.743
64.02000 161.891
64.03000 158.182
64.04000 154.226
64.05000 151.293
64.06000 151.696
64.07000 152.356
64.08000 152.817
64.09000 151.323
64.10000 150.140
64.11000 149.764
64.12000 150.613
64.13000 151.475
64.14000 151.286
64.15000 150.048
64.16000 148.818
64.17000 148.429
64.18000 148.591
64.19000 148.823
64.20000 150.965
64.21000 153.960
64.22000 156.845
64.23000 158.312
64.24000 159.344
64.25000 160.274
64.26000 156.000
64.27000 151.318
64.28000 148.491
64.29000 154.551
64.30000 161.773
64.31000 167.312
64.32000 167.443
64.33000 167.166
64.34000 166.974
64.35000 165.252
64.36000 163.914
64.37000 162.490
64.38000 160.940
64.39000 159.388
64.40000 160.839
64.41000 165.239
64.42000 169.608
64.43000 169.843
64.44000 167.436
64.45000 165.059
64.46000 163.478
64.47000 162.247
64.48000 161.134
64.49000 161.483
64.50000 162.274
64.51000 162.985
64.52000 165.452
64.53000 167.921
64.54000 169.915
64.55000 169.669
64.56000 169.136
64.57000 168.893
64.58000 169.569
64.59000 170.312
64.60000 170.826
64.61000 174.414
64.62000 177.191
64.63000 179.217
64.64000 180.138
64.65000 181.050
64.66000 181.288
64.67000 180.878
64.68000 180.470
64.69000 181.396
64.70000 183.143
64.71000 184.847
64.72000 185.446
64.73000 185.565
64.74000 185.474
64.75000 182.810
64.76000 179.381
64.77000 176.308
64.78000 179.411
64.79000 183.191
64.80000 186.778
64.81000 189.462
64.82000 192.032
64.83000 194.097
64.84000 194.586
64.85000 194.961
64.86000 195.219
64.87000 192.376
64.88000 190.166
64.89000 189.321
64.90000 190.455
64.91000 191.606
64.92000 193.329
64.93000 195.594
64.94000 197.842
64.95000 196.352
64.96000 192.578
64.97000 189.080
64.98000 192.325
64.99000 198.460
65.00000 203.987
65.01000 202.226
65.02000 198.332
65.03000 194.849
65.04000 200.464
65.05000 206.909
65.06000 212.197
65.07000 212.202
65.08000 211.555
65.09000 211.991
65.10000 215.759
65.11000 219.760
65.12000 222.500
65.13000 223.617
65.14000 224.415
65.15000 227.099
65.16000 232.473
65.17000 237.866
65.18000 241.221
65.19000 242.673
65.20000 244.113
65.21000 250.409
65.22000 259.544
65.23000 268.248
65.24000 266.780
65.25000 261.015
65.26000 255.938
65.27000 258.944
65.28000 264.280
65.29000 269.042
65.30000 271.133
65.31000 272.506
65.32000 275.447
65.33000 285.438
65.34000 296.282
65.35000 306.560
65.36000 315.118
65.37000 323.559
65.38000 329.308
65.39000 334.234
65.40000 337.896
65.41000 347.103
65.42000 364.102
65.43000 381.151
65.44000 391.853
65.45000 396.726
65.46000 401.556
65.47000 413.214
65.48000 428.734
65.49000 443.865
65.50000 450.120
65.51000 452.680
65.52000 455.688
65.53000 463.844
65.54000 473.461
65.55000 482.025
65.56000 494.320
65.57000 505.615
65.58000 518.505
65.59000 538.454
65.60000 559.242
65.61000 581.590
65.62000 608.597
65.63000 635.916
65.64000 654.432
65.65000 687.586
65.66000 712.627
65.67000 763.387
65.68000 849.727
65.69000 936.307
65.70000 1044.654
65.71000 1172.662
65.72000 1299.460
65.73000 1448.435
65.74000 1607.434
65.75000 1765.190
65.76000 1895.442
65.77000 2014.407
65.78000 2133.036
65.79000 2247.896
65.80000 2361.701
65.81000 2462.815
65.82000 2496.673
65.83000 2515.198
65.84000 2532.675
65.85000 2545.581
65.86000 2557.955
65.87000 2560.190
65.88000 2532.583
65.89000 2503.031
65.90000 2483.103
65.91000 2451.400
65.92000 2427.565
65.93000 2354.292
65.94000 2213.669
65.95000 2072.648
65.96000 1921.442
65.97000 1761.185
65.98000 1602.539
65.99000 1430.534
66.00000 1254.481
66.01000 1080.865
66.02000 959.589
66.03000 859.482
66.04000 762.540
66.05000 700.383
66.06000 647.812
66.07000 601.209
66.08000 557.517
66.09000 520.151
66.10000 486.861
66.11000 471.062
66.12000 457.262
66.13000 447.231
66.14000 448.131
66.15000 449.726
66.16000 450.795
66.17000 444.467
66.18000 439.620
66.19000 436.760
66.20000 436.566
66.21000 436.395
66.22000 443.603
66.23000 457.263
66.24000 470.777
66.25000 484.937
66.26000 499.145
66.27000 514.128
66.28000 545.243
66.29000 582.789
66.30000 618.911
66.31000 639.722
66.32000 656.375
66.33000 671.104
66.34000 699.181
66.35000 725.521
66.36000 746.933
66.37000 747.526
66.38000 745.786
66.39000 745.807
66.40000 750.863
66.41000 756.231
66.42000 759.814
66.43000 755.777
66.44000 752.639
66.45000 747.021
66.46000 738.129
66.47000 729.216
66.48000 716.252
66.49000 699.802
66.50000 683.538
66.51000 653.329
66.52000 616.007
66.53000 579.316
66.54000 555.378
66.55000 536.452
66.56000 517.697
66.57000 500.738
66.58000 484.260
66.59000 469.721
66.60000 459.942
66.61000 452.234
66.62000 442.926
66.63000 426.967
66.64000 410.277
66.65000 398.220
66.66000 399.216
66.67000 400.998
66.68000 402.182
66.69000 400.444
66.70000 399.105
66.71000 397.381
66.72000 395.158
66.73000 392.936
66.74000 392.870
66.75000 394.629
66.76000 396.367
66.77000 396.453
66.78000 395.624
66.79000 394.958
66.80000 397.469
66.81000 401.212
66.82000 404.673
66.83000 405.228
66.84000 405.018
66.85000 404.833
66.86000 403.343
66.87000 401.866
66.88000 400.666
66.89000 400.607
66.90000 400.671
66.91000 401.985
66.92000 406.775
66.93000 411.768
66.94000 415.066
66.95000 410.212
66.96000 406.487
66.97000 408.052
66.98000 416.390
66.99000 424.735
67.00000 424.638
67.01000 417.510
67.02000 410.471
67.03000 413.319
67.04000 421.469
67.05000 429.155
67.06000 427.993
67.07000 423.452
67.08000 419.189
67.09000 417.722
67.10000 416.980
67.11000 416.329
67.12000 424.128
67.13000 432.074
67.14000 437.443
67.15000 432.411
67.16000 426.281
67.17000 424.255
67.18000 433.462
67.19000 443.309
67.20000 449.779
67.21000 450.409
67.22000 450.774
67.23000 448.774
67.24000 443.794
67.25000 438.807
67.26000 435.189
67.27000 432.694
67.28000 430.231
67.29000 434.807
67.30000 443.028
67.31000 450.675
67.32000 447.690
67.33000 440.704
67.34000 435.316
67.35000 445.705
67.36000 460.127
67.37000 472.763
67.38000 466.319
67.39000 458.039
67.40000 453.011
67.41000 460.907
67.42000 470.140
67.43000 477.569
67.44000 480.133
67.45000 482.427
67.46000 483.926
67.47000 477.695
67.48000 472.995
67.49000 468.121
67.50000 463.032
67.51000 457.976
67.52000 464.827
67.53000 481.284
67.54000 497.510
67.55000 497.253
67.56000 488.318
67.57000 479.900
67.58000 480.824
67.59000 485.211
67.60000 489.312
67.61000 490.646
67.62000 491.284
67.63000 491.841
67.64000 492.678
67.65000 493.434
67.66000 493.661
67.67000 491.821
67.68000 489.771
67.69000 488.723
67.70000 490.339
67.71000 492.099
67.72000 493.242
67.73000 506.501
67.74000 516.401
67.75000 518.992
67.76000 512.661
67.77000 506.333
67.78000 507.361
67.79000 514.230
67.80000 520.999
67.81000 530.473
67.82000 541.072
67.83000 551.023
67.84000 549.618
67.85000 544.063
67.86000 538.558
67.87000 533.528
67.88000 528.615
67.89000 524.333
67.90000 532.819
67.91000 541.848
67.92000 548.778
67.93000 547.619
67.94000 545.658
67.95000 543.901
67.96000 542.677
67.97000 541.480
67.98000 540.707
67.99000 563.393
68.00000 580.321
68.01000 587.882
68.02000 584.192
68.03000 580.496
68.04000 581.717
68.05000 586.781
68.06000 591.767
68.07000 592.544
68.08000 591.150
68.09000 590.383
68.10000 600.301
68.11000 614.068
68.12000 626.080
68.13000 621.778
68.14000 613.494
68.15000 606.289
68.16000 604.554
68.17000 603.820
68.18000 603.442
68.19000 604.417
68.20000 605.523
68.21000 607.943
68.22000 613.757
68.23000 619.744
68.24000 623.592
68.25000 618.893
68.26000 615.347
68.27000 620.067
68.28000 634.560
68.29000 649.041
68.30000 656.817
68.31000 659.433
68.32000 662.008
68.33000 669.821
68.34000 680.016
68.35000 689.587
68.36000 688.788
68.37000 684.307
68.38000 680.887
68.39000 687.130
68.40000 695.697
68.41000 703.129
68.42000 714.066
68.43000 723.849
68.44000 733.233
68.45000 741.121
68.46000 748.868
68.47000 759.188
68.48000 776.061
68.49000 793.258
68.50000 804.249
68.51000 823.865
68.52000 838.255
68.53000 855.427
68.54000 875.835
68.55000 896.231
68.56000 913.243
68.57000 927.691
68.58000 941.894
68.59000 970.428
68.60000 1005.101
68.61000 1040.700
68.62000 1091.292
68.63000 1147.130
68.64000 1201.285
68.65000 1240.403
68.66000 1275.961
68.67000 1306.728
68.68000 1396.486
68.69000 1480.527
68.70000 1559.206
68.71000 1618.118
68.72000 1675.190
68.73000 1729.231
68.74000 1775.661
68.75000 1821.727
68.76000 1851.000
68.77000 1931.252
68.78000 1990.166
68.79000 2058.182
68.80000 2136.615
68.81000 2215.065
68.82000 2294.575
68.83000 2374.875
68.84000 2453.747
68.85000 2599.596
68.86000 2773.016
68.87000 2952.784
68.88000 3232.605
68.89000 3546.931
68.90000 3913.417
68.91000 4736.603
68.92000 5666.249
68.93000 6468.588
68.94000 8927.943
68.95000 11228.013
68.96000 13892.428
68.97000 17879.652
68.98000 21987.340
68.99000 26321.209
69.00000 31214.574
69.01000 36134.020
69.02000 39242.332
69.03000 44065.730
69.04000 47580.867
69.05000 50474.617
69.06000 52668.633
69.07000 54857.418
69.08000 56240.926
69.09000 57033.016
69.10000 57810.375
69.11000 58690.582
69.12000 59588.598
69.13000 60488.566
69.14000 61418.539
69.15000 62358.715
69.16000 63216.641
69.17000 63368.383
69.18000 63358.039
69.19000 63349.133
69.20000 61117.406
69.21000 58946.723
69.22000 56408.219
69.23000 52554.098
69.24000 48582.766
69.25000 44836.184
69.26000 41637.582
69.27000 38463.754
69.28000 36470.016
69.29000 34023.316
69.30000 32249.441
69.31000 30977.072
69.32000 30260.268
69.33000 29544.662
69.34000 28961.797
69.35000 28474.930
69.36000 27997.518
69.37000 27029.148
69.38000 25865.121
69.39000 24653.172
69.40000 22723.635
69.41000 20553.730
69.42000 18345.697
69.43000 15816.585
69.44000 13214.916
69.45000 10981.204
69.46000 8937.426
69.47000 7233.029
69.48000 5693.348
69.49000 4734.085
69.50000 3825.406
69.51000 3066.465
69.52000 2667.367
69.53000 2284.035
69.54000 2044.643
69.55000 1801.923
69.56000 1626.811
69.57000 1499.917
69.58000 1425.566
69.59000 1351.305
69.60000 1286.563
69.61000 1228.600
69.62000 1171.812
69.63000 1128.762
69.64000 1093.737
69.65000 1058.798
69.66000 1025.111
69.67000 991.838
69.68000 958.846
69.69000 928.178
69.70000 898.028
69.71000 872.211
69.72000 843.834
69.73000 819.578
69.74000 797.836
69.75000 784.821
69.76000 772.550
69.77000 760.279
69.78000 748.010
69.79000 735.741
69.80000 728.124
69.81000 707.084
69.82000 691.811
69.83000 678.644
69.84000 667.734
69.85000 656.817
69.86000 644.860
69.87000 632.173
69.88000 619.755
69.89000 612.748
69.90000 608.492
69.91000 604.006
69.92000 596.246
69.93000 587.420
69.94000 578.428
69.95000 568.078
69.96000 557.432
69.97000 548.340
69.98000 554.650
69.99000 561.797
70.00000 566.491
