20.00000 470.301
20.01000 468.071
20.02000 465.522
20.03000 464.999
20.04000 472.461
20.05000 480.740
20.06000 486.854
20.07000 480.992
20.08000 475.941
20.09000 474.583
20.10000 479.990
20.11000 485.541
20.12000 491.080
20.13000 496.603
20.14000 502.117
20.15000 500.837
20.16000 494.152
20.17000 487.604
20.18000 487.183
20.19000 490.059
20.20000 492.560
20.21000 488.380
20.22000 481.742
20.23000 475.615
20.24000 486.637
20.25000 500.355
20.26000 511.174
20.27000 504.895
20.28000 495.815
20.29000 488.214
20.30000 486.363
20.31000 485.087
20.32000 484.149
20.33000 480.878
20.34000 478.251
20.35000 478.310
20.36000 483.218
20.37000 488.224
20.38000 488.543
20.39000 483.188
20.40000 477.830
20.41000 477.638
20.42000 481.495
20.43000 485.274
20.44000 485.747
20.45000 484.466
20.46000 483.222
20.47000 482.617
20.48000 482.244
20.49000 481.901
20.50000 484.981
20.51000 488.490
20.52000 491.485
20.53000 491.494
20.54000 491.023
20.55000 490.518
20.56000 489.888
20.57000 489.245
20.58000 488.775
20.59000 491.253
20.60000 493.283
20.61000 492.192
20.62000 485.551
20.63000 478.802
20.64000 476.646
20.65000 479.963
20.66000 483.282
20.67000 482.696
20.68000 479.100
20.69000 475.545
20.70000 473.596
20.71000 472.486
20.72000 471.351
20.73000 469.777
20.74000 468.046
20.75000 466.454
20.76000 466.553
20.77000 467.006
20.78000 467.821
20.79000 470.700
20.80000 473.905
20.81000 476.898
20.82000 479.090
20.83000 481.206
20.84000 482.748
20.85000 492.580
20.86000 500.476
20.87000 503.634
20.88000 498.493
20.89000 493.198
20.90000 488.218
20.91000 483.608
20.92000 479.010
20.93000 481.314
20.94000 488.840
20.95000 496.014
20.96000 489.466
20.97000 475.850
20.98000 462.990
20.99000 462.507
21.00000 466.386
21.01000 469.946
21.02000 476.282
21.03000 482.522
21.04000 486.911
21.05000 480.919
21.06000 473.313
21.07000 467.201
21.08000 466.641
21.09000 466.603
21.10000 466.576
21.11000 471.518
21.12000 475.504
21.13000 477.160
21.14000 474.793
21.15000 472.355
21.16000 469.918
21.17000 467.480
21.18000 465.049
21.19000 467.377
21.20000 473.241
21.21000 479.004
21.22000 480.979
21.23000 481.030
21.24000 481.074
21.25000 480.987
21.26000 480.855
21.27000 480.734
21.28000 477.170
21.29000 473.277
21.30000 469.522
21.31000 466.528
21.32000 463.650
21.33000 462.799
21.34000 469.357
21.35000 476.597
21.36000 481.831
21.37000 470.186
21.38000 460.638
21.39000 456.717
21.40000 462.369
21.41000 468.181
21.42000 472.610
21.43000 475.472
21.44000 478.323
21.45000 482.467
21.46000 487.530
21.47000 492.395
21.48000 490.164
21.49000 484.384
21.50000 478.798
21.51000 476.256
21.52000 474.755
21.53000 473.382
21.54000 481.087
21.55000 489.799
21.56000 496.770
21.57000 494.288
21.58000 490.386
21.59000 486.177
21.60000 480.861
21.61000 475.444
21.62000 471.546
21.63000 474.932
21.64000 477.782
21.65000 478.209
21.66000 474.577
21.67000 470.881
21.68000 474.384
21.69000 485.926
21.70000 497.434
21.71000 497.870
21.72000 490.306
21.73000 482.966
21.74000 483.396
21.75000 487.657
21.76000 491.705
21.77000 492.535
21.78000 492.280
21.79000 492.047
21.80000 493.527
21.81000 495.187
21.82000 496.299
21.83000 494.490
21.84000 492.250
21.85000 491.605
21.86000 496.623
21.87000 502.140
21.88000 506.094
21.89000 512.686
21.90000 517.813
21.91000 519.802
21.92000 516.610
21.93000 513.342
21.94000 520.155
21.95000 538.043
21.96000 555.868
21.97000 558.882
21.98000 551.340
21.99000 543.916
22.00000 540.423
22.01000 538.840
22.02000 537.696
22.03000 543.044
22.04000 550.549
22.05000 557.385
22.06000 559.062
22.07000 559.523
22.08000 561.696
22.09000 572.856
22.10000 585.319
22.11000 594.500
22.12000 592.208
22.13000 588.928
22.14000 586.588
22.15000 588.580
22.16000 590.241
22.17000 589.751
22.18000 585.760
22.19000 581.721
22.20000 580.743
22.21000 583.075
22.22000 585.397
22.23000 582.424
22.24000 575.776
22.25000 569.312
22.26000 568.726
22.27000 570.956
22.28000 572.451
22.29000 563.348
22.30000 550.773
22.31000 539.343
22.32000 544.403
22.33000 552.092
22.34000 557.983
22.35000 554.589
22.36000 549.871
22.37000 544.985
22.38000 539.515
22.39000 533.996
22.40000 530.077
22.41000 531.437
22.42000 532.640
22.43000 529.945
22.44000 521.004
22.45000 511.980
22.46000 507.392
22.47000 507.518
22.48000 507.644
22.49000 509.303
22.50000 511.998
22.51000 514.487
22.52000 510.661
22.53000 503.853
22.54000 496.951
22.55000 488.720
22.56000 480.060
22.57000 472.203
22.58000 467.572
22.59000 464.103
22.60000 461.682
22.61000 464.590
22.62000 468.244
22.63000 471.134
22.64000 471.434
22.65000 471.522
22.66000 471.583
22.67000 464.305
22.68000 458.552
22.69000 455.444
22.70000 456.513
22.71000 457.634
22.72000 454.944
22.73000 448.272
22.74000 441.634
22.75000 442.141
22.76000 447.480
22.77000 452.655
22.78000 452.967
22.79000 451.016
22.80000 448.861
22.81000 443.906
22.82000 438.060
22.83000 432.768
22.84000 435.044
22.85000 438.475
22.86000 441.815
22.87000 444.697
22.88000 447.516
22.89000 449.345
22.90000 447.866
22.91000 446.121
22.92000 444.892
22.93000 439.320
22.94000 434.968
22.95000 434.131
22.96000 438.760
22.97000 443.453
22.98000 447.251
22.99000 450.130
23.00000 452.993
23.01000 449.528
23.02000 441.892
23.03000 434.642
23.04000 438.463
23.05000 447.362
23.06000 455.727
23.07000 456.926
23.08000 455.878
23.09000 454.931
23.10000 453.874
23.11000 452.924
23.12000 451.552
23.13000 448.107
23.14000 444.382
23.15000 441.931
23.16000 443.677
23.17000 445.753
23.18000 447.207
23.19000 448.569
23.20000 449.596
23.21000 450.243
23.22000 450.309
23.23000 450.369
23.24000 445.104
23.25000 434.460
23.26000 423.879
23.27000 426.867
23.28000 438.712
23.29000 450.054
23.30000 447.527
23.31000 438.732
23.32000 430.447
23.33000 428.844
23.34000 429.306
23.35000 429.723
23.36000 432.134
23.37000 434.614
23.38000 437.539
23.39000 442.626
23.40000 447.999
23.41000 449.999
23.42000 441.043
23.43000 431.246
23.44000 424.418
23.45000 433.895
23.46000 441.496
23.47000 445.294
23.48000 443.353
23.49000 441.353
23.50000 439.474
23.51000 437.714
23.52000 435.966
23.53000 437.190
23.54000 440.316
23.55000 443.299
23.56000 442.482
23.57000 439.971
23.58000 437.213
23.59000 431.284
23.60000 424.390
23.61000 418.188
23.62000 422.648
23.63000 428.460
23.64000 432.469
23.65000 427.877
23.66000 422.168
23.67000 419.105
23.68000 424.509
23.69000 430.548
23.70000 434.736
23.71000 438.822
23.72000 441.895
23.73000 443.858
23.74000 444.167
23.75000 444.462
23.76000 444.385
23.77000 443.946
23.78000 443.510
23.79000 442.417
23.80000 440.923
23.81000 439.391
23.82000 436.872
23.83000 433.919
23.84000 431.055
23.85000 429.303
23.86000 427.886
23.87000 426.613
23.88000 423.034
23.89000 419.498
23.90000 418.363
23.91000 428.495
23.92000 440.063
23.93000 448.698
23.94000 448.082
23.95000 446.790
23.96000 445.898
23.97000 444.731
23.98000 443.847
23.99000 445.157
24.00000 449.679
24.01000 454.228
24.02000 450.714
24.03000 439.456
24.04000 428.281
24.05000 425.097
24.06000 426.957
24.07000 428.766
24.08000 429.273
24.09000 429.216
24.10000 428.851
24.11000 424.714
24.12000 419.463
24.13000 414.759
24.14000 424.645
24.15000 435.792
24.16000 443.325
24.17000 434.165
24.18000 422.916
24.19000 416.099
24.20000 423.056
24.21000 430.998
24.22000 436.453
24.23000 425.076
24.24000 416.131
24.25000 414.517
24.26000 423.473
24.27000 432.512
24.28000 433.172
24.29000 425.919
24.30000 418.722
24.31000 417.247
24.32000 419.316
24.33000 421.296
24.34000 421.133
24.35000 420.056
24.36000 419.259
24.37000 421.798
24.38000 425.308
24.39000 428.446
24.40000 424.790
24.41000 420.454
24.42000 416.993
24.43000 417.514
24.44000 418.524
24.45000 418.609
24.46000 415.861
24.47000 412.915
24.48000 410.902
24.49000 411.126
24.50000 411.346
24.51000 413.454
24.52000 418.244
24.53000 423.052
24.54000 419.982
24.55000 409.596
24.56000 399.298
24.57000 402.631
24.58000 414.151
24.59000 425.201
24.60000 425.250
24.61000 420.674
24.62000 416.141
24.63000 412.121
24.64000 408.247
24.65000 404.792
24.66000 412.017
24.67000 420.079
24.68000 425.970
24.69000 422.143
24.70000 417.145
24.71000 413.793
24.72000 415.406
24.73000 417.358
24.74000 418.685
24.75000 418.409
24.76000 418.167
24.77000 417.790
24.78000 417.223
24.79000 416.655
24.80000 415.053
24.81000 412.506
24.82000 409.983
24.83000 410.126
24.84000 411.854
24.85000 413.444
24.86000 411.898
24.87000 409.052
24.88000 406.420
24.89000 406.234
24.90000 406.739
24.91000 407.188
24.92000 408.243
24.93000 409.259
24.94000 410.145
24.95000 410.461
24.96000 410.711
24.97000 411.586
24.98000 414.323
24.99000 417.183
25.00000 419.119
25.01000 416.248
25.02000 414.004
25.03000 413.640
25.04000 415.864
25.05000 418.101
25.06000 414.994
25.07000 407.084
25.08000 399.251
25.09000 399.217
25.10000 403.754
25.11000 408.173
25.12000 409.972
25.13000 410.702
25.14000 411.474
25.15000 412.712
25.16000 414.081
25.17000 415.296
25.18000 414.981
25.19000 414.462
25.20000 413.826
25.21000 412.678
25.22000 411.471
25.23000 410.980
25.24000 412.587
25.25000 414.330
25.26000 415.503
25.27000 412.570
25.28000 410.304
25.29000 409.808
25.30000 411.715
25.31000 413.631
25.32000 412.360
25.33000 408.270
25.34000 404.221
25.35000 402.894
25.36000 403.167
25.37000 403.185
25.38000 397.803
25.39000 390.246
25.40000 383.651
25.41000 387.550
25.42000 394.327
25.43000 400.331
25.44000 405.170
25.45000 409.174
25.46000 412.679
25.47000 414.048
25.48000 415.175
25.49000 413.477
25.50000 403.621
25.51000 393.250
25.52000 386.303
25.53000 383.690
25.54000 381.839
25.55000 383.540
25.56000 389.987
25.57000 396.447
25.58000 394.920
25.59000 386.442
25.60000 378.057
25.61000 381.336
25.62000 391.164
25.63000 400.494
25.64000 399.551
25.65000 394.530
25.66000 389.857
25.67000 388.910
25.68000 388.968
25.69000 389.020
25.70000 392.510
25.71000 396.055
25.72000 398.683
25.73000 397.455
25.74000 395.797
25.75000 394.692
25.76000 395.164
25.77000 395.732
25.78000 396.111
25.79000 404.730
25.80000 411.268
25.81000 412.927
25.82000 408.172
25.83000 403.383
25.84000 395.444
25.85000 384.809
25.86000 374.295
25.87000 381.819
25.88000 399.241
25.89000 415.948
25.90000 418.317
25.91000 415.075
25.92000 411.880
25.93000 409.163
25.94000 406.573
25.95000 404.290
25.96000 402.241
25.97000 400.511
25.98000 399.132
25.99000 399.213
26.00000 399.454
26.01000 399.122
26.02000 397.186
26.03000 395.154
26.04000 393.807
26.05000 397.437
26.06000 400.209
26.07000 400.323
26.08000 396.996
26.09000 393.658
26.10000 391.750
26.11000 391.044
26.12000 390.348
26.13000 387.680
26.14000 383.996
26.15000 380.723
26.16000 385.460
26.17000 393.286
26.18000 400.380
26.19000 399.971
26.20000 397.595
26.21000 395.505
26.22000 389.971
26.23000 384.695
26.24000 381.730
26.25000 388.194
26.26000 395.666
26.27000 400.794
26.28000 399.438
26.29000 397.705
26.30000 396.562
26.31000 389.325
26.32000 383.884
26.33000 383.282
26.34000 388.845
26.35000 394.415
26.36000 393.737
26.37000 387.878
26.38000 382.094
26.39000 379.546
26.40000 378.816
26.41000 378.534
26.42000 386.708
26.43000 398.095
26.44000 408.250
26.45000 406.044
26.46000 400.646
26.47000 395.909
26.48000 398.813
26.49000 402.424
26.50000 405.415
26.51000 405.912
26.52000 406.148
26.53000 404.289
26.54000 396.725
26.55000 388.838
26.56000 383.664
26.57000 390.161
26.58000 395.134
26.59000 397.508
26.60000 396.626
26.61000 395.735
26.62000 395.570
26.63000 395.997
26.64000 396.418
26.65000 395.789
26.66000 394.619
26.67000 393.600
26.68000 395.359
26.69000 398.159
26.70000 400.525
26.71000 398.631
26.72000 395.654
26.73000 393.048
26.74000 385.928
26.75000 379.175
26.76000 375.480
26.77000 383.886
26.78000 393.534
26.79000 399.627
26.80000 396.166
26.81000 392.180
26.82000 389.579
26.83000 389.398
26.84000 389.303
26.85000 390.847
26.86000 394.412
26.87000 397.955
26.88000 391.673
26.89000 377.504
26.90000 363.536
26.91000 361.774
26.92000 366.465
26.93000 371.131
26.94000 375.343
26.95000 379.387
26.96000 382.737
26.97000 379.405
26.98000 374.398
26.99000 370.026
27.00000 373.046
27.01000 376.671
27.02000 378.789
27.03000 375.033
27.04000 370.686
27.05000 369.565
27.06000 376.984
27.07000 384.859
27.08000 389.969
27.09000 381.712
27.10000 375.465
27.11000 376.581
27.12000 386.643
27.13000 396.701
27.14000 399.163
27.15000 395.622
27.16000 392.134
27.17000 389.329
27.18000 386.961
27.19000 384.503
27.20000 380.499
27.21000 375.932
27.22000 372.351
27.23000 378.065
27.24000 386.073
27.25000 393.049
27.26000 385.982
27.27000 378.004
27.28000 372.524
27.29000 376.628
27.30000 381.677
27.31000 384.127
27.32000 379.797
27.33000 375.115
27.34000 372.093
27.35000 368.901
27.36000 366.566
27.37000 366.738
27.38000 369.906
27.39000 373.091
27.40000 379.181
27.41000 387.531
27.42000 395.751
27.43000 396.077
27.44000 392.385
27.45000 388.634
27.46000 383.910
27.47000 378.837
27.48000 374.064
27.49000 372.055
27.50000 370.719
27.51000 369.557
27.52000 370.566
27.53000 371.720
27.54000 373.670
27.55000 378.631
27.56000 383.882
27.57000 386.252
27.58000 381.216
27.59000 375.806
27.60000 372.334
27.61000 380.216
27.62000 386.117
27.63000 387.841
27.64000 384.652
27.65000 381.456
27.66000 378.718
27.67000 376.331
27.68000 373.983
27.69000 371.970
27.70000 370.191
27.71000 368.655
27.72000 371.142
27.73000 375.050
27.74000 378.698
27.75000 379.981
27.76000 380.698
27.77000 381.320
27.78000 378.906
27.79000 376.449
27.80000 373.565
27.81000 369.098
27.82000 364.481
27.83000 363.565
27.84000 372.032
27.85000 380.959
27.86000 386.655
27.87000 383.182
27.88000 380.537
27.89000 377.622
27.90000 374.393
27.91000 371.167
27.92000 368.497
27.93000 366.247
27.94000 364.035
27.95000 365.388
27.96000 368.450
27.97000 371.341
27.98000 371.470
27.99000 370.637
28.00000 370.198
28.01000 373.263
28.02000 377.153
28.03000 380.517
28.04000 375.134
28.05000 369.419
28.06000 365.291
28.07000 366.987
28.08000 369.222
28.09000 371.672
28.10000 374.659
28.11000 377.671
28.12000 379.582
28.13000 371.725
28.14000 365.904
28.15000 363.355
28.16000 364.534
28.17000 365.729
28.18000 369.218
28.19000 374.410
28.20000 379.509
28.21000 380.290
28.22000 378.953
28.23000 377.383
28.24000 372.180
28.25000 365.728
28.26000 360.534
28.27000 366.285
28.28000 374.576
28.29000 381.726
28.30000 380.366
28.31000 378.124
28.32000 375.817
28.33000 373.275
28.34000 370.712
28.35000 368.898
28.36000 368.927
28.37000 369.041
28.38000 369.112
28.39000 371.466
28.40000 373.196
28.41000 374.386
28.42000 374.970
28.43000 375.536
28.44000 373.073
28.45000 368.396
28.46000 363.807
28.47000 359.703
28.48000 355.979
28.49000 352.393
28.50000 350.906
28.51000 350.130
28.52000 349.982
28.53000 355.185
28.54000 361.611
28.55000 367.138
28.56000 368.958
28.57000 370.034
28.58000 369.845
28.59000 365.155
28.60000 360.067
28.61000 356.478
28.62000 356.528
28.63000 356.741
28.64000 356.875
28.65000 371.062
28.66000 381.465
28.67000 384.813
28.68000 380.383
28.69000 375.920
28.70000 366.869
28.71000 354.516
28.72000 342.407
28.73000 344.558
28.74000 353.320
28.75000 361.869
28.76000 367.241
28.77000 371.554
28.78000 374.691
28.79000 367.984
28.80000 359.063
28.81000 351.410
28.82000 355.819
28.83000 361.027
28.84000 365.116
28.85000 365.278
28.86000 365.101
28.87000 364.602
28.88000 363.332
28.89000 362.030
28.90000 361.218
28.91000 358.170
28.92000 355.950
28.93000 354.709
28.94000 354.530
28.95000 354.348
28.96000 353.702
28.97000 352.727
28.98000 351.773
28.99000 357.179
29.00000 365.313
29.01000 373.006
29.02000 374.289
29.03000 373.467
29.04000 372.098
29.05000 366.241
29.06000 359.391
29.07000 353.529
29.08000 352.222
29.09000 351.668
29.10000 351.564
29.11000 353.015
29.12000 354.597
29.13000 356.723
29.14000 360.133
29.15000 363.597
29.16000 365.744
29.17000 359.411
29.18000 354.775
29.19000 351.396
29.20000 349.357
29.21000 347.375
29.22000 352.684
29.23000 363.082
29.24000 373.258
29.25000 374.316
29.26000 371.186
29.27000 368.163
29.28000 366.643
29.29000 365.610
29.30000 364.452
29.31000 362.284
29.32000 359.896
29.33000 357.858
29.34000 353.501
29.35000 349.559
29.36000 348.559
29.37000 357.578
29.38000 367.427
29.39000 371.809
29.40000 363.484
29.41000 354.642
29.42000 349.195
29.43000 366.337
29.44000 378.841
29.45000 381.953
29.46000 375.214
29.47000 368.488
29.48000 363.521
29.49000 359.762
29.50000 356.088
29.51000 354.924
29.52000 354.933
29.53000 354.872
29.54000 353.843
29.55000 352.505
29.56000 351.837
29.57000 356.475
29.58000 362.250
29.59000 367.166
29.60000 365.342
29.61000 363.029
29.62000 362.103
29.63000 365.828
29.64000 369.929
29.65000 372.136
29.66000 370.003
29.67000 367.699
29.68000 366.289
29.69000 366.514
29.70000 366.689
29.71000 367.021
29.72000 367.517
29.73000 368.020
29.74000 369.380
29.75000 371.320
29.76000 373.215
29.77000 373.465
29.78000 372.978
29.79000 372.645
29.80000 374.372
29.81000 376.747
29.82000 378.787
29.83000 378.231
29.84000 377.127
29.85000 376.190
29.86000 383.665
29.87000 390.889
29.88000 397.230
29.89000 400.651
29.90000 403.842
29.91000 406.766
29.92000 409.089
29.93000 411.390
29.94000 412.790
29.95000 419.210
29.96000 423.836
29.97000 428.769
29.98000 434.015
29.99000 439.247
30.00000 443.158
30.01000 446.187
30.02000 449.143
30.03000 443.409
30.04000 434.162
30.05000 425.778
30.06000 428.752
30.07000 435.248
30.08000 441.443
30.09000 445.356
30.10000 448.794
30.11000 451.703
30.12000 449.267
30.13000 446.632
30.14000 443.389
30.15000 438.163
30.16000 432.784
30.17000 425.798
30.18000 415.236
30.19000 404.542
30.20000 398.076
30.21000 397.363
30.22000 396.896
30.23000 399.157
30.24000 404.138
30.25000 409.112
30.26000 413.499
30.27000 417.500
30.28000 421.400
30.29000 415.793
30.30000 406.384
30.31000 397.414
30.32000 394.086
30.33000 392.482
30.34000 391.245
30.35000 392.757
30.36000 394.831
30.37000 396.581
30.38000 396.766
30.39000 396.750
30.40000 395.995
30.41000 392.868
30.42000 389.563
30.43000 386.557
30.44000 384.208
30.45000 381.882
30.46000 380.485
30.47000 386.953
30.48000 391.605
30.49000 393.061
30.50000 391.385
30.51000 389.704
30.52000 387.617
30.53000 385.267
30.54000 382.979
30.55000 386.465
30.56000 392.213
30.57000 397.509
30.58000 397.133
30.59000 395.049
30.60000 393.587
30.61000 396.683
30.62000 400.697
30.63000 404.075
30.64000 399.487
30.65000 394.809
30.66000 392.901
30.67000 399.749
30.68000 407.243
30.69000 412.359
30.70000 412.333
30.71000 412.131
30.72000 412.010
30.73000 399.966
30.74000 391.350
30.75000 386.041
30.76000 383.918
30.77000 381.934
30.78000 391.361
30.79000 408.063
30.80000 424.313
30.81000 429.147
30.82000 429.028
30.83000 428.880
30.84000 428.375
30.85000 427.764
30.86000 427.037
30.87000 425.484
30.88000 423.766
30.89000 422.324
30.90000 431.676
30.91000 440.590
30.92000 446.956
30.93000 445.381
30.94000 443.235
30.95000 445.146
30.96000 455.702
30.97000 466.543
30.98000 472.975
30.99000 486.817
31.00000 496.653
31.01000 505.652
31.02000 513.858
31.03000 522.103
31.04000 533.394
31.05000 546.599
31.06000 559.433
31.07000 571.225
31.08000 582.010
31.09000 593.358
31.10000 611.462
31.11000 631.539
31.12000 653.372
31.13000 687.635
31.14000 724.321
31.15000 755.017
31.16000 811.555
31.17000 861.178
31.18000 915.109
31.19000 982.268
31.20000 1050.354
31.21000 1121.608
31.22000 1199.514
31.23000 1277.632
31.24000 1323.675
31.25000 1452.621
31.26000 1544.075
31.27000 1637.725
31.28000 1733.421
31.29000 1829.042
31.30000 1919.203
31.31000 2005.987
31.32000 2090.251
31.33000 2182.253
31.34000 2272.680
31.35000 2362.148
31.36000 2440.373
31.37000 2515.363
31.38000 2581.942
31.39000 2590.061
31.40000 2586.968
31.41000 2584.388
31.42000 2624.606
31.43000 2662.253
31.44000 2681.797
31.45000 2646.539
31.46000 2607.531
31.47000 2564.050
31.48000 2511.303
31.49000 2458.272
31.50000 2427.220
31.51000 2289.830
31.52000 2192.572
31.53000 2097.506
31.54000 2004.452
31.55000 1911.408
31.56000 1819.082
31.57000 1727.194
31.58000 1638.068
31.59000 1551.111
31.60000 1469.545
31.61000 1388.695
31.62000 1316.041
31.63000 1245.711
31.64000 1175.356
31.65000 1104.828
31.66000 1034.267
31.67000 975.572
31.68000 910.802
31.69000 856.591
31.70000 807.517
31.71000 773.768
31.72000 741.042
31.73000 711.861
31.74000 689.918
31.75000 668.188
31.76000 655.548
31.77000 619.096
31.78000 593.390
31.79000 575.933
31.80000 565.916
31.81000 555.782
31.82000 538.026
31.83000 515.693
31.84000 494.055
31.85000 484.482
31.86000 480.101
31.87000 474.949
31.88000 461.154
31.89000 444.945
31.90000 430.918
31.91000 431.534
31.92000 434.869
31.93000 437.634
31.94000 424.111
31.95000 411.372
31.96000 403.367
31.97000 409.280
31.98000 416.097
31.99000 417.991
32.00000 409.981
32.01000 401.691
32.02000 396.901
32.03000 386.624
32.04000 379.404
32.05000 375.324
32.06000 374.031
32.07000 372.738
32.08000 371.399
32.09000 370.034
32.10000 368.712
32.11000 366.289
32.12000 363.579
32.13000 361.086
32.14000 360.979
32.15000 361.529
32.16000 361.517
32.17000 357.797
32.18000 353.400
32.19000 349.764
32.20000 349.944
32.21000 350.451
32.22000 350.844
32.23000 350.907
32.24000 350.950
32.25000 348.909
32.26000 342.737
32.27000 336.454
32.28000 332.848
32.29000 328.334
32.30000 325.179
32.31000 325.587
32.32000 329.105
32.33000 332.562
32.34000 332.415
32.35000 330.168
32.36000 327.996
32.37000 331.985
32.38000 338.065
32.39000 343.795
32.40000 345.769
32.41000 346.725
32.42000 346.717
32.43000 340.477
32.44000 333.117
32.45000 327.050
32.46000 335.863
32.47000 344.487
32.48000 348.740
32.49000 340.512
32.50000 331.514
32.51000 326.522
32.52000 329.355
32.53000 332.392
32.54000 334.122
32.55000 340.509
32.56000 344.970
32.57000 344.408
32.58000 339.531
32.59000 334.678
32.60000 331.159
32.61000 328.405
32.62000 325.747
32.63000 326.950
32.64000 329.511
32.65000 331.843
32.66000 331.766
32.67000 331.045
32.68000 330.099
32.69000 327.719
32.70000 325.085
32.71000 322.920
32.72000 322.292
32.73000 321.914
32.74000 323.252
32.75000 329.421
32.76000 335.879
32.77000 338.684
32.78000 334.453
32.79000 330.046
32.80000 327.551
32.81000 333.914
32.82000 338.354
32.83000 336.561
32.84000 329.499
32.85000 322.500
32.86000 318.789
32.87000 316.940
32.88000 315.157
32.89000 317.776
32.90000 321.842
32.91000 325.462
32.92000 324.493
32.93000 322.318
32.94000 319.992
32.95000 316.724
32.96000 313.293
32.97000 310.483
32.98000 316.829
32.99000 322.840
33.00000 324.552
33.01000 314.338
33.02000 303.427
33.03000 297.700
33.04000 301.810
33.05000 306.154
33.06000 308.596
33.07000 306.561
33.08000 305.139
33.09000 304.883
33.10000 305.596
33.11000 306.287
33.12000 305.864
33.13000 304.819
33.14000 303.813
33.15000 303.904
33.16000 304.383
33.17000 304.795
33.18000 304.527
33.19000 304.082
33.20000 303.333
33.21000 300.708
33.22000 297.762
33.23000 295.356
33.24000 294.436
33.25000 293.812
33.26000 293.805
33.27000 295.489
33.28000 297.270
33.29000 298.197
33.30000 297.531
33.31000 296.828
33.32000 296.436
33.33000 296.910
33.34000 297.240
33.35000 297.784
33.36000 298.503
33.37000 299.218
33.38000 299.692
33.39000 300.033
33.40000 300.362
33.41000 301.977
33.42000 303.945
33.43000 305.368
33.44000 301.417
33.45000 296.094
33.46000 292.362
33.47000 298.248
33.48000 305.748
33.49000 311.854
33.50000 308.851
33.51000 305.631
33.52000 301.949
33.53000 297.022
33.54000 292.027
33.55000 289.718
33.56000 292.359
33.57000 295.108
33.58000 296.631
33.59000 298.882
33.60000 300.420
33.61000 295.860
33.62000 286.387
33.63000 277.132
33.64000 277.778
33.65000 283.787
33.66000 289.561
33.67000 294.688
33.68000 299.263
33.69000 303.280
33.70000 301.898
33.71000 299.158
33.72000 296.566
33.73000 294.851
33.74000 293.280
33.75000 292.005
33.76000 292.202
33.77000 292.483
33.78000 292.865
33.79000 293.515
33.80000 294.179
33.81000 293.455
33.82000 290.213
33.83000 286.917
33.84000 285.105
33.85000 291.359
33.86000 295.677
33.87000 299.245
33.88000 302.219
33.89000 305.205
33.90000 308.704
33.91000 312.477
33.92000 316.098
33.93000 310.508
33.94000 302.138
33.95000 294.898
33.96000 298.367
33.97000 304.488
33.98000 309.642
33.99000 309.150
34.00000 307.742
34.01000 306.603
34.02000 305.102
34.03000 303.852
34.04000 301.684
34.05000 297.114
34.06000 292.417
34.07000 290.450
34.08000 293.366
34.09000 296.378
34.10000 298.023
34.11000 294.870
34.12000 292.682
34.13000 286.163
34.14000 276.261
34.15000 266.546
34.16000 264.607
34.17000 266.757
34.18000 268.818
34.19000 276.089
34.20000 284.627
34.21000 292.149
34.22000 290.252
34.23000 286.059
34.24000 282.142
34.25000 279.815
34.26000 277.741
34.27000 276.070
34.28000 281.181
34.29000 285.865
34.30000 286.465
34.31000 276.526
34.32000 266.052
34.33000 260.403
34.34000 263.265
34.35000 266.287
34.36000 267.924
34.37000 273.668
34.38000 277.610
34.39000 282.118
34.40000 287.061
34.41000 291.855
34.42000 290.742
34.43000 286.566
34.44000 282.567
34.45000 282.430
34.46000 283.577
34.47000 284.334
34.48000 281.539
34.49000 277.891
34.50000 274.932
34.51000 275.869
34.52000 277.416
34.53000 278.659
34.54000 278.905
34.55000 279.028
34.56000 280.879
34.57000 287.124
34.58000 293.586
34.59000 294.457
34.60000 285.617
34.61000 276.602
34.62000 271.754
34.63000 278.424
34.64000 282.969
34.65000 282.451
34.66000 278.103
34.67000 273.901
34.68000 275.291
34.69000 279.537
34.70000 283.598
34.71000 285.249
34.72000 286.003
34.73000 286.918
34.74000 289.274
34.75000 291.971
34.76000 294.135
34.77000 293.344
34.78000 292.097
34.79000 291.099
34.80000 295.638
34.81000 299.727
34.82000 299.097
34.83000 286.639
34.84000 273.615
34.85000 268.331
34.86000 276.298
34.87000 284.491
34.88000 288.864
34.89000 283.461
34.90000 279.773
34.91000 276.328
34.92000 273.066
34.93000 269.828
34.94000 267.472
34.95000 265.560
34.96000 263.734
34.97000 263.548
34.98000 263.900
34.99000 264.764
35.00000 270.107
35.01000 276.492
35.02000 282.154
35.03000 283.862
35.04000 284.971
35.05000 285.856
35.06000 281.371
35.07000 277.356
35.08000 274.399
35.09000 274.057
35.10000 273.837
35.11000 272.564
35.12000 269.517
35.13000 266.442
35.14000 264.813
35.15000 269.135
35.16000 272.076
35.17000 275.158
35.18000 278.342
35.19000 281.433
35.20000 281.253
35.21000 279.450
35.22000 277.730
35.23000 276.625
35.24000 275.794
35.25000 274.787
35.26000 272.275
35.27000 269.418
35.28000 266.875
35.29000 266.018
35.30000 265.412
35.31000 264.929
35.32000 268.283
35.33000 271.261
35.34000 273.486
35.35000 273.876
35.36000 274.183
35.37000 272.885
35.38000 268.916
35.39000 264.908
35.40000 262.801
35.41000 265.494
35.42000 267.339
35.43000 271.781
35.44000 278.100
35.45000 284.271
35.46000 285.442
35.47000 284.168
35.48000 282.955
35.49000 278.562
35.50000 273.506
35.51000 268.589
35.52000 264.825
35.53000 261.323
35.54000 258.208
35.55000 257.149
35.56000 256.391
35.57000 255.789
35.58000 264.979
35.59000 273.055
35.60000 277.979
35.61000 275.340
35.62000 272.370
35.63000 270.282
35.64000 269.640
35.65000 269.018
35.66000 268.694
35.67000 266.305
35.68000 264.716
35.69000 266.988
35.70000 272.006
35.71000 276.763
35.72000 273.013
35.73000 265.162
35.74000 257.697
35.75000 256.307
35.76000 256.873
35.77000 257.787
35.78000 261.567
35.79000 265.984
35.80000 269.617
35.81000 269.172
35.82000 268.141
35.83000 267.328
35.84000 261.997
35.85000 257.409
35.86000 256.049
35.87000 262.325
35.88000 268.924
35.89000 271.272
35.90000 266.763
35.91000 262.160
35.92000 259.781
35.93000 262.492
35.94000 264.302
35.95000 263.733
35.96000 261.497
35.97000 259.358
35.98000 260.246
35.99000 262.572
36.00000 264.781
36.01000 265.248
36.02000 265.156
36.03000 265.636
36.04000 270.741
36.05000 276.858
36.06000 281.138
36.07000 276.013
36.08000 269.563
36.09000 264.485
36.10000 264.824
36.11000 265.457
36.12000 264.679
36.13000 260.610
36.14000 256.407
36.15000 254.160
36.16000 255.024
36.17000 255.927
36.18000 256.390
36.19000 253.259
36.20000 251.180
36.21000 252.297
36.22000 255.618
36.23000 258.952
36.24000 262.653
36.25000 266.525
36.26000 270.197
36.27000 269.060
36.28000 266.592
36.29000 263.862
36.30000 259.052
36.31000 253.794
36.32000 249.625
36.33000 250.943
36.34000 253.020
36.35000 254.650
36.36000 256.954
36.37000 258.841
36.38000 261.662
36.39000 266.630
36.40000 271.684
36.41000 271.544
36.42000 263.274
36.43000 254.906
36.44000 250.650
36.45000 257.211
36.46000 261.587
36.47000 263.219
36.48000 262.986
36.49000 262.792
36.50000 263.690
36.51000 265.093
36.52000 266.421
36.53000 262.448
36.54000 257.253
36.55000 252.795
36.56000 254.089
36.57000 256.602
36.58000 257.666
36.59000 251.547
36.60000 244.452
36.61000 238.906
36.62000 245.220
36.63000 251.010
36.64000 255.067
36.65000 255.194
36.66000 255.171
36.67000 257.900
36.68000 264.872
36.69000 271.891
36.70000 275.432
36.71000 272.007
36.72000 269.703
36.73000 265.949
36.74000 261.225
36.75000 256.740
36.76000 258.956
36.77000 264.218
36.78000 269.194
36.79000 267.115
36.80000 263.189
36.81000 260.402
36.82000 266.330
36.83000 274.075
36.84000 279.619
36.85000 274.430
36.86000 267.809
36.87000 262.653
36.88000 269.884
36.89000 276.409
36.90000 279.531
36.91000 275.053
36.92000 270.293
36.93000 272.350
36.94000 284.763
36.95000 297.284
36.96000 303.547
36.97000 286.323
36.98000 274.930
36.99000 272.358
37.00000 275.601
37.01000 278.756
37.02000 279.527
37.03000 279.229
37.04000 278.947
37.05000 280.510
37.06000 282.462
37.07000 284.030
37.08000 282.713
37.09000 280.804
37.10000 280.057
37.11000 284.885
37.12000 290.442
37.13000 294.755
37.14000 289.004
37.15000 283.825
37.16000 279.011
37.17000 274.996
37.18000 271.011
37.19000 268.311
37.20000 267.536
37.21000 266.780
37.22000 266.836
37.23000 267.690
37.24000 268.519
37.25000 267.145
37.26000 264.340
37.27000 261.658
37.28000 262.185
37.29000 264.130
37.30000 265.963
37.31000 261.168
37.32000 254.945
37.33000 250.321
37.34000 257.487
37.35000 267.034
37.36000 274.452
37.37000 271.806
37.38000 267.867
37.39000 264.821
37.40000 261.466
37.41000 258.785
37.42000 255.627
37.43000 251.431
37.44000 247.200
37.45000 245.755
37.46000 248.417
37.47000 251.116
37.48000 253.860
37.49000 256.647
37.50000 259.433
37.51000 262.105
37.52000 264.704
37.53000 267.074
37.54000 263.639
37.55000 257.675
37.56000 252.062
37.57000 252.800
37.58000 255.201
37.59000 257.269
37.60000 256.923
37.61000 256.096
37.62000 255.740
37.63000 257.571
37.64000 259.679
37.65000 261.302
37.66000 256.160
37.67000 251.701
37.68000 249.862
37.69000 253.626
37.70000 257.576
37.71000 261.656
37.72000 265.926
37.73000 270.197
37.74000 269.339
37.75000 263.604
37.76000 257.927
37.77000 256.757
37.78000 258.426
37.79000 260.186
37.80000 264.156
37.81000 269.075
37.82000 273.698
37.83000 272.416
37.84000 269.667
37.85000 266.993
37.86000 264.854
37.87000 262.819
37.88000 260.081
37.89000 254.124
37.90000 247.768
37.91000 242.891
37.92000 243.904
37.93000 245.032
37.94000 246.812
37.95000 249.964
37.96000 253.159
37.97000 254.988
37.98000 254.862
37.99000 254.721
38.00000 254.624
38.01000 254.569
38.02000 254.528
38.03000 255.548
38.04000 257.227
38.05000 258.871
38.06000 259.671
38.07000 260.115
38.08000 260.531
38.09000 259.560
38.10000 258.310
38.11000 257.294
38.12000 257.915
38.13000 258.849
38.14000 260.122
38.15000 262.917
38.16000 265.897
38.17000 268.175
38.18000 270.481
38.19000 272.301
38.20000 272.084
38.21000 267.635
38.22000 263.056
38.23000 263.033
38.24000 269.425
38.25000 275.859
38.26000 277.492
38.27000 274.706
38.28000 271.989
38.29000 274.042
38.30000 279.012
38.31000 283.855
38.32000 285.789
38.33000 286.510
38.34000 287.185
38.35000 286.194
38.36000 284.861
38.37000 284.390
38.38000 289.830
38.39000 296.390
38.40000 303.490
38.41000 312.990
38.42000 322.776
38.43000 330.228
38.44000 329.970
38.45000 329.359
38.46000 333.158
38.47000 345.987
38.48000 359.084
38.49000 372.891
38.50000 387.683
38.51000 402.477
38.52000 422.446
38.53000 447.077
38.54000 471.649
38.55000 492.313
38.56000 510.622
38.57000 529.290
38.58000 555.935
38.59000 585.860
38.60000 613.845
38.61000 640.766
38.62000 664.943
38.63000 689.914
38.64000 720.233
38.65000 751.547
38.66000 784.615
38.67000 825.345
38.68000 866.971
38.69000 898.547
38.70000 907.895
38.71000 914.096
38.72000 923.391
38.73000 938.929
38.74000 954.645
38.75000 965.966
38.76000 971.289
38.77000 976.575
38.78000 975.547
38.79000 968.904
38.80000 962.082
38.81000 944.043
38.82000 919.345
38.83000 894.660
38.84000 870.249
38.85000 845.948
38.86000 823.260
38.87000 791.047
38.88000 759.459
38.89000 727.994
38.90000 697.346
38.91000 666.847
38.92000 635.760
38.93000 602.139
38.94000 568.229
38.95000 542.605
38.96000 510.428
38.97000 484.875
38.98000 462.666
38.99000 447.106
39.00000 431.729
39.01000 417.962
39.02000 406.361
39.03000 394.777
39.04000 375.876
39.05000 350.604
39.06000 325.553
39.07000 313.523
39.08000 309.109
39.09000 304.910
39.10000 305.216
39.11000 307.321
39.12000 309.283
39.13000 302.887
39.14000 295.040
39.15000 287.709
39.16000 283.733
39.17000 280.361
39.18000 277.006
39.19000 273.718
39.20000 270.438
39.21000 267.969
39.22000 266.019
39.23000 264.519
39.24000 263.661
39.25000 264.063
39.26000 264.498
39.27000 261.198
39.28000 252.953
39.29000 244.690
39.30000 243.406
39.31000 248.126
39.32000 252.774
39.33000 253.386
39.34000 251.673
39.35000 249.974
39.36000 248.566
39.37000 247.272
39.38000 246.069
39.39000 245.906
39.40000 246.010
39.41000 246.030
39.42000 245.514
39.43000 244.903
39.44000 245.043
39.45000 248.316
39.46000 251.934
39.47000 254.646
39.48000 250.936
39.49000 247.737
39.50000 244.571
39.51000 241.473
39.52000 238.375
39.53000 236.749
39.54000 237.038
39.55000 237.336
39.56000 240.139
39.57000 245.057
39.58000 249.860
39.59000 248.620
39.60000 243.948
39.61000 239.541
39.62000 240.375
39.63000 243.241
39.64000 245.903
39.65000 237.980
39.66000 228.313
39.67000 220.844
39.68000 227.172
39.69000 235.904
39.70000 242.302
39.71000 239.113
39.72000 234.889
39.73000 231.735
39.74000 237.812
39.75000 242.971
39.76000 244.921
39.77000 240.763
39.78000 236.457
39.79000 232.591
39.80000 229.290
39.81000 225.994
39.82000 225.520
39.83000 227.396
39.84000 229.320
39.85000 233.682
39.86000 239.409
39.87000 244.766
39.88000 243.051
39.89000 238.630
39.90000 234.531
39.91000 229.814
39.92000 225.422
39.93000 222.187
39.94000 226.096
39.95000 231.229
39.96000 234.869
39.97000 232.471
39.98000 229.436
39.99000 227.178
40.00000 225.697
40.01000 224.580
40.02000 223.351
40.03000 221.915
40.04000 220.473
40.05000 219.453
40.06000 218.966
40.07000 218.481
40.08000 222.395
40.09000 229.897
40.10000 237.270
40.11000 238.424
40.12000 236.149
40.13000 233.782
40.14000 229.694
40.15000 224.958
40.16000 220.575
40.17000 223.452
40.18000 227.710
40.19000 231.580
40.20000 233.096
40.21000 234.216
40.22000 234.877
40.23000 233.714
40.24000 232.361
40.25000 231.359
40.26000 226.812
40.27000 223.131
40.28000 222.095
40.29000 225.950
40.30000 229.912
40.31000 230.868
40.32000 228.085
40.33000 225.295
40.34000 224.036
40.35000 224.012
40.36000 224.024
40.37000 225.638
40.38000 228.123
40.39000 230.174
40.40000 224.365
40.41000 215.635
40.42000 207.569
40.43000 212.805
40.44000 220.515
40.45000 227.422
40.46000 229.542
40.47000 230.870
40.48000 230.934
40.49000 226.046
40.50000 220.655
40.51000 216.679
40.52000 222.070
40.53000 226.638
40.54000 230.005
40.55000 231.184
40.56000 232.317
40.57000 231.909
40.58000 229.617
40.59000 227.325
40.60000 225.897
40.61000 225.161
40.62000 224.332
40.63000 219.425
40.64000 212.334
40.65000 205.571
40.66000 204.573
40.67000 205.687
40.68000 206.715
40.69000 208.301
40.70000 209.846
40.71000 211.646
40.72000 214.942
40.73000 218.481
40.74000 221.415
40.75000 222.013
40.76000 222.378
40.77000 222.646
40.78000 220.269
40.79000 218.324
40.80000 216.969
40.81000 216.672
40.82000 216.396
40.83000 217.863
40.84000 221.429
40.85000 224.992
40.86000 225.072
40.87000 222.436
40.88000 219.787
40.89000 216.555
40.90000 213.015
40.91000 209.645
40.92000 209.190
40.93000 209.788
40.94000 210.338
40.95000 211.391
40.96000 212.442
40.97000 213.154
40.98000 211.910
40.99000 210.352
41.00000 209.557
41.01000 211.664
41.02000 214.055
41.03000 215.803
41.04000 212.276
41.05000 209.346
41.06000 208.076
41.07000 209.740
41.08000 211.461
41.09000 209.687
41.10000 203.772
41.11000 197.864
41.12000 200.789
41.13000 210.468
41.14000 219.945
41.15000 221.348
41.16000 218.552
41.17000 215.841
41.18000 214.562
41.19000 213.793
41.20000 213.086
41.21000 213.586
41.22000 214.293
41.23000 215.239
41.24000 217.539
41.25000 220.053
41.26000 221.592
41.27000 219.476
41.28000 217.011
41.29000 215.217
41.30000 214.131
41.31000 213.323
41.32000 213.693
41.33000 216.117
41.34000 218.579
41.35000 218.412
41.36000 215.180
41.37000 211.952
41.38000 213.530
41.39000 218.724
41.40000 223.804
41.41000 224.507
41.42000 222.967
41.43000 221.371
41.44000 218.868
41.45000 216.048
41.46000 213.461
41.47000 207.338
41.48000 201.134
41.49000 196.672
41.50000 201.931
41.51000 208.694
41.52000 213.976
41.53000 213.796
41.54000 213.106
41.55000 212.606
41.56000 214.793
41.57000 216.573
41.58000 215.219
41.59000 208.482
41.60000 201.653
41.61000 201.546
41.62000 209.149
41.63000 216.738
41.64000 220.567
41.65000 221.577
41.66000 222.545
41.67000 221.969
41.68000 220.612
41.69000 219.313
41.70000 218.905
41.71000 218.804
41.72000 218.713
41.73000 216.643
41.74000 214.391
41.75000 212.243
41.76000 210.664
41.77000 209.171
41.78000 208.467
41.79000 210.630
41.80000 213.056
41.81000 214.806
41.82000 208.254
41.83000 202.932
41.84000 201.488
41.85000 206.607
41.86000 211.834
41.87000 214.126
41.88000 213.107
41.89000 212.089
41.90000 211.744
41.91000 211.895
41.92000 211.999
41.93000 210.461
41.94000 208.105
41.95000 205.796
41.96000 204.204
41.97000 202.857
41.98000 201.627
41.99000 201.691
42.00000 202.014
42.01000 202.786
42.02000 205.988
42.03000 209.553
42.04000 211.877
42.05000 209.757
42.06000 207.239
42.07000 205.429
42.08000 207.116
42.09000 208.529
42.10000 209.191
42.11000 208.601
42.12000 207.991
42.13000 207.743
42.14000 207.895
42.15000 208.047
42.16000 208.780
42.17000 209.925
42.18000 211.069
42.19000 212.208
42.20000 213.344
42.21000 214.310
42.22000 212.724
42.23000 210.280
42.24000 208.052
42.25000 205.391
42.26000 202.945
42.27000 201.224
42.28000 203.352
42.29000 206.044
42.30000 207.982
42.31000 207.260
42.32000 206.305
42.33000 205.621
42.34000 207.921
42.35000 209.776
42.36000 211.474
42.37000 212.912
42.38000 214.346
42.39000 213.975
42.40000 211.634
42.41000 209.301
42.42000 205.694
42.43000 201.222
42.44000 196.871
42.45000 196.503
42.46000 198.062
42.47000 199.452
42.48000 198.370
42.49000 196.470
42.50000 194.741
42.51000 194.647
42.52000 194.887
42.53000 196.136
42.54000 202.662
42.55000 209.947
42.56000 214.586
42.57000 210.020
42.58000 204.667
42.59000 200.855
42.60000 200.330
42.61000 200.037
42.62000 200.524
42.63000 202.274
42.64000 204.041
42.65000 205.783
42.66000 207.498
42.67000 209.205
42.68000 207.742
42.69000 204.088
42.70000 200.461
42.71000 197.637
42.72000 195.197
42.73000 192.985
42.74000 194.026
42.75000 196.127
42.76000 198.036
42.77000 202.095
42.78000 206.097
42.79000 209.316
42.80000 208.511
42.81000 207.138
42.82000 204.207
42.83000 195.941
42.84000 187.229
42.85000 181.053
42.86000 189.966
42.87000 197.217
42.88000 201.338
42.89000 200.465
42.90000 199.529
42.91000 197.577
42.92000 194.552
42.93000 191.542
42.94000 191.353
42.95000 193.096
42.96000 194.873
42.97000 197.696
42.98000 201.011
42.99000 204.100
43.00000 204.035
43.01000 202.957
43.02000 201.981
43.03000 202.588
43.04000 203.425
43.05000 204.613
43.06000 207.577
43.07000 210.786
43.08000 212.615
43.09000 209.778
43.10000 206.561
43.11000 204.290
43.12000 210.182
43.13000 214.901
43.14000 215.172
43.15000 208.458
43.16000 201.660
43.17000 198.651
43.18000 199.579
43.19000 200.503
43.20000 201.787
43.21000 203.298
43.22000 204.686
43.23000 202.464
43.24000 198.570
43.25000 194.856
43.26000 193.577
43.27000 193.069
43.28000 192.609
43.29000 194.711
43.30000 197.040
43.31000 198.850
43.32000 198.074
43.33000 196.944
43.34000 196.539
43.35000 198.545
43.36000 200.743
43.37000 202.287
43.38000 196.648
43.39000 192.168
43.40000 190.391
43.41000 192.795
43.42000 195.247
43.43000 194.458
43.44000 190.358
43.45000 186.281
43.46000 187.814
43.47000 193.043
43.48000 197.973
43.49000 194.462
43.50000 187.099
43.51000 180.481
43.52000 183.761
43.53000 190.128
43.54000 195.877
43.55000 194.716
43.56000 192.424
43.57000 191.060
43.58000 194.231
43.59000 198.010
43.60000 201.438
43.61000 203.719
43.62000 205.909
43.63000 207.441
43.64000 201.034
43.65000 195.968
43.66000 195.269
43.67000 201.226
43.68000 207.253
43.69000 206.959
43.70000 200.317
43.71000 193.714
43.72000 194.116
43.73000 199.079
43.74000 203.699
43.75000 198.939
43.76000 189.960
43.77000 181.706
43.78000 182.846
43.79000 186.873
43.80000 190.501
43.81000 197.169
43.82000 203.568
43.83000 208.508
43.84000 206.427
43.85000 203.423
43.86000 200.727
43.87000 199.028
43.88000 197.406
43.89000 196.277
43.90000 203.863
43.91000 209.821
43.92000 209.663
43.93000 200.325
43.94000 190.897
43.95000 189.570
43.96000 196.242
43.97000 202.871
43.98000 202.361
43.99000 197.279
44.00000 192.311
44.01000 190.332
44.02000 189.680
44.03000 189.239
44.04000 191.475
44.05000 194.521
44.06000 197.260
44.07000 198.907
44.08000 200.155
44.09000 200.345
44.10000 195.516
44.11000 190.040
44.12000 187.016
44.13000 191.800
44.14000 197.163
44.15000 200.878
44.16000 197.558
44.17000 194.876
44.18000 192.311
44.19000 189.920
44.20000 187.531
44.21000 188.216
44.22000 191.887
44.23000 195.532
44.24000 194.763
44.25000 191.218
44.26000 188.027
44.27000 193.846
44.28000 203.601
44.29000 212.068
44.30000 204.580
44.31000 192.330
44.32000 181.341
44.33000 186.270
44.34000 193.354
44.35000 198.965
44.36000 197.706
44.37000 195.576
44.38000 193.617
44.39000 192.193
44.40000 190.808
44.41000 189.854
44.42000 191.523
44.43000 192.842
44.44000 193.066
44.45000 191.697
44.46000 190.315
44.47000 190.837
44.48000 193.177
44.49000 195.500
44.50000 197.384
44.51000 198.963
44.52000 200.474
44.53000 200.334
44.54000 199.483
44.55000 198.762
44.56000 199.622
44.57000 200.946
44.58000 202.132
44.59000 202.742
44.60000 203.176
44.61000 203.225
44.62000 201.502
44.63000 199.560
44.64000 198.484
44.65000 200.087
44.66000 201.880
44.67000 203.110
44.68000 201.930
44.69000 200.988
44.70000 200.803
44.71000 201.704
44.72000 202.615
44.73000 205.510
44.74000 210.268
44.75000 214.988
44.76000 218.671
44.77000 221.654
44.78000 224.453
44.79000 222.864
44.80000 219.413
44.81000 216.314
44.82000 217.374
44.83000 219.639
44.84000 221.662
44.85000 225.484
44.86000 229.115
44.87000 231.607
44.88000 228.946
44.89000 225.657
44.90000 224.040
44.91000 227.518
44.92000 231.349
44.93000 233.964
44.94000 231.814
44.95000 230.096
44.96000 232.780
44.97000 241.680
44.98000 250.622
44.99000 251.397
45.00000 244.632
45.01000 237.925
45.02000 239.396
45.03000 245.760
45.04000 251.920
45.05000 253.350
45.06000 252.801
45.07000 253.224
45.08000 264.894
45.09000 279.774
45.10000 293.035
45.11000 285.706
45.12000 275.932
45.13000 269.222
45.14000 276.151
45.15000 284.712
45.16000 290.504
45.17000 287.984
45.18000 284.904
45.19000 282.813
45.20000 292.562
45.21000 300.101
45.22000 301.412
45.23000 294.061
45.24000 286.656
45.25000 286.293
45.26000 292.327
45.27000 298.304
45.28000 293.665
45.29000 282.829
45.30000 272.407
45.31000 271.235
45.32000 273.877
45.33000 276.599
45.34000 280.218
45.35000 284.089
45.36000 287.532
45.37000 284.594
45.38000 281.010
45.39000 276.859
45.40000 270.222
45.41000 263.294
45.42000 258.823
45.43000 261.623
45.44000 264.900
45.45000 267.114
45.46000 265.890
45.47000 264.905
45.48000 261.555
45.49000 254.968
45.50000 248.363
45.51000 244.430
45.52000 242.883
45.53000 241.352
45.54000 234.101
45.55000 223.671
45.56000 213.934
45.57000 219.273
45.58000 230.739
45.59000 241.200
45.60000 240.535
45.61000 236.787
45.62000 233.462
45.63000 234.005
45.64000 235.092
45.65000 235.937
45.66000 235.746
45.67000 235.434
45.68000 232.981
45.69000 224.283
45.70000 215.185
45.71000 209.070
45.72000 212.135
45.73000 214.600
45.74000 217.087
45.75000 219.604
45.76000 222.120
45.77000 223.437
45.78000 223.699
45.79000 223.958
45.80000 223.626
45.81000 222.962
45.82000 222.135
45.83000 217.867
45.84000 212.221
45.85000 206.963
45.86000 205.919
45.87000 206.025
45.88000 206.119
45.89000 205.215
45.90000 204.276
45.91000 204.826
45.92000 211.702
45.93000 219.291
45.94000 223.325
45.95000 217.139
45.96000 210.315
45.97000 205.752
45.98000 194.344
45.99000 185.751
46.00000 182.006
46.01000 184.698
46.02000 187.420
46.03000 189.293
46.04000 190.430
46.05000 191.554
46.06000 193.264
46.07000 195.265
46.08000 196.978
46.09000 192.790
46.10000 186.272
46.11000 180.442
46.12000 181.898
46.13000 185.314
46.14000 188.330
46.15000 191.255
46.16000 193.767
46.17000 195.250
46.18000 192.432
46.19000 189.138
46.20000 186.300
46.21000 184.749
46.22000 183.277
46.23000 182.298
46.24000 186.480
46.25000 189.670
46.26000 190.956
46.27000 189.752
46.28000 188.535
46.29000 186.315
46.30000 183.242
46.31000 180.205
46.32000 179.320
46.33000 179.653
46.34000 180.008
46.35000 180.794
46.36000 181.747
46.37000 182.560
46.38000 181.921
46.39000 180.899
46.40000 179.997
46.41000 176.332
46.42000 172.757
46.43000 170.900
46.44000 176.125
46.45000 182.118
46.46000 184.689
46.47000 177.706
46.48000 170.158
46.49000 165.163
46.50000 174.339
46.51000 181.367
46.52000 183.100
46.53000 178.017
46.54000 172.921
46.55000 174.577
46.56000 181.889
46.57000 189.110
46.58000 185.786
46.59000 176.780
46.60000 168.315
46.61000 170.291
46.62000 176.273
46.63000 181.537
46.64000 179.511
46.65000 175.582
46.66000 172.129
46.67000 173.233
46.68000 174.856
46.69000 176.031
46.70000 175.388
46.71000 174.553
46.72000 174.459
46.73000 176.405
46.74000 178.468
46.75000 179.826
46.76000 178.621
46.77000 177.690
46.78000 176.633
46.79000 175.415
46.80000 174.199
46.81000 173.676
46.82000 173.722
46.83000 173.769
46.84000 176.127
46.85000 179.667
46.86000 182.834
46.87000 179.014
46.88000 172.551
46.89000 166.864
46.90000 168.901
46.91000 172.922
46.92000 176.448
46.93000 172.891
46.94000 168.808
46.95000 166.119
46.96000 169.003
46.97000 172.467
46.98000 174.152
46.99000 171.014
47.00000 167.605
47.01000 165.373
47.02000 174.825
47.03000 181.963
47.04000 182.289
47.05000 174.121
47.06000 165.941
47.07000 162.698
47.08000 163.461
47.09000 164.214
47.10000 163.784
47.11000 162.738
47.12000 161.899
47.13000 164.828
47.14000 169.161
47.15000 172.982
47.16000 171.823
47.17000 169.403
47.18000 167.286
47.19000 167.116
47.20000 167.247
47.21000 166.795
47.22000 164.052
47.23000 161.075
47.24000 159.691
47.25000 162.566
47.26000 165.673
47.27000 167.696
47.28000 168.820
47.29000 169.629
47.30000 168.739
47.31000 165.762
47.32000 162.783
47.33000 160.867
47.34000 159.799
47.35000 158.747
47.36000 157.334
47.37000 155.774
47.38000 154.298
47.39000 154.316
47.40000 154.881
47.41000 155.656
47.42000 158.422
47.43000 161.684
47.44000 164.531
47.45000 159.868
47.46000 154.830
47.47000 151.676
47.48000 155.827
47.49000 160.709
47.50000 164.473
47.51000 165.297
47.52000 165.964
47.53000 166.397
47.54000 166.249
47.55000 166.132
47.56000 167.302
47.57000 170.026
47.58000 172.744
47.59000 172.525
47.60000 169.997
47.61000 167.509
47.62000 165.236
47.63000 163.142
47.64000 161.271
47.65000 163.217
47.66000 166.546
47.67000 169.057
47.68000 163.914
47.69000 156.891
47.70000 150.779
47.71000 154.864
47.72000 159.752
47.73000 163.713
47.74000 164.137
47.75000 164.216
47.76000 164.614
47.77000 165.844
47.78000 167.117
47.79000 167.937
47.80000 163.636
47.81000 160.424
47.82000 159.868
47.83000 162.471
47.84000 165.072
47.85000 165.889
47.86000 165.326
47.87000 164.772
47.88000 165.611
47.89000 167.126
47.90000 168.519
47.91000 167.853
47.92000 166.451
47.93000 165.652
47.94000 170.381
47.95000 176.446
47.96000 181.712
47.97000 172.281
47.98000 162.266
47.99000 155.063
48.00000 158.438
48.01000 162.826
48.02000 166.655
48.03000 169.052
48.04000 171.378
48.05000 172.868
48.06000 164.289
48.07000 157.906
48.08000 155.905
48.09000 159.033
48.10000 162.161
48.11000 163.705
48.12000 164.043
48.13000 164.375
48.14000 160.226
48.15000 153.985
48.16000 148.300
48.17000 151.699
48.18000 158.292
48.19000 164.277
48.20000 164.789
48.21000 163.997
48.22000 163.312
48.23000 163.418
48.24000 163.613
48.25000 162.433
48.26000 156.155
48.27000 149.400
48.28000 145.309
48.29000 147.940
48.30000 150.897
48.31000 152.780
48.32000 161.628
48.33000 168.148
48.34000 173.201
48.35000 176.565
48.36000 179.900
48.37000 177.664
48.38000 171.250
48.39000 164.949
48.40000 164.194
48.41000 166.181
48.42000 168.017
48.43000 167.476
48.44000 166.110
48.45000 164.747
48.46000 163.409
48.47000 162.078
48.48000 160.928
48.49000 156.688
48.50000 152.687
48.51000 150.664
48.52000 155.854
48.53000 161.706
48.54000 166.265
48.55000 167.609
48.56000 168.801
48.57000 169.556
48.58000 159.252
48.59000 151.647
48.60000 148.908
48.61000 151.677
48.62000 154.436
48.63000 154.211
48.64000 151.783
48.65000 149.400
48.66000 151.220
48.67000 155.001
48.68000 158.398
48.69000 155.853
48.70000 151.278
48.71000 147.339
48.72000 148.908
48.73000 151.747
48.74000 154.193
48.75000 158.107
48.76000 161.610
48.77000 164.034
48.78000 162.573
48.79000 160.764
48.80000 159.598
48.81000 160.012
48.82000 160.498
48.83000 160.804
48.84000 161.661
48.85000 162.287
48.86000 161.662
48.87000 159.643
48.88000 157.631
48.89000 157.023
48.90000 157.436
48.91000 157.842
48.92000 154.167
48.93000 148.692
48.94000 143.866
48.95000 148.847
48.96000 157.129
48.97000 164.605
48.98000 165.243
48.99000 164.327
49.00000 163.540
49.01000 163.493
49.02000 163.545
49.03000 161.843
49.04000 153.928
49.05000 145.468
49.06000 141.883
49.07000 150.070
49.08000 158.778
49.09000 164.228
49.10000 163.397
49.11000 162.731
49.12000 159.432
49.13000 153.247
49.14000 147.099
49.15000 146.704
49.16000 150.429
49.17000 154.078
49.18000 155.672
49.19000 156.247
49.20000 156.510
49.21000 152.191
49.22000 146.351
49.23000 141.452
49.24000 144.377
49.25000 149.053
49.26000 153.060
49.27000 155.289
49.28000 156.954
49.29000 157.745
49.30000 155.490
49.31000 152.973
49.32000 151.211
49.33000 151.247
49.34000 151.359
49.35000 151.429
49.36000 154.155
49.37000 156.145
49.38000 154.836
49.39000 149.972
49.40000 145.146
49.41000 145.633
49.42000 149.866
49.43000 154.012
49.44000 151.818
49.45000 146.799
49.46000 142.220
49.47000 143.974
49.48000 147.798
49.49000 151.442
49.50000 153.612
49.51000 155.458
49.52000 157.037
49.53000 153.961
49.54000 150.811
49.55000 149.705
49.56000 155.628
49.57000 162.141
49.58000 165.088
49.59000 159.667
49.60000 153.899
49.61000 150.332
49.62000 153.668
49.63000 156.130
49.64000 157.601
49.65000 158.022
49.66000 158.443
49.67000 158.961
49.68000 159.546
49.69000 160.119
49.70000 157.682
49.71000 153.983
49.72000 150.594
49.73000 151.546
49.74000 153.898
49.75000 156.093
49.76000 157.034
49.77000 157.704
49.78000 158.275
49.79000 157.214
49.80000 156.130
49.81000 154.724
49.82000 152.226
49.83000 149.639
49.84000 148.744
49.85000 151.764
49.86000 154.941
49.87000 156.894
49.88000 155.738
49.89000 154.882
49.90000 154.924
49.91000 155.901
49.92000 156.852
49.93000 154.659
49.94000 150.317
49.95000 146.072
49.96000 146.700
49.97000 149.469
49.98000 152.132
49.99000 153.327
50.00000 154.056
50.01000 154.483
50.02000 152.538
50.03000 150.086
50.04000 148.002
50.05000 155.017
50.06000 161.953
50.07000 166.271
50.08000 161.848
50.09000 156.724
50.10000 153.820
50.11000 155.978
50.12000 158.333
50.13000 159.771
50.14000 159.058
50.15000 158.530
50.16000 161.542
50.17000 168.183
50.18000 174.748
50.19000 173.186
50.20000 166.151
50.21000 159.282
50.22000 154.151
50.23000 150.003
50.24000 146.219
50.25000 147.304
50.26000 149.912
50.27000 152.525
50.28000 155.178
50.29000 157.840
50.30000 160.097
50.31000 157.977
50.32000 155.705
50.33000 153.253
50.34000 150.205
50.35000 147.110
50.36000 147.484
50.37000 155.654
50.38000 164.117
50.39000 169.256
50.40000 171.154
50.41000 172.484
50.42000 175.587
50.43000 180.478
50.44000 185.277
50.45000 180.954
50.46000 170.578
50.47000 160.456
50.48000 162.329
50.49000 169.291
50.50000 175.987
50.51000 179.224
50.52000 181.394
50.53000 183.052
50.54000 180.839
50.55000 177.825
50.56000 175.278
50.57000 182.751
50.58000 190.110
50.59000 196.440
50.60000 199.439
50.61000 202.183
50.62000 203.384
50.63000 201.165
50.64000 198.822
50.65000 197.409
50.66000 203.902
50.67000 208.582
50.68000 213.167
50.69000 217.659
50.70000 222.130
50.71000 224.726
50.72000 226.095
50.73000 227.430
50.74000 228.127
50.75000 228.521
50.76000 228.673
50.77000 225.743
50.78000 221.876
50.79000 218.534
50.80000 219.094
50.81000 220.447
50.82000 221.588
50.83000 220.112
50.84000 218.596
50.85000 218.329
50.86000 222.055
50.87000 226.079
50.88000 228.956
50.89000 229.330
50.90000 229.616
50.91000 229.787
50.92000 222.158
50.93000 216.687
50.94000 212.408
50.95000 209.289
50.96000 206.158
50.97000 202.006
50.98000 197.196
50.99000 192.513
51.00000 191.987
51.01000 193.222
51.02000 194.317
51.03000 193.669
51.04000 192.499
51.05000 191.099
51.06000 188.021
51.07000 184.607
51.08000 181.737
51.09000 178.519
51.10000 175.801
51.11000 172.985
51.12000 169.865
51.13000 166.722
51.14000 165.043
51.15000 166.513
51.16000 168.089
51.17000 169.028
51.18000 161.209
51.19000 155.615
51.20000 152.828
51.21000 152.730
51.22000 152.651
51.23000 154.169
51.24000 156.699
51.25000 159.159
51.26000 159.303
51.27000 158.487
51.28000 157.445
51.29000 153.657
51.30000 149.059
51.31000 144.820
51.32000 143.156
51.33000 141.999
51.34000 141.029
51.35000 148.235
51.36000 155.079
51.37000 160.047
51.38000 159.201
51.39000 157.941
51.40000 157.198
51.41000 157.554
51.42000 157.946
51.43000 158.178
51.44000 155.662
51.45000 153.869
51.46000 152.504
51.47000 151.542
51.48000 150.614
51.49000 152.254
51.50000 155.499
51.51000 158.651
51.52000 155.453
51.53000 149.845
51.54000 144.772
51.55000 146.063
51.56000 149.202
51.57000 152.169
51.58000 153.912
51.59000 155.419
51.60000 156.678
51.61000 157.167
51.62000 157.494
51.63000 157.115
51.64000 154.576
51.65000 151.887
51.66000 149.509
51.67000 147.783
51.68000 146.078
51.69000 145.075
51.70000 145.065
51.71000 145.064
51.72000 146.102
51.73000 148.102
51.74000 150.089
51.75000 151.083
51.76000 151.465
51.77000 151.837
51.78000 148.883
51.79000 144.758
51.80000 140.942
51.81000 140.732
51.82000 141.555
51.83000 142.516
51.84000 144.439
51.85000 146.546
51.86000 148.302
51.87000 145.477
51.88000 142.680
51.89000 141.617
51.90000 145.776
51.91000 150.290
51.92000 152.404
51.93000 149.573
51.94000 146.593
51.95000 144.852
51.96000 151.429
51.97000 156.092
51.98000 155.514
51.99000 150.155
52.00000 144.877
52.01000 145.007
52.02000 148.417
52.03000 151.723
52.04000 152.905
52.05000 153.193
52.06000 152.980
52.07000 147.078
52.08000 139.571
52.09000 133.304
52.10000 135.442
52.11000 139.157
52.12000 142.245
52.13000 142.181
52.14000 141.821
52.15000 142.240
52.16000 144.969
52.17000 147.850
52.18000 148.388
52.19000 144.165
52.20000 139.803
52.21000 137.272
52.22000 139.105
52.23000 140.410
52.24000 142.454
52.25000 145.160
52.26000 147.803
52.27000 146.480
52.28000 142.786
52.29000 139.209
52.30000 141.182
52.31000 145.188
52.32000 148.649
52.33000 146.040
52.34000 141.743
52.35000 138.647
52.36000 143.554
52.37000 149.938
52.38000 155.228
52.39000 150.523
52.40000 145.684
52.41000 140.197
52.42000 132.810
52.43000 125.302
52.44000 122.752
52.45000 130.123
52.46000 137.771
52.47000 142.179
52.48000 146.399
52.49000 149.352
52.50000 150.906
52.51000 151.226
52.52000 151.526
52.53000 150.598
52.54000 148.949
52.55000 147.353
52.56000 146.288
52.57000 145.483
52.58000 144.467
52.59000 141.146
52.60000 137.194
52.61000 134.098
52.62000 136.610
52.63000 140.140
52.64000 143.055
52.65000 140.122
52.66000 137.158
52.67000 135.274
52.68000 136.498
52.69000 137.917
52.70000 139.295
52.71000 140.590
52.72000 141.884
52.73000 142.624
52.74000 144.727
52.75000 146.198
52.76000 145.512
52.77000 142.952
52.78000 140.462
52.79000 141.939
52.80000 145.716
52.81000 149.365
52.82000 149.864
52.83000 149.157
52.84000 148.092
52.85000 143.218
52.86000 137.316
52.87000 132.210
52.88000 132.232
52.89000 133.169
52.90000 133.941
52.91000 135.961
52.92000 137.736
52.93000 139.267
52.94000 140.100
52.95000 140.892
52.96000 142.199
52.97000 144.507
52.98000 146.842
52.99000 148.170
53.00000 144.375
53.01000 141.717
53.02000 140.065
53.03000 139.273
53.04000 138.531
53.05000 140.542
53.06000 144.125
53.07000 147.583
53.08000 149.741
53.09000 151.293
53.10000 152.710
53.11000 152.713
53.12000 152.339
53.13000 151.508
53.14000 147.788
53.15000 143.559
53.16000 140.088
53.17000 144.525
53.18000 148.875
53.19000 150.589
53.20000 144.927
53.21000 138.825
53.22000 135.171
53.23000 136.205
53.24000 137.354
53.25000 138.002
53.26000 136.910
53.27000 136.148
53.28000 136.402
53.29000 137.509
53.30000 138.660
53.31000 142.090
53.32000 146.802
53.33000 151.345
53.34000 155.428
53.35000 159.101
53.36000 161.953
53.37000 156.432
53.38000 148.720
53.39000 142.753
53.40000 147.634
53.41000 154.388
53.42000 159.915
53.43000 160.505
53.44000 160.557
53.45000 159.093
53.46000 153.444
53.47000 147.553
53.48000 144.579
53.49000 147.110
53.50000 149.771
53.51000 151.263
53.52000 149.861
53.53000 148.886
53.54000 149.993
53.55000 152.822
53.56000 155.616
53.57000 156.634
53.58000 156.668
53.59000 156.700
53.60000 151.178
53.61000 144.016
53.62000 137.660
53.63000 139.370
53.64000 143.157
53.65000 146.525
53.66000 147.325
53.67000 147.689
53.68000 147.985
53.69000 144.934
53.70000 142.153
53.71000 140.492
53.72000 141.881
53.73000 143.441
53.74000 143.553
53.75000 140.970
53.76000 138.327
53.77000 136.855
53.78000 139.792
53.79000 141.830
53.80000 142.753
53.81000 142.769
53.82000 142.768
53.83000 141.968
53.84000 140.731
53.85000 139.541
53.86000 139.913
53.87000 140.809
53.88000 141.569
53.89000 140.998
53.90000 140.088
53.91000 139.240
53.92000 138.754
53.93000 138.330
53.94000 137.984
53.95000 140.460
53.96000 142.717
53.97000 144.136
53.98000 143.307
53.99000 142.355
54.00000 141.171
54.01000 139.561
54.02000 137.942
54.03000 137.048
54.04000 141.824
54.05000 145.126
54.06000 147.537
54.07000 149.235
54.08000 150.831
54.09000 147.825
54.10000 142.340
54.11000 137.071
54.12000 134.872
54.13000 133.874
54.14000 133.158
54.15000 135.152
54.16000 137.825
54.17000 139.955
54.18000 138.888
54.19000 137.296
54.20000 136.005
54.21000 133.098
54.22000 130.597
54.23000 130.438
54.24000 136.467
54.25000 142.826
54.26000 145.233
54.27000 140.501
54.28000 135.622
54.29000 132.946
54.30000 135.600
54.31000 137.426
54.32000 136.919
54.33000 134.571
54.34000 132.291
54.35000 132.893
54.36000 135.026
54.37000 137.072
54.38000 138.519
54.39000 139.667
54.40000 140.509
54.41000 138.471
54.42000 135.724
54.43000 133.068
54.44000 130.949
54.45000 128.917
54.46000 127.274
54.47000 131.886
54.48000 136.136
54.49000 139.828
54.50000 142.067
54.51000 144.231
54.52000 144.086
54.53000 139.832
54.54000 135.498
54.55000 133.138
54.56000 138.701
54.57000 142.521
54.58000 144.551
54.59000 145.189
54.60000 145.711
54.61000 141.476
54.62000 134.751
54.63000 128.307
54.64000 127.435
54.65000 128.483
54.66000 129.210
54.67000 126.987
54.68000 124.048
54.69000 122.048
54.70000 125.405
54.71000 129.612
54.72000 133.000
54.73000 130.751
54.74000 128.486
54.75000 128.480
54.76000 134.274
54.77000 140.360
54.78000 144.634
54.79000 145.729
54.80000 146.764
54.81000 147.324
54.82000 143.118
54.83000 140.244
54.84000 139.713
54.85000 140.971
54.86000 142.185
54.87000 141.639
54.88000 140.185
54.89000 138.794
54.90000 140.427
54.91000 142.942
54.92000 145.182
54.93000 144.940
54.94000 144.105
54.95000 143.641
54.96000 145.264
54.97000 147.213
54.98000 148.776
54.99000 144.762
55.00000 141.085
55.01000 139.393
55.02000 142.728
55.03000 146.307
55.04000 147.926
55.05000 146.155
55.06000 144.324
55.07000 143.343
55.08000 142.886
55.09000 142.569
55.10000 141.089
55.11000 138.732
55.12000 136.420
55.13000 135.765
55.14000 135.952
55.15000 136.132
55.16000 139.308
55.17000 143.231
55.18000 146.613
55.19000 145.206
55.20000 142.673
55.21000 141.262
55.22000 146.054
55.23000 151.795
55.24000 156.388
55.25000 154.108
55.26000 151.752
55.27000 150.016
55.28000 149.823
55.29000 149.704
55.30000 148.539
55.31000 145.592
55.32000 142.616
55.33000 141.032
55.34000 144.307
55.35000 146.539
55.36000 148.563
55.37000 150.433
55.38000 152.250
55.39000 152.146
55.40000 151.080
55.41000 150.062
55.42000 153.294
55.43000 157.647
55.44000 161.252
55.45000 158.363
55.46000 153.970
55.47000 150.960
55.48000 155.470
55.49000 161.110
55.50000 165.607
55.51000 168.153
55.52000 170.065
55.53000 172.256
55.54000 175.134
55.55000 178.043
55.56000 179.046
55.57000 176.852
55.58000 174.607
55.59000 173.421
55.60000 181.162
55.61000 186.431
55.62000 193.036
55.63000 200.617
55.64000 208.043
55.65000 210.111
55.66000 209.534
55.67000 208.985
55.68000 210.695
55.69000 212.988
55.70000 215.476
55.71000 219.625
55.72000 224.152
55.73000 229.038
55.74000 235.840
55.75000 242.926
55.76000 248.556
55.77000 270.514
55.78000 289.358
55.79000 304.890
55.80000 312.397
55.81000 319.547
55.82000 330.015
55.83000 345.969
55.84000 362.005
55.85000 370.406
55.86000 395.467
55.87000 412.432
55.88000 427.511
55.89000 441.234
55.90000 455.005
55.91000 470.385
55.92000 486.547
55.93000 501.931
55.94000 520.854
55.95000 539.462
55.96000 555.769
55.97000 552.875
55.98000 545.670
55.99000 539.455
56.00000 538.448
56.01000 538.197
56.02000 537.998
56.03000 544.724
56.04000 550.611
56.05000 552.521
56.06000 544.936
56.07000 536.940
56.08000 526.405
56.09000 511.734
56.10000 497.005
56.11000 489.349
56.12000 493.737
56.13000 496.645
56.14000 491.334
56.15000 480.211
56.16000 468.892
56.17000 451.324
56.18000 430.758
56.19000 411.212
56.20000 399.007
56.21000 389.954
56.22000 381.022
56.23000 373.082
56.24000 365.362
56.25000 357.313
56.26000 347.559
56.27000 337.562
56.28000 329.673
56.29000 315.282
56.30000 303.297
56.31000 292.242
56.32000 283.377
56.33000 274.605
56.34000 266.423
56.35000 259.192
56.36000 251.972
56.37000 248.250
56.38000 231.093
56.39000 219.593
56.40000 215.516
56.41000 216.609
56.42000 217.578
56.43000 214.718
56.44000 210.047
56.45000 205.614
56.46000 196.559
56.47000 186.825
56.48000 178.323
56.49000 179.719
56.50000 183.269
56.51000 185.800
56.52000 183.146
56.53000 179.766
56.54000 177.109
56.55000 175.258
56.56000 173.830
56.57000 172.648
56.58000 172.037
56.59000 171.450
56.60000 170.215
56.61000 167.957
56.62000 165.686
56.63000 164.525
56.64000 157.851
56.65000 153.387
56.66000 151.146
56.67000 150.431
56.68000 149.624
56.69000 146.058
56.70000 141.208
56.71000 136.611
56.72000 138.008
56.73000 141.053
56.74000 144.009
56.75000 146.267
56.76000 148.376
56.77000 150.305
56.78000 151.335
56.79000 152.242
56.80000 152.952
56.81000 143.968
56.82000 136.165
56.83000 131.910
56.84000 135.771
56.85000 139.950
56.86000 142.222
56.87000 141.525
56.88000 140.792
56.89000 140.421
56.90000 144.052
56.91000 146.458
56.92000 146.059
56.93000 143.764
56.94000 141.558
56.95000 141.914
56.96000 143.447
56.97000 144.898
56.98000 143.135
56.99000 140.586
57.00000 138.015
57.01000 135.271
57.02000 132.490
57.03000 130.226
57.04000 130.509
57.05000 131.136
57.06000 131.626
57.07000 129.091
57.08000 126.880
57.09000 125.995
57.10000 128.099
57.11000 130.316
57.12000 130.649
57.13000 128.092
57.14000 125.504
57.15000 124.202
57.16000 121.921
57.17000 120.439
57.18000 123.225
57.19000 128.851
57.20000 134.283
57.21000 134.299
57.22000 131.865
57.23000 129.564
57.24000 129.511
57.25000 130.100
57.26000 130.753
57.27000 131.888
57.28000 133.122
57.29000 133.870
57.30000 132.257
57.31000 130.331
57.32000 128.833
57.33000 128.619
57.34000 128.528
57.35000 129.892
57.36000 134.492
57.37000 139.210
57.38000 140.192
57.39000 135.528
57.40000 130.807
57.41000 128.163
57.42000 127.588
57.43000 127.000
57.44000 125.314
57.45000 122.907
57.46000 120.622
57.47000 121.564
57.48000 123.946
57.49000 126.193
57.50000 126.915
57.51000 127.149
57.52000 127.553
57.53000 129.218
57.54000 131.141
57.55000 132.504
57.56000 131.197
57.57000 129.543
57.58000 128.261
57.59000 128.356
57.60000 128.513
57.61000 127.904
57.62000 125.613
57.63000 123.263
57.64000 122.078
57.65000 122.628
57.66000 123.195
57.67000 123.550
57.68000 123.699
57.69000 123.861
57.70000 125.151
57.71000 127.171
57.72000 129.089
57.73000 128.383
57.74000 126.524
57.75000 124.773
57.76000 124.578
57.77000 124.827
57.78000 125.235
57.79000 126.806
57.80000 128.611
57.81000 129.993
57.82000 129.386
57.83000 128.525
57.84000 127.860
57.85000 129.152
57.86000 130.291
57.87000 130.385
57.88000 128.226
57.89000 125.991
57.90000 124.437
57.91000 123.883
57.92000 123.338
57.93000 123.734
57.94000 125.034
57.95000 126.334
57.96000 127.605
57.97000 128.858
57.98000 129.937
57.99000 126.669
58.00000 121.517
58.01000 116.672
58.02000 120.483
58.03000 126.306
58.04000 131.126
58.05000 128.739
58.06000 124.928
58.07000 122.768
58.08000 128.248
58.09000 134.685
58.10000 139.637
58.11000 136.602
58.12000 133.748
58.13000 131.836
58.14000 131.928
58.15000 132.086
58.16000 131.497
58.17000 129.831
58.18000 128.156
58.19000 126.676
58.20000 125.381
58.21000 124.086
58.22000 122.813
58.23000 121.554
58.24000 120.291
58.25000 118.957
58.26000 117.592
58.27000 116.310
58.28000 118.234
58.29000 120.842
58.30000 123.377
58.31000 125.405
58.32000 127.334
58.33000 128.651
58.34000 127.183
58.35000 125.371
58.36000 123.983
58.37000 127.229
58.38000 130.048
58.39000 131.313
58.40000 129.321
58.41000 127.226
58.42000 124.664
58.43000 121.440
58.44000 118.211
58.45000 117.852
58.46000 120.160
58.47000 122.423
58.48000 121.376
58.49000 118.286
58.50000 115.362
58.51000 116.325
58.52000 118.923
58.53000 121.360
58.54000 123.416
58.55000 125.189
58.56000 126.092
58.57000 120.953
58.58000 114.658
58.59000 109.997
58.60000 112.662
58.61000 116.210
58.62000 118.919
58.63000 121.956
58.64000 124.367
58.65000 125.683
58.66000 124.736
58.67000 123.720
58.68000 122.736
58.69000 121.796
58.70000 120.858
58.71000 119.260
58.72000 117.059
58.73000 114.923
58.74000 117.156
58.75000 122.046
58.76000 126.704
58.77000 126.087
58.78000 123.280
58.79000 120.653
58.80000 123.419
58.81000 127.322
58.82000 130.409
58.83000 127.932
58.84000 124.408
58.85000 121.598
58.86000 121.940
58.87000 122.655
58.88000 123.199
58.89000 117.886
58.90000 113.401
58.91000 111.866
58.92000 116.340
58.93000 120.990
58.94000 123.501
58.95000 123.062
58.96000 122.605
58.97000 122.930
58.98000 123.958
58.99000 124.936
59.00000 122.704
59.01000 118.549
59.02000 114.527
59.03000 113.430
59.04000 113.531
59.05000 113.625
59.06000 114.837
59.07000 116.219
59.08000 117.182
59.09000 115.335
59.10000 112.967
59.11000 111.516
59.12000 114.048
59.13000 117.042
59.14000 119.311
59.15000 123.657
59.16000 127.174
59.17000 127.646
59.18000 122.008
59.19000 116.197
59.20000 114.180
59.21000 117.314
59.22000 120.475
59.23000 120.270
59.24000 117.089
59.25000 113.963
59.26000 114.275
59.27000 116.617
59.28000 118.795
59.29000 117.477
59.30000 114.749
59.31000 112.203
59.32000 112.567
59.33000 113.621
59.34000 114.877
59.35000 117.460
59.36000 120.284
59.37000 122.165
59.38000 120.008
59.39000 117.391
59.40000 115.417
59.41000 116.999
59.42000 118.415
59.43000 119.204
59.44000 118.754
59.45000 118.271
59.46000 118.475
59.47000 119.597
59.48000 120.723
59.49000 121.133
59.50000 120.920
59.51000 120.711
59.52000 120.688
59.53000 120.772
59.54000 120.770
59.55000 118.960
59.56000 116.432
59.57000 114.077
59.58000 115.627
59.59000 117.985
59.60000 120.401
59.61000 123.189
59.62000 126.045
59.63000 127.655
59.64000 124.021
59.65000 119.802
59.66000 116.632
59.67000 115.637
59.68000 114.964
59.69000 115.129
59.70000 116.927
59.71000 118.766
59.72000 118.121
59.73000 114.206
59.74000 110.278
59.75000 109.259
59.76000 110.729
59.77000 112.191
59.78000 113.238
59.79000 114.046
59.80000 114.877
59.81000 116.158
59.82000 117.615
59.83000 118.969
59.84000 119.280
59.85000 119.309
59.86000 119.369
59.87000 119.625
59.88000 119.915
59.89000 119.245
59.90000 114.593
59.91000 109.506
59.92000 105.697
59.93000 118.179
59.94000 128.681
59.95000 133.346
59.96000 126.799
59.97000 119.974
59.98000 116.892
59.99000 118.661
60.00000 120.449
60.01000 120.463
60.02000 118.984
60.03000 117.485
60.04000 114.917
60.05000 111.745
60.06000 108.929
60.07000 113.052
60.08000 119.855
60.09000 126.170
60.10000 127.714
60.11000 127.976
60.12000 127.741
60.13000 124.401
60.14000 120.524
60.15000 117.593
60.16000 118.530
60.17000 119.883
60.18000 120.891
60.19000 116.883
60.20000 113.534
60.21000 112.665
60.22000 116.492
60.23000 120.431
60.24000 121.440
60.25000 118.709
60.26000 115.968
60.27000 115.452
60.28000 116.778
60.29000 118.078
60.30000 118.049
60.31000 117.281
60.32000 116.594
60.33000 117.437
60.34000 118.863
60.35000 120.185
60.36000 116.438
60.37000 111.886
60.38000 108.321
60.39000 110.806
60.40000 114.322
60.41000 116.866
60.42000 115.496
60.43000 113.715
60.44000 112.393
60.45000 114.053
60.46000 115.475
60.47000 117.354
60.48000 120.088
60.49000 122.842
60.50000 123.783
60.51000 122.449
60.52000 121.110
60.53000 120.931
60.54000 121.697
60.55000 122.382
60.56000 119.177
60.57000 113.840
60.58000 108.859
60.59000 110.457
60.60000 114.522
60.61000 118.283
60.62000 120.998
60.63000 123.199
60.64000 124.654
60.65000 121.614
60.66000 117.821
60.67000 115.175
60.68000 117.077
60.69000 119.446
60.70000 121.198
60.71000 123.439
60.72000 125.198
60.73000 125.341
60.74000 122.510
60.75000 119.615
60.76000 119.405
60.77000 122.514
60.78000 125.627
60.79000 126.170
60.80000 124.653
60.81000 123.152
60.82000 122.351
60.83000 121.927
60.84000 121.554
60.85000 122.098
60.86000 122.980
60.87000 123.795
60.88000 123.372
60.89000 122.714
60.90000 122.331
60.91000 123.578
60.92000 125.094
60.93000 125.466
60.94000 121.374
60.95000 116.832
60.96000 113.487
60.97000 118.455
60.98000 122.644
60.99000 126.445
61.00000 129.539
61.01000 132.618
61.02000 130.764
61.03000 122.906
61.04000 115.050
61.05000 116.216
61.06000 124.483
61.07000 132.591
61.08000 133.864
61.09000 131.494
61.10000 129.186
61.11000 127.948
61.12000 127.100
61.13000 126.319
61.14000 123.986
61.15000 121.553
61.16000 119.759
61.17000 121.682
61.18000 124.207
61.19000 126.043
61.20000 125.228
61.21000 124.152
61.22000 123.364
61.23000 122.769
61.24000 122.317
61.25000 123.928
61.26000 129.222
61.27000 134.589
61.28000 136.227
61.29000 133.401
61.30000 130.573
61.31000 129.278
61.32000 129.179
61.33000 129.064
61.34000 128.304
61.35000 127.206
61.36000 126.109
61.37000 125.025
61.38000 123.948
61.39000 122.956
61.40000 125.648
61.41000 128.856
61.42000 131.660
61.43000 132.151
61.44000 132.273
61.45000 133.025
61.46000 136.163
61.47000 139.531
61.48000 141.991
61.49000 152.076
61.50000 160.148
61.51000 167.193
61.52000 172.428
61.53000 177.630
61.54000 186.815
61.55000 200.692
61.56000 214.543
61.57000 229.934
61.58000 246.404
61.59000 262.786
61.60000 275.637
61.61000 286.661
61.62000 297.609
61.63000 307.297
61.64000 316.540
61.65000 325.028
61.66000 321.663
61.67000 316.128
61.68000 312.731
61.69000 321.388
61.70000 331.931
61.71000 338.833
61.72000 332.158
61.73000 324.198
61.74000 318.412
61.75000 303.747
61.76000 292.129
61.77000 278.877
61.78000 262.790
61.79000 246.653
61.80000 229.579
61.81000 211.417
61.82000 193.303
61.83000 181.101
61.84000 173.415
61.85000 165.732
61.86000 158.149
61.87000 150.617
61.88000 143.324
61.89000 139.871
61.90000 137.758
61.91000 135.821
61.92000 137.169
61.93000 139.061
61.94000 139.805
61.95000 134.189
61.96000 127.595
61.97000 123.350
61.98000 127.728
61.99000 132.905
62.00000 136.653
62.01000 134.514
62.02000 132.657
62.03000 131.448
62.04000 131.346
62.05000 131.264
62.06000 130.556
62.07000 129.134
62.08000 127.716
62.09000 129.276
62.10000 133.020
62.11000 136.671
62.12000 136.882
62.13000 135.365
62.14000 133.642
62.15000 128.682
62.16000 122.609
62.17000 117.053
62.18000 118.714
62.19000 121.681
62.20000 124.237
62.21000 124.549
62.22000 124.521
62.23000 124.637
62.24000 125.275
62.25000 125.960
62.26000 126.454
62.27000 125.653
62.28000 124.994
62.29000 126.314
62.30000 130.968
62.31000 135.675
62.32000 136.557
62.33000 133.147
62.34000 129.746
62.35000 129.571
62.36000 131.742
62.37000 133.879
62.38000 134.872
62.39000 135.297
62.40000 135.716
62.41000 136.028
62.42000 136.304
62.43000 136.555
62.44000 136.786
62.45000 136.987
62.46000 136.689
62.47000 133.714
62.48000 130.341
62.49000 127.908
62.50000 128.823
62.51000 130.035
62.52000 130.905
62.53000 129.484
62.54000 128.319
62.55000 128.871
62.56000 132.272
62.57000 135.716
62.58000 136.790
62.59000 135.245
62.60000 133.705
62.61000 134.199
62.62000 136.139
62.63000 138.022
62.64000 137.953
62.65000 136.932
62.66000 136.037
62.67000 137.024
62.68000 138.639
62.69000 140.112
62.70000 138.578
62.71000 136.619
62.72000 134.718
62.73000 133.128
62.74000 131.583
62.75000 131.671
62.76000 137.492
62.77000 143.811
62.78000 148.325
62.79000 142.097
62.80000 136.989
62.81000 133.693
62.82000 133.359
62.83000 133.067
62.84000 131.385
62.85000 128.195
62.86000 125.018
62.87000 125.892
62.88000 129.606
62.89000 133.289
62.90000 136.012
62.91000 138.273
62.92000 140.618
62.93000 144.196
62.94000 148.180
62.95000 151.803
62.96000 147.808
62.97000 142.781
62.98000 137.946
62.99000 134.110
63.00000 130.417
63.01000 128.038
63.02000 130.204
63.03000 132.754
63.04000 134.568
63.05000 135.992
63.06000 137.064
63.07000 138.261
63.08000 139.658
63.09000 141.058
63.10000 139.361
63.11000 134.356
63.12000 129.374
63.13000 128.801
63.14000 131.283
63.15000 133.803
63.16000 137.498
63.17000 141.750
63.18000 145.669
63.19000 144.875
63.20000 142.552
63.21000 140.444
63.22000 136.459
63.23000 132.579
63.24000 130.065
63.25000 134.531
63.26000 139.979
63.27000 142.977
63.28000 137.621
63.29000 131.572
63.30000 127.291
63.31000 129.067
63.32000 130.604
63.33000 131.475
63.34000 131.290
63.35000 131.092
63.36000 131.486
63.37000 132.501
63.38000 133.512
63.39000 134.760
63.40000 136.157
63.41000 137.560
63.42000 139.178
63.43000 140.896
63.44000 142.393
63.45000 140.841
63.46000 138.314
63.47000 136.025
63.48000 139.445
63.49000 143.540
63.50000 146.882
63.51000 146.441
63.52000 145.477
63.53000 144.761
63.54000 144.878
63.55000 145.062
63.56000 145.191
63.57000 138.339
63.58000 132.935
63.59000 132.542
63.60000 139.981
63.61000 147.512
63.62000 148.887
63.63000 143.903
63.64000 138.946
63.65000 136.408
63.66000 135.522
63.67000 134.652
63.68000 134.269
63.69000 134.110
63.70000 133.935
63.71000 133.541
63.72000 133.079
63.73000 132.661
63.74000 136.548
63.75000 140.769
63.76000 144.728
63.77000 147.391
63.78000 149.879
63.79000 151.341
63.80000 149.410
63.81000 147.211
63.82000 145.668
63.83000 145.495
63.84000 145.403
63.85000 143.135
63.86000 137.519
63.87000 131.865
63.88000 131.689
63.89000 137.076
63.90000 142.432
63.91000 145.464
63.92000 146.926
63.93000 148.315
63.94000 147.681
63.95000 146.129
63.96000 144.629
63.97000 143.810
63.98000 143.203
63.99000 142.655
64.00000 144.606
64.01000 146.777
64.02000 148.637
64.03000 148.983
64.04000 149.128
64.05000 148.464
64.06000 145.158
64.07000 141.649
64.08000 139.199
64.09000 142.083
64.10000 144.410
64.11000 146.559
64.12000 148.438
64.13000 150.314
64.14000 151.611
64.15000 152.328
64.16000 153.040
64.17000 151.590
64.18000 148.758
64.19000 146.086
64.20000 147.718
64.21000 151.277
64.22000 154.750
64.23000 157.110
64.24000 159.132
64.25000 160.951
64.26000 163.404
64.27000 165.668
64.28000 166.595
64.29000 161.121
64.30000 154.811
64.31000 150.066
64.32000 150.349
64.33000 151.013
64.34000 151.474
64.35000 154.500
64.36000 156.849
64.37000 159.744
64.38000 163.455
64.39000 167.174
64.40000 167.838
64.41000 165.504
64.42000 163.185
64.43000 160.508
64.44000 157.643
64.45000 154.973
64.46000 157.372
64.47000 162.008
64.48000 166.152
64.49000 164.125
64.50000 160.237
64.51000 156.746
64.52000 159.322
64.53000 162.647
64.54000 165.737
64.55000 167.722
64.56000 169.565
64.57000 169.947
64.58000 165.701
64.59000 161.114
64.60000 157.943
64.61000 159.103
64.62000 160.088
64.63000 162.322
64.64000 166.394
64.65000 170.483
64.66000 172.510
64.67000 172.549
64.68000 172.587
64.69000 173.422
64.70000 174.743
64.71000 175.852
64.72000 171.606
64.73000 165.032
64.74000 159.257
64.75000 163.300
64.76000 170.258
64.77000 176.494
64.78000 181.948
64.79000 186.577
64.80000 189.582
64.81000 185.047
64.82000 179.564
64.83000 175.614
64.84000 176.451
64.85000 177.633
64.86000 178.446
64.87000 182.689
64.88000 185.958
64.89000 188.207
64.90000 188.978
64.91000 189.737
64.92000 189.744
64.93000 189.035
64.94000 188.332
64.95000 184.907
64.96000 179.859
64.97000 175.157
64.98000 178.876
64.99000 186.203
65.00000 193.334
65.01000 198.118
65.02000 202.214
65.03000 205.879
65.04000 202.898
65.05000 199.168
65.06000 197.610
65.07000 205.978
65.08000 215.572
65.09000 222.539
65.10000 221.427
65.11000 219.748
65.12000 218.598
65.13000 211.282
65.14000 205.658
65.15000 205.475
65.16000 213.056
65.17000 220.695
65.18000 226.147
65.19000 229.557
65.20000 232.938
65.21000 232.448
65.22000 229.612
65.23000 226.973
65.24000 228.997
65.25000 232.990
65.26000 236.717
65.27000 237.326
65.28000 237.036
65.29000 236.777
65.30000 238.830
65.31000 241.003
65.32000 244.982
65.33000 257.082
65.34000 270.166
65.35000 279.517
65.36000 277.555
65.37000 274.818
65.38000 272.953
65.39000 291.301
65.40000 305.474
65.41000 315.534
65.42000 319.818
65.43000 324.061
65.44000 329.248
65.45000 335.299
65.46000 341.297
65.47000 350.136
65.48000 360.505
65.49000 370.737
65.50000 377.840
65.51000 383.642
65.52000 389.206
65.53000 392.046
65.54000 394.113
65.55000 395.953
65.56000 415.330
65.57000 435.047
65.58000 454.395
65.59000 472.113
65.60000 489.638
65.61000 511.593
65.62000 546.778
65.63000 582.847
65.64000 607.294
65.65000 632.802
65.66000 651.843
65.67000 691.008
65.68000 758.015
65.69000 825.219
65.70000 923.293
65.71000 1049.249
65.72000 1174.013
65.73000 1301.696
65.74000 1428.492
65.75000 1555.403
65.76000 1684.870
65.77000 1815.385
65.78000 1942.128
65.79000 2026.507
65.80000 2099.035
65.81000 2163.475
65.82000 2200.577
65.83000 2228.350
65.84000 2253.842
65.85000 2269.392
65.86000 2283.784
65.87000 2289.329
65.88000 2268.836
65.89000 2246.646
65.90000 2231.682
65.91000 2181.567
65.92000 2143.541
65.93000 2067.708
65.94000 1940.372
65.95000 1812.732
65.96000 1678.191
65.97000 1537.518
65.98000 1398.259
65.99000 1254.266
66.00000 1110.623
66.01000 968.909
66.02000 868.608
66.03000 785.058
66.04000 703.385
66.05000 642.348
66.06000 586.998
66.07000 537.931
66.08000 512.800
66.09000 494.831
66.10000 476.868
66.11000 458.935
66.12000 441.006
66.13000 427.671
66.14000 427.665
66.15000 428.505
66.16000 429.069
66.17000 420.758
66.18000 414.407
66.19000 409.317
66.20000 405.917
66.21000 402.535
66.22000 408.487
66.23000 422.598
66.24000 436.558
66.25000 452.723
66.26000 469.781
66.27000 486.946
66.28000 506.344
66.29000 526.632
66.30000 547.818
66.31000 578.664
66.32000 612.132
66.33000 641.732
66.34000 655.266
66.35000 664.466
66.36000 672.830
66.37000 677.668
66.38000 682.111
66.39000 684.412
66.40000 680.591
66.41000 676.390
66.42000 673.586
66.43000 681.425
66.44000 687.438
66.45000 688.911
66.46000 684.391
66.47000 679.831
66.48000 666.429
66.49000 645.424
66.50000 624.655
66.51000 601.664
66.52000 577.970
66.53000 554.280
66.54000 530.674
66.55000 507.102
66.56000 483.681
66.57000 461.863
66.58000 440.474
66.59000 421.600
66.60000 418.139
66.61000 417.504
66.62000 414.951
66.63000 404.417
66.64000 393.005
66.65000 382.673
66.66000 375.382
66.67000 368.274
66.68000 363.554
66.69000 369.996
66.70000 374.965
66.71000 377.685
66.72000 377.482
66.73000 377.264
66.74000 375.685
66.75000 372.954
66.76000 370.256
66.77000 373.676
66.78000 380.393
66.79000 386.855
66.80000 388.318
66.81000 387.845
66.82000 387.638
66.83000 390.177
66.84000 393.439
66.85000 396.311
66.86000 390.727
66.87000 384.652
66.88000 380.145
66.89000 382.058
66.90000 384.663
66.91000 388.366
66.92000 395.122
66.93000 402.057
66.94000 406.637
66.95000 407.316
66.96000 407.748
66.97000 403.819
66.98000 394.309
66.99000 384.799
67.00000 385.775
67.01000 395.483
67.02000 405.068
67.03000 408.566
67.04000 408.662
67.05000 408.753
67.06000 408.773
67.07000 408.766
67.08000 408.436
67.09000 404.855
67.10000 400.430
67.11000 396.544
67.12000 405.982
67.13000 416.052
67.14000 424.795
67.15000 428.181
67.16000 431.001
67.17000 431.949
67.18000 427.768
67.19000 423.294
67.20000 420.355
67.21000 418.068
67.22000 416.395
67.23000 415.647
67.24000 416.062
67.25000 416.473
67.26000 413.312
67.27000 407.224
67.28000 401.216
67.29000 401.655
67.30000 405.532
67.31000 409.629
67.32000 417.800
67.33000 427.505
67.34000 436.187
67.35000 434.756
67.36000 430.742
67.37000 427.224
67.38000 430.750
67.39000 434.792
67.40000 438.876
67.41000 443.131
67.42000 447.404
67.43000 450.856
67.44000 452.091
67.45000 453.203
67.46000 453.930
67.47000 452.403
67.48000 451.245
67.49000 450.530
67.50000 450.363
67.51000 450.213
67.52000 455.218
67.53000 464.382
67.54000 473.418
67.55000 474.498
67.56000 471.356
67.57000 468.322
67.58000 467.232
67.59000 466.863
67.60000 466.534
67.61000 466.585
67.62000 466.731
67.63000 466.859
67.64000 470.433
67.65000 473.981
67.66000 476.773
67.67000 476.607
67.68000 476.142
67.69000 477.954
67.70000 485.822
67.71000 494.018
67.72000 499.344
67.73000 498.996
67.74000 498.655
67.75000 496.332
67.76000 491.593
67.77000 486.845
67.78000 481.398
67.79000 475.395
67.80000 469.481
67.81000 477.717
67.82000 493.049
67.83000 507.678
67.84000 510.007
67.85000 507.840
67.86000 505.846
67.87000 505.501
67.88000 505.565
67.89000 505.620
67.90000 510.392
67.91000 515.126
67.92000 517.901
67.93000 513.125
67.94000 507.599
67.95000 504.755
67.96000 508.940
67.97000 513.493
67.98000 516.436
67.99000 528.555
68.00000 537.548
68.01000 544.265
68.02000 548.247
68.03000 552.227
68.04000 557.154
68.05000 562.822
68.06000 568.402
68.07000 565.408
68.08000 558.128
68.09000 551.454
68.10000 555.108
68.11000 562.482
68.12000 568.974
68.13000 567.261
68.14000 563.546
68.15000 560.315
68.16000 568.666
68.17000 577.369
68.18000 585.632
68.19000 592.222
68.20000 598.650
68.21000 600.443
68.22000 590.260
68.23000 579.466
68.24000 572.529
68.25000 587.998
68.26000 599.593
68.27000 609.243
68.28000 616.596
68.29000 623.922
68.30000 625.965
68.31000 623.940
68.32000 621.948
68.33000 620.592
68.34000 619.597
68.35000 619.441
68.36000 633.215
68.37000 651.936
68.38000 669.338
68.39000 674.741
68.40000 677.258
68.41000 679.441
68.42000 694.161
68.43000 708.373
68.44000 718.409
68.45000 712.817
68.46000 705.739
68.47000 706.879
68.48000 728.944
68.49000 752.044
68.50000 766.808
68.51000 768.457
68.52000 769.484
68.53000 779.531
68.54000 800.068
68.55000 820.620
68.56000 841.131
68.57000 861.611
68.58000 881.744
68.59000 906.048
68.60000 931.607
68.61000 958.111
68.62000 999.898
68.63000 1047.033
68.64000 1094.539
68.65000 1145.353
68.66000 1196.951
68.67000 1241.597
68.68000 1316.132
68.69000 1383.417
68.70000 1443.064
68.71000 1474.560
68.72000 1503.436
68.73000 1540.008
68.74000 1595.892
68.75000 1652.703
68.76000 1688.806
68.77000 1769.845
68.78000 1829.256
68.79000 1882.865
68.80000 1929.833
68.81000 1976.956
68.82000 2055.309
68.83000 2156.958
68.84000 2256.798
68.85000 2382.023
68.86000 2515.285
68.87000 2654.718
68.88000 2891.409
68.89000 3161.642
68.90000 3477.275
68.91000 4190.418
68.92000 4996.225
68.93000 5691.684
68.94000 7948.282
68.95000 10063.965
68.96000 12501.938
68.97000 16110.024
68.98000 19824.668
68.99000 23693.096
69.00000 27941.924
69.01000 32208.486
69.02000 34904.281
69.03000 39309.492
69.04000 42521.543
69.05000 45023.176
69.06000 46724.828
69.07000 48422.500
69.08000 49548.348
69.09000 50254.238
69.10000 50947.000
69.11000 51698.086
69.12000 52450.262
69.13000 53208.098
69.14000 54052.840
69.15000 54927.125
69.16000 55733.484
69.17000 55956.699
69.18000 56046.063
69.19000 56122.992
69.20000 54089.879
69.21000 52101.656
69.22000 49778.313
69.23000 46256.320
69.24000 42627.535
69.25000 39209.633
69.26000 36305.895
69.27000 33425.398
69.28000 31615.924
69.29000 29591.771
69.30000 28126.020
69.31000 27091.523
69.32000 26534.775
69.33000 25978.820
69.34000 25499.654
69.35000 25076.018
69.36000 24660.611
69.37000 23819.559
69.38000 22808.934
69.39000 21750.502
69.40000 19976.219
69.41000 17962.154
69.42000 15928.106
69.43000 13725.788
69.44000 11485.444
69.45000 9561.955
69.46000 7755.253
69.47000 6242.243
69.48000 4888.101
69.49000 4093.777
69.50000 3348.242
69.51000 2723.072
69.52000 2387.160
69.53000 2063.922
69.54000 1862.059
69.55000 1645.046
69.56000 1488.352
69.57000 1373.356
69.58000 1303.797
69.59000 1234.374
69.60000 1181.657
69.61000 1140.838
69.62000 1100.845
69.63000 1065.381
69.64000 1033.378
69.65000 1001.043
69.66000 963.872
69.67000 925.104
69.68000 887.174
69.69000 856.162
69.70000 826.689
69.71000 801.451
69.72000 785.065
69.73000 772.311
69.74000 757.078
69.75000 733.241
69.76000 708.671
69.77000 690.223
69.78000 686.277
69.79000 682.946
69.80000 680.878
69.81000 686.698
69.82000 690.965
69.83000 681.663
69.84000 657.819
69.85000 634.049
69.86000 620.637
69.87000 614.490
69.88000 608.473
69.89000 600.494
69.90000 591.934
69.91000 583.282
69.92000 573.321
69.93000 562.935
69.94000 553.516
69.95000 551.939
69.96000 552.080
69.97000 552.200
69.98000 551.269
69.99000 550.359
70.00000 547.110
