20.00000 490.890
20.01000 490.909
20.02000 490.930
20.03000 491.291
20.04000 492.995
20.05000 494.837
20.06000 496.196
20.07000 496.357
20.08000 496.431
20.09000 495.439
20.10000 492.497
20.11000 489.512
20.12000 486.121
20.13000 482.229
20.14000 478.343
20.15000 479.150
20.16000 483.692
20.17000 488.109
20.18000 486.879
20.19000 482.611
20.20000 478.981
20.21000 486.669
20.22000 498.525
20.23000 509.466
20.24000 500.637
20.25000 488.297
20.26000 477.611
20.27000 476.683
20.28000 477.354
20.29000 477.613
20.30000 476.272
20.31000 474.770
20.32000 473.665
20.33000 483.958
20.34000 492.389
20.35000 498.941
20.36000 502.104
20.37000 505.198
20.38000 501.830
20.39000 490.640
20.40000 479.454
20.41000 478.586
20.42000 485.809
20.43000 492.906
20.44000 494.648
20.45000 493.549
20.46000 492.273
20.47000 487.923
20.48000 482.457
20.49000 477.423
20.50000 479.667
20.51000 483.277
20.52000 486.431
20.53000 486.946
20.54000 487.034
20.55000 486.741
20.56000 484.986
20.57000 483.088
20.58000 481.698
20.59000 482.677
20.60000 483.527
20.61000 484.734
20.62000 486.575
20.63000 488.429
20.64000 489.688
20.65000 490.239
20.66000 490.788
20.67000 493.256
20.68000 497.191
20.69000 500.999
20.70000 499.626
20.71000 495.544
20.72000 491.477
20.73000 487.663
20.74000 483.940
20.75000 480.517
20.76000 482.228
20.77000 484.867
20.78000 486.571
20.79000 482.942
20.80000 478.469
20.81000 474.524
20.82000 472.572
20.83000 470.812
20.84000 469.528
20.85000 480.534
20.86000 489.489
20.87000 493.605
20.88000 489.244
20.89000 484.727
20.90000 478.873
20.91000 471.454
20.92000 464.050
20.93000 469.600
20.94000 484.940
20.95000 499.837
20.96000 497.436
20.97000 486.124
20.98000 475.738
20.99000 480.531
21.00000 490.672
21.01000 499.980
21.02000 493.187
21.03000 483.705
21.04000 474.745
21.05000 468.712
21.06000 463.135
21.07000 459.933
21.08000 465.548
21.09000 471.993
21.10000 476.672
21.11000 475.494
21.12000 474.369
21.13000 474.007
21.14000 474.962
21.15000 475.940
21.16000 478.556
21.17000 483.061
21.18000 487.557
21.19000 489.974
21.20000 490.824
21.21000 491.743
21.22000 495.221
21.23000 499.998
21.24000 504.323
21.25000 501.441
21.26000 496.055
21.27000 491.122
21.28000 483.497
21.29000 476.146
21.30000 470.297
21.31000 472.731
21.32000 476.431
21.33000 479.766
21.34000 481.769
21.35000 483.650
21.36000 485.010
21.37000 474.670
21.38000 466.311
21.39000 466.623
21.40000 481.682
21.41000 496.987
21.42000 499.952
21.43000 488.912
21.44000 477.893
21.45000 471.890
21.46000 469.616
21.47000 467.578
21.48000 474.024
21.49000 484.716
21.50000 494.858
21.51000 496.459
21.52000 495.136
21.53000 493.926
21.54000 492.928
21.55000 492.084
21.56000 492.276
21.57000 498.087
21.58000 504.743
21.59000 509.046
21.60000 504.876
21.61000 499.943
21.62000 496.392
21.63000 499.101
21.64000 501.395
21.65000 501.880
21.66000 499.336
21.67000 496.743
21.68000 494.895
21.69000 493.879
21.70000 492.866
21.71000 498.160
21.72000 507.966
21.73000 517.516
21.74000 518.240
21.75000 514.613
21.76000 511.243
21.77000 511.787
21.78000 513.649
21.79000 515.350
21.80000 525.228
21.81000 535.642
21.82000 545.366
21.83000 551.406
21.84000 556.902
21.85000 563.888
21.86000 576.161
21.87000 588.899
21.88000 598.027
21.89000 596.906
21.90000 595.702
21.91000 599.554
21.92000 611.757
21.93000 624.084
21.94000 635.918
21.95000 647.212
21.96000 658.462
21.97000 673.009
21.98000 689.763
21.99000 705.993
22.00000 704.761
22.01000 695.044
22.02000 686.097
22.03000 688.538
22.04000 694.766
22.05000 700.437
22.06000 695.487
22.07000 688.996
22.08000 682.995
22.09000 679.571
22.10000 676.521
22.11000 676.330
22.12000 686.140
22.13000 696.811
22.14000 704.422
22.15000 699.207
22.16000 694.808
22.17000 683.065
22.18000 659.373
22.19000 635.513
22.20000 625.262
22.21000 629.713
22.22000 634.150
22.23000 624.418
22.24000 604.874
22.25000 585.644
22.26000 576.426
22.27000 572.004
22.28000 567.742
22.29000 565.778
22.30000 564.568
22.31000 563.467
22.32000 557.383
22.33000 551.033
22.34000 544.000
22.35000 533.441
22.36000 522.380
22.37000 512.148
22.38000 504.771
22.39000 497.634
22.40000 492.567
22.41000 507.401
22.42000 519.322
22.43000 523.062
22.44000 513.691
22.45000 504.148
22.46000 495.267
22.47000 487.089
22.48000 478.949
22.49000 473.499
22.50000 469.959
22.51000 466.591
22.52000 468.488
22.53000 472.871
22.54000 476.808
22.55000 474.477
22.56000 470.122
22.57000 466.172
22.58000 463.390
22.59000 461.159
22.60000 459.730
22.61000 462.378
22.62000 465.595
22.63000 467.260
22.64000 463.657
22.65000 459.621
22.66000 456.768
22.67000 460.827
22.68000 464.121
22.69000 465.375
22.70000 463.408
22.71000 461.401
22.72000 459.800
22.73000 458.623
22.74000 457.452
22.75000 454.954
22.76000 451.588
22.77000 448.495
22.78000 453.522
22.79000 462.326
22.80000 470.189
22.81000 465.120
22.82000 455.936
22.83000 447.623
22.84000 453.362
22.85000 461.064
22.86000 466.481
22.87000 460.464
22.88000 452.877
22.89000 447.284
22.90000 448.359
22.91000 449.970
22.92000 451.103
22.93000 448.271
22.94000 446.007
22.95000 446.159
22.96000 450.068
22.97000 454.020
22.98000 455.015
22.99000 452.971
23.00000 450.938
23.01000 450.005
23.02000 449.815
23.03000 449.595
23.04000 448.496
23.05000 446.993
23.06000 445.268
23.07000 440.567
23.08000 434.934
23.09000 429.845
23.10000 431.052
23.11000 433.280
23.12000 435.102
23.13000 434.928
23.14000 434.485
23.15000 434.691
23.16000 437.032
23.17000 439.541
23.18000 441.298
23.19000 441.921
23.20000 442.360
23.21000 440.088
23.22000 433.663
23.23000 427.193
23.24000 428.076
23.25000 436.390
23.26000 444.653
23.27000 447.360
23.28000 446.386
23.29000 445.340
23.30000 442.318
23.31000 438.402
23.32000 434.666
23.33000 433.286
23.34000 432.633
23.35000 432.045
23.36000 433.827
23.37000 435.821
23.38000 437.482
23.39000 437.525
23.40000 437.353
23.41000 436.537
23.42000 433.627
23.43000 430.557
23.44000 428.417
23.45000 424.313
23.46000 421.163
23.47000 420.057
23.48000 422.037
23.49000 424.048
23.50000 426.397
23.51000 429.080
23.52000 431.746
23.53000 428.359
23.54000 421.114
23.55000 414.355
23.56000 420.530
23.57000 432.469
23.58000 443.698
23.59000 445.853
23.60000 445.247
23.61000 444.702
23.62000 436.649
23.63000 428.252
23.64000 421.738
23.65000 424.202
23.66000 427.832
23.67000 430.114
23.68000 428.081
23.69000 425.724
23.70000 424.089
23.71000 431.881
23.72000 437.998
23.73000 438.680
23.74000 431.279
23.75000 423.803
23.76000 423.359
23.77000 429.784
23.78000 436.164
23.79000 438.812
23.80000 439.048
23.81000 439.217
23.82000 437.649
23.83000 435.319
23.84000 432.790
23.85000 427.794
23.86000 422.058
23.87000 416.908
23.88000 418.172
23.89000 420.403
23.90000 422.026
23.91000 420.795
23.92000 419.201
23.93000 420.022
23.94000 428.459
23.95000 437.454
23.96000 443.663
23.97000 439.556
23.98000 436.207
23.99000 433.328
24.00000 431.139
24.01000 428.956
24.02000 428.524
24.03000 429.773
24.04000 431.014
24.05000 432.449
24.06000 433.981
24.07000 435.312
24.08000 431.598
24.09000 425.700
24.10000 419.830
24.11000 414.301
24.12000 408.873
24.13000 404.010
24.14000 411.847
24.15000 420.878
24.16000 428.121
24.17000 427.106
24.18000 425.058
24.19000 424.711
24.20000 429.649
24.21000 434.965
24.22000 438.617
24.23000 444.398
24.24000 448.784
24.25000 448.195
24.26000 440.431
24.27000 432.609
24.28000 424.801
24.29000 417.006
24.30000 409.273
24.31000 417.069
24.32000 434.277
24.33000 450.640
24.34000 446.585
24.35000 433.818
24.36000 422.245
24.37000 424.924
24.38000 431.751
24.39000 437.854
24.40000 429.913
24.41000 420.614
24.42000 413.294
24.43000 414.971
24.44000 417.752
24.45000 420.519
24.46000 423.240
24.47000 425.957
24.48000 427.815
24.49000 417.259
24.50000 409.068
24.51000 407.640
24.52000 415.817
24.53000 424.063
24.54000 426.652
24.55000 423.987
24.56000 421.344
24.57000 415.268
24.58000 407.226
24.59000 399.406
24.60000 396.786
24.61000 396.353
24.62000 396.432
24.63000 402.484
24.64000 410.248
24.65000 417.174
24.66000 416.068
24.67000 413.771
24.68000 412.068
24.69000 413.024
24.70000 414.301
24.71000 415.718
24.72000 417.554
24.73000 419.420
24.74000 420.689
24.75000 421.206
24.76000 421.575
24.77000 420.073
24.78000 415.954
24.79000 411.818
24.80000 409.458
24.81000 408.721
24.82000 407.991
24.83000 414.708
24.84000 425.730
24.85000 436.194
24.86000 434.049
24.87000 426.677
24.88000 419.729
24.89000 417.622
24.90000 416.884
24.91000 416.227
24.92000 413.789
24.93000 411.380
24.94000 409.496
24.95000 409.919
24.96000 410.614
24.97000 411.669
24.98000 413.792
24.99000 415.985
25.00000 417.470
25.01000 412.766
25.02000 409.127
25.03000 408.358
25.04000 411.541
25.05000 414.750
25.06000 421.050
25.07000 430.127
25.08000 439.117
25.09000 438.210
25.10000 431.520
25.11000 424.886
25.12000 419.481
25.13000 414.579
25.14000 410.169
25.15000 411.242
25.16000 413.842
25.17000 416.151
25.18000 412.949
25.19000 409.289
25.20000 406.811
25.21000 409.457
25.22000 412.696
25.23000 416.953
25.24000 424.189
25.25000 431.618
25.26000 436.620
25.27000 428.700
25.28000 422.542
25.29000 417.023
25.30000 412.371
25.31000 407.724
25.32000 403.533
25.33000 399.746
25.34000 395.998
25.35000 395.773
25.36000 397.585
25.37000 399.292
25.38000 398.774
25.39000 397.360
25.40000 396.132
25.41000 396.933
25.42000 398.291
25.43000 399.493
25.44000 400.091
25.45000 400.513
25.46000 401.344
25.47000 403.922
25.48000 406.699
25.49000 407.214
25.50000 401.194
25.51000 394.762
25.52000 390.454
25.53000 398.182
25.54000 404.157
25.55000 409.304
25.56000 413.346
25.57000 417.375
25.58000 415.183
25.59000 407.580
25.60000 400.059
25.61000 396.844
25.62000 396.148
25.63000 395.713
25.64000 400.667
25.65000 407.759
25.66000 414.118
25.67000 412.633
25.68000 409.029
25.69000 405.843
25.70000 408.703
25.71000 412.107
25.72000 415.138
25.73000 416.602
25.74000 417.891
25.75000 416.665
25.76000 408.279
25.77000 399.454
25.78000 393.573
25.79000 398.086
25.80000 401.626
25.81000 404.195
25.82000 405.488
25.83000 406.772
25.84000 405.531
25.85000 402.129
25.86000 398.766
25.87000 398.023
25.88000 398.762
25.89000 399.443
25.90000 398.959
25.91000 398.019
25.92000 397.947
25.93000 406.948
25.94000 418.364
25.95000 428.430
25.96000 417.625
25.97000 405.143
25.98000 396.133
25.99000 401.510
26.00000 408.458
26.01000 411.231
26.02000 402.292
26.03000 392.653
26.04000 386.263
26.05000 391.901
26.06000 396.285
26.07000 399.558
26.08000 401.393
26.09000 403.220
26.10000 403.712
26.11000 403.079
26.12000 402.453
26.13000 403.281
26.14000 404.887
26.15000 406.391
26.16000 405.882
26.17000 404.597
26.18000 403.260
26.19000 401.391
26.20000 399.381
26.21000 397.614
26.22000 396.466
26.23000 395.571
26.24000 394.548
26.25000 393.004
26.26000 391.404
26.27000 390.618
26.28000 392.082
26.29000 393.678
26.30000 394.730
26.31000 394.800
26.32000 394.834
26.33000 394.922
26.34000 395.079
26.35000 395.240
26.36000 397.444
26.37000 401.341
26.38000 405.188
26.39000 402.276
26.40000 395.784
26.41000 389.360
26.42000 384.246
26.43000 379.629
26.44000 375.906
26.45000 381.145
26.46000 388.698
26.47000 395.327
26.48000 399.010
26.49000 401.743
26.50000 403.815
26.51000 403.227
26.52000 402.360
26.53000 399.607
26.54000 391.714
26.55000 383.530
26.56000 378.162
26.57000 373.052
26.58000 369.298
26.59000 371.363
26.60000 380.724
26.61000 390.088
26.62000 391.814
26.63000 387.309
26.64000 382.864
26.65000 381.455
26.66000 381.701
26.67000 381.841
26.68000 380.033
26.69000 377.496
26.70000 375.915
26.71000 383.731
26.72000 393.938
26.73000 402.874
26.74000 393.176
26.75000 382.188
26.76000 372.599
26.77000 368.546
26.78000 365.062
26.79000 363.615
26.80000 367.643
26.81000 371.973
26.82000 374.797
26.83000 376.863
26.84000 378.368
26.85000 382.638
26.86000 390.323
26.87000 398.003
26.88000 400.678
26.89000 399.334
26.90000 398.010
26.91000 395.967
26.92000 393.606
26.93000 391.123
26.94000 386.461
26.95000 380.995
26.96000 375.994
26.97000 375.468
26.98000 376.063
26.99000 376.583
27.00000 382.817
27.01000 388.957
27.02000 392.733
27.03000 387.293
27.04000 380.925
27.05000 377.261
27.06000 380.754
27.07000 384.629
27.08000 387.144
27.09000 387.730
27.10000 388.130
27.11000 384.502
27.12000 375.981
27.13000 367.470
27.14000 365.266
27.15000 368.047
27.16000 370.786
27.17000 377.257
27.18000 385.460
27.19000 393.130
27.20000 391.507
27.21000 386.503
27.22000 381.293
27.23000 374.137
27.24000 366.501
27.25000 359.848
27.26000 368.689
27.27000 378.382
27.28000 386.102
27.29000 386.252
27.30000 385.655
27.31000 385.213
27.32000 385.173
27.33000 385.155
27.34000 385.143
27.35000 377.518
27.36000 371.838
27.37000 372.665
27.38000 381.271
27.39000 389.872
27.40000 393.241
27.41000 392.540
27.42000 391.849
27.43000 396.583
27.44000 403.927
27.45000 410.154
27.46000 397.479
27.47000 378.024
27.48000 360.878
27.49000 365.050
27.50000 374.403
27.51000 382.530
27.52000 380.898
27.53000 378.184
27.54000 377.797
27.55000 386.210
27.56000 395.472
27.57000 400.733
27.58000 395.700
27.59000 390.147
27.60000 386.584
27.61000 387.005
27.62000 387.366
27.63000 386.479
27.64000 384.122
27.65000 381.756
27.66000 377.913
27.67000 372.938
27.68000 368.044
27.69000 366.306
27.70000 366.202
27.71000 366.487
27.72000 373.172
27.73000 382.119
27.74000 390.191
27.75000 390.333
27.76000 388.576
27.77000 387.054
27.78000 384.475
27.79000 382.139
27.80000 380.699
27.81000 382.596
27.82000 384.808
27.83000 386.351
27.84000 386.195
27.85000 385.956
27.86000 385.803
27.87000 381.572
27.88000 378.442
27.89000 375.273
27.90000 372.061
27.91000 368.860
27.92000 368.075
27.93000 369.112
27.94000 370.130
27.95000 375.934
27.96000 383.898
27.97000 391.169
27.98000 387.327
27.99000 379.612
28.00000 372.878
28.01000 374.849
28.02000 378.872
28.03000 382.350
28.04000 381.210
28.05000 379.639
28.06000 378.947
28.07000 381.479
28.08000 384.309
28.09000 385.249
28.10000 381.469
28.11000 377.464
28.12000 374.924
28.13000 381.274
28.14000 385.991
28.15000 388.903
28.16000 389.759
28.17000 390.594
28.18000 387.978
28.19000 382.800
28.20000 377.715
28.21000 381.361
28.22000 389.110
28.23000 396.286
28.24000 394.520
28.25000 389.683
28.26000 384.718
28.27000 378.630
28.28000 372.281
28.29000 366.806
28.30000 370.815
28.31000 375.427
28.32000 379.899
28.33000 383.864
28.34000 387.784
28.35000 389.400
28.36000 385.346
28.37000 381.031
28.38000 378.309
28.39000 371.729
28.40000 366.920
28.41000 365.701
28.42000 368.503
28.43000 371.286
28.44000 370.403
28.45000 366.840
28.46000 363.344
28.47000 365.129
28.48000 369.368
28.49000 373.410
28.50000 374.438
28.51000 374.447
28.52000 374.349
28.53000 373.339
28.54000 372.121
28.55000 371.073
28.56000 374.189
28.57000 377.350
28.58000 378.252
28.59000 371.116
28.60000 363.268
28.61000 360.815
28.62000 371.460
28.63000 382.690
28.64000 389.733
28.65000 382.522
28.66000 377.157
28.67000 372.279
28.68000 367.935
28.69000 363.633
28.70000 365.522
28.71000 371.868
28.72000 378.089
28.73000 375.813
28.74000 369.635
28.75000 364.100
28.76000 368.128
28.77000 375.346
28.78000 381.068
28.79000 374.271
28.80000 364.658
28.81000 356.412
28.82000 357.998
28.83000 360.547
28.84000 363.181
28.85000 366.114
28.86000 369.073
28.87000 371.157
28.88000 371.146
28.89000 371.043
28.90000 370.979
28.91000 370.149
28.92000 369.543
28.93000 370.645
28.94000 373.601
28.95000 376.521
28.96000 374.254
28.97000 368.310
28.98000 362.488
28.99000 362.557
29.00000 365.344
29.01000 367.862
29.02000 366.484
29.03000 363.825
29.04000 361.162
29.05000 358.469
29.06000 355.769
29.07000 353.459
29.08000 366.107
29.09000 378.578
29.10000 386.534
29.11000 378.882
29.12000 369.909
29.13000 363.210
29.14000 361.874
29.15000 360.764
29.16000 360.076
29.17000 359.089
29.18000 358.377
29.19000 357.717
29.20000 357.113
29.21000 356.515
29.22000 356.717
29.23000 357.478
29.24000 358.222
29.25000 365.679
29.26000 375.889
29.27000 385.516
29.28000 386.891
29.29000 385.593
29.30000 383.756
29.31000 377.577
29.32000 370.452
29.33000 364.372
29.34000 358.993
29.35000 354.547
29.36000 350.217
29.37000 346.281
29.38000 342.378
29.39000 342.656
29.40000 352.653
29.41000 363.045
29.42000 369.447
29.43000 371.625
29.44000 373.150
29.45000 373.806
29.46000 373.552
29.47000 373.282
29.48000 371.233
29.49000 367.959
29.50000 364.758
29.51000 361.687
29.52000 358.800
29.53000 355.875
29.54000 352.418
29.55000 348.791
29.56000 346.506
29.57000 354.831
29.58000 365.432
29.59000 374.453
29.60000 362.175
29.61000 349.390
29.62000 341.774
29.63000 351.502
29.64000 362.633
29.65000 371.078
29.66000 373.371
29.67000 375.421
29.68000 376.676
29.69000 373.021
29.70000 370.363
29.71000 371.020
29.72000 375.094
29.73000 379.155
29.74000 381.750
29.75000 383.350
29.76000 384.914
29.77000 387.932
29.78000 391.462
29.79000 394.399
29.80000 389.340
29.81000 381.765
29.82000 375.282
29.83000 377.268
29.84000 381.043
29.85000 384.246
29.86000 397.910
29.87000 410.557
29.88000 421.002
29.89000 424.169
29.90000 426.760
29.91000 428.468
29.92000 428.182
29.93000 427.821
29.94000 427.601
29.95000 438.116
29.96000 445.710
29.97000 451.554
29.98000 455.624
29.99000 459.660
30.00000 460.361
30.01000 458.837
30.02000 457.350
30.03000 461.337
30.04000 467.522
30.05000 472.862
30.06000 467.105
30.07000 457.907
30.08000 449.900
30.09000 450.960
30.10000 453.904
30.11000 456.396
30.12000 454.992
30.13000 453.382
30.14000 451.328
30.15000 447.824
30.16000 444.208
30.17000 439.329
30.18000 431.640
30.19000 423.847
30.20000 419.135
30.21000 418.177
30.22000 417.521
30.23000 414.282
30.24000 408.468
30.25000 402.665
30.26000 398.082
30.27000 394.301
30.28000 390.613
30.29000 393.245
30.30000 398.453
30.31000 403.328
30.32000 403.928
30.33000 403.222
30.34000 401.952
30.35000 396.465
30.36000 390.114
30.37000 384.754
30.38000 392.759
30.39000 400.904
30.40000 405.901
30.41000 400.793
30.42000 394.923
30.43000 391.754
30.44000 394.509
30.45000 397.474
30.46000 399.256
30.47000 398.364
30.48000 397.712
30.49000 396.437
30.50000 394.550
30.51000 392.687
30.52000 392.986
30.53000 394.684
30.54000 396.338
30.55000 396.311
30.56000 395.579
30.57000 395.219
30.58000 399.528
30.59000 405.243
30.60000 410.081
30.61000 408.485
30.62000 405.594
30.63000 403.160
30.64000 411.663
30.65000 419.922
30.66000 425.575
30.67000 422.986
30.68000 419.790
30.69000 418.747
30.70000 422.361
30.71000 426.135
30.72000 428.388
30.73000 418.510
30.74000 411.428
30.75000 409.355
30.76000 412.111
30.77000 414.925
30.78000 422.524
30.79000 433.174
30.80000 443.536
30.81000 446.993
30.82000 447.429
30.83000 447.569
30.84000 444.073
30.85000 439.499
30.86000 436.647
30.87000 446.205
30.88000 458.223
30.89000 468.308
30.90000 470.029
30.91000 470.587
30.92000 472.958
30.93000 480.980
30.94000 489.407
30.95000 497.027
30.96000 502.925
30.97000 508.765
30.98000 512.230
30.99000 529.578
31.00000 541.934
31.01000 559.208
31.02000 581.145
31.03000 603.085
31.04000 625.293
31.05000 647.670
31.06000 669.419
31.07000 702.748
31.08000 739.141
31.09000 775.796
31.10000 815.607
31.11000 856.339
31.12000 897.643
31.13000 942.994
31.14000 989.133
31.15000 1027.739
31.16000 1111.501
31.17000 1185.724
31.18000 1261.623
31.19000 1342.669
31.20000 1424.076
31.21000 1512.078
31.22000 1613.934
31.23000 1716.231
31.24000 1776.526
31.25000 1925.407
31.26000 2030.964
31.27000 2140.764
31.28000 2254.520
31.29000 2368.269
31.30000 2481.516
31.31000 2594.454
31.32000 2704.113
31.33000 2763.721
31.34000 2800.258
31.35000 2838.371
31.36000 2894.958
31.37000 2956.863
31.38000 3012.074
31.39000 3020.750
31.40000 3020.502
31.41000 3020.295
31.42000 2975.905
31.43000 2934.659
31.44000 2884.803
31.45000 2808.879
31.46000 2731.172
31.47000 2646.334
31.48000 2546.731
31.49000 2446.675
31.50000 2388.088
31.51000 2251.136
31.52000 2154.320
31.53000 2054.406
31.54000 1951.649
31.55000 1848.815
31.56000 1740.615
31.57000 1629.144
31.58000 1521.024
31.59000 1428.375
31.60000 1346.658
31.61000 1266.185
31.62000 1199.963
31.63000 1137.781
31.64000 1075.501
31.65000 1012.547
31.66000 949.464
31.67000 896.991
31.68000 851.013
31.69000 813.592
31.70000 778.212
31.71000 748.919
31.72000 720.032
31.73000 690.295
31.74000 658.825
31.75000 627.304
31.76000 608.969
31.77000 583.516
31.78000 565.606
31.79000 549.127
31.80000 533.936
31.81000 518.837
31.82000 509.611
31.83000 503.912
31.84000 498.391
31.85000 487.963
31.86000 476.190
31.87000 464.778
31.88000 457.418
31.89000 451.189
31.90000 444.074
31.91000 431.009
31.92000 416.839
31.93000 405.087
31.94000 402.771
31.95000 401.766
31.96000 400.703
31.97000 399.473
31.98000 398.232
31.99000 395.462
32.00000 389.619
32.01000 383.689
32.02000 380.263
32.03000 383.773
32.04000 386.258
32.05000 386.298
32.06000 384.167
32.07000 382.076
32.08000 382.381
32.09000 384.104
32.10000 385.772
32.11000 378.835
32.12000 368.994
32.13000 359.900
32.14000 358.991
32.15000 360.334
32.16000 361.573
32.17000 362.123
32.18000 362.548
32.19000 362.899
32.20000 360.947
32.21000 359.120
32.22000 355.655
32.23000 347.442
32.24000 338.929
32.25000 334.213
32.26000 337.025
32.27000 340.042
32.28000 341.773
32.29000 342.153
32.30000 342.413
32.31000 343.083
32.32000 344.111
32.33000 345.141
32.34000 346.349
32.35000 347.660
32.36000 348.927
32.37000 346.007
32.38000 341.679
32.39000 337.924
32.40000 340.324
32.41000 344.394
32.42000 347.365
32.43000 343.215
32.44000 337.786
32.45000 333.311
32.46000 338.883
32.47000 344.395
32.48000 348.501
32.49000 348.594
32.50000 348.439
32.51000 345.850
32.52000 338.508
32.53000 331.041
32.54000 326.786
32.55000 331.499
32.56000 334.814
32.57000 338.013
32.58000 341.112
32.59000 344.187
32.60000 345.907
32.61000 346.850
32.62000 347.760
32.63000 344.732
32.64000 340.422
32.65000 336.168
32.66000 332.509
32.67000 329.008
32.68000 326.385
32.69000 329.351
32.70000 333.303
32.71000 336.552
32.72000 335.911
32.73000 335.033
32.74000 335.101
32.75000 337.827
32.76000 340.712
32.77000 340.774
32.78000 335.399
32.79000 329.888
32.80000 326.770
32.81000 336.565
32.82000 343.398
32.83000 340.556
32.84000 329.536
32.85000 318.698
32.86000 317.466
32.87000 321.670
32.88000 325.726
32.89000 322.733
32.90000 317.354
32.91000 313.117
32.92000 320.637
32.93000 331.250
32.94000 339.836
32.95000 335.742
32.96000 329.445
32.97000 324.286
32.98000 315.975
32.99000 308.883
33.00000 303.990
33.01000 305.201
33.02000 306.770
33.03000 309.965
33.04000 316.246
33.05000 322.602
33.06000 326.174
33.07000 316.153
33.08000 309.168
33.09000 303.765
33.10000 299.677
33.11000 295.749
33.12000 299.815
33.13000 308.338
33.14000 316.549
33.15000 321.630
33.16000 325.282
33.17000 328.094
33.18000 322.454
33.19000 314.624
33.20000 307.813
33.21000 307.267
33.22000 307.790
33.23000 308.217
33.24000 310.303
33.25000 312.152
33.26000 312.308
33.27000 307.833
33.28000 303.095
33.29000 304.195
33.30000 316.212
33.31000 328.479
33.32000 335.324
33.33000 320.839
33.34000 310.778
33.35000 305.577
33.36000 304.354
33.37000 303.264
33.38000 308.467
33.39000 317.128
33.40000 325.462
33.41000 322.585
33.42000 315.935
33.43000 309.273
33.44000 302.482
33.45000 295.660
33.46000 291.175
33.47000 300.819
33.48000 312.836
33.49000 322.619
33.50000 317.798
33.51000 312.630
33.52000 308.527
33.53000 307.299
33.54000 306.230
33.55000 306.187
33.56000 308.034
33.57000 309.923
33.58000 310.969
33.59000 302.926
33.60000 297.363
33.61000 294.177
33.62000 292.907
33.63000 291.790
33.64000 297.623
33.65000 307.221
33.66000 316.444
33.67000 313.528
33.68000 306.587
33.69000 300.507
33.70000 302.747
33.71000 307.078
33.72000 309.934
33.73000 304.031
33.74000 296.682
33.75000 290.717
33.76000 289.449
33.77000 288.802
33.78000 289.112
33.79000 291.963
33.80000 294.951
33.81000 296.249
33.82000 294.478
33.83000 292.643
33.84000 291.634
33.85000 297.209
33.86000 301.043
33.87000 300.238
33.88000 295.753
33.89000 291.346
33.90000 290.307
33.91000 291.066
33.92000 291.794
33.93000 296.983
33.94000 303.357
33.95000 308.608
33.96000 303.216
33.97000 295.189
33.98000 288.182
33.99000 287.132
34.00000 287.048
34.01000 286.980
34.02000 286.209
34.03000 285.525
34.04000 285.612
34.05000 287.719
34.06000 289.932
34.07000 294.090
34.08000 301.728
34.09000 309.436
34.10000 313.643
34.11000 301.617
34.12000 293.351
34.13000 289.565
34.14000 289.277
34.15000 289.041
34.16000 290.977
34.17000 294.057
34.18000 297.008
34.19000 289.034
34.20000 277.920
34.21000 268.149
34.22000 270.843
34.23000 276.577
34.24000 282.082
34.25000 286.272
34.26000 290.252
34.27000 293.461
34.28000 292.850
34.29000 292.053
34.30000 291.268
34.31000 290.509
34.32000 289.752
34.33000 288.361
34.34000 285.852
34.35000 283.323
34.36000 281.952
34.37000 280.187
34.38000 278.998
34.39000 282.795
34.40000 290.425
34.41000 297.948
34.42000 301.271
34.43000 302.416
34.44000 303.513
34.45000 299.671
34.46000 294.458
34.47000 289.373
34.48000 285.448
34.49000 281.802
34.50000 278.355
34.51000 276.028
34.52000 273.877
34.53000 272.148
34.54000 280.439
34.55000 287.929
34.56000 291.566
34.57000 285.402
34.58000 278.753
34.59000 275.800
34.60000 279.267
34.61000 282.850
34.62000 284.776
34.63000 288.588
34.64000 291.195
34.65000 294.078
34.66000 297.170
34.67000 299.999
34.68000 292.794
34.69000 280.464
34.70000 268.675
34.71000 270.738
34.72000 277.162
34.73000 282.471
34.74000 277.843
34.75000 270.866
34.76000 265.906
34.77000 272.153
34.78000 280.127
34.79000 286.514
34.80000 280.280
34.81000 274.288
34.82000 270.281
34.83000 271.247
34.84000 272.452
34.85000 273.141
34.86000 272.945
34.87000 272.735
34.88000 272.623
34.89000 278.167
34.90000 281.940
34.91000 283.855
34.92000 284.385
34.93000 284.886
34.94000 284.341
34.95000 283.268
34.96000 282.245
34.97000 282.395
34.98000 282.911
34.99000 283.663
35.00000 286.480
35.01000 289.777
35.02000 291.370
35.03000 283.656
35.04000 274.533
35.05000 267.251
35.06000 278.917
35.07000 289.727
35.08000 296.646
35.09000 293.952
35.10000 290.812
35.11000 288.410
35.12000 287.257
35.13000 286.123
35.14000 285.523
35.15000 278.530
35.16000 273.801
35.17000 273.958
35.18000 277.698
35.19000 281.315
35.20000 280.635
35.21000 277.823
35.22000 275.142
35.23000 270.877
35.24000 266.421
35.25000 262.197
35.26000 259.956
35.27000 258.169
35.28000 257.695
35.29000 264.278
35.30000 271.910
35.31000 277.982
35.32000 279.383
35.33000 280.178
35.34000 280.368
35.35000 279.087
35.36000 277.740
35.37000 278.172
35.38000 281.561
35.39000 284.995
35.40000 286.799
35.41000 290.430
35.42000 292.865
35.43000 290.947
35.44000 285.885
35.45000 280.879
35.46000 277.749
35.47000 275.537
35.48000 273.431
35.49000 276.983
35.50000 282.025
35.51000 285.460
35.52000 275.380
35.53000 262.249
35.54000 253.099
35.55000 265.005
35.56000 279.986
35.57000 291.863
35.58000 279.525
35.59000 267.907
35.60000 260.014
35.61000 261.060
35.62000 262.497
35.63000 265.928
35.64000 272.625
35.65000 279.369
35.66000 282.884
35.67000 274.335
35.68000 268.591
35.69000 268.443
35.70000 272.274
35.71000 276.042
35.72000 277.751
35.73000 278.469
35.74000 279.150
35.75000 271.435
35.76000 261.740
35.77000 253.038
35.78000 252.528
35.79000 253.838
35.80000 255.941
35.81000 262.172
35.82000 268.996
35.83000 274.387
35.84000 276.813
35.85000 278.559
35.86000 278.417
35.87000 273.812
35.88000 269.018
35.89000 266.405
35.90000 267.310
35.91000 268.262
35.92000 268.755
35.93000 264.246
35.94000 261.223
35.95000 260.649
35.96000 261.791
35.97000 262.761
35.98000 258.387
35.99000 251.474
36.00000 244.909
36.01000 246.904
36.02000 251.314
36.03000 255.730
36.04000 260.195
36.05000 264.671
36.06000 268.562
36.07000 269.463
36.08000 269.942
36.09000 270.320
36.10000 272.347
36.11000 274.081
36.12000 274.601
36.13000 272.293
36.14000 269.868
36.15000 268.725
36.16000 269.617
36.17000 270.536
36.18000 271.007
36.19000 269.046
36.20000 267.745
36.21000 268.599
36.22000 270.940
36.23000 273.308
36.24000 276.505
36.25000 280.090
36.26000 283.489
36.27000 282.998
36.28000 281.396
36.29000 279.222
36.30000 272.499
36.31000 264.797
36.32000 257.854
36.33000 254.733
36.34000 252.140
36.35000 250.107
36.36000 258.062
36.37000 265.073
36.38000 270.862
36.39000 273.845
36.40000 276.716
36.41000 275.379
36.42000 267.453
36.43000 259.448
36.44000 255.376
36.45000 260.204
36.46000 263.435
36.47000 265.820
36.48000 267.632
36.49000 269.355
36.50000 268.518
36.51000 266.499
36.52000 264.588
36.53000 262.946
36.54000 261.513
36.55000 260.654
36.56000 264.257
36.57000 268.806
36.58000 271.985
36.59000 268.376
36.60000 263.844
36.61000 260.302
36.62000 265.406
36.63000 270.027
36.64000 271.634
36.65000 266.409
36.66000 260.922
36.67000 260.311
36.68000 267.221
36.69000 274.214
36.70000 277.741
36.71000 261.419
36.72000 250.606
36.73000 250.256
36.74000 256.908
36.75000 263.402
36.76000 265.474
36.77000 265.534
36.78000 265.590
36.79000 273.153
36.80000 282.246
36.81000 289.629
36.82000 283.943
36.83000 275.532
36.84000 268.630
36.85000 269.095
36.86000 270.543
36.87000 271.671
36.88000 271.136
36.89000 270.607
36.90000 270.742
36.91000 272.360
36.92000 274.033
36.93000 275.279
36.94000 275.874
36.95000 276.463
36.96000 276.757
36.97000 274.113
36.98000 272.387
36.99000 274.289
37.00000 278.581
37.01000 282.778
37.02000 284.387
37.03000 284.835
37.04000 285.259
37.05000 282.356
37.06000 278.759
37.07000 275.277
37.08000 272.658
37.09000 270.216
37.10000 269.590
37.11000 277.676
37.12000 286.904
37.13000 294.065
37.14000 292.946
37.15000 291.557
37.16000 287.980
37.17000 279.589
37.18000 271.026
37.19000 268.800
37.20000 276.056
37.21000 283.403
37.22000 282.754
37.23000 274.236
37.24000 265.790
37.25000 263.704
37.26000 265.748
37.27000 267.772
37.28000 269.268
37.29000 270.531
37.30000 271.721
37.31000 272.631
37.32000 273.386
37.33000 273.465
37.34000 268.561
37.35000 262.650
37.36000 258.090
37.37000 259.914
37.38000 262.559
37.39000 264.603
37.40000 266.404
37.41000 267.818
37.42000 267.679
37.43000 264.171
37.44000 260.547
37.45000 259.090
37.46000 260.827
37.47000 262.592
37.48000 262.699
37.49000 261.204
37.50000 259.772
37.51000 263.741
37.52000 271.165
37.53000 278.190
37.54000 275.131
37.55000 267.681
37.56000 260.669
37.57000 259.822
37.58000 260.724
37.59000 261.895
37.60000 265.009
37.61000 268.510
37.62000 271.020
37.63000 268.920
37.64000 266.238
37.65000 264.172
37.66000 257.295
37.67000 251.575
37.68000 249.827
37.69000 256.570
37.70000 263.596
37.71000 266.586
37.72000 263.715
37.73000 260.796
37.74000 260.887
37.75000 263.840
37.76000 266.737
37.77000 265.234
37.78000 260.960
37.79000 256.915
37.80000 258.492
37.81000 262.483
37.82000 266.234
37.83000 266.125
37.84000 264.994
37.85000 264.019
37.86000 264.158
37.87000 264.516
37.88000 265.486
37.89000 269.260
37.90000 273.380
37.91000 276.543
37.92000 275.095
37.93000 273.694
37.94000 270.723
37.95000 264.442
37.96000 258.055
37.97000 256.746
37.98000 262.694
37.99000 268.697
38.00000 271.740
38.01000 272.015
38.02000 272.215
38.03000 266.915
38.04000 258.199
38.05000 250.027
38.06000 254.709
38.07000 264.832
38.08000 274.328
38.09000 282.524
38.10000 289.650
38.11000 295.643
38.12000 293.735
38.13000 290.307
38.14000 285.731
38.15000 275.985
38.16000 265.611
38.17000 257.680
38.18000 267.364
38.19000 275.957
38.20000 281.221
38.21000 279.571
38.22000 277.708
38.23000 281.964
38.24000 294.834
38.25000 307.763
38.26000 314.519
38.27000 315.596
38.28000 316.604
38.29000 312.818
38.30000 306.101
38.31000 299.859
38.32000 304.537
38.33000 313.769
38.34000 322.417
38.35000 329.255
38.36000 335.008
38.37000 340.647
38.38000 345.512
38.39000 350.230
38.40000 357.400
38.41000 375.449
38.42000 394.794
38.43000 409.526
38.44000 426.206
38.45000 439.439
38.46000 453.886
38.47000 470.821
38.48000 487.829
38.49000 507.135
38.50000 529.625
38.51000 552.129
38.52000 574.673
38.53000 597.234
38.54000 619.967
38.55000 654.083
38.56000 695.058
38.57000 735.603
38.58000 766.591
38.59000 793.650
38.60000 818.954
38.61000 839.061
38.62000 855.998
38.63000 873.936
38.64000 898.613
38.65000 924.545
38.66000 948.083
38.67000 961.159
38.68000 973.012
38.69000 982.004
38.70000 985.975
38.71000 988.836
38.72000 988.544
38.73000 981.890
38.74000 975.055
38.75000 965.595
38.76000 952.553
38.77000 939.495
38.78000 915.240
38.79000 881.056
38.80000 846.898
38.81000 814.344
38.82000 782.742
38.83000 751.325
38.84000 723.874
38.85000 698.031
38.86000 673.904
38.87000 641.162
38.88000 609.322
38.89000 579.349
38.90000 561.726
38.91000 546.367
38.92000 529.014
38.93000 503.086
38.94000 476.176
38.95000 455.842
38.96000 437.772
38.97000 423.718
38.98000 409.022
38.99000 393.051
39.00000 377.044
39.01000 366.210
39.02000 362.326
39.03000 358.482
39.04000 347.846
39.05000 331.287
39.06000 314.837
39.07000 304.861
39.08000 298.670
39.09000 292.799
39.10000 293.610
39.11000 297.091
39.12000 300.334
39.13000 295.522
39.14000 289.183
39.15000 283.721
39.16000 283.964
39.17000 285.234
39.18000 285.851
39.19000 283.702
39.20000 281.242
39.21000 279.391
39.22000 274.126
39.23000 269.842
39.24000 267.453
39.25000 268.782
39.26000 270.208
39.27000 267.192
39.28000 258.300
39.29000 249.386
39.30000 244.298
39.31000 242.511
39.32000 240.799
39.33000 243.336
39.34000 248.321
39.35000 253.080
39.36000 253.266
39.37000 251.652
39.38000 250.149
39.39000 252.517
39.40000 255.594
39.41000 258.033
39.42000 256.404
39.43000 254.054
39.44000 252.807
39.45000 256.165
39.46000 260.029
39.47000 262.926
39.48000 249.053
39.49000 237.428
39.50000 230.391
39.51000 232.214
39.52000 234.260
39.53000 237.851
39.54000 243.455
39.55000 249.062
39.56000 252.211
39.57000 253.273
39.58000 254.311
39.59000 254.093
39.60000 253.161
39.61000 252.123
39.62000 248.963
39.63000 244.981
39.64000 241.282
39.65000 240.959
39.66000 241.471
39.67000 241.975
39.68000 242.429
39.69000 242.875
39.70000 242.858
39.71000 240.942
39.72000 238.821
39.73000 237.238
39.74000 241.086
39.75000 244.334
39.76000 245.713
39.77000 243.534
39.78000 241.269
39.79000 239.882
39.80000 239.622
39.81000 239.366
39.82000 236.518
39.83000 231.520
39.84000 226.662
39.85000 228.917
39.86000 235.152
39.87000 241.370
39.88000 247.259
39.89000 253.024
39.90000 258.368
39.91000 250.013
39.92000 239.283
39.93000 229.889
39.94000 228.747
39.95000 229.019
39.96000 229.555
39.97000 231.156
39.98000 232.870
39.99000 234.145
40.00000 228.983
40.01000 224.681
40.02000 222.726
40.03000 225.174
40.04000 227.723
40.05000 228.294
40.06000 226.368
40.07000 224.436
40.08000 223.278
40.09000 222.759
40.10000 222.273
40.11000 223.434
40.12000 225.503
40.13000 227.754
40.14000 233.395
40.15000 240.313
40.16000 246.718
40.17000 243.440
40.18000 238.266
40.19000 232.921
40.20000 226.548
40.21000 220.001
40.22000 216.663
40.23000 226.106
40.24000 236.873
40.25000 244.846
40.26000 242.123
40.27000 239.546
40.28000 235.851
40.29000 230.090
40.30000 224.283
40.31000 221.661
40.32000 222.997
40.33000 224.343
40.34000 225.877
40.35000 227.557
40.36000 229.225
40.37000 230.347
40.38000 231.171
40.39000 232.106
40.40000 235.069
40.41000 238.784
40.42000 242.217
40.43000 240.702
40.44000 238.223
40.45000 235.699
40.46000 232.907
40.47000 230.071
40.48000 228.857
40.49000 234.003
40.50000 239.795
40.51000 244.067
40.52000 241.488
40.53000 239.203
40.54000 236.371
40.55000 232.541
40.56000 228.691
40.57000 225.710
40.58000 223.793
40.59000 221.881
40.60000 222.593
40.61000 225.378
40.62000 228.173
40.63000 231.416
40.64000 234.899
40.65000 238.089
40.66000 236.112
40.67000 232.245
40.68000 228.677
40.69000 228.109
40.70000 228.267
40.71000 228.457
40.72000 228.839
40.73000 229.252
40.74000 228.796
40.75000 224.982
40.76000 220.833
40.77000 217.787
40.78000 213.010
40.79000 209.248
40.80000 209.100
40.81000 215.442
40.82000 221.914
40.83000 225.478
40.84000 225.543
40.85000 225.600
40.86000 224.004
40.87000 221.126
40.88000 218.342
40.89000 219.486
40.90000 222.702
40.91000 225.652
40.92000 224.035
40.93000 220.771
40.94000 217.765
40.95000 220.146
40.96000 223.454
40.97000 225.447
40.98000 219.855
40.99000 213.049
41.00000 207.913
41.01000 209.131
41.02000 210.968
41.03000 212.312
41.04000 216.696
41.05000 220.198
41.06000 220.953
41.07000 216.846
41.08000 212.647
41.09000 211.152
41.10000 212.858
41.11000 214.566
41.12000 215.580
41.13000 216.055
41.14000 216.518
41.15000 216.510
41.16000 216.257
41.17000 216.130
41.18000 218.095
41.19000 220.804
41.20000 223.293
41.21000 218.509
41.22000 212.672
41.23000 207.404
41.24000 205.356
41.25000 203.814
41.26000 203.435
41.27000 207.411
41.28000 211.803
41.29000 215.001
41.30000 217.399
41.31000 219.214
41.32000 219.095
41.33000 215.606
41.34000 212.055
41.35000 212.267
41.36000 216.867
41.37000 221.460
41.38000 221.991
41.39000 219.453
41.40000 216.926
41.41000 214.786
41.42000 212.844
41.43000 210.919
41.44000 209.271
41.45000 207.721
41.46000 206.300
41.47000 210.348
41.48000 215.113
41.49000 218.564
41.50000 214.693
41.51000 209.689
41.52000 206.533
41.53000 210.196
41.54000 214.496
41.55000 217.613
41.56000 219.287
41.57000 220.520
41.58000 220.019
41.59000 216.540
41.60000 213.009
41.61000 211.750
41.62000 213.098
41.63000 214.445
41.64000 215.812
41.65000 217.185
41.66000 218.467
41.67000 216.409
41.68000 212.663
41.69000 209.200
41.70000 210.196
41.71000 212.733
41.72000 215.056
41.73000 210.808
41.74000 205.662
41.75000 201.790
41.76000 204.902
41.77000 209.075
41.78000 212.631
41.79000 213.946
41.80000 215.056
41.81000 215.857
41.82000 213.404
41.83000 211.406
41.84000 208.341
41.85000 203.468
41.86000 198.565
41.87000 201.074
41.88000 211.947
41.89000 222.793
41.90000 224.512
41.91000 219.554
41.92000 214.669
41.93000 212.352
41.94000 211.314
41.95000 210.409
41.96000 211.561
41.97000 213.413
41.98000 215.106
41.99000 214.423
42.00000 213.332
42.01000 212.565
42.02000 213.550
42.03000 214.797
42.04000 215.827
42.05000 216.080
42.06000 216.263
42.07000 216.395
42.08000 207.031
42.09000 199.537
42.10000 197.353
42.11000 204.024
42.12000 210.831
42.13000 214.102
42.14000 213.449
42.15000 212.795
42.16000 212.192
42.17000 211.632
42.18000 211.152
42.19000 213.400
42.20000 216.987
42.21000 220.367
42.22000 220.620
42.23000 219.824
42.24000 219.099
42.25000 216.668
42.26000 214.170
42.27000 212.390
42.28000 214.423
42.29000 217.014
42.30000 219.263
42.31000 220.297
42.32000 221.225
42.33000 221.889
42.34000 222.440
42.35000 222.857
42.36000 222.744
42.37000 221.760
42.38000 220.764
42.39000 217.948
42.40000 213.144
42.41000 208.359
42.42000 202.183
42.43000 195.082
42.44000 188.269
42.45000 190.906
42.46000 198.112
42.47000 205.210
42.48000 210.731
42.49000 215.730
42.50000 220.279
42.51000 214.414
42.52000 207.168
42.53000 201.335
42.54000 202.880
42.55000 205.488
42.56000 208.379
42.57000 212.256
42.58000 216.217
42.59000 219.037
42.60000 220.615
42.61000 221.777
42.62000 218.370
42.63000 207.569
42.64000 196.666
42.65000 193.510
42.66000 198.675
42.67000 203.819
42.68000 204.959
42.69000 203.301
42.70000 201.697
42.71000 201.779
42.72000 202.666
42.73000 203.461
42.74000 202.957
42.75000 202.029
42.76000 201.186
42.77000 203.117
42.78000 205.361
42.79000 206.798
42.80000 204.085
42.81000 200.785
42.82000 198.748
42.83000 201.038
42.84000 203.689
42.85000 205.569
42.86000 201.587
42.87000 198.375
42.88000 196.983
42.89000 198.490
42.90000 200.036
42.91000 200.170
42.92000 198.815
42.93000 197.465
42.94000 198.834
42.95000 202.047
42.96000 205.171
42.97000 205.564
42.98000 204.674
42.99000 203.769
43.00000 202.654
43.01000 201.471
43.02000 200.398
43.03000 200.999
43.04000 201.848
43.05000 202.879
43.06000 204.829
43.07000 206.906
43.08000 208.023
43.09000 205.897
43.10000 203.507
43.11000 201.820
43.12000 201.814
43.13000 201.861
43.14000 199.947
43.15000 194.956
43.16000 189.928
43.17000 191.795
43.18000 200.825
43.19000 209.809
43.20000 211.519
43.21000 208.312
43.22000 205.164
43.23000 203.781
43.24000 203.213
43.25000 202.787
43.26000 204.287
43.27000 206.397
43.28000 208.306
43.29000 208.191
43.30000 207.711
43.31000 206.788
43.32000 203.664
43.33000 200.239
43.34000 198.034
43.35000 199.890
43.36000 202.071
43.37000 203.602
43.38000 200.197
43.39000 197.475
43.40000 197.348
43.41000 201.237
43.42000 205.171
43.43000 208.949
43.44000 212.567
43.45000 216.164
43.46000 215.614
43.47000 212.322
43.48000 208.952
43.49000 203.355
43.50000 196.742
43.51000 190.910
43.52000 195.462
43.53000 203.252
43.54000 210.285
43.55000 206.826
43.56000 201.857
43.57000 197.731
43.58000 197.731
43.59000 198.284
43.60000 199.436
43.61000 202.557
43.62000 205.831
43.63000 208.121
43.64000 201.478
43.65000 196.206
43.66000 194.648
43.67000 198.748
43.68000 202.908
43.69000 206.473
43.70000 209.439
43.71000 212.387
43.72000 211.567
43.73000 208.302
43.74000 205.030
43.75000 201.560
43.76000 198.002
43.77000 194.856
43.78000 197.056
43.79000 200.899
43.80000 204.362
43.81000 201.325
43.82000 197.487
43.83000 194.720
43.84000 197.113
43.85000 200.184
43.86000 202.206
43.87000 200.838
43.88000 199.211
43.89000 198.079
43.90000 200.358
43.91000 202.169
43.92000 204.482
43.93000 207.547
43.94000 210.619
43.95000 211.825
43.96000 211.189
43.97000 210.558
43.98000 209.968
43.99000 209.413
44.00000 208.706
44.01000 203.950
44.02000 197.400
44.03000 191.331
44.04000 191.356
44.05000 193.228
44.06000 194.910
44.07000 197.677
44.08000 200.292
44.09000 202.478
44.10000 202.628
44.11000 202.514
44.12000 201.937
44.13000 199.882
44.14000 197.717
44.15000 196.217
44.16000 191.386
44.17000 187.663
44.18000 187.357
44.19000 192.102
44.20000 196.893
44.21000 198.509
44.22000 197.043
44.23000 195.588
44.24000 192.601
44.25000 188.695
44.26000 184.851
44.27000 182.602
44.28000 181.051
44.29000 179.769
44.30000 181.843
44.31000 184.917
44.32000 187.675
44.33000 193.205
44.34000 198.523
44.35000 203.053
44.36000 203.908
44.37000 204.297
44.38000 204.090
44.39000 202.013
44.40000 199.801
44.41000 198.276
44.42000 201.192
44.43000 203.494
44.44000 205.392
44.45000 206.702
44.46000 208.007
44.47000 212.334
44.48000 219.546
44.49000 226.703
44.50000 226.891
44.51000 222.745
44.52000 218.686
44.53000 216.757
44.54000 215.746
44.55000 214.892
44.56000 215.935
44.57000 217.536
44.58000 218.969
44.59000 219.885
44.60000 220.595
44.61000 221.619
44.62000 224.090
44.63000 226.740
44.64000 229.285
44.65000 231.506
44.66000 233.704
44.67000 235.211
44.68000 242.625
44.69000 248.323
44.70000 251.065
44.71000 249.566
44.72000 248.034
44.73000 248.545
44.74000 250.974
44.75000 253.382
44.76000 253.613
44.77000 252.508
44.78000 251.600
44.79000 255.398
44.80000 261.195
44.81000 267.060
44.82000 273.746
44.83000 280.670
44.84000 286.853
44.85000 291.898
44.86000 296.100
44.87000 300.689
44.88000 307.030
44.89000 313.585
44.90000 318.767
44.91000 319.770
44.92000 320.483
44.93000 320.970
44.94000 335.546
44.95000 346.772
44.96000 355.907
44.97000 362.087
44.98000 368.245
44.99000 372.521
45.00000 375.058
45.01000 377.574
45.02000 376.584
45.03000 373.504
45.04000 370.701
45.05000 374.317
45.06000 380.619
45.07000 386.405
45.08000 386.219
45.09000 384.328
45.10000 382.644
45.11000 384.481
45.12000 386.661
45.13000 387.716
45.14000 383.765
45.15000 379.215
45.16000 376.220
45.17000 377.894
45.18000 379.883
45.19000 381.234
45.20000 364.858
45.21000 352.243
45.22000 344.690
45.23000 344.180
45.24000 343.713
45.25000 339.412
45.26000 331.629
45.27000 323.919
45.28000 323.505
45.29000 327.422
45.30000 330.959
45.31000 325.997
45.32000 317.529
45.33000 309.543
45.34000 307.017
45.35000 306.026
45.36000 305.145
45.37000 297.366
45.38000 289.496
45.39000 282.586
45.40000 279.885
45.41000 277.678
45.42000 276.309
45.43000 277.417
45.44000 278.688
45.45000 279.547
45.46000 272.027
45.47000 266.248
45.48000 261.085
45.49000 256.764
45.50000 252.449
45.51000 247.729
45.52000 242.649
45.53000 237.618
45.54000 235.589
45.55000 235.351
45.56000 234.974
45.57000 231.567
45.58000 226.928
45.59000 222.677
45.60000 222.706
45.61000 223.922
45.62000 225.001
45.63000 226.867
45.64000 228.609
45.65000 230.115
45.66000 230.598
45.67000 230.965
45.68000 230.065
45.69000 225.470
45.70000 220.640
45.71000 217.393
45.72000 208.779
45.73000 202.269
45.74000 200.143
45.75000 203.932
45.76000 207.750
45.77000 208.922
45.78000 207.768
45.79000 206.627
45.80000 205.081
45.81000 203.339
45.82000 201.601
45.83000 199.976
45.84000 198.396
45.85000 196.969
45.86000 197.193
45.87000 197.867
45.88000 198.464
45.89000 195.880
45.90000 193.147
45.91000 191.367
45.92000 193.634
45.93000 196.358
45.94000 197.597
45.95000 194.566
45.96000 191.268
45.97000 189.063
45.98000 196.029
45.99000 201.373
46.00000 203.771
46.01000 202.256
46.02000 200.723
46.03000 200.129
46.04000 200.345
46.05000 200.559
46.06000 200.744
46.07000 200.907
46.08000 200.787
46.09000 194.888
46.10000 186.706
46.11000 179.140
46.12000 178.105
46.13000 178.825
46.14000 179.461
46.15000 183.354
46.16000 187.214
46.17000 190.240
46.18000 189.777
46.19000 188.928
46.20000 189.077
46.21000 192.049
46.22000 195.192
46.23000 197.284
46.24000 187.619
46.25000 180.248
46.26000 176.963
46.27000 179.020
46.28000 181.095
46.29000 180.746
46.30000 178.333
46.31000 175.948
46.32000 176.631
46.33000 179.003
46.34000 181.162
46.35000 179.111
46.36000 175.421
46.37000 172.137
46.38000 173.067
46.39000 175.111
46.40000 176.913
46.41000 175.744
46.42000 174.289
46.43000 173.318
46.44000 174.346
46.45000 175.591
46.46000 176.153
46.47000 174.813
46.48000 173.360
46.49000 172.399
46.50000 175.994
46.51000 178.730
46.52000 177.507
46.53000 171.188
46.54000 164.866
46.55000 166.848
46.56000 175.784
46.57000 184.610
46.58000 188.617
46.59000 189.885
46.60000 190.808
46.61000 185.070
46.62000 176.776
46.63000 169.105
46.64000 167.766
46.65000 168.078
46.66000 168.352
46.67000 167.915
46.68000 167.433
46.69000 167.373
46.70000 169.026
46.71000 170.861
46.72000 172.607
46.73000 174.105
46.74000 175.590
46.75000 176.567
46.76000 175.073
46.77000 173.930
46.78000 173.076
46.79000 172.587
46.80000 172.101
46.81000 172.195
46.82000 172.767
46.83000 173.332
46.84000 169.723
46.85000 163.963
46.86000 158.677
46.87000 162.250
46.88000 169.173
46.89000 175.703
46.90000 178.320
46.91000 179.933
46.92000 181.346
46.93000 176.618
46.94000 171.667
46.95000 167.831
46.96000 168.454
46.97000 169.540
46.98000 171.525
46.99000 175.948
47.00000 180.508
47.01000 183.493
47.02000 177.651
47.03000 173.213
47.04000 168.786
47.05000 164.370
47.06000 159.971
47.07000 161.680
47.08000 168.345
47.09000 174.918
47.10000 178.272
47.11000 179.827
47.12000 181.203
47.13000 179.308
47.14000 176.195
47.15000 173.248
47.16000 171.923
47.17000 171.009
47.18000 170.209
47.19000 167.710
47.20000 165.327
47.21000 163.850
47.22000 165.943
47.23000 168.400
47.24000 171.443
47.25000 176.054
47.26000 180.749
47.27000 183.807
47.28000 170.083
47.29000 159.757
47.30000 156.941
47.31000 163.342
47.32000 169.749
47.33000 170.007
47.34000 165.356
47.35000 160.773
47.36000 162.260
47.37000 166.870
47.38000 171.450
47.39000 175.509
47.40000 179.378
47.41000 182.264
47.42000 175.765
47.43000 166.927
47.44000 159.215
47.45000 166.081
47.46000 173.991
47.47000 179.796
47.48000 177.436
47.49000 174.260
47.50000 170.838
47.51000 166.766
47.52000 162.659
47.53000 159.999
47.54000 164.420
47.55000 167.759
47.56000 169.401
47.57000 168.995
47.58000 168.584
47.59000 168.247
47.60000 167.969
47.61000 167.694
47.62000 168.397
47.63000 169.580
47.64000 170.835
47.65000 173.330
47.66000 176.274
47.67000 178.770
47.68000 177.073
47.69000 174.347
47.70000 171.975
47.71000 174.348
47.72000 177.025
47.73000 178.699
47.74000 176.542
47.75000 174.010
47.76000 170.927
47.77000 166.414
47.78000 161.826
47.79000 158.872
47.80000 166.183
47.81000 171.665
47.82000 173.292
47.83000 170.336
47.84000 167.383
47.85000 167.492
47.86000 169.969
47.87000 172.407
47.88000 172.482
47.89000 171.361
47.90000 170.248
47.91000 169.281
47.92000 168.365
47.93000 166.833
47.94000 159.640
47.95000 151.080
47.96000 143.647
47.97000 146.531
47.98000 150.377
47.99000 153.868
48.00000 156.024
48.01000 158.052
48.02000 159.739
48.03000 160.556
48.04000 161.328
48.05000 161.823
48.06000 167.377
48.07000 171.490
48.08000 173.078
48.09000 171.710
48.10000 170.344
48.11000 170.279
48.12000 171.206
48.13000 172.116
48.14000 170.806
48.15000 168.435
48.16000 165.991
48.17000 162.376
48.18000 158.348
48.19000 155.052
48.20000 158.343
48.21000 163.202
48.22000 167.410
48.23000 163.235
48.24000 158.578
48.25000 154.741
48.26000 153.944
48.27000 153.432
48.28000 154.597
48.29000 159.994
48.30000 165.596
48.31000 169.163
48.32000 162.011
48.33000 156.677
48.34000 157.817
48.35000 166.407
48.36000 174.975
48.37000 177.292
48.38000 174.922
48.39000 172.594
48.40000 170.553
48.41000 168.724
48.42000 166.756
48.43000 162.600
48.44000 157.685
48.45000 153.324
48.46000 153.841
48.47000 155.501
48.48000 156.935
48.49000 155.922
48.50000 154.744
48.51000 154.137
48.52000 155.615
48.53000 157.285
48.54000 158.677
48.55000 159.378
48.56000 160.047
48.57000 160.471
48.58000 160.250
48.59000 160.083
48.60000 159.669
48.61000 158.978
48.62000 158.307
48.63000 161.496
48.64000 167.537
48.65000 173.467
48.66000 169.431
48.67000 160.738
48.68000 152.526
48.69000 151.776
48.70000 153.576
48.71000 155.525
48.72000 158.775
48.73000 162.325
48.74000 165.384
48.75000 164.602
48.76000 163.450
48.77000 162.287
48.78000 161.083
48.79000 159.875
48.80000 159.922
48.81000 163.047
48.82000 166.312
48.83000 168.367
48.84000 162.382
48.85000 157.960
48.86000 155.730
48.87000 155.942
48.88000 156.182
48.89000 160.757
48.90000 168.482
48.91000 176.060
48.92000 174.191
48.93000 167.910
48.94000 161.993
48.95000 161.556
48.96000 162.965
48.97000 163.800
48.98000 159.777
48.99000 154.650
49.00000 150.243
49.01000 150.540
49.02000 151.378
49.03000 151.864
49.04000 151.109
49.05000 150.245
49.06000 149.337
49.07000 148.324
49.08000 147.306
49.09000 146.669
49.10000 148.033
49.11000 149.038
49.12000 150.696
49.13000 153.068
49.14000 155.431
49.15000 156.516
49.16000 156.686
49.17000 156.853
49.18000 158.253
49.19000 160.174
49.20000 161.862
49.21000 160.099
49.22000 157.192
49.23000 154.414
49.24000 152.709
49.25000 151.243
49.26000 149.987
49.27000 153.074
49.28000 156.211
49.29000 158.109
49.30000 155.684
49.31000 152.888
49.32000 152.135
49.33000 156.246
49.34000 160.565
49.35000 163.252
49.36000 155.201
49.37000 149.295
49.38000 148.307
49.39000 152.623
49.40000 156.948
49.41000 162.433
49.42000 168.736
49.43000 174.907
49.44000 170.171
49.45000 160.609
49.46000 151.574
49.47000 150.112
49.48000 151.126
49.49000 152.212
49.50000 153.888
49.51000 155.694
49.52000 157.237
49.53000 155.220
49.54000 153.093
49.55000 151.721
49.56000 152.941
49.57000 154.380
49.58000 154.074
49.59000 149.674
49.60000 145.105
49.61000 142.279
49.62000 151.114
49.63000 157.572
49.64000 160.636
49.65000 160.100
49.66000 159.566
49.67000 159.230
49.68000 159.033
49.69000 158.840
49.70000 157.115
49.71000 154.767
49.72000 152.368
49.73000 149.252
49.74000 145.906
49.75000 143.256
49.76000 146.184
49.77000 150.322
49.78000 153.850
49.79000 156.865
49.80000 159.342
49.81000 160.850
49.82000 159.075
49.83000 157.031
49.84000 157.445
49.85000 163.547
49.86000 169.878
49.87000 173.770
49.88000 172.710
49.89000 171.907
49.90000 169.482
49.91000 165.365
49.92000 161.253
49.93000 157.680
49.94000 154.476
49.95000 151.344
49.96000 151.489
49.97000 153.086
49.98000 154.389
49.99000 151.662
50.00000 147.656
50.01000 144.748
50.02000 150.455
50.03000 158.001
50.04000 164.417
50.05000 163.275
50.06000 161.447
50.07000 159.362
50.08000 156.417
50.09000 153.403
50.10000 152.607
50.11000 156.865
50.12000 161.320
50.13000 164.041
50.14000 159.209
50.15000 155.691
50.16000 154.268
50.17000 154.993
50.18000 155.745
50.19000 159.333
50.20000 164.831
50.21000 170.200
50.22000 169.429
50.23000 166.001
50.24000 162.897
50.25000 164.124
50.26000 166.707
50.27000 168.579
50.28000 164.980
50.29000 160.232
50.30000 156.206
50.31000 160.835
50.32000 165.691
50.33000 169.860
50.34000 171.766
50.35000 173.494
50.36000 173.593
50.37000 170.027
50.38000 166.323
50.39000 164.075
50.40000 167.486
50.41000 169.964
50.42000 172.930
50.43000 176.390
50.44000 179.848
50.45000 183.247
50.46000 186.606
50.47000 189.883
50.48000 189.071
50.49000 186.533
50.50000 184.556
50.51000 189.905
50.52000 197.512
50.53000 204.746
50.54000 209.158
50.55000 212.987
50.56000 216.224
50.57000 215.872
50.58000 215.182
50.59000 215.562
50.60000 219.411
50.61000 223.527
50.62000 226.687
50.63000 227.732
50.64000 228.700
50.65000 229.284
50.66000 230.727
50.67000 231.761
50.68000 233.885
50.69000 237.089
50.70000 240.242
50.71000 238.563
50.72000 233.726
50.73000 229.012
50.74000 230.559
50.75000 234.692
50.76000 238.417
50.77000 236.949
50.78000 233.904
50.79000 231.388
50.80000 232.808
50.81000 235.029
50.82000 236.901
50.83000 231.501
50.84000 226.204
50.85000 221.082
50.86000 216.518
50.87000 211.995
50.88000 209.614
50.89000 211.908
50.90000 214.366
50.91000 215.839
50.92000 209.682
50.93000 205.259
50.94000 202.592
50.95000 201.639
50.96000 200.676
50.97000 198.865
50.98000 196.509
50.99000 194.214
51.00000 194.175
51.01000 195.079
51.02000 195.402
51.03000 188.485
51.04000 179.400
51.05000 171.164
51.06000 169.111
51.07000 168.296
51.08000 167.611
51.09000 171.665
51.10000 175.546
51.11000 179.125
51.12000 181.754
51.13000 184.314
51.14000 185.450
51.15000 183.523
51.16000 181.493
51.17000 180.283
51.18000 176.057
51.19000 173.044
51.20000 170.820
51.21000 169.352
51.22000 167.895
51.23000 167.311
51.24000 167.281
51.25000 167.251
51.26000 166.652
51.27000 165.849
51.28000 165.043
51.29000 164.208
51.30000 163.364
51.31000 162.667
51.32000 163.024
51.33000 163.589
51.34000 164.063
51.35000 159.059
51.36000 154.327
51.37000 152.421
51.38000 159.277
51.39000 166.758
51.40000 171.294
51.41000 169.584
51.42000 167.670
51.43000 166.538
51.44000 157.909
51.45000 151.767
51.46000 150.573
51.47000 154.040
51.48000 157.462
51.49000 157.452
51.50000 155.296
51.51000 153.202
51.52000 153.058
51.53000 153.711
51.54000 154.430
51.55000 155.934
51.56000 157.666
51.57000 158.845
51.58000 156.132
51.59000 152.665
51.60000 149.767
51.61000 149.010
51.62000 148.599
51.63000 149.184
51.64000 152.810
51.65000 156.649
51.66000 157.245
51.67000 151.066
51.68000 144.674
51.69000 140.916
51.70000 144.108
51.71000 146.396
51.72000 148.771
51.73000 151.228
51.74000 153.638
51.75000 152.627
51.76000 149.512
51.77000 146.489
51.78000 146.619
51.79000 147.999
51.80000 149.230
51.81000 148.722
51.82000 147.717
51.83000 147.044
51.84000 148.664
51.85000 150.722
51.86000 152.436
51.87000 147.693
51.88000 143.120
51.89000 140.454
51.90000 143.536
51.91000 147.007
51.92000 148.315
51.93000 145.165
51.94000 141.881
51.95000 139.962
51.96000 144.067
51.97000 146.984
51.98000 149.189
51.99000 150.746
52.00000 152.218
52.01000 147.912
52.02000 140.103
52.03000 132.532
52.04000 132.590
52.05000 135.634
52.06000 138.590
52.07000 140.534
52.08000 142.193
52.09000 143.533
52.10000 142.715
52.11000 141.491
52.12000 140.474
52.13000 142.131
52.14000 143.762
52.15000 145.187
52.16000 146.002
52.17000 146.776
52.18000 145.775
52.19000 141.169
52.20000 136.458
52.21000 133.725
52.22000 135.288
52.23000 136.404
52.24000 139.419
52.25000 144.135
52.26000 148.809
52.27000 150.836
52.28000 151.281
52.29000 151.713
52.30000 147.995
52.31000 142.878
52.32000 138.072
52.33000 136.725
52.34000 136.339
52.35000 136.482
52.36000 140.153
52.37000 144.475
52.38000 148.056
52.39000 146.659
52.40000 145.031
52.41000 143.420
52.42000 141.862
52.43000 140.307
52.44000 141.518
52.45000 148.265
52.46000 155.165
52.47000 159.143
52.48000 144.537
52.49000 134.247
52.50000 131.540
52.51000 135.524
52.52000 139.500
52.53000 143.001
52.54000 146.222
52.55000 149.338
52.56000 149.329
52.57000 148.134
52.58000 147.238
52.59000 149.589
52.60000 152.830
52.61000 155.263
52.62000 152.404
52.63000 148.585
52.64000 145.430
52.65000 146.557
52.66000 147.886
52.67000 148.235
52.68000 145.761
52.69000 143.110
52.70000 141.388
52.71000 141.498
52.72000 141.658
52.73000 141.750
52.74000 143.212
52.75000 144.238
52.76000 145.276
52.77000 146.325
52.78000 147.349
52.79000 146.901
52.80000 145.600
52.81000 144.342
52.82000 146.033
52.83000 148.728
52.84000 150.862
52.85000 147.017
52.86000 141.558
52.87000 136.730
52.88000 135.955
52.89000 135.904
52.90000 135.862
52.91000 140.751
52.92000 145.223
52.93000 147.801
52.94000 144.997
52.95000 141.863
52.96000 141.408
52.97000 146.158
52.98000 151.041
52.99000 153.817
53.00000 147.512
53.01000 143.095
53.02000 141.608
53.03000 142.625
53.04000 143.649
53.05000 145.115
53.06000 146.832
53.07000 148.489
53.08000 147.497
53.09000 145.589
53.10000 143.925
53.11000 144.799
53.12000 146.348
53.13000 147.317
53.14000 144.617
53.15000 141.272
53.16000 138.527
53.17000 141.342
53.18000 144.150
53.19000 147.389
53.20000 151.835
53.21000 156.353
53.22000 158.506
53.23000 156.130
53.24000 153.642
53.25000 152.238
53.26000 150.664
53.27000 149.576
53.28000 152.120
53.29000 157.717
53.30000 163.156
53.31000 160.422
53.32000 153.087
53.33000 146.014
53.34000 147.829
53.35000 152.752
53.36000 157.450
53.37000 159.849
53.38000 161.646
53.39000 163.125
53.40000 162.630
53.41000 161.795
53.42000 161.111
53.43000 156.687
53.44000 152.735
53.45000 149.952
53.46000 150.396
53.47000 151.026
53.48000 152.072
53.49000 153.901
53.50000 155.748
53.51000 156.783
53.52000 152.080
53.53000 148.814
53.54000 149.762
53.55000 154.194
53.56000 158.515
53.57000 157.370
53.58000 153.191
53.59000 149.168
53.60000 148.735
53.61000 149.608
53.62000 150.262
53.63000 148.723
53.64000 146.620
53.65000 144.734
53.66000 144.179
53.67000 143.850
53.68000 143.581
53.69000 145.054
53.70000 146.407
53.71000 147.047
53.72000 145.743
53.73000 144.330
53.74000 143.098
53.75000 142.202
53.76000 141.314
53.77000 140.820
53.78000 143.315
53.79000 145.037
53.80000 142.662
53.81000 136.952
53.82000 131.366
53.83000 131.571
53.84000 134.942
53.85000 138.184
53.86000 141.340
53.87000 144.269
53.88000 147.167
53.89000 149.765
53.90000 152.287
53.91000 154.428
53.92000 154.285
53.93000 153.761
53.94000 153.334
53.95000 146.123
53.96000 139.670
53.97000 136.273
53.98000 141.072
53.99000 146.321
54.00000 148.546
54.01000 145.230
54.02000 141.794
54.03000 139.896
54.04000 139.303
54.05000 138.906
54.06000 141.701
54.07000 147.054
54.08000 152.269
54.09000 151.289
54.10000 146.971
54.11000 142.823
54.12000 143.439
54.13000 145.660
54.14000 147.480
54.15000 145.445
54.16000 142.446
54.17000 139.394
54.18000 136.030
54.19000 132.614
54.20000 129.845
54.21000 135.164
54.22000 140.160
54.23000 142.632
54.24000 138.435
54.25000 133.883
54.26000 131.376
54.27000 132.561
54.28000 133.822
54.29000 134.514
54.30000 136.762
54.31000 138.310
54.32000 139.629
54.33000 140.768
54.34000 141.802
54.35000 138.310
54.36000 132.415
54.37000 126.760
54.38000 128.794
54.39000 133.305
54.40000 137.138
54.41000 134.596
54.42000 130.484
54.43000 127.816
54.44000 133.533
54.45000 140.603
54.46000 146.315
54.47000 142.281
54.48000 138.221
54.49000 136.592
54.50000 141.291
54.51000 146.318
54.52000 149.776
54.53000 150.441
54.54000 151.050
54.55000 151.382
54.56000 145.199
54.57000 140.970
54.58000 142.681
54.59000 149.003
54.60000 155.147
54.61000 153.964
54.62000 148.947
54.63000 144.140
54.64000 140.946
54.65000 138.506
54.66000 136.656
54.67000 140.244
54.68000 145.150
54.69000 148.461
54.70000 142.660
54.71000 135.415
54.72000 129.580
54.73000 136.555
54.74000 143.216
54.75000 147.359
54.76000 145.038
54.77000 142.392
54.78000 141.237
54.79000 142.698
54.80000 144.208
54.81000 145.024
54.82000 151.275
54.83000 155.535
54.84000 154.055
54.85000 148.187
54.86000 142.509
54.87000 144.231
54.88000 149.769
54.89000 155.069
54.90000 153.840
54.91000 150.549
54.92000 147.348
54.93000 144.956
54.94000 142.757
54.95000 141.390
54.96000 144.691
54.97000 148.719
54.98000 151.953
54.99000 150.373
55.00000 148.725
55.01000 147.816
55.02000 148.775
55.03000 149.826
55.04000 149.183
55.05000 145.614
55.06000 141.993
55.07000 140.051
55.08000 142.856
55.09000 144.768
55.10000 145.467
55.11000 145.252
55.12000 145.040
55.13000 144.902
55.14000 144.802
55.15000 144.707
55.16000 148.423
55.17000 153.112
55.18000 157.269
55.19000 156.716
55.20000 155.055
55.21000 153.237
55.22000 150.548
55.23000 147.725
55.24000 145.467
55.25000 153.620
55.26000 160.988
55.27000 166.077
55.28000 165.483
55.29000 164.619
55.30000 164.094
55.31000 164.145
55.32000 164.207
55.33000 164.239
55.34000 162.849
55.35000 161.920
55.36000 164.408
55.37000 169.428
55.38000 174.297
55.39000 173.733
55.40000 170.449
55.41000 167.314
55.42000 169.375
55.43000 172.942
55.44000 176.562
55.45000 180.629
55.46000 184.799
55.47000 188.627
55.48000 190.589
55.49000 192.270
55.50000 193.611
55.51000 195.002
55.52000 196.129
55.53000 198.800
55.54000 205.266
55.55000 211.906
55.56000 217.949
55.57000 222.989
55.58000 228.013
55.59000 230.666
55.60000 243.720
55.61000 252.574
55.62000 258.790
55.63000 263.083
55.64000 267.259
55.65000 267.378
55.66000 265.495
55.67000 263.700
55.68000 274.928
55.69000 289.416
55.70000 303.909
55.71000 318.440
55.72000 332.981
55.73000 346.395
55.74000 353.793
55.75000 360.301
55.76000 365.472
55.77000 392.994
55.78000 416.748
55.79000 435.602
55.80000 442.585
55.81000 449.039
55.82000 457.397
55.83000 468.904
55.84000 480.458
55.85000 486.511
55.86000 509.291
55.87000 524.684
55.88000 534.013
55.89000 538.984
55.90000 544.009
55.91000 550.798
55.92000 558.446
55.93000 565.725
55.94000 573.478
55.95000 580.801
55.96000 587.504
55.97000 589.026
55.98000 589.385
55.99000 587.936
56.00000 576.982
56.01000 564.648
56.02000 554.881
56.03000 541.549
56.04000 530.585
56.05000 521.289
56.06000 515.973
56.07000 510.830
56.08000 502.776
56.09000 489.981
56.10000 477.119
56.11000 470.434
56.12000 444.052
56.13000 426.272
56.14000 414.689
56.15000 407.491
56.16000 400.042
56.17000 384.581
56.18000 365.277
56.19000 346.930
56.20000 341.554
56.21000 340.518
56.22000 338.838
56.23000 331.881
56.24000 323.758
56.25000 315.134
56.26000 303.924
56.27000 292.345
56.28000 283.209
56.29000 262.419
56.30000 244.952
56.31000 232.772
56.32000 233.033
56.33000 233.815
56.34000 234.663
56.35000 235.616
56.36000 236.570
56.37000 237.061
56.38000 222.047
56.39000 211.956
56.40000 205.105
56.41000 200.510
56.42000 195.971
56.43000 193.166
56.44000 191.182
56.45000 189.298
56.46000 185.150
56.47000 180.646
56.48000 176.639
56.49000 176.625
56.50000 177.479
56.51000 177.883
56.52000 175.996
56.53000 173.788
56.54000 172.052
56.55000 165.550
56.56000 160.029
56.57000 157.939
56.58000 163.810
56.59000 170.003
56.60000 173.888
56.61000 174.124
56.62000 174.315
56.63000 174.412
56.64000 163.776
56.65000 156.662
56.66000 153.331
56.67000 152.596
56.68000 151.958
56.69000 154.206
56.70000 157.799
56.71000 161.204
56.72000 159.246
56.73000 155.868
56.74000 152.762
56.75000 151.800
56.76000 151.298
56.77000 150.742
56.78000 149.917
56.79000 149.054
56.80000 148.378
56.81000 144.600
56.82000 141.382
56.83000 139.789
56.84000 141.913
56.85000 144.184
56.86000 144.511
56.87000 141.812
56.88000 139.077
56.89000 137.690
56.90000 141.430
56.91000 143.900
56.92000 142.561
56.93000 138.647
56.94000 134.846
56.95000 134.301
56.96000 135.251
56.97000 136.149
56.98000 137.351
56.99000 138.544
57.00000 139.439
57.01000 138.033
57.02000 136.142
57.03000 134.468
57.04000 133.860
57.05000 133.397
57.06000 133.035
57.07000 134.518
57.08000 135.817
57.09000 135.722
57.10000 132.482
57.11000 129.124
57.12000 127.365
57.13000 128.062
57.14000 128.786
57.15000 129.150
57.16000 137.381
57.17000 142.799
57.18000 140.085
57.19000 131.959
57.20000 124.168
57.21000 125.639
57.22000 131.303
57.23000 136.656
57.24000 135.671
57.25000 132.967
57.26000 130.503
57.27000 129.870
57.28000 129.616
57.29000 129.272
57.30000 128.492
57.31000 127.654
57.32000 127.002
57.33000 129.923
57.34000 132.467
57.35000 133.802
57.36000 132.450
57.37000 131.000
57.38000 129.523
57.39000 128.005
57.40000 126.486
57.41000 126.295
57.42000 127.425
57.43000 128.541
57.44000 128.276
57.45000 127.106
57.46000 126.003
57.47000 126.679
57.48000 128.149
57.49000 129.535
57.50000 130.214
57.51000 130.639
57.52000 131.138
57.53000 132.197
57.54000 133.371
57.55000 133.693
57.56000 129.955
57.57000 125.689
57.58000 122.383
57.59000 121.383
57.60000 120.727
57.61000 120.103
57.62000 119.548
57.63000 118.995
57.64000 121.174
57.65000 127.418
57.66000 133.700
57.67000 133.581
57.68000 127.201
57.69000 120.897
57.70000 121.229
57.71000 125.846
57.72000 130.183
57.73000 127.284
57.74000 121.204
57.75000 115.475
57.76000 116.766
57.77000 119.877
57.78000 122.527
57.79000 121.804
57.80000 120.402
57.81000 120.215
57.82000 125.734
57.83000 131.981
57.84000 136.805
57.85000 135.193
57.86000 133.540
57.87000 131.882
57.88000 130.212
57.89000 128.541
57.90000 127.616
57.91000 127.785
57.92000 127.962
57.93000 129.542
57.94000 132.469
57.95000 135.338
57.96000 133.415
57.97000 128.443
57.98000 123.702
57.99000 124.749
58.00000 128.304
58.01000 131.648
58.02000 130.884
58.03000 129.077
58.04000 127.363
58.05000 126.331
58.06000 125.433
58.07000 125.206
58.08000 128.082
58.09000 131.347
58.10000 133.859
58.11000 133.511
58.12000 133.073
58.13000 131.758
58.14000 128.576
58.15000 125.333
58.16000 122.857
58.17000 121.489
58.18000 120.130
58.19000 120.265
58.20000 121.813
58.21000 123.353
58.22000 124.332
58.23000 124.959
58.24000 125.685
58.25000 128.808
58.26000 132.953
58.27000 136.846
58.28000 134.378
58.29000 130.435
58.30000 126.339
58.31000 121.163
58.32000 115.776
58.33000 111.786
58.34000 114.150
58.35000 117.296
58.36000 119.706
58.37000 122.118
58.38000 124.023
58.39000 124.427
58.40000 121.685
58.41000 118.843
58.42000 118.099
58.43000 120.339
58.44000 122.600
58.45000 124.608
58.46000 126.377
58.47000 128.119
58.48000 127.813
58.49000 126.243
58.50000 124.632
58.51000 122.066
58.52000 119.099
58.53000 116.316
58.54000 118.462
58.55000 121.705
58.56000 124.846
58.57000 127.285
58.58000 129.590
58.59000 131.017
58.60000 128.511
58.61000 125.530
58.62000 123.254
58.63000 120.180
58.64000 117.714
58.65000 116.309
58.66000 117.095
58.67000 117.947
58.68000 119.264
58.69000 121.230
58.70000 123.200
58.71000 124.965
58.72000 126.541
58.73000 128.089
58.74000 127.777
58.75000 126.334
58.76000 124.995
58.77000 126.030
58.78000 128.052
58.79000 129.944
58.80000 128.063
58.81000 125.383
58.82000 122.805
58.83000 120.923
58.84000 119.174
58.85000 117.788
58.86000 118.009
58.87000 118.420
58.88000 118.733
58.89000 123.462
58.90000 127.412
58.91000 128.931
58.92000 125.496
58.93000 121.916
58.94000 121.079
58.95000 124.024
58.96000 126.991
58.97000 127.666
58.98000 126.280
58.99000 124.912
59.00000 124.716
59.01000 125.223
59.02000 125.569
59.03000 122.376
59.04000 117.736
59.05000 113.399
59.06000 112.846
59.07000 113.301
59.08000 113.735
59.09000 114.031
59.10000 114.302
59.11000 114.751
59.12000 115.973
59.13000 117.284
59.14000 118.277
59.15000 122.335
59.16000 125.676
59.17000 127.873
59.18000 127.773
59.19000 127.607
59.20000 125.827
59.21000 121.855
59.22000 117.872
59.23000 119.455
59.24000 125.957
59.25000 132.340
59.26000 131.386
59.27000 126.101
59.28000 121.007
59.29000 120.000
59.30000 120.641
59.31000 121.238
59.32000 121.227
59.33000 121.065
59.34000 120.563
59.35000 117.823
59.36000 114.676
59.37000 112.696
59.38000 115.712
59.39000 119.296
59.40000 122.001
59.41000 120.640
59.42000 119.372
59.43000 119.329
59.44000 121.710
59.45000 124.156
59.46000 124.965
59.47000 123.583
59.48000 122.191
59.49000 123.428
59.50000 126.951
59.51000 130.383
59.52000 128.582
59.53000 123.736
59.54000 119.008
59.55000 116.703
59.56000 115.361
59.57000 114.111
59.58000 114.629
59.59000 115.531
59.60000 116.052
59.61000 114.114
59.62000 111.735
59.63000 110.848
59.64000 116.243
59.65000 122.339
59.66000 126.920
59.67000 125.036
59.68000 123.253
59.69000 121.594
59.70000 120.179
59.71000 118.770
59.72000 118.786
59.73000 120.679
59.74000 122.579
59.75000 119.939
59.76000 113.420
59.77000 107.046
59.78000 108.577
59.79000 114.642
59.80000 120.366
59.81000 119.263
59.82000 115.485
59.83000 111.972
59.84000 112.912
59.85000 114.833
59.86000 116.324
59.87000 115.088
59.88000 113.372
59.89000 111.809
59.90000 110.885
59.91000 110.031
59.92000 109.391
59.93000 115.570
59.94000 120.711
59.95000 123.153
59.96000 120.409
59.97000 117.536
59.98000 116.273
59.99000 117.095
60.00000 117.925
60.01000 116.758
60.02000 113.916
60.03000 111.119
60.04000 110.702
60.05000 111.628
60.06000 112.621
60.07000 114.901
60.08000 117.680
60.09000 120.259
60.10000 120.232
60.11000 119.590
60.12000 119.206
60.13000 120.430
60.14000 121.932
60.15000 123.149
60.16000 123.198
60.17000 123.122
60.18000 123.065
60.19000 120.452
60.20000 118.302
60.21000 116.652
60.22000 115.951
60.23000 115.272
60.24000 115.930
60.25000 118.294
60.26000 120.661
60.27000 119.995
60.28000 116.822
60.29000 113.706
60.30000 113.423
60.31000 114.718
60.32000 115.987
60.33000 116.770
60.34000 117.369
60.35000 117.923
60.36000 120.434
60.37000 123.148
60.38000 125.558
60.39000 126.099
60.40000 126.320
60.41000 125.697
60.42000 121.673
60.43000 117.292
60.44000 114.040
60.45000 113.136
60.46000 112.538
60.47000 111.577
60.48000 109.938
60.49000 108.284
60.50000 109.862
60.51000 115.499
60.52000 121.140
60.53000 123.982
60.54000 124.536
60.55000 125.057
60.56000 124.039
60.57000 122.178
60.58000 120.461
60.59000 121.393
60.60000 123.318
60.61000 125.099
60.62000 126.379
60.63000 127.413
60.64000 128.158
60.65000 127.157
60.66000 125.864
60.67000 124.316
60.68000 121.757
60.69000 119.095
60.70000 117.126
60.71000 123.729
60.72000 129.218
60.73000 132.353
60.74000 131.160
60.75000 129.873
60.76000 128.732
60.77000 127.769
60.78000 126.808
60.79000 127.259
60.80000 128.839
60.81000 130.325
60.82000 127.535
60.83000 122.435
60.84000 117.457
60.85000 114.679
60.86000 112.714
60.87000 110.900
60.88000 115.232
60.89000 120.499
60.90000 124.953
60.91000 124.583
60.92000 123.418
60.93000 121.990
60.94000 119.535
60.95000 116.977
60.96000 115.093
60.97000 116.297
60.98000 117.358
60.99000 117.397
61.00000 115.584
61.01000 113.733
61.02000 115.664
61.03000 122.195
61.04000 128.724
61.05000 129.595
61.06000 126.005
61.07000 122.481
61.08000 121.784
61.09000 122.593
61.10000 123.334
61.11000 122.893
61.12000 122.020
61.13000 121.215
61.14000 120.165
61.15000 119.170
61.16000 118.482
61.17000 119.576
61.18000 120.959
61.19000 121.903
61.20000 121.160
61.21000 120.250
61.22000 119.583
61.23000 123.289
61.24000 126.328
61.25000 127.419
61.26000 125.029
61.27000 122.572
61.28000 123.434
61.29000 128.273
61.30000 133.109
61.31000 134.745
61.32000 133.892
61.33000 133.074
61.34000 133.644
61.35000 134.944
61.36000 136.030
61.37000 133.479
61.38000 129.621
61.39000 126.073
61.40000 126.322
61.41000 127.371
61.42000 128.240
61.43000 128.073
61.44000 127.743
61.45000 129.624
61.46000 139.879
61.47000 150.944
61.48000 159.023
61.49000 162.684
61.50000 165.333
61.51000 173.890
61.52000 192.840
61.53000 211.986
61.54000 233.000
61.55000 256.213
61.56000 279.375
61.57000 296.499
61.58000 308.917
61.59000 321.388
61.60000 335.993
61.61000 351.701
61.62000 367.519
61.63000 385.167
61.64000 403.461
61.65000 420.262
61.66000 428.375
61.67000 433.757
61.68000 439.179
61.69000 444.825
61.70000 450.507
61.71000 452.943
61.72000 443.273
61.73000 432.458
61.74000 424.596
61.75000 397.345
61.76000 375.646
61.77000 353.977
61.78000 332.357
61.79000 310.738
61.80000 287.812
61.81000 263.369
61.82000 238.990
61.83000 221.250
61.84000 208.608
61.85000 195.966
61.86000 183.332
61.87000 170.703
61.88000 158.439
61.89000 152.063
61.90000 147.740
61.91000 143.778
61.92000 140.739
61.93000 138.227
61.94000 136.381
61.95000 138.227
61.96000 140.641
61.97000 141.748
61.98000 138.054
61.99000 133.916
62.00000 130.921
62.01000 129.144
62.02000 127.825
62.03000 128.582
62.04000 132.886
62.05000 137.251
62.06000 138.930
62.07000 137.547
62.08000 136.164
62.09000 135.947
62.10000 136.591
62.11000 137.213
62.12000 136.990
62.13000 136.344
62.14000 135.501
62.15000 131.576
62.16000 126.592
62.17000 122.033
62.18000 123.667
62.19000 126.399
62.20000 128.555
62.21000 127.569
62.22000 126.107
62.23000 124.540
62.24000 122.589
62.25000 120.603
62.26000 119.171
62.27000 128.415
62.28000 135.876
62.29000 139.943
62.30000 138.298
62.31000 136.562
62.32000 135.080
62.33000 133.882
62.34000 132.689
62.35000 130.419
62.36000 127.386
62.37000 124.530
62.38000 127.875
62.39000 134.291
62.40000 140.263
62.41000 139.455
62.42000 136.351
62.43000 133.517
62.44000 134.606
62.45000 136.371
62.46000 137.776
62.47000 137.259
62.48000 136.456
62.49000 136.435
62.50000 139.200
62.51000 142.212
62.52000 144.373
62.53000 137.860
62.54000 132.582
62.55000 130.205
62.56000 132.639
62.57000 135.145
62.58000 136.654
62.59000 137.060
62.60000 137.464
62.61000 137.448
62.62000 137.133
62.63000 136.863
62.64000 138.102
62.65000 140.078
62.66000 142.257
62.67000 147.467
62.68000 153.689
62.69000 159.359
62.70000 152.301
62.71000 143.509
62.72000 136.160
62.73000 136.436
62.74000 137.824
62.75000 138.465
62.76000 136.489
62.77000 134.285
62.78000 132.710
62.79000 134.244
62.80000 135.517
62.81000 136.310
62.82000 136.317
62.83000 136.313
62.84000 136.039
62.85000 135.473
62.86000 134.910
62.87000 133.420
62.88000 131.295
62.89000 129.217
62.90000 128.672
62.91000 128.864
62.92000 129.336
62.93000 133.870
62.94000 139.740
62.95000 145.079
62.96000 143.209
62.97000 140.141
62.98000 137.848
62.99000 139.578
63.00000 141.884
63.01000 143.976
63.02000 145.326
63.03000 146.613
63.04000 147.528
63.05000 147.004
63.06000 146.559
63.07000 145.285
63.08000 142.680
63.09000 140.057
63.10000 136.458
63.11000 131.817
63.12000 127.197
63.13000 129.146
63.14000 135.617
63.15000 141.927
63.16000 143.218
63.17000 142.130
63.18000 141.198
63.19000 142.491
63.20000 144.506
63.21000 146.334
63.22000 145.769
63.23000 144.809
63.24000 143.954
63.25000 143.636
63.26000 143.394
63.27000 143.648
63.28000 145.595
63.29000 147.683
63.30000 149.160
63.31000 146.259
63.32000 143.919
63.33000 142.935
63.34000 144.102
63.35000 145.297
63.36000 147.811
63.37000 151.709
63.38000 155.589
63.39000 153.267
63.40000 146.753
63.41000 140.441
63.42000 140.206
63.43000 142.812
63.44000 145.163
63.45000 143.994
63.46000 141.700
63.47000 139.622
63.48000 142.140
63.49000 145.229
63.50000 147.607
63.51000 146.410
63.52000 144.720
63.53000 143.120
63.54000 141.822
63.55000 140.547
63.56000 139.650
63.57000 143.652
63.58000 146.833
63.59000 148.591
63.60000 148.127
63.61000 147.636
63.62000 148.194
63.63000 149.835
63.64000 151.467
63.65000 147.805
63.66000 140.643
63.67000 133.756
63.68000 134.801
63.69000 139.500
63.70000 143.823
63.71000 143.070
63.72000 140.720
63.73000 138.595
63.74000 143.945
63.75000 150.042
63.76000 154.781
63.77000 152.805
63.78000 149.917
63.79000 147.891
63.80000 148.717
63.81000 149.768
63.82000 150.505
63.83000 152.972
63.84000 154.888
63.85000 155.580
63.86000 154.387
63.87000 153.173
63.88000 153.750
63.89000 156.147
63.90000 158.529
63.91000 158.695
63.92000 157.398
63.93000 156.061
63.94000 153.601
63.95000 150.631
63.96000 147.984
63.97000 149.585
63.98000 152.505
63.99000 155.138
64.00000 155.183
64.01000 154.749
64.02000 154.769
64.03000 156.996
64.04000 159.517
64.05000 161.383
64.06000 161.110
64.07000 160.672
64.08000 160.366
64.09000 160.658
64.10000 160.895
64.11000 160.267
64.12000 158.327
64.13000 156.374
64.14000 157.079
64.15000 160.439
64.16000 163.778
64.17000 163.904
64.18000 161.945
64.19000 159.950
64.20000 156.979
64.21000 153.572
64.22000 150.303
64.23000 148.823
64.24000 147.889
64.25000 147.048
64.26000 152.810
64.27000 159.047
64.28000 164.020
64.29000 162.939
64.30000 161.066
64.31000 160.255
64.32000 162.852
64.33000 165.707
64.34000 167.690
64.35000 167.636
64.36000 167.540
64.37000 168.052
64.38000 169.470
64.39000 170.898
64.40000 168.744
64.41000 163.075
64.42000 157.444
64.43000 156.939
64.44000 159.713
64.45000 162.504
64.46000 165.718
64.47000 169.118
64.48000 172.433
64.49000 174.660
64.50000 176.560
64.51000 178.266
64.52000 177.441
64.53000 176.273
64.54000 175.679
64.55000 177.788
64.56000 180.244
64.57000 181.286
64.58000 177.847
64.59000 174.077
64.60000 171.471
64.61000 173.388
64.62000 174.946
64.63000 175.213
64.64000 173.581
64.65000 171.931
64.66000 171.368
64.67000 171.854
64.68000 172.336
64.69000 175.331
64.70000 179.856
64.71000 184.325
64.72000 187.367
64.73000 189.790
64.74000 191.801
64.75000 188.765
64.76000 184.230
64.77000 180.166
64.78000 180.067
64.79000 180.668
64.80000 182.299
64.81000 188.715
64.82000 195.733
64.83000 202.398
64.84000 207.962
64.85000 213.447
64.86000 217.220
64.87000 207.121
64.88000 199.198
64.89000 196.122
64.90000 200.067
64.91000 204.069
64.92000 207.179
64.93000 209.441
64.94000 211.685
64.95000 213.284
64.96000 214.455
64.97000 215.605
64.98000 216.235
64.99000 216.642
65.00000 217.364
65.01000 221.859
65.02000 227.458
65.03000 232.466
65.04000 235.570
65.05000 237.952
65.06000 239.770
65.07000 239.009
65.08000 237.930
65.09000 238.178
65.10000 242.507
65.11000 247.124
65.12000 250.284
65.13000 243.421
65.14000 238.043
65.15000 238.490
65.16000 247.249
65.17000 256.069
65.18000 257.624
65.19000 252.399
65.20000 247.217
65.21000 252.469
65.22000 263.970
65.23000 275.262
65.24000 281.619
65.25000 285.892
65.26000 290.238
65.27000 295.429
65.28000 300.864
65.29000 305.715
65.30000 310.540
65.31000 314.735
65.32000 318.438
65.33000 319.927
65.34000 321.148
65.35000 324.511
65.36000 334.370
65.37000 344.673
65.38000 351.692
65.39000 368.106
65.40000 380.586
65.41000 390.245
65.42000 395.944
65.43000 401.615
65.44000 409.686
65.45000 419.959
65.46000 430.141
65.47000 440.929
65.48000 451.871
65.49000 462.489
65.50000 465.719
65.51000 465.872
65.52000 467.582
65.53000 487.168
65.54000 511.829
65.55000 533.789
65.56000 543.569
65.57000 550.068
65.58000 558.820
65.59000 577.546
65.60000 597.457
65.61000 620.546
65.62000 653.127
65.63000 686.343
65.64000 708.856
65.65000 781.797
65.66000 837.290
65.67000 913.900
65.68000 1019.724
65.69000 1125.754
65.70000 1264.380
65.71000 1432.448
65.72000 1598.927
65.73000 1777.509
65.74000 1959.575
65.75000 2141.665
65.76000 2324.266
65.77000 2507.076
65.78000 2685.227
65.79000 2811.041
65.80000 2922.214
65.81000 3020.989
65.82000 3089.276
65.83000 3143.588
65.84000 3191.897
65.85000 3214.036
65.86000 3233.124
65.87000 3236.290
65.88000 3192.585
65.89000 3145.826
65.90000 3114.293
65.91000 3036.666
65.92000 2977.940
65.93000 2875.451
65.94000 2713.344
65.95000 2550.867
65.96000 2357.656
65.97000 2137.138
65.98000 1918.835
65.99000 1712.525
66.00000 1517.599
66.01000 1325.319
66.02000 1189.856
66.03000 1077.374
66.04000 966.656
66.05000 875.329
66.06000 789.347
66.07000 713.126
66.08000 668.380
66.09000 634.623
66.10000 602.638
66.11000 578.263
66.12000 554.758
66.13000 532.489
66.14000 513.806
66.15000 495.350
66.16000 482.968
66.17000 492.810
66.18000 500.567
66.19000 507.437
66.20000 513.119
66.21000 518.793
66.22000 523.452
66.23000 527.223
66.24000 530.954
66.25000 554.833
66.26000 589.668
66.27000 624.728
66.28000 664.491
66.29000 706.129
66.30000 746.304
66.31000 770.754
66.32000 790.935
66.33000 808.783
66.34000 841.812
66.35000 872.715
66.36000 899.070
66.37000 906.207
66.38000 911.190
66.39000 916.819
66.40000 924.296
66.41000 931.887
66.42000 936.953
66.43000 926.661
66.44000 918.738
66.45000 909.008
66.46000 896.890
66.47000 884.757
66.48000 869.942
66.49000 852.821
66.50000 835.893
66.51000 797.340
66.52000 747.558
66.53000 698.446
66.54000 662.907
66.55000 632.701
66.56000 603.479
66.57000 584.619
66.58000 568.531
66.59000 554.334
66.60000 531.595
66.61000 510.677
66.62000 490.514
66.63000 473.498
66.64000 456.828
66.65000 444.792
66.66000 445.815
66.67000 447.625
66.68000 448.826
66.69000 450.456
66.70000 451.669
66.71000 452.734
66.72000 453.608
66.73000 454.473
66.74000 451.199
66.75000 444.420
66.76000 437.722
66.77000 439.998
66.78000 447.179
66.79000 454.008
66.80000 453.950
66.81000 451.224
66.82000 449.190
66.83000 454.274
66.84000 461.233
66.85000 467.359
66.86000 477.382
66.87000 486.595
66.88000 491.384
66.89000 478.037
66.90000 462.738
66.91000 451.446
66.92000 451.279
66.93000 451.764
66.94000 452.085
66.95000 459.149
66.96000 464.478
66.97000 468.838
66.98000 471.959
66.99000 475.064
67.00000 472.858
67.01000 466.231
67.02000 459.686
67.03000 460.704
67.04000 465.809
67.05000 471.006
67.06000 477.949
67.07000 485.559
67.08000 492.741
67.09000 495.609
67.10000 497.358
67.11000 498.893
67.12000 500.005
67.13000 500.899
67.14000 500.565
67.15000 495.277
67.16000 489.465
67.17000 486.455
67.18000 491.113
67.19000 496.209
67.20000 499.556
67.21000 496.036
67.22000 493.330
67.23000 495.616
67.24000 504.193
67.25000 512.779
67.26000 516.608
67.27000 516.538
67.28000 516.469
67.29000 512.088
67.30000 505.518
67.31000 499.623
67.32000 506.247
67.33000 517.582
67.34000 527.754
67.35000 526.441
67.36000 522.193
67.37000 518.471
67.38000 518.022
67.39000 518.109
67.40000 518.903
67.41000 522.505
67.42000 526.399
67.43000 529.095
67.44000 528.561
67.45000 527.848
67.46000 527.382
67.47000 522.043
67.48000 518.043
67.49000 520.773
67.50000 531.848
67.51000 542.934
67.52000 549.690
67.53000 552.951
67.54000 556.167
67.55000 559.079
67.56000 561.749
67.57000 564.147
67.58000 561.661
67.59000 557.364
67.60000 553.914
67.61000 558.671
67.62000 565.494
67.63000 571.457
67.64000 576.344
67.65000 580.377
67.66000 581.550
67.67000 571.528
67.68000 560.372
67.69000 553.794
67.70000 559.388
67.71000 565.639
67.72000 569.701
67.73000 581.423
67.74000 590.129
67.75000 593.091
67.76000 589.041
67.77000 584.987
67.78000 584.824
67.79000 587.751
67.80000 590.635
67.81000 592.548
67.82000 593.902
67.83000 595.377
67.84000 598.990
67.85000 603.384
67.86000 607.404
67.87000 607.880
67.88000 607.477
67.89000 607.126
67.90000 612.294
67.91000 617.478
67.92000 622.164
67.93000 624.926
67.94000 627.498
67.95000 630.275
67.96000 633.593
67.97000 636.938
67.98000 639.100
67.99000 623.577
68.00000 611.970
68.01000 609.895
68.02000 619.271
68.03000 628.655
68.04000 633.820
68.05000 635.687
68.06000 637.524
68.07000 638.815
68.08000 639.787
68.09000 641.146
68.10000 649.119
68.11000 659.474
68.12000 669.724
68.13000 678.991
68.14000 688.017
68.15000 695.867
68.16000 692.141
68.17000 687.384
68.18000 684.885
68.19000 690.961
68.20000 697.871
68.21000 702.330
68.22000 700.458
68.23000 698.264
68.24000 696.854
68.25000 707.614
68.26000 715.631
68.27000 723.711
68.28000 731.864
68.29000 740.023
68.30000 749.294
68.31000 759.421
68.32000 769.384
68.33000 778.300
68.34000 786.403
68.35000 793.946
68.36000 792.167
68.37000 787.080
68.38000 783.675
68.39000 795.598
68.40000 811.207
68.41000 824.747
68.42000 846.702
68.43000 866.526
68.44000 884.664
68.45000 896.495
68.46000 907.728
68.47000 915.450
68.48000 914.236
68.49000 912.579
68.50000 911.520
68.51000 932.226
68.52000 947.582
68.53000 968.997
68.54000 997.460
68.55000 1025.928
68.56000 1053.358
68.57000 1080.001
68.58000 1106.191
68.59000 1132.636
68.60000 1158.327
68.61000 1186.567
68.62000 1256.038
68.63000 1339.937
68.64000 1421.634
68.65000 1483.663
68.66000 1541.035
68.67000 1590.679
68.68000 1677.218
68.69000 1755.626
68.70000 1834.766
68.71000 1916.604
68.72000 1998.693
68.73000 2073.769
68.74000 2131.242
68.75000 2187.870
68.76000 2223.856
68.77000 2349.121
68.78000 2441.201
68.79000 2544.400
68.80000 2660.324
68.81000 2776.331
68.82000 2905.564
68.83000 3044.661
68.84000 3181.286
68.85000 3390.165
68.86000 3627.010
68.87000 3876.291
68.88000 4321.563
68.89000 4834.426
68.90000 5413.593
68.91000 6573.280
68.92000 7868.293
68.93000 8985.967
68.94000 12335.947
68.95000 15465.770
68.96000 19011.709
68.97000 24068.412
68.98000 29262.693
68.99000 34693.309
69.00000 40708.516
69.01000 46750.977
69.02000 50568.859
69.03000 56931.809
69.04000 61572.230
69.05000 65306.566
69.06000 68020.578
69.07000 70728.484
69.08000 72528.461
69.09000 73661.641
69.10000 74773.742
69.11000 75815.727
69.12000 76786.875
69.13000 77772.195
69.14000 78975.367
69.15000 80252.586
69.16000 81400.180
69.17000 81434.875
69.18000 81214.141
69.19000 81024.125
69.20000 77873.766
69.21000 74831.969
69.22000 71410.102
69.23000 66628.805
69.24000 61726.395
69.25000 57129.824
69.26000 53278.953
69.27000 49461.785
69.28000 47063.914
69.29000 43812.207
69.30000 41451.906
69.31000 39782.965
69.32000 38879.898
69.33000 37977.934
69.34000 37171.367
69.35000 36433.789
69.36000 35710.543
69.37000 34359.430
69.38000 32762.271
69.39000 31104.387
69.40000 28537.125
69.41000 25665.258
69.42000 22773.176
69.43000 19710.869
69.44000 16610.096
69.45000 13947.870
69.46000 11432.115
69.47000 9323.315
69.48000 7396.294
69.49000 6109.819
69.50000 4879.167
69.51000 3853.522
69.52000 3320.546
69.53000 2809.154
69.54000 2489.789
69.55000 2205.834
69.56000 2001.382
69.57000 1835.552
69.58000 1711.809
69.59000 1588.326
69.60000 1499.667
69.61000 1435.808
69.62000 1373.244
69.63000 1307.578
69.64000 1242.989
69.65000 1180.284
69.66000 1145.101
69.67000 1119.002
69.68000 1091.893
69.69000 1056.444
69.70000 1019.141
69.71000 987.198
69.72000 964.494
69.73000 946.456
69.74000 928.271
69.75000 909.573
69.76000 890.832
69.77000 869.176
69.78000 840.619
69.79000 811.768
69.80000 793.858
69.81000 787.364
69.82000 782.802
69.83000 769.966
69.84000 748.263
69.85000 726.569
69.86000 706.385
69.87000 687.260
69.88000 668.540
69.89000 665.215
69.90000 669.055
69.91000 672.451
69.92000 669.533
69.93000 664.561
69.94000 659.149
69.95000 650.167
69.96000 640.403
69.97000 632.064
69.98000 623.983
69.99000 617.208
70.00000 610.147
