20.00000 497.185
20.01000 501.085
20.02000 505.542
20.03000 508.749
20.04000 507.030
20.05000 504.808
20.06000 503.167
20.07000 496.321
20.08000 490.793
20.09000 486.453
20.10000 484.286
20.11000 482.166
20.12000 485.571
20.13000 495.774
20.14000 505.977
20.15000 504.672
20.16000 494.205
20.17000 483.941
20.18000 482.773
20.19000 486.501
20.20000 489.973
20.21000 488.911
20.22000 486.179
20.23000 483.657
20.24000 480.400
20.25000 477.315
20.26000 474.609
20.27000 474.136
20.28000 474.028
20.29000 474.898
20.30000 479.559
20.31000 484.600
20.32000 488.308
20.33000 481.579
20.34000 475.944
20.35000 475.002
20.36000 482.526
20.37000 490.223
20.38000 492.374
20.39000 487.810
20.40000 483.241
20.41000 481.202
20.42000 481.156
20.43000 481.181
20.44000 484.260
20.45000 488.958
20.46000 493.462
20.47000 494.611
20.48000 494.542
20.49000 494.479
20.50000 492.536
20.51000 490.383
20.52000 488.576
20.53000 488.766
20.54000 489.279
20.55000 489.850
20.56000 490.645
20.57000 491.462
20.58000 492.060
20.59000 490.830
20.60000 489.808
20.61000 488.253
20.62000 485.750
20.63000 483.229
20.64000 485.084
20.65000 492.152
20.66000 499.213
20.67000 497.814
20.68000 489.899
20.69000 482.189
20.70000 482.817
20.71000 487.804
20.72000 492.321
20.73000 488.922
20.74000 482.692
20.75000 476.964
20.76000 476.688
20.77000 477.621
20.78000 479.135
20.79000 483.963
20.80000 489.317
20.81000 493.233
20.82000 491.733
20.83000 489.713
20.84000 488.241
20.85000 491.025
20.86000 493.335
20.87000 494.042
20.88000 491.941
20.89000 489.787
20.90000 488.473
20.91000 488.142
20.92000 487.813
20.93000 485.565
20.94000 481.877
20.95000 478.294
20.96000 478.825
20.97000 481.476
20.98000 484.201
20.99000 488.144
21.00000 492.515
21.01000 496.527
21.02000 501.189
21.03000 505.485
21.04000 507.636
21.05000 497.758
21.06000 486.009
21.07000 478.235
21.08000 485.222
21.09000 493.597
21.10000 499.677
21.11000 486.862
21.12000 476.301
21.13000 470.254
21.14000 472.001
21.15000 473.884
21.16000 479.535
21.17000 489.531
21.18000 499.504
21.19000 497.977
21.20000 487.877
21.21000 478.026
21.22000 477.464
21.23000 481.617
21.24000 485.511
21.25000 485.266
21.26000 483.582
21.27000 482.041
21.28000 480.265
21.29000 478.637
21.30000 477.639
21.31000 480.125
21.32000 483.144
21.33000 486.958
21.34000 493.679
21.35000 500.668
21.36000 505.720
21.37000 491.873
21.38000 480.562
21.39000 477.632
21.40000 488.957
21.41000 500.519
21.42000 502.741
21.43000 494.362
21.44000 486.000
21.45000 480.051
21.46000 475.920
21.47000 471.921
21.48000 472.665
21.49000 475.783
21.50000 479.092
21.51000 485.371
21.52000 492.666
21.53000 499.337
21.54000 492.159
21.55000 482.934
21.56000 474.446
21.57000 469.960
21.58000 466.075
21.59000 465.516
21.60000 476.943
21.61000 489.448
21.62000 498.449
21.63000 503.216
21.64000 506.716
21.65000 507.830
21.66000 504.941
21.67000 501.988
21.68000 505.911
21.69000 517.511
21.70000 529.075
21.71000 535.666
21.72000 538.607
21.73000 541.433
21.74000 540.287
21.75000 537.184
21.76000 534.799
21.77000 543.320
21.78000 555.519
21.79000 566.652
21.80000 569.733
21.81000 570.841
21.82000 572.595
21.83000 577.804
21.84000 583.522
21.85000 589.482
21.86000 596.299
21.87000 603.190
21.88000 608.129
21.89000 617.767
21.90000 625.292
21.91000 636.593
21.92000 654.130
21.93000 671.760
21.94000 680.002
21.95000 677.932
21.96000 675.864
21.97000 679.414
21.98000 686.924
21.99000 694.381
22.00000 700.060
22.01000 704.877
22.02000 709.283
22.03000 707.637
22.04000 703.979
22.05000 700.647
22.06000 707.800
22.07000 716.217
22.08000 720.842
22.09000 705.562
22.10000 687.396
22.11000 674.541
22.12000 680.255
22.13000 687.570
22.14000 692.787
22.15000 676.259
22.16000 662.942
22.17000 650.318
22.18000 638.823
22.19000 627.344
22.20000 619.161
22.21000 614.540
22.22000 609.939
22.23000 607.921
22.24000 607.729
22.25000 607.205
22.26000 596.065
22.27000 579.841
22.28000 563.924
22.29000 552.430
22.30000 542.385
22.31000 533.255
22.32000 533.722
22.33000 536.007
22.34000 536.258
22.35000 525.998
22.36000 514.241
22.37000 503.473
22.38000 496.109
22.39000 489.033
22.40000 484.008
22.41000 484.442
22.42000 484.946
22.43000 486.792
22.44000 490.790
22.45000 494.817
22.46000 493.193
22.47000 485.564
22.48000 477.970
22.49000 472.500
22.50000 468.552
22.51000 464.676
22.52000 462.995
22.53000 462.351
22.54000 461.976
22.55000 465.396
22.56000 470.041
22.57000 474.255
22.58000 462.078
22.59000 448.191
22.60000 437.970
22.61000 446.386
22.62000 457.409
22.63000 465.355
22.64000 462.858
22.65000 459.501
22.66000 457.128
22.67000 447.257
22.68000 439.531
22.69000 437.466
22.70000 444.339
22.71000 451.324
22.72000 454.045
22.73000 452.311
22.74000 450.585
22.75000 447.037
22.76000 442.295
22.77000 437.854
22.78000 442.330
22.79000 450.957
22.80000 459.227
22.81000 462.617
22.82000 464.454
22.83000 466.117
22.84000 459.447
22.85000 452.002
22.86000 447.324
22.87000 456.481
22.88000 467.537
22.89000 474.349
22.90000 466.963
22.91000 458.434
22.92000 452.433
22.93000 456.107
22.94000 459.178
22.95000 456.965
22.96000 446.533
22.97000 436.005
22.98000 434.603
22.99000 442.578
23.00000 450.510
23.01000 452.404
23.02000 450.251
23.03000 448.067
23.04000 444.997
23.05000 441.522
23.06000 438.230
23.07000 437.413
23.08000 437.371
23.09000 437.334
23.10000 437.338
23.11000 437.349
23.12000 438.425
23.13000 444.738
23.14000 451.757
23.15000 456.060
23.16000 451.412
23.17000 446.060
23.18000 442.312
23.19000 443.907
23.20000 445.265
23.21000 445.729
23.22000 444.820
23.23000 443.897
23.24000 441.939
23.25000 438.934
23.26000 435.948
23.27000 437.926
23.28000 443.132
23.29000 448.177
23.30000 448.783
23.31000 447.382
23.32000 445.761
23.33000 441.258
23.34000 435.864
23.35000 431.001
23.36000 433.296
23.37000 436.611
23.38000 439.909
23.39000 443.123
23.40000 446.326
23.41000 449.215
23.42000 451.081
23.43000 452.870
23.44000 454.116
23.45000 441.147
23.46000 430.969
23.47000 428.583
23.48000 437.956
23.49000 447.448
23.50000 450.506
23.51000 447.173
23.52000 443.861
23.53000 439.787
23.54000 435.280
23.55000 430.981
23.56000 432.212
23.57000 435.906
23.58000 439.525
23.59000 442.181
23.60000 444.543
23.61000 446.669
23.62000 438.566
23.63000 429.638
23.64000 422.816
23.65000 426.034
23.66000 430.557
23.67000 433.632
23.68000 432.078
23.69000 430.177
23.70000 428.859
23.71000 431.636
23.72000 433.836
23.73000 435.653
23.74000 436.902
23.75000 438.146
23.76000 435.806
23.77000 429.966
23.78000 424.166
23.79000 421.901
23.80000 421.917
23.81000 422.058
23.82000 425.411
23.83000 430.174
23.84000 434.950
23.85000 439.884
23.86000 444.864
23.87000 449.336
23.88000 437.529
23.89000 424.345
23.90000 415.308
23.91000 425.731
23.92000 438.636
23.93000 446.940
23.94000 440.741
23.95000 433.479
23.96000 428.466
23.97000 428.214
23.98000 428.146
23.99000 432.070
24.00000 441.841
24.01000 451.661
24.02000 448.761
24.03000 433.645
24.04000 418.641
24.05000 411.888
24.06000 410.401
24.07000 409.166
24.08000 414.202
24.09000 421.953
24.10000 429.219
24.11000 430.563
24.12000 430.157
24.13000 429.793
24.14000 426.546
24.15000 423.214
24.16000 421.259
24.17000 425.668
24.18000 430.873
24.19000 434.290
24.20000 432.151
24.21000 429.615
24.22000 427.873
24.23000 440.192
24.24000 449.775
24.25000 448.394
24.26000 431.204
24.27000 413.888
24.28000 407.050
24.29000 410.106
24.30000 413.138
24.31000 414.202
24.32000 414.037
24.33000 413.896
24.34000 414.325
24.35000 414.997
24.36000 415.591
24.37000 415.249
24.38000 414.635
24.39000 414.086
24.40000 419.823
24.41000 425.887
24.42000 431.688
24.43000 436.288
24.44000 440.742
24.45000 442.598
24.46000 436.501
24.47000 429.850
24.48000 425.304
24.49000 416.416
24.50000 409.663
24.51000 411.778
24.52000 426.486
24.53000 441.284
24.54000 445.925
24.55000 441.133
24.56000 436.382
24.57000 429.781
24.58000 422.184
24.59000 415.010
24.60000 417.698
24.61000 424.535
24.62000 430.446
24.63000 425.566
24.64000 417.589
24.65000 410.474
24.66000 420.557
24.67000 432.188
24.68000 439.832
24.69000 429.627
24.70000 417.272
24.71000 410.111
24.72000 418.625
24.73000 428.205
24.74000 434.721
24.75000 422.118
24.76000 412.274
24.77000 408.391
24.78000 412.845
24.79000 417.355
24.80000 421.027
24.81000 423.933
24.82000 426.814
24.83000 421.059
24.84000 410.274
24.85000 399.939
24.86000 399.805
24.87000 403.898
24.88000 407.715
24.89000 408.376
24.90000 408.145
24.91000 407.940
24.92000 410.968
24.93000 414.125
24.94000 416.971
24.95000 418.445
24.96000 419.757
24.97000 421.397
24.98000 424.016
24.99000 426.699
25.00000 428.516
25.01000 412.169
25.02000 399.594
25.03000 393.924
25.04000 397.762
25.05000 401.662
25.06000 409.593
25.07000 421.148
25.08000 432.592
25.09000 428.523
25.10000 415.445
25.11000 402.882
25.12000 401.613
25.13000 404.959
25.14000 408.339
25.15000 412.106
25.16000 415.980
25.17000 419.419
25.18000 412.240
25.19000 404.315
25.20000 398.793
25.21000 403.702
25.22000 409.820
25.23000 413.854
25.24000 411.781
25.25000 409.314
25.26000 407.653
25.27000 399.279
25.28000 392.914
25.29000 391.496
25.30000 396.785
25.31000 402.111
25.32000 406.097
25.33000 408.899
25.34000 411.672
25.35000 412.773
25.36000 412.887
25.37000 412.941
25.38000 411.747
25.39000 410.050
25.40000 408.097
25.41000 403.338
25.42000 397.809
25.43000 392.912
25.44000 396.014
25.45000 399.957
25.46000 404.442
25.47000 411.243
25.48000 418.306
25.49000 421.683
25.50000 414.412
25.51000 406.470
25.52000 401.150
25.53000 410.913
25.54000 418.457
25.55000 420.480
25.56000 415.131
25.57000 409.746
25.58000 405.207
25.59000 401.404
25.60000 397.642
25.61000 397.735
25.62000 400.013
25.63000 402.253
25.64000 403.709
25.65000 404.853
25.66000 405.753
25.67000 404.043
25.68000 401.627
25.69000 399.492
25.70000 400.985
25.71000 402.834
25.72000 404.244
25.73000 403.800
25.74000 403.151
25.75000 403.289
25.76000 405.673
25.77000 408.194
25.78000 409.874
25.79000 410.782
25.80000 411.440
25.81000 411.439
25.82000 410.573
25.83000 409.700
25.84000 406.874
25.85000 402.378
25.86000 397.933
25.87000 401.316
25.88000 408.992
25.89000 416.044
25.90000 410.581
25.91000 400.221
25.92000 390.909
25.93000 392.553
25.94000 397.113
25.95000 401.134
25.96000 398.026
25.97000 394.265
25.98000 391.136
25.99000 390.623
26.00000 390.396
26.01000 389.826
26.02000 388.294
26.03000 386.704
26.04000 385.650
26.05000 387.687
26.06000 389.249
26.07000 395.037
26.08000 406.295
26.09000 417.555
26.10000 417.816
26.11000 408.814
26.12000 399.922
26.13000 400.026
26.14000 405.076
26.15000 409.892
26.16000 410.139
26.17000 408.624
26.18000 407.256
26.19000 407.392
26.20000 407.922
26.21000 408.389
26.22000 401.046
26.23000 393.564
26.24000 387.564
26.25000 387.610
26.26000 388.303
26.27000 388.402
26.28000 386.856
26.29000 385.214
26.30000 384.131
26.31000 392.956
26.32000 399.633
26.33000 404.243
26.34000 406.222
26.35000 408.181
26.36000 405.322
26.37000 398.470
26.38000 391.706
26.39000 388.813
26.40000 388.091
26.41000 387.443
26.42000 388.172
26.43000 389.425
26.44000 391.079
26.45000 396.755
26.46000 403.471
26.47000 409.365
26.48000 404.299
26.49000 398.346
26.50000 394.180
26.51000 397.199
26.52000 400.971
26.53000 403.706
26.54000 403.618
26.55000 403.369
26.56000 403.207
26.57000 392.902
26.58000 385.154
26.59000 382.063
26.60000 384.810
26.61000 387.574
26.62000 389.449
26.63000 390.600
26.64000 391.736
26.65000 391.718
26.66000 391.085
26.67000 390.429
26.68000 389.368
26.69000 388.154
26.70000 386.865
26.71000 384.829
26.72000 382.604
26.73000 380.656
26.74000 386.007
26.75000 391.642
26.76000 396.689
26.77000 399.408
26.78000 401.888
26.79000 404.723
26.80000 408.511
26.81000 412.352
26.82000 414.857
26.83000 408.223
26.84000 403.209
26.85000 396.909
26.86000 389.019
26.87000 381.155
26.88000 383.378
26.89000 393.700
26.90000 403.876
26.91000 398.345
26.92000 384.737
26.93000 371.935
26.94000 373.565
26.95000 380.522
26.96000 386.621
26.97000 384.451
26.98000 380.210
26.99000 376.505
27.00000 377.196
27.01000 378.405
27.02000 380.362
27.03000 385.229
27.04000 390.390
27.05000 393.857
27.06000 392.840
27.07000 391.583
27.08000 390.768
27.09000 385.514
27.10000 381.601
27.11000 378.396
27.12000 376.054
27.13000 373.727
27.14000 375.559
27.15000 380.677
27.16000 385.719
27.17000 386.317
27.18000 384.603
27.19000 382.855
27.20000 380.517
27.21000 377.963
27.22000 375.891
27.23000 378.359
27.24000 381.947
27.25000 385.073
27.26000 384.397
27.27000 383.294
27.28000 381.928
27.29000 379.554
27.30000 377.081
27.31000 377.729
27.32000 386.525
27.33000 395.745
27.34000 401.695
27.35000 390.792
27.36000 382.584
27.37000 379.265
27.38000 381.790
27.39000 384.329
27.40000 387.418
27.41000 390.934
27.42000 394.395
27.43000 389.410
27.44000 380.290
27.45000 371.712
27.46000 372.321
27.47000 376.225
27.48000 379.608
27.49000 378.172
27.50000 375.564
27.51000 373.297
27.52000 374.849
27.53000 376.689
27.54000 378.751
27.55000 381.653
27.56000 384.635
27.57000 386.174
27.58000 383.999
27.59000 381.636
27.60000 380.120
27.61000 378.156
27.62000 376.719
27.63000 376.289
27.64000 377.044
27.65000 377.788
27.66000 375.374
27.67000 370.541
27.68000 365.788
27.69000 369.511
27.70000 377.352
27.71000 384.812
27.72000 386.017
27.73000 385.010
27.74000 383.825
27.75000 381.027
27.76000 377.843
27.77000 375.083
27.78000 379.506
27.79000 384.226
27.80000 387.257
27.81000 383.999
27.82000 380.147
27.83000 377.944
27.84000 379.919
27.85000 382.098
27.86000 383.489
27.87000 382.443
27.88000 381.650
27.89000 381.356
27.90000 381.638
27.91000 381.905
27.92000 378.821
27.93000 373.210
27.94000 367.696
27.95000 366.167
27.96000 366.649
27.97000 367.460
27.98000 373.539
27.99000 381.453
28.00000 388.203
28.01000 384.620
28.02000 378.604
28.03000 373.402
28.04000 378.527
28.05000 384.228
28.06000 387.709
28.07000 383.047
28.08000 377.632
28.09000 373.769
28.10000 373.786
28.11000 373.988
28.12000 374.116
28.13000 370.814
28.14000 368.375
28.15000 371.053
28.16000 379.558
28.17000 388.025
28.18000 388.271
28.19000 382.414
28.20000 376.663
28.21000 374.266
28.22000 373.578
28.23000 373.270
28.24000 378.918
28.25000 386.612
28.26000 393.390
28.27000 392.206
28.28000 389.173
28.29000 386.558
28.30000 380.334
28.31000 374.593
28.32000 370.866
28.33000 374.421
28.34000 378.634
28.35000 379.895
28.36000 373.884
28.37000 367.536
28.38000 363.533
28.39000 376.269
28.40000 385.684
28.41000 388.163
28.42000 382.870
28.43000 377.614
28.44000 379.666
28.45000 387.060
28.46000 394.314
28.47000 392.658
28.48000 386.812
28.49000 381.083
28.50000 377.132
28.51000 373.783
28.52000 371.026
28.53000 373.322
28.54000 376.774
28.55000 379.742
28.56000 375.189
28.57000 370.391
28.58000 367.148
28.59000 369.443
28.60000 372.228
28.61000 375.440
28.62000 379.690
28.63000 383.987
28.64000 386.681
28.65000 380.750
28.66000 376.370
28.67000 374.316
28.68000 374.823
28.69000 375.332
28.70000 375.812
28.71000 376.272
28.72000 376.722
28.73000 372.369
28.74000 365.926
28.75000 359.837
28.76000 359.026
28.77000 359.975
28.78000 361.303
28.79000 365.795
28.80000 370.999
28.81000 375.464
28.82000 369.549
28.83000 363.275
28.84000 359.687
28.85000 365.522
28.86000 372.174
28.87000 376.025
28.88000 373.175
28.89000 370.035
28.90000 368.077
28.91000 358.387
28.92000 351.322
28.93000 351.997
28.94000 361.064
28.95000 370.099
28.96000 374.231
28.97000 374.887
28.98000 375.529
28.99000 373.328
29.00000 369.897
29.01000 366.866
29.02000 369.631
29.03000 374.300
29.04000 378.467
29.05000 378.515
29.06000 377.650
29.07000 376.909
29.08000 379.108
29.09000 381.316
29.10000 382.825
29.11000 381.918
29.12000 380.806
29.13000 377.329
29.14000 368.272
29.15000 358.980
29.16000 353.222
29.17000 354.946
29.18000 356.258
29.19000 359.898
29.20000 366.020
29.21000 372.114
29.22000 374.521
29.23000 374.353
29.24000 374.189
29.25000 371.127
29.26000 366.870
29.27000 362.800
29.28000 361.360
29.29000 360.772
29.30000 360.135
29.31000 359.099
29.32000 357.977
29.33000 357.019
29.34000 358.681
29.35000 360.390
29.36000 361.592
29.37000 361.068
29.38000 360.402
29.39000 361.511
29.40000 366.747
29.41000 372.152
29.42000 375.480
29.43000 369.540
29.44000 365.194
29.45000 362.982
29.46000 363.006
29.47000 363.034
29.48000 363.401
29.49000 364.000
29.50000 364.585
29.51000 365.460
29.52000 366.428
29.53000 367.729
29.54000 373.616
29.55000 380.968
29.56000 386.993
29.57000 382.533
29.58000 375.823
29.59000 370.113
29.60000 375.202
29.61000 380.729
29.62000 384.019
29.63000 379.802
29.64000 374.979
29.65000 370.817
29.66000 368.171
29.67000 365.585
29.68000 364.001
29.69000 362.290
29.70000 361.064
29.71000 364.472
29.72000 372.661
29.73000 380.784
29.74000 381.568
29.75000 377.382
29.76000 373.294
29.77000 373.170
29.78000 374.798
29.79000 377.129
29.80000 388.919
29.81000 403.684
29.82000 416.057
29.83000 409.861
29.84000 399.743
29.85000 391.156
29.86000 395.576
29.87000 400.760
29.88000 406.435
29.89000 413.737
29.90000 421.167
29.91000 430.503
29.92000 444.143
29.93000 457.947
29.94000 466.346
29.95000 471.454
29.96000 475.077
29.97000 479.472
29.98000 484.652
29.99000 489.742
30.00000 485.664
30.01000 475.469
30.02000 465.521
30.03000 474.951
30.04000 492.368
30.05000 507.914
30.06000 498.854
30.07000 482.170
30.08000 466.969
30.09000 463.071
30.10000 461.522
30.11000 460.211
30.12000 462.781
30.13000 465.363
30.14000 464.656
30.15000 453.236
30.16000 440.989
30.17000 434.148
30.18000 439.344
30.19000 444.982
30.20000 448.391
30.21000 439.842
30.22000 433.663
30.23000 428.342
30.24000 423.876
30.25000 419.454
30.26000 419.307
30.27000 421.967
30.28000 424.560
30.29000 426.312
30.30000 427.624
30.31000 428.259
30.32000 420.179
30.33000 409.439
30.34000 400.219
30.35000 402.371
30.36000 406.849
30.37000 410.628
30.38000 412.361
30.39000 413.586
30.40000 413.101
30.41000 407.130
30.42000 400.746
30.43000 394.898
30.44000 390.229
30.45000 385.602
30.46000 382.821
30.47000 390.611
30.48000 396.219
30.49000 396.511
30.50000 391.591
30.51000 386.696
30.52000 384.094
30.53000 382.974
30.54000 381.884
30.55000 381.262
30.56000 380.865
30.57000 380.714
30.58000 383.652
30.59000 387.520
30.60000 391.470
30.61000 396.021
30.62000 400.693
30.63000 404.625
30.64000 399.150
30.65000 393.579
30.66000 391.455
30.67000 400.236
30.68000 409.820
30.69000 415.350
30.70000 412.111
30.71000 408.572
30.72000 406.459
30.73000 403.730
30.74000 401.791
30.75000 402.149
30.76000 404.719
30.77000 407.277
30.78000 408.783
30.79000 409.619
30.80000 410.432
30.81000 416.757
30.82000 425.056
30.83000 433.035
30.84000 437.092
30.85000 439.986
30.86000 443.334
30.87000 449.953
30.88000 457.220
30.89000 463.318
30.90000 460.812
30.91000 457.825
30.92000 458.078
30.93000 468.424
30.94000 479.496
30.95000 494.064
30.96000 516.083
30.97000 538.348
30.98000 551.556
30.99000 557.050
31.00000 560.893
31.01000 569.745
31.02000 583.344
31.03000 597.060
31.04000 619.837
31.05000 648.304
31.06000 675.975
31.07000 704.678
31.08000 732.384
31.09000 762.142
31.10000 816.507
31.11000 878.061
31.12000 939.296
31.13000 998.268
31.14000 1056.800
31.15000 1105.776
31.16000 1203.443
31.17000 1289.582
31.18000 1376.379
31.19000 1465.201
31.20000 1554.165
31.21000 1653.013
31.22000 1772.628
31.23000 1892.904
31.24000 1963.796
31.25000 2146.034
31.26000 2275.256
31.27000 2406.319
31.28000 2539.098
31.29000 2671.369
31.30000 2766.311
31.31000 2838.159
31.32000 2907.921
31.33000 2993.309
31.34000 3080.617
31.35000 3165.907
31.36000 3227.553
31.37000 3282.393
31.38000 3328.301
31.39000 3312.110
31.40000 3284.010
31.41000 3260.566
31.42000 3241.924
31.43000 3226.945
31.44000 3193.376
31.45000 3103.533
31.46000 3009.842
31.47000 2911.928
31.48000 2805.273
31.49000 2698.350
31.50000 2635.741
31.51000 2482.082
31.52000 2373.441
31.53000 2262.567
31.54000 2149.647
31.55000 2036.474
31.56000 1905.874
31.57000 1764.653
31.58000 1627.677
31.59000 1523.480
31.60000 1437.641
31.61000 1352.180
31.62000 1271.070
31.63000 1191.194
31.64000 1112.992
31.65000 1046.229
31.66000 981.623
31.67000 927.883
31.68000 867.166
31.69000 816.221
31.70000 771.815
31.71000 746.917
31.72000 723.319
31.73000 696.289
31.74000 662.254
31.75000 628.013
31.76000 608.096
31.77000 587.436
31.78000 572.921
31.79000 558.216
31.80000 543.341
31.81000 528.445
31.82000 512.243
31.83000 495.256
31.84000 478.797
31.85000 466.973
31.86000 457.582
31.87000 448.691
31.88000 445.423
31.89000 443.725
31.90000 441.325
31.91000 434.211
31.92000 426.222
31.93000 419.596
31.94000 413.368
31.95000 408.261
31.96000 403.466
31.97000 399.587
31.98000 395.768
31.99000 391.554
32.00000 386.548
32.01000 381.519
32.02000 378.613
32.03000 376.973
32.04000 375.828
32.05000 374.135
32.06000 371.955
32.07000 369.787
32.08000 368.316
32.09000 367.257
32.10000 366.233
32.11000 367.225
32.12000 368.933
32.13000 370.158
32.14000 366.081
32.15000 360.545
32.16000 355.941
32.17000 357.484
32.18000 360.150
32.19000 362.354
32.20000 359.844
32.21000 357.330
32.22000 355.186
32.23000 354.114
32.24000 353.110
32.25000 352.232
32.26000 351.602
32.27000 350.980
32.28000 350.623
32.29000 363.392
32.30000 372.352
32.31000 369.695
32.32000 356.898
32.33000 344.201
32.34000 337.324
32.35000 333.842
32.36000 330.475
32.37000 336.026
32.38000 344.615
32.39000 352.425
32.40000 351.875
32.41000 349.058
32.42000 346.325
32.43000 344.135
32.44000 342.041
32.45000 340.316
32.46000 340.762
32.47000 341.329
32.48000 340.483
32.49000 335.598
32.50000 330.464
32.51000 329.163
32.52000 335.349
32.53000 341.730
32.54000 345.367
32.55000 346.212
32.56000 346.786
32.57000 342.888
32.58000 335.147
32.59000 327.591
32.60000 330.199
32.61000 338.646
32.62000 346.803
32.63000 345.411
32.64000 340.570
32.65000 336.299
32.66000 338.016
32.67000 341.332
32.68000 344.356
32.69000 345.521
32.70000 346.357
32.71000 347.044
32.72000 337.617
32.73000 328.962
32.74000 324.012
32.75000 329.493
32.76000 335.600
32.77000 336.442
32.78000 327.148
32.79000 317.600
32.80000 312.197
32.81000 315.622
32.82000 318.028
32.83000 318.763
32.84000 318.085
32.85000 317.418
32.86000 317.297
32.87000 317.484
32.88000 317.664
32.89000 319.698
32.90000 322.285
32.91000 324.657
32.92000 324.814
32.93000 324.388
32.94000 324.231
32.95000 325.756
32.96000 327.572
32.97000 329.060
32.98000 318.346
32.99000 308.486
33.00000 301.164
33.01000 300.883
33.02000 301.015
33.03000 303.904
33.04000 312.027
33.05000 320.275
33.06000 324.910
33.07000 319.258
33.08000 315.312
33.09000 312.226
33.10000 309.854
33.11000 307.510
33.12000 306.526
33.13000 306.301
33.14000 306.085
33.15000 303.362
33.16000 299.908
33.17000 297.630
33.18000 307.209
33.19000 319.860
33.20000 329.641
33.21000 321.771
33.22000 310.888
33.23000 302.000
33.24000 304.047
33.25000 306.665
33.26000 310.182
33.27000 316.159
33.28000 322.275
33.29000 324.099
33.30000 317.896
33.31000 311.508
33.32000 307.944
33.33000 304.478
33.34000 302.088
33.35000 303.223
33.36000 307.242
33.37000 311.184
33.38000 311.412
33.39000 309.597
33.40000 307.851
33.41000 305.569
33.42000 303.240
33.43000 300.913
33.44000 298.602
33.45000 296.295
33.46000 294.456
33.47000 295.449
33.48000 296.918
33.49000 298.113
33.50000 295.721
33.51000 293.465
33.52000 293.067
33.53000 297.679
33.54000 302.569
33.55000 305.763
33.56000 305.833
33.57000 305.835
33.58000 305.836
33.59000 309.622
33.60000 312.234
33.61000 311.514
33.62000 308.109
33.63000 304.772
33.64000 304.527
33.65000 305.956
33.66000 307.330
33.67000 308.623
33.68000 309.805
33.69000 310.909
33.70000 311.248
33.71000 311.396
33.72000 311.250
33.73000 309.365
33.74000 307.192
33.75000 305.429
33.76000 300.211
33.77000 295.672
33.78000 292.129
33.79000 291.232
33.80000 290.476
33.81000 291.421
33.82000 295.452
33.83000 299.547
33.84000 301.799
33.85000 305.516
33.86000 308.063
33.87000 306.116
33.88000 300.605
33.89000 295.234
33.90000 295.927
33.91000 299.857
33.92000 303.629
33.93000 301.473
33.94000 297.435
33.95000 293.575
33.96000 291.415
33.97000 289.676
33.98000 288.234
33.99000 288.529
34.00000 289.106
34.01000 289.573
34.02000 296.832
34.03000 303.285
34.04000 306.520
34.05000 301.328
34.06000 295.694
34.07000 292.559
34.08000 293.895
34.09000 295.320
34.10000 296.097
34.11000 297.729
34.12000 298.836
34.13000 295.951
34.14000 289.950
34.15000 284.122
34.16000 285.510
34.17000 290.693
34.18000 295.662
34.19000 299.543
34.20000 302.802
34.21000 305.022
34.22000 297.615
34.23000 287.860
34.24000 278.875
34.25000 274.313
34.26000 270.457
34.27000 267.348
34.28000 273.781
34.29000 279.757
34.30000 284.821
34.31000 287.533
34.32000 290.126
34.33000 293.592
34.34000 298.598
34.35000 303.633
34.36000 306.361
34.37000 284.027
34.38000 268.754
34.39000 267.006
34.40000 275.654
34.41000 284.223
34.42000 289.660
34.43000 293.473
34.44000 297.124
34.45000 299.336
34.46000 300.921
34.47000 301.810
34.48000 296.358
34.49000 289.384
34.50000 283.215
34.51000 281.596
34.52000 280.691
34.53000 279.963
34.54000 283.862
34.55000 287.377
34.56000 288.663
34.57000 284.280
34.58000 279.617
34.59000 277.665
34.60000 280.421
34.61000 283.261
34.62000 284.788
34.63000 288.123
34.64000 290.380
34.65000 287.868
34.66000 281.748
34.67000 275.772
34.68000 275.278
34.69000 277.585
34.70000 279.791
34.71000 284.670
34.72000 290.079
34.73000 295.019
34.74000 295.777
34.75000 295.547
34.76000 294.756
34.77000 290.850
34.78000 286.463
34.79000 282.950
34.80000 270.722
34.81000 260.175
34.82000 253.692
34.83000 257.396
34.84000 261.588
34.85000 267.635
34.86000 276.858
34.87000 286.134
34.88000 291.085
34.89000 286.113
34.90000 282.740
34.91000 283.870
34.92000 288.354
34.93000 292.681
34.94000 291.304
34.95000 287.054
34.96000 282.996
34.97000 284.398
34.98000 287.449
34.99000 290.181
35.00000 290.124
35.01000 289.418
35.02000 287.466
35.03000 278.705
35.04000 268.914
35.05000 261.099
35.06000 265.663
35.07000 270.257
35.08000 273.146
35.09000 271.826
35.10000 270.310
35.11000 269.050
35.12000 268.223
35.13000 267.402
35.14000 266.968
35.15000 271.267
35.16000 274.170
35.17000 273.280
35.18000 269.606
35.19000 266.138
35.20000 269.864
35.21000 277.160
35.22000 284.117
35.23000 281.545
35.24000 276.157
35.25000 270.874
35.26000 266.483
35.27000 262.296
35.28000 258.901
35.29000 259.759
35.30000 261.249
35.31000 262.435
35.32000 274.378
35.33000 284.774
35.34000 290.640
35.35000 285.475
35.36000 279.812
35.37000 277.465
35.38000 280.627
35.39000 283.873
35.40000 285.578
35.41000 275.071
35.42000 268.000
35.43000 269.890
35.44000 278.252
35.45000 286.406
35.46000 287.518
35.47000 285.187
35.48000 282.968
35.49000 279.810
35.50000 276.595
35.51000 273.283
35.52000 269.161
35.53000 264.855
35.54000 260.903
35.55000 258.822
35.56000 257.014
35.57000 255.581
35.58000 256.666
35.59000 257.714
35.60000 259.336
35.61000 262.334
35.62000 265.392
35.63000 267.395
35.64000 267.671
35.65000 267.921
35.66000 268.052
35.67000 264.887
35.68000 262.774
35.69000 264.758
35.70000 269.655
35.71000 274.352
35.72000 272.564
35.73000 267.651
35.74000 262.978
35.75000 264.286
35.76000 267.318
35.77000 270.171
35.78000 271.540
35.79000 272.579
35.80000 273.349
35.81000 272.722
35.82000 271.894
35.83000 271.240
35.84000 273.880
35.85000 276.224
35.86000 276.214
35.87000 270.634
35.88000 264.819
35.89000 261.868
35.90000 263.538
35.91000 265.270
35.92000 266.166
35.93000 269.754
35.94000 272.162
35.95000 273.019
35.96000 272.790
35.97000 272.602
35.98000 273.699
35.99000 275.407
36.00000 277.029
36.01000 280.263
36.02000 283.733
36.03000 285.788
36.04000 276.404
36.05000 264.517
36.06000 255.118
36.07000 258.456
36.08000 263.589
36.09000 267.630
36.10000 272.790
36.11000 276.999
36.12000 279.346
36.13000 277.353
36.14000 275.181
36.15000 272.976
36.16000 270.714
36.17000 268.453
36.18000 267.293
36.19000 255.333
36.20000 247.375
36.21000 249.510
36.22000 258.607
36.23000 267.486
36.24000 269.784
36.25000 269.000
36.26000 268.256
36.27000 261.341
36.28000 253.145
36.29000 246.579
36.30000 252.949
36.31000 262.103
36.32000 269.924
36.33000 271.028
36.34000 271.202
36.35000 271.339
36.36000 265.643
36.37000 260.710
36.38000 258.457
36.39000 262.367
36.40000 266.521
36.41000 269.067
36.42000 269.095
36.43000 269.093
36.44000 269.091
36.45000 268.208
36.46000 267.653
36.47000 271.323
36.48000 277.865
36.49000 284.202
36.50000 284.600
36.51000 282.258
36.52000 280.040
36.53000 273.479
36.54000 266.179
36.55000 260.443
36.56000 266.887
36.57000 275.912
36.58000 281.906
36.59000 272.873
36.60000 261.799
36.61000 253.143
36.62000 260.633
36.63000 267.634
36.64000 273.503
36.65000 276.808
36.66000 280.015
36.67000 279.555
36.68000 273.440
36.69000 267.261
36.70000 264.145
36.71000 264.334
36.72000 264.483
36.73000 267.011
36.74000 271.131
36.75000 275.082
36.76000 274.287
36.77000 271.333
36.78000 268.540
36.79000 269.614
36.80000 271.705
36.81000 273.578
36.82000 273.784
36.83000 273.642
36.84000 274.956
36.85000 283.369
36.86000 292.730
36.87000 300.021
36.88000 293.955
36.89000 288.297
36.90000 282.814
36.91000 277.720
36.92000 272.641
36.93000 271.730
36.94000 277.154
36.95000 282.643
36.96000 285.388
36.97000 280.059
36.98000 276.527
36.99000 274.971
37.00000 274.720
37.01000 274.448
37.02000 273.640
37.03000 272.591
37.04000 271.601
37.05000 274.951
37.06000 279.243
37.07000 282.420
37.08000 277.236
37.09000 270.336
37.10000 264.761
37.11000 265.551
37.12000 267.173
37.13000 268.432
37.14000 267.134
37.15000 265.948
37.16000 265.141
37.17000 265.170
37.18000 265.228
37.19000 266.685
37.20000 270.234
37.21000 273.804
37.22000 274.282
37.23000 271.720
37.24000 269.209
37.25000 271.309
37.26000 276.404
37.27000 281.168
37.28000 277.266
37.29000 269.535
37.30000 262.247
37.31000 260.693
37.32000 260.855
37.33000 261.401
37.34000 264.772
37.35000 268.715
37.36000 271.626
37.37000 269.665
37.38000 267.077
37.39000 265.077
37.40000 265.291
37.41000 265.591
37.42000 267.000
37.43000 270.815
37.44000 274.713
37.45000 276.844
37.46000 276.372
37.47000 275.875
37.48000 273.674
37.49000 269.822
37.50000 265.992
37.51000 263.923
37.52000 262.979
37.53000 262.102
37.54000 262.919
37.55000 264.473
37.56000 265.936
37.57000 267.145
37.58000 268.182
37.59000 268.972
37.60000 267.978
37.61000 266.629
37.62000 265.847
37.63000 267.705
37.64000 269.897
37.65000 271.584
37.66000 272.438
37.67000 273.066
37.68000 272.757
37.69000 270.444
37.70000 268.065
37.71000 266.617
37.72000 266.521
37.73000 266.437
37.74000 265.433
37.75000 263.556
37.76000 261.711
37.77000 262.471
37.78000 264.871
37.79000 267.241
37.80000 268.877
37.81000 270.199
37.82000 271.440
37.83000 271.901
37.84000 272.113
37.85000 271.643
37.86000 266.326
37.87000 260.061
37.88000 255.731
37.89000 260.261
37.90000 265.887
37.91000 270.204
37.92000 269.208
37.93000 268.125
37.94000 267.184
37.95000 266.544
37.96000 265.914
37.97000 267.185
37.98000 271.174
37.99000 275.183
38.00000 278.365
38.01000 280.771
38.02000 283.150
38.03000 283.530
38.04000 282.668
38.05000 281.696
38.06000 278.110
38.07000 273.419
38.08000 269.018
38.09000 270.089
38.10000 272.505
38.11000 275.140
38.12000 279.300
38.13000 283.753
38.14000 288.130
38.15000 292.162
38.16000 296.151
38.17000 299.201
38.18000 296.316
38.19000 293.719
38.20000 291.829
38.21000 291.409
38.22000 291.034
38.23000 293.890
38.24000 301.295
38.25000 308.731
38.26000 311.025
38.27000 308.589
38.28000 306.221
38.29000 308.568
38.30000 313.798
38.31000 319.166
38.32000 327.692
38.33000 337.536
38.34000 346.757
38.35000 346.611
38.36000 344.055
38.37000 343.008
38.38000 352.305
38.39000 363.561
38.40000 374.722
38.41000 385.456
38.42000 396.139
38.43000 404.275
38.44000 424.600
38.45000 441.242
38.46000 455.597
38.47000 465.272
38.48000 474.807
38.49000 488.408
38.50000 507.644
38.51000 526.910
38.52000 544.725
38.53000 561.210
38.54000 577.708
38.55000 595.082
38.56000 612.983
38.57000 630.946
38.58000 650.261
38.59000 670.134
38.60000 688.717
38.61000 708.994
38.62000 727.838
38.63000 746.842
38.64000 766.919
38.65000 787.195
38.66000 802.744
38.67000 797.640
38.68000 790.122
38.69000 784.419
38.70000 798.737
38.71000 811.012
38.72000 814.561
38.73000 800.501
38.74000 785.939
38.75000 765.245
38.76000 736.181
38.77000 707.080
38.78000 694.123
38.79000 695.540
38.80000 696.605
38.81000 675.789
38.82000 641.985
38.83000 608.918
38.84000 591.751
38.85000 581.026
38.86000 571.013
38.87000 548.244
38.88000 524.409
38.89000 501.338
38.90000 483.315
38.91000 466.217
38.92000 448.943
38.93000 430.908
38.94000 412.786
38.95000 399.093
38.96000 387.179
38.97000 377.928
38.98000 367.406
38.99000 354.360
39.00000 341.245
39.01000 330.440
39.02000 322.738
39.03000 315.058
39.04000 313.629
39.05000 317.673
39.06000 321.612
39.07000 319.424
39.08000 313.652
39.09000 307.922
39.10000 303.047
39.11000 298.515
39.12000 294.291
39.13000 293.168
39.14000 292.915
39.15000 292.309
39.16000 289.414
39.17000 286.107
39.18000 282.292
39.19000 276.331
39.20000 270.129
39.21000 265.460
39.22000 267.642
39.23000 269.683
39.24000 268.642
39.25000 261.566
39.26000 254.331
39.27000 252.905
39.28000 259.167
39.29000 265.462
39.30000 266.427
39.31000 262.806
39.32000 259.232
39.33000 258.313
39.34000 258.924
39.35000 259.620
39.36000 262.029
39.37000 265.113
39.38000 267.983
39.39000 262.929
39.40000 256.444
39.41000 250.674
39.42000 249.468
39.43000 249.071
39.44000 248.100
39.45000 244.733
39.46000 241.103
39.47000 238.382
39.48000 237.883
39.49000 237.598
39.50000 239.133
39.51000 244.181
39.52000 249.317
39.53000 253.255
39.54000 255.629
39.55000 257.994
39.56000 254.008
39.57000 244.656
39.58000 235.447
39.59000 233.829
39.60000 236.522
39.61000 239.149
39.62000 240.479
39.63000 241.304
39.64000 242.071
39.65000 246.989
39.66000 252.414
39.67000 256.470
39.68000 251.932
39.69000 245.896
39.70000 241.680
39.71000 244.933
39.72000 248.992
39.73000 252.023
39.74000 244.809
39.75000 238.717
39.76000 236.677
39.77000 242.347
39.78000 248.204
39.79000 249.244
39.80000 244.108
39.81000 238.955
39.82000 235.642
39.83000 233.871
39.84000 232.164
39.85000 233.661
39.86000 236.950
39.87000 240.213
39.88000 242.951
39.89000 245.488
39.90000 247.841
39.91000 239.127
39.92000 228.689
39.93000 220.358
39.94000 225.037
39.95000 231.946
39.96000 237.673
39.97000 238.624
39.98000 239.069
39.99000 239.400
40.00000 230.637
40.01000 223.416
40.02000 220.798
40.03000 226.814
40.04000 233.030
40.05000 235.275
40.06000 232.508
40.07000 229.728
40.08000 232.113
40.09000 238.718
40.10000 245.148
40.11000 243.159
40.12000 236.528
40.13000 230.282
40.14000 231.200
40.15000 234.818
40.16000 238.167
40.17000 232.070
40.18000 224.416
40.19000 218.544
40.20000 223.483
40.21000 230.244
40.22000 235.935
40.23000 237.364
40.24000 238.351
40.25000 239.082
40.26000 232.692
40.27000 227.424
40.28000 224.597
40.29000 226.283
40.30000 228.068
40.31000 229.081
40.32000 229.133
40.33000 229.181
40.34000 228.729
40.35000 227.876
40.36000 227.081
40.37000 229.008
40.38000 232.414
40.39000 235.476
40.40000 232.305
40.41000 226.817
40.42000 221.747
40.43000 225.349
40.44000 230.545
40.45000 234.941
40.46000 234.560
40.47000 233.388
40.48000 231.610
40.49000 227.452
40.50000 223.053
40.51000 219.809
40.52000 222.943
40.53000 225.638
40.54000 227.634
40.55000 228.354
40.56000 229.048
40.57000 228.671
40.58000 226.982
40.59000 225.294
40.60000 229.005
40.61000 236.977
40.62000 244.683
40.63000 240.712
40.64000 230.489
40.65000 220.968
40.66000 223.816
40.67000 231.192
40.68000 237.996
40.69000 233.316
40.70000 226.568
40.71000 221.330
40.72000 224.942
40.73000 229.997
40.74000 232.598
40.75000 225.720
40.76000 217.899
40.77000 212.157
40.78000 215.283
40.79000 218.061
40.80000 219.772
40.81000 219.566
40.82000 219.322
40.83000 219.585
40.84000 220.459
40.85000 221.332
40.86000 223.074
40.87000 225.486
40.88000 227.831
40.89000 227.393
40.90000 225.486
40.91000 223.741
40.92000 224.778
40.93000 226.820
40.94000 228.699
40.95000 232.545
40.96000 236.414
40.97000 239.058
40.98000 234.634
40.99000 229.080
41.00000 224.201
41.01000 221.898
41.02000 219.846
41.03000 218.345
41.04000 214.081
41.05000 210.682
41.06000 211.752
41.07000 220.725
41.08000 229.850
41.09000 233.141
41.10000 229.522
41.11000 225.899
41.12000 224.266
41.13000 224.169
41.14000 224.039
41.15000 222.606
41.16000 220.495
41.17000 218.543
41.18000 219.216
41.19000 220.823
41.20000 222.300
41.21000 227.908
41.22000 233.802
41.23000 237.502
41.24000 228.759
41.25000 218.059
41.26000 209.301
41.27000 207.820
41.28000 207.032
41.29000 206.459
41.30000 205.398
41.31000 204.562
41.32000 206.780
41.33000 214.320
41.34000 221.957
41.35000 225.320
41.36000 223.700
41.37000 222.077
41.38000 220.830
41.39000 219.873
41.40000 218.858
41.41000 215.598
41.42000 211.187
41.43000 207.231
41.44000 210.661
41.45000 216.680
41.46000 222.200
41.47000 222.136
41.48000 220.897
41.49000 220.221
41.50000 222.681
41.51000 225.627
41.52000 226.418
41.53000 219.253
41.54000 211.345
41.55000 205.613
41.56000 209.571
41.57000 212.972
41.58000 214.204
41.59000 211.714
41.60000 209.159
41.61000 208.226
41.62000 209.152
41.63000 210.079
41.64000 211.516
41.65000 213.322
41.66000 215.053
41.67000 214.030
41.68000 211.616
41.69000 209.338
41.70000 209.213
41.71000 209.832
41.72000 210.398
41.73000 209.540
41.74000 208.481
41.75000 207.718
41.76000 208.584
41.77000 209.698
41.78000 209.637
41.79000 205.304
41.80000 200.580
41.81000 197.171
41.82000 206.172
41.83000 213.518
41.84000 217.156
41.85000 214.519
41.86000 211.779
41.87000 212.136
41.88000 215.990
41.89000 219.833
41.90000 216.864
41.91000 208.945
41.92000 201.264
41.93000 202.004
41.94000 206.936
41.95000 211.777
41.96000 215.202
41.97000 218.145
41.98000 220.834
41.99000 220.710
42.00000 220.025
42.01000 218.590
42.02000 213.106
42.03000 207.017
42.04000 202.792
42.05000 205.243
42.06000 208.291
42.07000 210.481
42.08000 205.825
42.09000 202.024
42.10000 201.914
42.11000 207.956
42.12000 214.093
42.13000 217.431
42.14000 217.662
42.15000 217.889
42.16000 216.354
42.17000 213.566
42.18000 210.805
42.19000 208.972
42.20000 207.593
42.21000 206.224
42.22000 204.991
42.23000 203.805
42.24000 202.722
42.25000 205.040
42.26000 207.777
42.27000 210.162
42.28000 210.680
42.29000 210.923
42.30000 211.794
42.31000 214.875
42.32000 218.149
42.33000 220.492
42.34000 216.744
42.35000 213.678
42.36000 212.210
42.37000 213.369
42.38000 214.566
42.39000 215.372
42.40000 215.751
42.41000 216.128
42.42000 214.441
42.43000 211.314
42.44000 208.183
42.45000 204.972
42.46000 201.721
42.47000 198.711
42.48000 199.222
42.49000 200.897
42.50000 202.421
42.51000 201.210
42.52000 199.598
42.53000 198.944
42.54000 203.288
42.55000 208.353
42.56000 212.277
42.57000 212.233
42.58000 211.849
42.59000 211.576
42.60000 212.775
42.61000 213.736
42.62000 213.097
42.63000 209.868
42.64000 206.604
42.65000 204.808
42.66000 204.590
42.67000 204.374
42.68000 201.705
42.69000 197.357
42.70000 193.182
42.71000 194.436
42.72000 198.277
42.73000 202.071
42.74000 205.196
42.75000 208.102
42.76000 210.742
42.77000 209.742
42.78000 208.154
42.79000 206.577
42.80000 205.059
42.81000 203.550
42.82000 203.160
42.83000 206.604
42.84000 210.369
42.85000 213.037
42.86000 211.643
42.87000 210.455
42.88000 211.823
42.89000 217.265
42.90000 222.759
42.91000 221.783
42.92000 213.972
42.93000 206.196
42.94000 204.533
42.95000 207.070
42.96000 209.593
42.97000 211.675
42.98000 213.549
42.99000 215.154
43.00000 212.999
43.01000 209.637
43.02000 206.590
43.03000 206.101
43.04000 206.159
43.05000 206.478
43.06000 208.124
43.07000 209.955
43.08000 211.303
43.09000 211.019
43.10000 210.602
43.11000 210.307
43.12000 207.715
43.13000 205.678
43.14000 204.547
43.15000 204.838
43.16000 205.147
43.17000 207.700
43.18000 212.585
43.19000 217.444
43.20000 218.187
43.21000 216.149
43.22000 214.016
43.23000 209.092
43.24000 202.877
43.25000 197.233
43.26000 199.355
43.27000 203.935
43.28000 208.079
43.29000 209.767
43.30000 210.792
43.31000 211.089
43.32000 207.758
43.33000 203.933
43.34000 201.608
43.35000 204.273
43.36000 207.338
43.37000 209.490
43.38000 207.691
43.39000 206.213
43.40000 205.955
43.41000 207.583
43.42000 209.232
43.43000 209.784
43.44000 209.215
43.45000 208.648
43.46000 209.906
43.47000 212.355
43.48000 214.561
43.49000 209.902
43.50000 202.111
43.51000 195.015
43.52000 197.151
43.53000 202.168
43.54000 206.697
43.55000 207.773
43.56000 208.082
43.57000 207.846
43.58000 204.937
43.59000 201.670
43.60000 199.010
43.61000 198.343
43.62000 197.832
43.63000 197.474
43.64000 203.823
43.65000 208.809
43.66000 209.612
43.67000 204.038
43.68000 198.397
43.69000 197.745
43.70000 202.105
43.71000 206.438
43.72000 207.164
43.73000 205.527
43.74000 203.913
43.75000 202.908
43.76000 202.178
43.77000 201.421
43.78000 200.334
43.79000 199.144
43.80000 198.073
43.81000 197.941
43.82000 197.995
43.83000 198.525
43.84000 201.348
43.85000 204.472
43.86000 205.949
43.87000 202.105
43.88000 197.855
43.89000 194.898
43.90000 196.530
43.91000 197.885
43.92000 198.912
43.93000 199.445
43.94000 199.974
43.95000 203.216
43.96000 209.138
43.97000 215.021
43.98000 213.527
43.99000 207.321
44.00000 201.237
44.01000 198.372
44.02000 196.933
44.03000 195.797
44.04000 198.511
44.05000 202.391
44.06000 205.879
44.07000 204.535
44.08000 202.500
44.09000 201.209
44.10000 203.445
44.11000 206.136
44.12000 209.001
44.13000 212.416
44.14000 215.872
44.15000 218.265
44.16000 209.905
44.17000 203.333
44.18000 200.372
44.19000 202.752
44.20000 205.181
44.21000 206.334
44.22000 206.250
44.23000 206.166
44.24000 206.683
44.25000 207.571
44.26000 208.417
44.27000 208.197
44.28000 207.510
44.29000 207.007
44.30000 208.769
44.31000 211.207
44.32000 213.394
44.33000 204.232
44.34000 194.245
44.35000 187.847
44.36000 198.200
44.37000 210.675
44.38000 219.394
44.39000 216.331
44.40000 212.412
44.41000 209.712
44.42000 215.041
44.43000 219.245
44.44000 220.188
44.45000 216.379
44.46000 212.531
44.47000 214.199
44.48000 221.133
44.49000 228.016
44.50000 229.946
44.51000 228.767
44.52000 227.774
44.53000 231.344
44.54000 236.879
44.55000 242.134
44.56000 243.998
44.57000 244.863
44.58000 245.639
44.59000 243.061
44.60000 240.238
44.61000 238.416
44.62000 241.196
44.63000 244.547
44.64000 249.003
44.65000 256.872
44.66000 264.984
44.67000 270.546
44.68000 267.091
44.69000 264.283
44.70000 266.953
44.71000 277.480
44.72000 288.067
44.73000 294.352
44.74000 296.596
44.75000 298.822
44.76000 299.600
44.77000 299.478
44.78000 299.590
44.79000 305.295
44.80000 313.374
44.81000 321.471
44.82000 329.772
44.83000 338.132
44.84000 345.599
44.85000 356.815
44.86000 367.216
44.87000 377.173
44.88000 385.129
44.89000 392.840
44.90000 398.246
44.91000 396.626
44.92000 394.521
44.93000 393.084
44.94000 403.576
44.95000 411.699
44.96000 416.607
44.97000 416.975
44.98000 417.310
44.99000 418.204
45.00000 419.614
45.01000 421.012
45.02000 421.760
45.03000 422.101
45.04000 422.384
45.05000 421.299
45.06000 419.642
45.07000 418.148
45.08000 418.535
45.09000 419.458
45.10000 420.281
45.11000 403.483
45.12000 385.968
45.13000 372.120
45.14000 374.598
45.15000 379.029
45.16000 381.933
45.17000 380.256
45.18000 378.270
45.19000 376.922
45.20000 370.001
45.21000 364.713
45.22000 359.452
45.23000 354.228
45.24000 349.004
45.25000 344.192
45.26000 339.756
45.27000 335.360
45.28000 329.639
45.29000 323.247
45.30000 316.836
45.31000 309.997
45.32000 302.981
45.33000 296.068
45.34000 290.314
45.35000 284.887
45.36000 280.061
45.37000 280.967
45.38000 282.683
45.39000 282.737
45.40000 275.507
45.41000 267.422
45.42000 260.640
45.43000 257.712
45.44000 255.039
45.45000 253.233
45.46000 250.076
45.47000 247.696
45.48000 248.562
45.49000 253.873
45.50000 259.207
45.51000 258.735
45.52000 253.076
45.53000 247.472
45.54000 242.730
45.55000 238.592
45.56000 234.544
45.57000 232.465
45.58000 231.186
45.59000 230.011
45.60000 229.996
45.61000 230.301
45.62000 230.572
45.63000 226.074
45.64000 221.418
45.65000 217.836
45.66000 218.892
45.67000 220.481
45.68000 220.338
45.69000 215.142
45.70000 209.622
45.71000 205.912
45.72000 211.890
45.73000 216.530
45.74000 215.995
45.75000 208.483
45.76000 200.939
45.77000 199.258
45.78000 202.734
45.79000 206.173
45.80000 206.662
45.81000 205.449
45.82000 204.161
45.83000 201.298
45.84000 197.803
45.85000 194.827
45.86000 197.482
45.87000 201.672
45.88000 205.381
45.89000 209.114
45.90000 212.346
45.91000 213.495
45.92000 205.789
45.93000 197.085
45.94000 190.832
45.95000 191.624
45.96000 192.857
45.97000 193.681
45.98000 192.802
45.99000 192.117
46.00000 191.402
46.01000 190.648
46.02000 189.897
46.03000 191.424
46.04000 194.921
46.05000 198.380
46.06000 198.826
46.07000 197.560
46.08000 196.198
46.09000 192.876
46.10000 188.780
46.11000 185.277
46.12000 188.063
46.13000 192.540
46.14000 196.494
46.15000 194.559
46.16000 191.986
46.17000 189.041
46.18000 184.545
46.19000 179.876
46.20000 176.908
46.21000 178.758
46.22000 180.900
46.23000 182.325
46.24000 183.363
46.25000 184.123
46.26000 183.495
46.27000 181.051
46.28000 178.605
46.29000 179.623
46.30000 183.590
46.31000 187.510
46.32000 188.827
46.33000 188.665
46.34000 188.422
46.35000 186.569
46.36000 184.089
46.37000 181.808
46.38000 181.600
46.39000 181.941
46.40000 182.241
46.41000 179.942
46.42000 177.569
46.43000 175.677
46.44000 175.765
46.45000 176.067
46.46000 177.216
46.47000 180.728
46.48000 184.380
46.49000 186.796
46.50000 181.253
46.51000 177.019
46.52000 174.653
46.53000 174.691
46.54000 174.742
46.55000 176.947
46.56000 180.956
46.57000 184.915
46.58000 187.964
46.59000 190.435
46.60000 192.506
46.61000 186.860
46.62000 178.253
46.63000 170.119
46.64000 166.803
46.65000 164.743
46.66000 162.933
46.67000 166.145
46.68000 169.651
46.69000 173.599
46.70000 179.341
46.71000 185.274
46.72000 188.941
46.73000 186.376
46.74000 183.451
46.75000 181.526
46.76000 178.068
46.77000 175.494
46.78000 174.042
46.79000 174.012
46.80000 173.990
46.81000 175.692
46.82000 178.814
46.83000 181.896
46.84000 179.689
46.85000 174.695
46.86000 170.034
46.87000 171.606
46.88000 175.535
46.89000 178.907
46.90000 176.738
46.91000 173.145
46.92000 169.995
46.93000 169.111
46.94000 168.680
46.95000 169.203
46.96000 173.533
46.97000 178.260
46.98000 180.157
46.99000 174.381
47.00000 168.174
47.01000 164.110
47.02000 165.215
47.03000 166.112
47.04000 167.734
47.05000 170.262
47.06000 172.782
47.07000 171.750
47.08000 167.836
47.09000 163.975
47.10000 164.699
47.11000 167.832
47.12000 170.852
47.13000 171.831
47.14000 172.049
47.15000 172.459
47.16000 174.741
47.17000 177.497
47.18000 179.908
47.19000 176.740
47.20000 173.232
47.21000 169.985
47.22000 167.770
47.23000 165.660
47.24000 163.537
47.25000 161.381
47.26000 159.223
47.27000 157.818
47.28000 161.129
47.29000 163.631
47.30000 165.345
47.31000 166.094
47.32000 166.839
47.33000 167.168
47.34000 167.165
47.35000 167.162
47.36000 167.479
47.37000 167.954
47.38000 168.391
47.39000 168.171
47.40000 167.708
47.41000 167.276
47.42000 167.125
47.43000 167.046
47.44000 166.976
47.45000 163.504
47.46000 160.058
47.47000 158.572
47.48000 164.680
47.49000 171.547
47.50000 175.930
47.51000 173.772
47.52000 171.266
47.53000 169.644
47.54000 163.073
47.55000 158.191
47.56000 157.822
47.57000 162.904
47.58000 168.000
47.59000 173.718
47.60000 179.924
47.61000 186.036
47.62000 179.670
47.63000 167.093
47.64000 155.509
47.65000 161.054
47.66000 172.800
47.67000 183.000
47.68000 178.724
47.69000 170.895
47.70000 164.081
47.71000 159.520
47.72000 155.936
47.73000 154.608
47.74000 161.898
47.75000 170.030
47.76000 175.020
47.77000 171.849
47.78000 168.258
47.79000 165.946
47.80000 169.955
47.81000 172.972
47.82000 171.502
47.83000 164.699
47.84000 157.907
47.85000 156.184
47.86000 158.382
47.87000 160.545
47.88000 162.922
47.89000 165.332
47.90000 167.500
47.91000 165.587
47.92000 162.218
47.93000 159.365
47.94000 161.248
47.95000 164.276
47.96000 166.904
47.97000 166.580
47.98000 165.906
47.99000 165.024
48.00000 163.361
48.01000 161.623
48.02000 160.791
48.03000 162.276
48.04000 163.877
48.05000 164.902
48.06000 164.118
48.07000 163.522
48.08000 161.678
48.09000 158.374
48.10000 155.080
48.11000 154.451
48.12000 155.850
48.13000 157.226
48.14000 156.894
48.15000 155.723
48.16000 154.822
48.17000 158.319
48.18000 163.363
48.19000 167.502
48.20000 163.495
48.21000 157.549
48.22000 152.400
48.23000 156.936
48.24000 162.074
48.25000 165.716
48.26000 163.813
48.27000 161.390
48.28000 160.470
48.29000 163.343
48.30000 166.401
48.31000 168.348
48.32000 163.747
48.33000 160.320
48.34000 159.512
48.35000 161.720
48.36000 163.927
48.37000 165.245
48.38000 165.895
48.39000 166.534
48.40000 166.978
48.41000 167.312
48.42000 167.640
48.43000 167.874
48.44000 168.074
48.45000 168.063
48.46000 166.179
48.47000 163.857
48.48000 161.850
48.49000 159.686
48.50000 157.828
48.51000 157.287
48.52000 161.555
48.53000 166.265
48.54000 169.131
48.55000 167.413
48.56000 165.480
48.57000 164.256
48.58000 162.994
48.59000 162.078
48.60000 161.451
48.61000 161.150
48.62000 160.871
48.63000 164.334
48.64000 170.560
48.65000 176.673
48.66000 172.135
48.67000 162.627
48.68000 153.881
48.69000 156.926
48.70000 164.000
48.71000 170.285
48.72000 169.745
48.73000 167.632
48.74000 165.811
48.75000 166.078
48.76000 166.569
48.77000 165.848
48.78000 160.770
48.79000 155.300
48.80000 151.958
48.81000 153.829
48.82000 155.939
48.83000 157.267
48.84000 159.775
48.85000 161.603
48.86000 159.864
48.87000 154.151
48.88000 148.461
48.89000 146.993
48.90000 148.594
48.91000 150.165
48.92000 153.963
48.93000 158.678
48.94000 163.058
48.95000 162.371
48.96000 159.977
48.97000 157.862
48.98000 158.105
48.99000 158.884
49.00000 159.554
49.01000 155.919
49.02000 152.307
49.03000 150.429
49.04000 154.694
49.05000 159.498
49.06000 162.665
49.07000 161.879
49.08000 160.917
49.09000 160.315
49.10000 160.263
49.11000 160.231
49.12000 161.590
49.13000 164.475
49.14000 167.346
49.15000 168.008
49.16000 167.089
49.17000 166.188
49.18000 165.119
49.19000 164.012
49.20000 162.992
49.21000 163.252
49.22000 163.936
49.23000 164.591
49.24000 165.007
49.25000 165.370
49.26000 165.681
49.27000 165.184
49.28000 164.665
49.29000 163.937
49.30000 162.474
49.31000 160.948
49.32000 159.806
49.33000 159.581
49.34000 159.394
49.35000 159.279
49.36000 161.178
49.37000 162.566
49.38000 162.974
49.39000 162.325
49.40000 161.681
49.41000 161.786
49.42000 162.420
49.43000 163.041
49.44000 158.404
49.45000 151.534
49.46000 145.110
49.47000 145.104
49.48000 147.195
49.49000 149.038
49.50000 148.844
49.51000 148.202
49.52000 147.653
49.53000 152.653
49.54000 157.532
49.55000 161.059
49.56000 159.938
49.57000 158.427
49.58000 158.936
49.59000 164.188
49.60000 169.637
49.61000 173.007
49.62000 168.366
49.63000 164.955
49.64000 162.178
49.65000 160.073
49.66000 157.993
49.67000 159.016
49.68000 162.193
49.69000 165.302
49.70000 165.782
49.71000 165.055
49.72000 164.186
49.73000 161.328
49.74000 157.828
49.75000 154.774
49.76000 155.284
49.77000 156.566
49.78000 157.659
49.79000 157.276
49.80000 156.779
49.81000 155.761
49.82000 152.976
49.83000 150.046
49.84000 149.388
49.85000 153.982
49.86000 158.788
49.87000 161.742
49.88000 167.647
49.89000 171.906
49.90000 172.222
49.91000 168.427
49.92000 164.667
49.93000 165.092
49.94000 168.377
49.95000 171.588
49.96000 170.585
49.97000 167.749
49.98000 164.890
49.99000 161.721
50.00000 158.453
50.01000 155.303
50.02000 153.067
50.03000 151.027
50.04000 149.293
50.05000 158.146
50.06000 166.798
50.07000 172.605
50.08000 168.913
50.09000 164.459
50.10000 162.457
50.11000 166.043
50.12000 169.847
50.13000 172.171
50.14000 168.120
50.15000 165.170
50.16000 162.770
50.17000 160.932
50.18000 159.124
50.19000 160.451
50.20000 163.889
50.21000 167.247
50.22000 165.993
50.23000 162.773
50.24000 160.094
50.25000 164.655
50.26000 171.481
50.27000 177.821
50.28000 180.420
50.29000 182.233
50.30000 183.770
50.31000 180.712
50.32000 177.631
50.33000 175.503
50.34000 176.509
50.35000 177.760
50.36000 180.802
50.37000 187.870
50.38000 195.088
50.39000 199.471
50.40000 189.465
50.41000 182.214
50.42000 181.934
50.43000 188.682
50.44000 195.387
50.45000 197.874
50.46000 197.563
50.47000 197.259
50.48000 200.069
50.49000 204.097
50.50000 208.002
50.51000 210.300
50.52000 212.102
50.53000 214.464
50.54000 221.054
50.55000 228.518
50.56000 234.829
50.57000 231.537
50.58000 227.723
50.59000 226.063
50.60000 231.384
50.61000 237.240
50.62000 241.982
50.63000 244.256
50.64000 246.441
50.65000 247.759
50.66000 245.811
50.67000 244.401
50.68000 246.240
50.69000 251.301
50.70000 256.287
50.71000 254.391
50.72000 247.996
50.73000 241.765
50.74000 241.541
50.75000 243.877
50.76000 246.187
50.77000 248.163
50.78000 250.039
50.79000 251.246
50.80000 247.483
50.81000 242.709
50.82000 238.684
50.83000 226.951
50.84000 216.319
50.85000 209.856
50.86000 216.707
50.87000 224.553
50.88000 228.522
50.89000 224.026
50.90000 219.233
50.91000 216.359
50.92000 209.806
50.93000 205.127
50.94000 201.409
50.95000 198.626
50.96000 195.854
50.97000 194.024
50.98000 192.800
50.99000 191.608
51.00000 185.579
51.01000 177.815
51.02000 170.800
51.03000 173.125
51.04000 178.247
51.05000 182.766
51.06000 182.899
51.07000 182.153
51.08000 181.526
51.09000 179.457
51.10000 177.579
51.11000 175.514
51.12000 172.863
51.13000 170.168
51.14000 167.956
51.15000 166.782
51.16000 165.643
51.17000 164.965
51.18000 158.840
51.19000 154.467
51.20000 153.655
51.21000 156.253
51.22000 158.868
51.23000 162.868
51.24000 167.745
51.25000 172.489
51.26000 174.765
51.27000 175.915
51.28000 176.409
51.29000 168.918
51.30000 159.070
51.31000 150.153
51.32000 147.900
51.33000 146.958
51.34000 146.169
51.35000 151.130
51.36000 155.854
51.37000 158.942
51.38000 156.956
51.39000 154.609
51.40000 152.513
51.41000 150.952
51.42000 149.407
51.43000 148.493
51.44000 153.832
51.45000 157.641
51.46000 157.655
51.47000 154.093
51.48000 150.581
51.49000 150.906
51.50000 153.628
51.51000 156.272
51.52000 155.159
51.53000 152.582
51.54000 150.116
51.55000 148.979
51.56000 148.229
51.57000 147.772
51.58000 149.376
51.59000 151.379
51.60000 153.054
51.61000 152.274
51.62000 151.377
51.63000 150.553
51.64000 149.956
51.65000 149.375
51.66000 149.043
51.67000 149.229
51.68000 149.432
51.69000 149.552
51.70000 149.024
51.71000 148.650
51.72000 149.870
51.73000 152.568
51.74000 155.215
51.75000 154.196
51.76000 150.921
51.77000 147.742
51.78000 144.860
51.79000 142.243
51.80000 140.030
51.81000 142.508
51.82000 146.330
51.83000 149.569
51.84000 148.780
51.85000 147.223
51.86000 145.926
51.87000 146.790
51.88000 147.722
51.89000 148.393
51.90000 148.279
51.91000 148.112
51.92000 147.552
51.93000 146.181
51.94000 144.785
51.95000 143.970
51.96000 147.769
51.97000 150.462
51.98000 151.113
51.99000 149.903
52.00000 148.664
52.01000 145.481
52.02000 141.120
52.03000 136.892
52.04000 139.678
52.05000 145.067
52.06000 150.065
52.07000 150.619
52.08000 149.919
52.09000 148.886
52.10000 145.597
52.11000 141.883
52.12000 138.798
52.13000 141.864
52.14000 145.000
52.15000 148.317
52.16000 152.174
52.17000 156.067
52.18000 157.187
52.19000 152.680
52.20000 148.009
52.21000 145.298
52.22000 145.021
52.23000 144.837
52.24000 145.473
52.25000 146.846
52.26000 148.219
52.27000 149.556
52.28000 150.872
52.29000 152.147
52.30000 152.429
52.31000 152.314
52.32000 151.926
52.33000 148.514
52.34000 144.261
52.35000 140.792
52.36000 142.546
52.37000 145.264
52.38000 147.515
52.39000 148.788
52.40000 149.746
52.41000 149.902
52.42000 147.713
52.43000 145.374
52.44000 142.920
52.45000 140.238
52.46000 137.549
52.47000 135.999
52.48000 143.770
52.49000 149.241
52.50000 149.530
52.51000 145.247
52.52000 141.012
52.53000 139.656
52.54000 139.995
52.55000 140.323
52.56000 145.042
52.57000 151.165
52.58000 156.616
52.59000 154.744
52.60000 150.866
52.61000 147.232
52.62000 145.194
52.63000 143.446
52.64000 142.002
52.65000 143.941
52.66000 145.855
52.67000 147.674
52.68000 149.221
52.69000 150.750
52.70000 149.165
52.71000 141.439
52.72000 133.547
52.73000 129.030
52.74000 138.816
52.75000 145.694
52.76000 148.096
52.77000 146.613
52.78000 145.149
52.79000 144.851
52.80000 145.229
52.81000 145.595
52.82000 144.955
52.83000 143.976
52.84000 143.225
52.85000 144.906
52.86000 147.243
52.87000 149.081
52.88000 147.702
52.89000 145.750
52.90000 144.143
52.91000 141.727
52.92000 139.666
52.93000 138.269
52.94000 138.760
52.95000 139.366
52.96000 141.747
52.97000 147.578
52.98000 153.498
52.99000 156.863
53.00000 148.920
53.01000 143.358
53.02000 142.537
53.03000 145.765
53.04000 148.960
53.05000 150.324
53.06000 150.643
53.07000 150.952
53.08000 150.932
53.09000 150.793
53.10000 150.408
53.11000 147.446
53.12000 143.800
53.13000 140.707
53.14000 141.116
53.15000 142.139
53.16000 142.979
53.17000 146.234
53.18000 149.123
53.19000 153.315
53.20000 161.157
53.21000 169.215
53.22000 172.733
53.23000 167.552
53.24000 162.157
53.25000 159.111
53.26000 156.118
53.27000 154.038
53.28000 152.128
53.29000 150.360
53.30000 148.671
53.31000 151.105
53.32000 155.859
53.33000 160.443
53.34000 160.237
53.35000 158.310
53.36000 156.476
53.37000 155.590
53.38000 154.951
53.39000 154.427
53.40000 154.615
53.41000 154.927
53.42000 155.182
53.43000 155.570
53.44000 155.899
53.45000 156.285
53.46000 156.830
53.47000 157.384
53.48000 157.434
53.49000 156.532
53.50000 155.607
53.51000 155.088
53.52000 158.788
53.53000 161.358
53.54000 162.145
53.55000 161.457
53.56000 160.681
53.57000 155.604
53.58000 148.140
53.59000 140.953
53.60000 139.621
53.61000 140.456
53.62000 141.263
53.63000 141.789
53.64000 142.242
53.65000 142.983
53.66000 145.479
53.67000 148.274
53.68000 150.554
53.69000 146.811
53.70000 143.234
53.71000 141.302
53.72000 143.846
53.73000 146.641
53.74000 148.867
53.75000 150.033
53.76000 151.175
53.77000 151.811
53.78000 147.177
53.79000 143.962
53.80000 141.221
53.81000 138.864
53.82000 136.593
53.83000 138.310
53.84000 142.210
53.85000 145.960
53.86000 146.345
53.87000 145.526
53.88000 144.907
53.89000 146.252
53.90000 148.094
53.91000 149.339
53.92000 146.992
53.93000 144.046
53.94000 141.650
53.95000 147.759
53.96000 153.456
53.97000 156.414
53.98000 152.029
53.99000 147.241
54.00000 144.685
54.01000 146.220
54.02000 147.843
54.03000 148.740
54.04000 140.290
54.05000 134.460
54.06000 133.546
54.07000 136.572
54.08000 139.615
54.09000 143.403
54.10000 147.592
54.11000 151.617
54.12000 150.851
54.13000 148.481
54.14000 145.955
54.15000 141.930
54.16000 137.531
54.17000 134.452
54.18000 139.170
54.19000 145.167
54.20000 150.028
54.21000 150.358
54.22000 150.256
54.23000 149.519
54.24000 147.104
54.25000 144.599
54.26000 142.641
54.27000 141.672
54.28000 140.722
54.29000 140.202
54.30000 138.900
54.31000 138.011
54.32000 139.593
54.33000 143.123
54.34000 146.576
54.35000 146.748
54.36000 145.177
54.37000 143.669
54.38000 146.047
54.39000 149.587
54.40000 152.605
54.41000 150.714
54.42000 147.614
54.43000 144.449
54.44000 140.913
54.45000 137.317
54.46000 134.411
54.47000 138.403
54.48000 142.199
54.49000 145.115
54.50000 145.736
54.51000 146.238
54.52000 146.460
54.53000 146.183
54.54000 145.896
54.55000 145.740
54.56000 147.874
54.57000 149.342
54.58000 150.724
54.59000 152.039
54.60000 153.241
54.61000 149.828
54.62000 144.001
54.63000 138.417
54.64000 141.898
54.65000 148.173
54.66000 153.677
54.67000 152.067
54.68000 148.732
54.69000 146.290
54.70000 148.952
54.71000 152.424
54.72000 155.219
54.73000 150.851
54.74000 146.746
54.75000 143.793
54.76000 143.800
54.77000 143.955
54.78000 144.735
54.79000 146.609
54.80000 148.503
54.81000 149.527
54.82000 144.226
54.83000 140.597
54.84000 138.357
54.85000 137.179
54.86000 136.085
54.87000 138.283
54.88000 142.180
54.89000 145.908
54.90000 148.253
54.91000 149.981
54.92000 151.126
54.93000 146.995
54.94000 141.603
54.95000 137.841
54.96000 143.233
54.97000 150.051
54.98000 155.523
54.99000 151.582
55.00000 147.672
55.01000 144.310
55.02000 142.334
55.03000 140.426
55.04000 140.949
55.05000 145.673
55.06000 150.470
55.07000 153.044
55.08000 145.373
55.09000 140.156
55.10000 140.745
55.11000 145.702
55.12000 150.524
55.13000 150.290
55.14000 147.485
55.15000 144.804
55.16000 145.408
55.17000 147.033
55.18000 148.831
55.19000 152.174
55.20000 155.881
55.21000 158.973
55.22000 158.671
55.23000 157.850
55.24000 157.193
55.25000 150.030
55.26000 143.753
55.27000 142.096
55.28000 151.958
55.29000 162.366
55.30000 168.093
55.31000 165.847
55.32000 163.467
55.33000 162.201
55.34000 165.444
55.35000 167.650
55.36000 168.797
55.37000 169.161
55.38000 169.607
55.39000 173.018
55.40000 177.914
55.41000 182.587
55.42000 185.882
55.43000 188.504
55.44000 191.052
55.45000 192.966
55.46000 194.733
55.47000 197.058
55.48000 202.418
55.49000 208.234
55.50000 212.871
55.51000 215.476
55.52000 217.430
55.53000 219.288
55.54000 220.909
55.55000 222.520
55.56000 228.656
55.57000 242.385
55.58000 256.234
55.59000 263.548
55.60000 269.104
55.61000 272.894
55.62000 279.667
55.63000 288.615
55.64000 297.474
55.65000 303.242
55.66000 307.484
55.67000 311.527
55.68000 326.191
55.69000 343.112
55.70000 359.327
55.71000 369.523
55.72000 378.347
55.73000 387.624
55.74000 399.319
55.75000 411.371
55.76000 420.947
55.77000 435.631
55.78000 447.820
55.79000 460.452
55.80000 474.159
55.81000 487.914
55.82000 499.436
55.83000 507.265
55.84000 515.039
55.85000 519.111
55.86000 532.988
55.87000 542.406
55.88000 554.186
55.89000 567.663
55.90000 580.911
55.91000 586.521
55.92000 588.414
55.93000 590.216
55.94000 587.540
55.95000 583.683
55.96000 579.129
55.97000 568.757
55.98000 557.078
55.99000 545.560
56.00000 534.889
56.01000 524.341
56.02000 515.989
56.03000 510.585
56.04000 506.447
56.05000 500.146
56.06000 488.683
56.07000 476.996
56.08000 461.465
56.09000 439.674
56.10000 417.794
56.11000 406.421
56.12000 405.220
56.13000 404.379
56.14000 398.992
56.15000 390.390
56.16000 381.725
56.17000 371.035
56.18000 359.373
56.19000 348.289
56.20000 334.651
56.21000 321.272
56.22000 308.389
56.23000 299.564
56.24000 291.635
56.25000 283.695
56.26000 275.701
56.27000 267.699
56.28000 261.386
56.29000 259.273
56.30000 257.862
56.31000 253.445
56.32000 241.949
56.33000 230.158
56.34000 223.473
56.35000 224.985
56.36000 226.606
56.37000 227.442
56.38000 219.480
56.39000 214.118
56.40000 208.966
56.41000 203.961
56.42000 198.871
56.43000 191.146
56.44000 182.176
56.45000 173.663
56.46000 175.013
56.47000 179.202
56.48000 182.229
56.49000 175.925
56.50000 167.592
56.51000 160.763
56.52000 161.595
56.53000 163.498
56.54000 164.995
56.55000 166.694
56.56000 168.068
56.57000 168.541
56.58000 166.927
56.59000 165.228
56.60000 164.215
56.61000 164.288
56.62000 164.374
56.63000 164.418
56.64000 158.633
56.65000 154.771
56.66000 153.734
56.67000 154.636
56.68000 155.528
56.69000 156.129
56.70000 156.594
56.71000 157.034
56.72000 153.197
56.73000 148.406
56.74000 144.007
56.75000 142.687
56.76000 142.028
56.77000 141.054
56.78000 138.506
56.79000 135.741
56.80000 133.574
56.81000 131.046
56.82000 129.003
56.83000 128.949
56.84000 133.445
56.85000 138.120
56.86000 139.978
56.87000 137.453
56.88000 134.876
56.89000 133.569
56.90000 138.641
56.91000 142.018
56.92000 143.148
56.93000 142.761
56.94000 142.276
56.95000 139.003
56.96000 134.450
56.97000 130.142
56.98000 132.603
56.99000 136.822
57.00000 140.259
57.01000 137.648
57.02000 133.762
57.03000 130.445
57.04000 129.932
57.05000 129.798
57.06000 129.693
57.07000 130.768
57.08000 131.701
57.09000 132.616
57.10000 133.494
57.11000 134.370
57.12000 132.621
57.13000 126.844
57.14000 121.024
57.15000 118.097
57.16000 133.235
57.17000 143.283
57.18000 146.775
57.19000 145.904
57.20000 144.976
57.21000 142.457
57.22000 139.217
57.23000 136.156
57.24000 134.492
57.25000 133.361
57.26000 132.553
57.27000 134.190
57.28000 136.334
57.29000 137.554
57.30000 134.290
57.31000 130.432
57.32000 127.431
57.33000 126.134
57.34000 125.206
57.35000 126.747
57.36000 133.774
57.37000 141.002
57.38000 143.817
57.39000 139.964
57.40000 136.044
57.41000 133.148
57.42000 131.270
57.43000 129.410
57.44000 129.235
57.45000 130.164
57.46000 131.000
57.47000 129.336
57.48000 126.556
57.49000 123.933
57.50000 122.238
57.51000 120.944
57.52000 120.235
57.53000 123.881
57.54000 128.417
57.55000 132.185
57.56000 132.290
57.57000 131.919
57.58000 131.630
57.59000 126.335
57.60000 121.830
57.61000 119.136
57.62000 120.410
57.63000 121.824
57.64000 123.405
57.65000 125.234
57.66000 127.065
57.67000 127.821
57.68000 127.526
57.69000 127.250
57.70000 128.595
57.71000 130.986
57.72000 133.316
57.73000 134.051
57.74000 134.085
57.75000 134.117
57.76000 131.213
57.77000 127.750
57.78000 124.076
57.79000 118.866
57.80000 113.346
57.81000 109.561
57.82000 113.924
57.83000 119.328
57.84000 123.501
57.85000 124.732
57.86000 125.536
57.87000 126.250
57.88000 126.770
57.89000 127.283
57.90000 126.053
57.91000 122.267
57.92000 118.459
57.93000 120.320
57.94000 127.632
57.95000 134.859
57.96000 135.084
57.97000 130.855
57.98000 126.699
57.99000 124.409
58.00000 122.926
58.01000 121.531
58.02000 120.726
58.03000 120.150
58.04000 119.777
58.05000 120.865
58.06000 122.241
58.07000 123.377
58.08000 123.401
58.09000 123.286
58.10000 123.197
58.11000 127.113
58.12000 130.438
58.13000 131.828
58.14000 129.098
58.15000 126.233
58.16000 124.793
58.17000 125.411
58.18000 126.045
58.19000 125.416
58.20000 123.592
58.21000 121.791
58.22000 121.676
58.23000 122.619
58.24000 123.545
58.25000 124.076
58.26000 124.439
58.27000 124.780
58.28000 123.664
58.29000 122.260
58.30000 120.792
58.31000 118.880
58.32000 116.880
58.33000 116.160
58.34000 121.261
58.35000 127.078
58.36000 131.536
58.37000 130.090
58.38000 128.622
58.39000 127.594
58.40000 127.487
58.41000 127.410
58.42000 126.890
58.43000 125.740
58.44000 124.586
58.45000 123.479
58.46000 122.417
58.47000 121.360
58.48000 120.658
58.49000 120.174
58.50000 119.669
58.51000 118.677
58.52000 117.479
58.53000 116.356
58.54000 120.488
58.55000 125.626
58.56000 129.721
58.57000 126.586
58.58000 122.067
58.59000 119.134
58.60000 123.311
58.61000 128.345
58.62000 132.189
58.63000 128.042
58.64000 124.345
58.65000 123.029
58.66000 126.631
58.67000 130.383
58.68000 130.562
58.69000 125.738
58.70000 120.880
58.71000 119.895
58.72000 122.452
58.73000 124.954
58.74000 123.680
58.75000 120.111
58.76000 116.740
58.77000 117.857
58.78000 120.836
58.79000 123.626
58.80000 125.625
58.81000 127.240
58.82000 128.070
58.83000 123.559
58.84000 118.043
58.85000 114.087
58.86000 117.015
58.87000 120.757
58.88000 123.603
58.89000 124.104
58.90000 124.376
58.91000 124.010
58.92000 122.345
58.93000 120.643
58.94000 120.475
58.95000 122.424
58.96000 124.385
58.97000 124.576
58.98000 123.174
58.99000 121.797
59.00000 122.093
59.01000 123.390
59.02000 124.508
59.03000 121.690
59.04000 117.263
59.05000 113.125
59.06000 114.631
59.07000 117.425
59.08000 120.032
59.09000 121.383
59.10000 122.502
59.11000 123.205
59.12000 122.107
59.13000 120.800
59.14000 119.809
59.15000 122.222
59.16000 124.290
59.17000 125.418
59.18000 124.662
59.19000 123.853
59.20000 124.536
59.21000 127.248
59.22000 129.969
59.23000 129.397
59.24000 125.913
59.25000 122.474
59.26000 121.807
59.27000 122.776
59.28000 123.608
59.29000 121.522
59.30000 118.259
59.31000 115.214
59.32000 117.646
59.33000 121.212
59.34000 124.542
59.35000 126.314
59.36000 127.802
59.37000 129.001
59.38000 128.965
59.39000 128.787
59.40000 128.653
59.41000 127.057
59.42000 125.734
59.43000 124.436
59.44000 123.186
59.45000 121.938
59.46000 120.753
59.47000 119.654
59.48000 118.556
59.49000 119.496
59.50000 122.205
59.51000 124.883
59.52000 125.698
59.53000 125.430
59.54000 125.166
59.55000 124.964
59.56000 124.787
59.57000 124.623
59.58000 124.032
59.59000 123.394
59.60000 122.877
59.61000 123.141
59.62000 123.544
59.63000 123.529
59.64000 121.749
59.65000 119.771
59.66000 118.285
59.67000 121.175
59.68000 123.644
59.69000 124.465
59.70000 122.071
59.71000 119.593
59.72000 118.772
59.73000 120.130
59.74000 121.497
59.75000 121.278
59.76000 119.703
59.77000 118.227
59.78000 122.130
59.79000 129.119
59.80000 135.756
59.81000 135.342
59.82000 132.166
59.83000 129.213
59.84000 124.009
59.85000 118.769
59.86000 114.357
59.87000 115.208
59.88000 116.985
59.89000 117.569
59.90000 113.202
59.91000 108.294
59.92000 104.620
59.93000 109.927
59.94000 114.487
59.95000 118.843
59.96000 122.808
59.97000 126.762
59.98000 125.918
59.99000 118.856
60.00000 111.776
60.01000 110.943
60.02000 115.368
60.03000 119.746
60.04000 121.668
60.05000 122.202
60.06000 122.622
60.07000 120.812
60.08000 118.140
60.09000 115.660
60.10000 113.573
60.11000 111.785
60.12000 110.438
60.13000 111.846
60.14000 113.731
60.15000 116.002
60.16000 119.854
60.17000 123.875
60.18000 126.872
60.19000 124.655
60.20000 122.692
60.21000 120.888
60.22000 119.386
60.23000 117.892
60.24000 116.293
60.25000 114.562
60.26000 112.833
60.27000 113.950
60.28000 117.419
60.29000 120.886
60.30000 124.263
60.31000 127.590
60.32000 130.837
60.33000 132.569
60.34000 133.725
60.35000 134.796
60.36000 127.668
60.37000 119.345
60.38000 112.120
60.39000 111.629
60.40000 112.286
60.41000 113.659
60.42000 117.915
60.43000 122.474
60.44000 125.858
60.45000 121.432
60.46000 117.648
60.47000 115.504
60.48000 116.423
60.49000 117.411
60.50000 118.443
60.51000 119.530
60.52000 120.616
60.53000 120.467
60.54000 119.313
60.55000 118.181
60.56000 118.084
60.57000 118.555
60.58000 119.009
60.59000 119.175
60.60000 119.232
60.61000 119.285
60.62000 118.707
60.63000 118.044
60.64000 117.668
60.65000 119.022
60.66000 120.666
60.67000 122.070
60.68000 122.520
60.69000 122.872
60.70000 123.132
60.71000 120.578
60.72000 118.477
60.73000 116.159
60.74000 113.441
60.75000 110.714
60.76000 112.299
60.77000 119.212
60.78000 126.129
60.79000 130.569
60.80000 133.008
60.81000 135.359
60.82000 133.731
60.83000 129.952
60.84000 126.209
60.85000 123.131
60.86000 120.299
60.87000 117.684
60.88000 116.045
60.89000 114.795
60.90000 114.335
60.91000 118.562
60.92000 123.561
60.93000 127.613
60.94000 127.969
60.95000 127.954
60.96000 127.942
60.97000 126.356
60.98000 125.062
60.99000 123.575
61.00000 121.734
61.01000 119.887
61.02000 120.279
61.03000 123.396
61.04000 126.513
61.05000 127.581
61.06000 127.030
61.07000 126.503
61.08000 127.018
61.09000 128.087
61.10000 129.015
61.11000 127.485
61.12000 125.059
61.13000 122.823
61.14000 126.354
61.15000 130.792
61.16000 134.201
61.17000 131.608
61.18000 128.044
61.19000 126.201
61.20000 130.972
61.21000 136.397
61.22000 140.374
61.23000 129.535
61.24000 120.565
61.25000 117.023
61.26000 123.173
61.27000 129.514
61.28000 132.248
61.29000 130.665
61.30000 129.076
61.31000 130.072
61.32000 133.065
61.33000 135.942
61.34000 134.068
61.35000 129.699
61.36000 125.675
61.37000 127.523
61.38000 131.480
61.39000 135.120
61.40000 137.449
61.41000 139.245
61.42000 140.829
61.43000 141.190
61.44000 141.357
61.45000 141.847
61.46000 143.561
61.47000 145.394
61.48000 146.732
61.49000 159.584
61.50000 169.941
61.51000 181.630
61.52000 195.665
61.53000 209.745
61.54000 226.063
61.55000 245.018
61.56000 263.932
61.57000 286.027
61.58000 310.411
61.59000 334.788
61.60000 358.866
61.61000 382.790
61.62000 405.804
61.63000 413.802
61.64000 416.485
61.65000 418.949
61.66000 417.857
61.67000 416.122
61.68000 416.393
61.69000 427.972
61.70000 441.318
61.71000 451.162
61.72000 447.940
61.73000 443.483
61.74000 440.242
61.75000 413.634
61.76000 392.280
61.77000 373.280
61.78000 358.362
61.79000 343.518
61.80000 319.992
61.81000 286.403
61.82000 252.891
61.83000 228.448
61.84000 210.970
61.85000 193.666
61.86000 182.926
61.87000 175.534
61.88000 168.241
61.89000 162.557
61.90000 157.434
61.91000 152.737
61.92000 151.270
61.93000 150.641
61.94000 149.797
61.95000 147.754
61.96000 145.526
61.97000 143.535
61.98000 142.411
61.99000 141.368
62.00000 140.612
62.01000 138.575
62.02000 136.963
62.03000 135.135
62.04000 132.935
62.05000 130.729
62.06000 130.292
62.07000 131.873
62.08000 133.451
62.09000 133.110
62.10000 131.356
62.11000 129.694
62.12000 131.380
62.13000 134.748
62.14000 138.083
62.15000 140.889
62.16000 143.513
62.17000 145.914
62.18000 142.310
62.19000 137.866
62.20000 133.856
62.21000 132.218
62.22000 130.937
62.23000 130.736
62.24000 134.438
62.25000 138.493
62.26000 141.416
62.27000 142.461
62.28000 143.196
62.29000 142.919
62.30000 140.942
62.31000 138.937
62.32000 139.952
62.33000 144.357
62.34000 148.750
62.35000 149.770
62.36000 148.332
62.37000 146.955
62.38000 147.716
62.39000 149.535
62.40000 151.269
62.41000 151.707
62.42000 151.705
62.43000 151.704
62.44000 151.360
62.45000 150.986
62.46000 150.333
62.47000 148.182
62.48000 145.809
62.49000 142.884
62.50000 137.994
62.51000 132.929
62.52000 129.295
62.53000 132.399
62.54000 135.004
62.55000 136.261
62.56000 135.283
62.57000 134.272
62.58000 133.572
62.59000 133.214
62.60000 132.858
62.61000 133.056
62.62000 133.647
62.63000 134.265
62.64000 135.784
62.65000 137.744
62.66000 139.650
62.67000 140.751
62.68000 141.583
62.69000 142.342
62.70000 140.123
62.71000 137.563
62.72000 135.470
62.73000 135.840
62.74000 136.569
62.75000 138.143
62.76000 142.689
62.77000 147.492
62.78000 150.923
62.79000 141.482
62.80000 133.851
62.81000 129.290
62.82000 129.747
62.83000 130.276
62.84000 132.063
62.85000 135.217
62.86000 138.359
62.87000 142.032
62.88000 146.041
62.89000 149.889
62.90000 148.524
62.91000 144.651
62.92000 141.083
62.93000 141.939
62.94000 144.251
62.95000 146.353
62.96000 144.767
62.97000 142.640
62.98000 140.952
62.99000 141.538
63.00000 142.449
63.01000 142.485
63.02000 139.493
63.03000 136.245
63.04000 133.935
63.05000 136.767
63.06000 139.088
63.07000 141.249
63.08000 143.153
63.09000 145.054
63.10000 145.697
63.11000 144.997
63.12000 144.300
63.13000 144.236
63.14000 144.609
63.15000 145.038
63.16000 147.183
63.17000 150.142
63.18000 152.700
63.19000 149.573
63.20000 144.603
63.21000 140.092
63.22000 144.340
63.23000 149.778
63.24000 154.146
63.25000 153.047
63.26000 151.179
63.27000 148.993
63.28000 145.721
63.29000 142.359
63.30000 139.980
63.31000 140.553
63.32000 141.080
63.33000 142.293
63.34000 144.595
63.35000 146.910
63.36000 146.414
63.37000 142.965
63.38000 139.532
63.39000 138.281
63.40000 138.529
63.41000 138.856
63.42000 141.541
63.43000 145.329
63.44000 148.684
63.45000 146.048
63.46000 141.497
63.47000 137.375
63.48000 140.921
63.49000 145.498
63.50000 149.452
63.51000 150.275
63.52000 150.665
63.53000 149.960
63.54000 145.572
63.55000 140.887
63.56000 137.586
63.57000 140.785
63.58000 143.406
63.59000 145.609
63.60000 147.159
63.61000 148.701
63.62000 149.391
63.63000 149.202
63.64000 149.014
63.65000 148.765
63.66000 148.479
63.67000 148.209
63.68000 148.411
63.69000 148.830
63.70000 149.295
63.71000 150.383
63.72000 151.667
63.73000 152.828
63.74000 150.575
63.75000 147.958
63.76000 145.510
63.77000 143.900
63.78000 142.404
63.79000 141.484
63.80000 142.469
63.81000 143.606
63.82000 144.403
63.83000 151.213
63.84000 156.539
63.85000 158.779
63.86000 156.271
63.87000 153.710
63.88000 152.884
63.89000 153.821
63.90000 154.752
63.91000 152.663
63.92000 148.610
63.93000 144.766
63.94000 146.725
63.95000 151.319
63.96000 155.299
63.97000 151.186
63.98000 144.561
63.99000 138.585
64.00000 145.161
64.01000 153.231
64.02000 159.773
64.03000 158.878
64.04000 156.993
64.05000 155.752
64.06000 156.612
64.07000 157.634
64.08000 158.348
64.09000 158.817
64.10000 159.165
64.11000 159.228
64.12000 158.859
64.13000 158.487
64.14000 157.112
64.15000 154.736
64.16000 152.375
64.17000 153.378
64.18000 156.546
64.19000 159.586
64.20000 159.174
64.21000 157.216
64.22000 155.578
64.23000 158.059
64.24000 161.801
64.25000 165.169
64.26000 167.408
64.27000 169.169
64.28000 170.032
64.29000 166.601
64.30000 162.608
64.31000 160.739
64.32000 165.692
64.33000 171.161
64.34000 174.959
64.35000 171.312
64.36000 168.363
64.37000 167.140
64.38000 168.492
64.39000 169.869
64.40000 170.902
64.41000 171.598
64.42000 172.288
64.43000 172.133
64.44000 171.440
64.45000 170.850
64.46000 172.945
64.47000 176.223
64.48000 179.152
64.49000 177.695
64.50000 174.917
64.51000 172.421
64.52000 166.555
64.53000 160.828
64.54000 158.057
64.55000 169.231
64.56000 182.192
64.57000 192.600
64.58000 194.923
64.59000 196.649
64.60000 197.843
64.61000 187.296
64.62000 179.062
64.63000 174.451
64.64000 175.170
64.65000 175.936
64.66000 179.512
64.67000 185.798
64.68000 192.038
64.69000 193.251
64.70000 191.287
64.71000 189.358
64.72000 188.329
64.73000 187.692
64.74000 187.282
64.75000 189.660
64.76000 192.867
64.77000 195.741
64.78000 194.072
64.79000 191.826
64.80000 190.054
64.81000 190.478
64.82000 191.178
64.83000 191.486
64.84000 190.573
64.85000 189.573
64.86000 188.884
64.87000 194.797
64.88000 199.398
64.89000 201.891
64.90000 201.328
64.91000 200.740
64.92000 200.380
64.93000 200.235
64.94000 200.090
64.95000 200.516
64.96000 201.286
64.97000 202.224
64.98000 207.271
64.99000 214.079
65.00000 220.664
65.01000 224.585
65.02000 227.727
65.03000 230.538
65.04000 231.361
65.05000 231.741
65.06000 232.647
65.07000 235.960
65.08000 239.571
65.09000 242.370
65.10000 242.674
65.11000 242.803
65.12000 242.891
65.13000 246.988
65.14000 250.151
65.15000 251.815
65.16000 251.341
65.17000 250.851
65.18000 255.139
65.19000 263.886
65.20000 272.561
65.21000 277.092
65.22000 279.020
65.23000 280.944
65.24000 282.742
65.25000 284.487
65.26000 286.551
65.27000 292.361
65.28000 299.251
65.29000 305.399
65.30000 310.850
65.31000 315.477
65.32000 322.098
65.33000 337.684
65.34000 354.356
65.35000 367.741
65.36000 371.164
65.37000 373.905
65.38000 375.772
65.39000 383.409
65.40000 389.248
65.41000 395.749
65.42000 403.183
65.43000 410.623
65.44000 419.440
65.45000 429.521
65.46000 439.513
65.47000 448.820
65.48000 457.538
65.49000 466.282
65.50000 475.634
65.51000 485.239
65.52000 495.420
65.53000 512.217
65.54000 530.892
65.55000 547.521
65.56000 547.883
65.57000 545.526
65.58000 550.355
65.59000 586.999
65.60000 627.422
65.61000 661.879
65.62000 678.516
65.63000 693.962
65.64000 704.431
65.65000 785.919
65.66000 848.240
65.67000 929.022
65.68000 1035.346
65.69000 1141.843
65.70000 1263.802
65.71000 1399.728
65.72000 1534.369
65.73000 1715.270
65.74000 1919.729
65.75000 2124.450
65.76000 2334.992
65.77000 2547.923
65.78000 2755.842
65.79000 2907.457
65.80000 3043.322
65.81000 3164.036
65.82000 3218.722
65.83000 3255.509
65.84000 3289.299
65.85000 3310.021
65.86000 3329.221
65.87000 3336.932
65.88000 3310.822
65.89000 3282.508
65.90000 3263.414
65.91000 3170.772
65.92000 3100.295
65.93000 2998.485
65.94000 2853.991
65.95000 2709.214
65.96000 2522.783
65.97000 2299.342
65.98000 2078.146
65.99000 1860.321
66.00000 1649.129
66.01000 1440.063
66.02000 1276.656
66.03000 1131.717
66.04000 991.433
66.05000 902.309
66.06000 827.284
66.07000 760.777
66.08000 694.507
66.09000 637.171
66.10000 588.852
66.11000 579.230
66.12000 574.030
66.13000 566.594
66.14000 552.669
66.15000 538.332
66.16000 528.713
66.17000 521.791
66.18000 516.707
66.19000 513.953
66.20000 514.326
66.21000 514.724
66.22000 523.620
66.23000 539.944
66.24000 556.094
66.25000 577.575
66.26000 601.611
66.27000 625.827
66.28000 653.788
66.29000 683.241
66.30000 713.771
66.31000 755.882
66.32000 801.137
66.33000 841.162
66.34000 870.382
66.35000 893.955
66.36000 916.452
66.37000 934.404
66.38000 951.847
66.39000 961.972
66.40000 951.174
66.41000 939.081
66.42000 931.010
66.43000 932.521
66.44000 933.827
66.45000 929.209
66.46000 916.769
66.47000 904.285
66.48000 886.531
66.49000 864.246
66.50000 842.212
66.51000 821.285
66.52000 801.475
66.53000 780.525
66.54000 736.506
66.55000 683.423
66.56000 631.863
66.57000 596.331
66.58000 565.085
66.59000 537.515
66.60000 525.749
66.61000 518.011
66.62000 508.191
66.63000 489.705
66.64000 470.268
66.65000 458.419
66.66000 467.954
66.67000 478.777
66.68000 485.964
66.69000 474.656
66.70000 465.956
66.71000 458.448
66.72000 452.492
66.73000 446.551
66.74000 445.452
66.75000 448.450
66.76000 451.413
66.77000 454.167
66.78000 456.736
66.79000 459.332
66.80000 462.461
66.81000 465.796
66.82000 468.940
66.83000 470.119
66.84000 470.780
66.85000 471.362
66.86000 468.550
66.87000 465.619
66.88000 462.365
66.89000 457.784
66.90000 453.060
66.91000 451.214
66.92000 457.362
66.93000 463.980
66.94000 468.350
66.95000 477.994
66.96000 485.200
66.97000 489.015
66.98000 488.488
66.99000 487.943
67.00000 486.310
67.01000 483.769
67.02000 481.260
67.03000 486.359
67.04000 495.463
67.05000 503.987
67.06000 501.445
67.07000 494.679
67.08000 488.369
67.09000 486.659
67.10000 486.143
67.11000 485.689
67.12000 493.485
67.13000 501.399
67.14000 507.339
67.15000 505.314
67.16000 502.449
67.17000 500.134
67.18000 499.324
67.19000 498.600
67.20000 498.124
67.21000 501.259
67.22000 503.627
67.23000 505.451
67.24000 506.589
67.25000 507.725
67.26000 508.917
67.27000 510.154
67.28000 511.374
67.29000 512.229
67.30000 512.864
67.31000 513.370
67.32000 511.496
67.33000 508.726
67.34000 506.957
67.35000 515.077
67.36000 525.724
67.37000 535.052
67.38000 526.753
67.39000 517.091
67.40000 513.389
67.41000 533.382
67.42000 555.824
67.43000 570.318
67.44000 563.369
67.45000 555.229
67.46000 549.910
67.47000 539.729
67.48000 532.174
67.49000 531.028
67.50000 537.830
67.51000 544.657
67.52000 552.820
67.53000 562.061
67.54000 571.173
67.55000 570.494
67.56000 564.674
67.57000 559.023
67.58000 556.391
67.59000 554.880
67.60000 553.753
67.61000 556.351
67.62000 559.886
67.63000 562.976
67.64000 564.655
67.65000 565.894
67.66000 568.088
67.67000 574.023
67.68000 580.336
67.69000 585.809
67.70000 589.048
67.71000 592.166
67.72000 594.192
67.73000 591.071
67.74000 588.705
67.75000 587.408
67.76000 587.416
67.77000 587.433
67.78000 589.400
67.79000 592.916
67.80000 596.380
67.81000 598.094
67.82000 598.852
67.83000 599.378
67.84000 595.859
67.85000 590.862
67.86000 587.671
67.87000 601.600
67.88000 619.773
67.89000 635.617
67.90000 635.040
67.91000 632.266
67.92000 629.543
67.93000 627.017
67.94000 624.510
67.95000 624.818
67.96000 632.501
67.97000 640.571
67.98000 645.787
67.99000 643.497
68.00000 641.714
68.01000 644.489
68.02000 652.738
68.03000 660.990
68.04000 666.776
68.05000 670.633
68.06000 674.431
68.07000 670.746
68.08000 663.355
68.09000 656.460
68.10000 658.024
68.11000 662.635
68.12000 668.594
68.13000 687.085
68.14000 708.636
68.15000 727.378
68.16000 721.983
68.17000 714.090
68.18000 707.323
68.19000 704.835
68.20000 702.762
68.21000 703.257
68.22000 710.387
68.23000 717.855
68.24000 722.654
68.25000 721.181
68.26000 720.019
68.27000 724.429
68.28000 735.425
68.29000 746.417
68.30000 753.595
68.31000 757.837
68.32000 762.011
68.33000 772.410
68.34000 785.604
68.35000 798.105
68.36000 799.113
68.37000 796.039
68.38000 794.244
68.39000 804.100
68.40000 816.757
68.41000 827.737
68.42000 838.301
68.43000 847.243
68.44000 855.447
68.45000 860.894
68.46000 866.078
68.47000 872.702
68.48000 882.994
68.49000 893.467
68.50000 900.161
68.51000 913.854
68.52000 923.913
68.53000 946.670
68.54000 984.198
68.55000 1021.733
68.56000 1056.383
68.57000 1088.849
68.58000 1120.763
68.59000 1159.654
68.60000 1200.704
68.61000 1242.425
68.62000 1295.006
68.63000 1351.388
68.64000 1408.602
68.65000 1473.249
68.66000 1539.657
68.67000 1597.118
68.68000 1680.745
68.69000 1755.271
68.70000 1833.539
68.71000 1925.602
68.72000 2018.949
68.73000 2099.216
68.74000 2146.656
68.75000 2192.519
68.76000 2221.665
68.77000 2372.094
68.78000 2482.845
68.79000 2593.813
68.80000 2705.030
68.81000 2816.325
68.82000 2942.872
68.83000 3080.796
68.84000 3216.267
68.85000 3411.610
68.86000 3629.360
68.87000 3859.020
68.88000 4276.404
68.89000 4758.529
68.90000 5300.688
68.91000 6368.491
68.92000 7558.827
68.93000 8586.157
68.94000 11711.949
68.95000 14634.317
68.96000 18012.395
68.97000 23044.984
68.98000 28228.242
68.99000 33655.902
69.00000 39688.121
69.01000 45748.520
69.02000 49577.738
69.03000 56899.504
69.04000 62245.801
69.05000 66467.125
69.06000 69421.648
69.07000 72369.898
69.08000 74418.148
69.09000 75805.406
69.10000 77166.875
69.11000 78349.188
69.12000 79403.406
69.13000 80462.617
69.14000 81598.523
69.15000 82760.492
69.16000 83836.797
69.17000 84177.594
69.18000 84349.578
69.19000 84497.617
69.20000 81652.992
69.21000 78866.070
69.22000 75673.672
69.23000 71030.953
69.24000 66259.023
69.25000 61645.984
69.26000 57420.340
69.27000 53212.203
69.28000 50568.730
69.29000 46818.082
69.30000 44094.266
69.31000 42104.688
69.32000 40928.504
69.33000 39754.828
69.34000 38895.164
69.35000 38262.586
69.36000 37642.293
69.37000 36342.184
69.38000 34769.645
69.39000 33135.480
69.40000 30578.512
69.41000 27712.438
69.42000 24821.074
69.43000 21716.762
69.44000 18564.326
69.45000 15857.746
69.46000 13045.275
69.47000 10654.404
69.48000 8465.862
69.49000 6990.282
69.50000 5576.836
69.51000 4386.187
69.52000 3730.957
69.53000 3099.183
69.54000 2704.640
69.55000 2368.472
69.56000 2126.597
69.57000 1938.317
69.58000 1808.439
69.59000 1678.818
69.60000 1582.572
69.61000 1510.092
69.62000 1439.082
69.63000 1372.543
69.64000 1310.628
69.65000 1249.695
69.66000 1203.093
69.67000 1161.222
69.68000 1119.760
69.69000 1081.672
69.70000 1044.334
69.71000 1012.362
69.72000 989.771
69.73000 971.844
69.74000 949.985
69.75000 914.472
69.76000 877.796
69.77000 847.032
69.78000 830.275
69.79000 814.113
69.80000 804.079
69.81000 801.619
69.82000 799.923
69.83000 792.992
69.84000 780.449
69.85000 767.893
69.86000 753.765
69.87000 738.535
69.88000 723.627
69.89000 705.642
69.90000 686.964
69.91000 668.792
69.92000 657.832
69.93000 649.216
69.94000 641.175
69.95000 637.787
69.96000 635.417
69.97000 633.394
69.98000 617.135
69.99000 601.748
70.00000 589.903
