20.00000 490.920
20.01000 483.564
20.02000 475.157
20.03000 469.739
20.04000 476.104
20.05000 483.676
20.06000 489.267
20.07000 489.284
20.08000 489.060
20.09000 486.913
20.10000 481.245
20.11000 475.502
20.12000 476.736
20.13000 486.552
20.14000 496.375
20.15000 497.917
20.16000 492.855
20.17000 487.854
20.18000 485.528
20.19000 484.642
20.20000 483.864
20.21000 484.996
20.22000 486.832
20.23000 488.525
20.24000 492.228
20.25000 495.997
20.26000 498.141
20.27000 490.700
20.28000 481.687
20.29000 475.457
20.30000 480.030
20.31000 485.686
20.32000 489.845
20.33000 485.563
20.34000 481.903
20.35000 480.253
20.36000 482.230
20.37000 484.281
20.38000 484.583
20.39000 482.767
20.40000 480.949
20.41000 480.231
20.42000 480.379
20.43000 480.547
20.44000 481.611
20.45000 483.150
20.46000 484.664
20.47000 485.766
20.48000 486.718
20.49000 487.595
20.50000 485.321
20.51000 482.592
20.52000 480.578
20.53000 482.707
20.54000 485.502
20.55000 487.412
20.56000 485.931
20.57000 484.119
20.58000 482.791
20.59000 488.011
20.60000 492.302
20.61000 492.173
20.62000 484.189
20.63000 476.051
20.64000 475.759
20.65000 484.814
20.66000 493.867
20.67000 491.353
20.68000 479.936
20.69000 468.768
20.70000 467.741
20.71000 472.016
20.72000 476.041
20.73000 475.873
20.74000 474.205
20.75000 472.671
20.76000 474.438
20.77000 476.729
20.78000 478.351
20.79000 476.152
20.80000 473.348
20.81000 472.347
20.82000 478.144
20.83000 484.594
20.84000 489.297
20.85000 489.883
20.86000 490.175
20.87000 490.701
20.88000 491.637
20.89000 492.580
20.90000 491.402
20.91000 487.737
20.92000 484.077
20.93000 477.839
20.94000 469.686
20.95000 461.927
20.96000 469.601
20.97000 485.224
20.98000 499.697
20.99000 495.328
21.00000 484.317
21.01000 474.212
21.02000 479.170
21.03000 486.794
21.04000 492.795
21.05000 489.692
21.06000 485.172
21.07000 481.783
21.08000 482.592
21.09000 483.797
21.10000 484.671
21.11000 486.454
21.12000 487.860
21.13000 487.803
21.14000 485.223
21.15000 482.599
21.16000 478.705
21.17000 473.346
21.18000 468.001
21.19000 466.229
21.20000 467.136
21.21000 468.168
21.22000 473.875
21.23000 481.955
21.24000 489.393
21.25000 486.588
21.26000 480.225
21.27000 474.396
21.28000 476.872
21.29000 480.812
21.30000 483.504
21.31000 479.310
21.32000 474.065
21.33000 469.819
21.34000 469.231
21.35000 468.980
21.36000 468.798
21.37000 474.013
21.38000 478.209
21.39000 482.048
21.40000 485.279
21.41000 488.499
21.42000 487.041
21.43000 480.272
21.44000 473.520
21.45000 472.708
21.46000 476.264
21.47000 479.752
21.48000 480.773
21.49000 480.560
21.50000 480.209
21.51000 477.707
21.52000 474.469
21.53000 471.509
21.54000 476.856
21.55000 483.315
21.56000 488.686
21.57000 488.146
21.58000 486.718
21.59000 484.536
21.60000 479.640
21.61000 474.499
21.62000 470.799
21.63000 481.458
21.64000 490.124
21.65000 496.303
21.66000 498.315
21.67000 500.261
21.68000 495.128
21.69000 482.091
21.70000 469.093
21.71000 471.184
21.72000 484.156
21.73000 496.810
21.74000 498.482
21.75000 494.739
21.76000 491.412
21.77000 494.398
21.78000 499.514
21.79000 504.182
21.80000 502.153
21.81000 499.001
21.82000 498.103
21.83000 509.243
21.84000 522.159
21.85000 533.382
21.86000 538.598
21.87000 543.284
21.88000 546.642
21.89000 555.731
21.90000 562.871
21.91000 562.116
21.92000 548.323
21.93000 534.336
21.94000 530.915
21.95000 539.098
21.96000 547.257
21.97000 565.210
21.98000 589.959
21.99000 614.146
22.00000 619.690
22.01000 616.172
22.02000 613.375
22.03000 621.232
22.04000 632.632
22.05000 643.014
22.06000 642.627
22.07000 640.146
22.08000 637.706
22.09000 635.478
22.10000 633.280
22.11000 633.165
22.12000 640.331
22.13000 648.124
22.14000 653.683
22.15000 647.363
22.16000 642.153
22.17000 638.576
22.18000 637.658
22.19000 636.777
22.20000 631.253
22.21000 620.711
22.22000 610.212
22.23000 601.942
22.24000 595.316
22.25000 588.682
22.26000 581.784
22.27000 574.760
22.28000 567.951
22.29000 564.242
22.30000 561.548
22.31000 559.100
22.32000 550.903
22.33000 542.535
22.34000 535.525
22.35000 535.532
22.36000 536.537
22.37000 535.083
22.38000 525.153
22.39000 514.510
22.40000 506.952
22.41000 504.795
22.42000 503.325
22.43000 499.931
22.44000 493.452
22.45000 486.932
22.46000 487.837
22.47000 496.632
22.48000 505.388
22.49000 501.431
22.50000 488.767
22.51000 476.445
22.52000 474.609
22.53000 477.723
22.54000 480.701
22.55000 481.758
22.56000 482.195
22.57000 482.591
22.58000 473.749
22.59000 464.175
22.60000 456.286
22.61000 456.955
22.62000 458.821
22.63000 461.351
22.64000 466.140
22.65000 471.114
22.66000 474.630
22.67000 470.100
22.68000 466.413
22.69000 461.223
22.70000 453.660
22.71000 446.068
22.72000 446.853
22.73000 456.393
22.74000 465.886
22.75000 462.965
22.76000 451.674
22.77000 440.778
22.78000 441.602
22.79000 447.880
22.80000 453.678
22.81000 452.883
22.82000 449.990
22.83000 447.371
22.84000 453.024
22.85000 459.561
22.86000 463.663
22.87000 455.589
22.88000 445.842
22.89000 437.844
22.90000 435.692
22.91000 434.010
22.92000 432.827
22.93000 433.573
22.94000 434.196
22.95000 434.649
22.96000 434.838
22.97000 435.025
22.98000 436.777
22.99000 440.139
23.00000 443.482
23.01000 444.276
23.02000 443.362
23.03000 442.438
23.04000 441.207
23.05000 439.835
23.06000 438.835
23.07000 442.812
23.08000 448.350
23.09000 453.353
23.10000 446.799
23.11000 438.897
23.12000 432.841
23.13000 435.870
23.14000 440.124
23.15000 443.678
23.16000 444.926
23.17000 445.992
23.18000 446.738
23.19000 445.855
23.20000 445.141
23.21000 445.522
23.22000 447.584
23.23000 449.663
23.24000 445.646
23.25000 435.471
23.26000 425.355
23.27000 424.079
23.28000 428.615
23.29000 433.099
23.30000 436.138
23.31000 438.523
23.32000 440.857
23.33000 442.523
23.34000 443.983
23.35000 445.299
23.36000 438.225
23.37000 430.490
23.38000 425.690
23.39000 435.112
23.40000 446.416
23.41000 453.102
23.42000 444.793
23.43000 435.331
23.44000 428.737
23.45000 430.406
23.46000 431.893
23.47000 435.809
23.48000 443.393
23.49000 451.013
23.50000 452.436
23.51000 447.702
23.52000 442.998
23.53000 441.370
23.54000 441.750
23.55000 442.231
23.56000 445.406
23.57000 449.782
23.58000 453.774
23.59000 452.852
23.60000 450.434
23.61000 448.259
23.62000 443.810
23.63000 439.505
23.64000 436.411
23.65000 439.092
23.66000 442.524
23.67000 444.531
23.68000 441.983
23.69000 439.093
23.70000 437.089
23.71000 444.881
23.72000 451.009
23.73000 450.987
23.74000 441.823
23.75000 432.573
23.76000 428.163
23.77000 428.480
23.78000 428.794
23.79000 434.660
23.80000 443.959
23.81000 453.026
23.82000 456.128
23.83000 456.609
23.84000 456.169
23.85000 444.228
23.86000 428.837
23.87000 415.021
23.88000 415.850
23.89000 419.146
23.90000 423.479
23.91000 432.683
23.92000 442.508
23.93000 448.830
23.94000 444.109
23.95000 438.579
23.96000 434.762
23.97000 417.037
23.98000 403.362
23.99000 401.454
24.00000 416.777
24.01000 432.249
24.02000 438.029
24.03000 434.503
24.04000 431.003
24.05000 427.060
24.06000 422.906
24.07000 418.924
24.08000 419.272
24.09000 421.494
24.10000 423.627
24.11000 424.679
24.12000 425.412
24.13000 426.068
24.14000 427.547
24.15000 428.980
24.16000 428.525
24.17000 419.349
24.18000 409.081
24.19000 401.250
24.20000 400.992
24.21000 401.276
24.22000 401.470
24.23000 411.176
24.24000 418.687
24.25000 423.953
24.26000 425.980
24.27000 427.980
24.28000 424.049
24.29000 414.515
24.30000 405.057
24.31000 407.438
24.32000 417.056
24.33000 426.397
24.34000 429.021
24.35000 428.779
24.36000 428.399
24.37000 426.363
24.38000 423.846
24.39000 421.596
24.40000 428.749
24.41000 436.574
24.42000 440.779
24.43000 428.524
24.44000 414.247
24.45000 404.547
24.46000 408.859
24.47000 414.148
24.48000 417.763
24.49000 425.653
24.50000 431.658
24.51000 435.239
24.52000 435.377
24.53000 435.486
24.54000 428.137
24.55000 413.858
24.56000 399.700
24.57000 397.537
24.58000 402.674
24.59000 407.902
24.60000 415.271
24.61000 423.541
24.62000 431.262
24.63000 432.579
24.64000 432.059
24.65000 431.595
24.66000 426.864
24.67000 422.038
24.68000 417.663
24.69000 415.306
24.70000 413.192
24.71000 411.028
24.72000 408.716
24.73000 406.395
24.74000 404.816
24.75000 413.542
24.76000 420.292
24.77000 421.207
24.78000 413.962
24.79000 406.666
24.80000 407.443
24.81000 415.597
24.82000 423.677
24.83000 426.191
24.84000 425.342
24.85000 424.606
24.86000 426.455
24.87000 429.374
24.88000 431.576
24.89000 425.590
24.90000 417.289
24.91000 409.902
24.92000 410.676
24.93000 412.681
24.94000 413.103
24.95000 406.547
24.96000 399.167
24.97000 393.396
24.98000 392.412
24.99000 391.745
25.00000 391.294
25.01000 395.187
25.02000 398.183
25.03000 403.006
25.04000 410.345
25.05000 417.696
25.06000 418.172
25.07000 412.470
25.08000 406.823
25.09000 406.425
25.10000 409.113
25.11000 411.695
25.12000 411.989
25.13000 411.346
25.14000 410.740
25.15000 410.540
25.16000 410.453
25.17000 410.376
25.18000 402.463
25.19000 394.348
25.20000 389.748
25.21000 400.402
25.22000 412.824
25.23000 420.497
25.24000 414.253
25.25000 407.110
25.26000 402.300
25.27000 400.378
25.28000 399.010
25.29000 397.926
25.30000 397.227
25.31000 396.532
25.32000 398.137
25.33000 401.774
25.34000 405.374
25.35000 405.344
25.36000 403.220
25.37000 401.316
25.38000 404.108
25.39000 408.791
25.40000 413.462
25.41000 418.003
25.42000 422.509
25.43000 426.500
25.44000 420.866
25.45000 414.476
25.46000 410.032
25.47000 413.905
25.48000 418.723
25.49000 422.002
25.50000 420.839
25.51000 419.396
25.52000 418.430
25.53000 399.095
25.54000 384.383
25.55000 376.442
25.56000 377.539
25.57000 378.691
25.58000 386.924
25.59000 401.319
25.60000 415.558
25.61000 415.840
25.62000 408.191
25.63000 401.094
25.64000 405.392
25.65000 414.214
25.66000 421.549
25.67000 412.999
25.68000 400.156
25.69000 388.805
25.70000 392.790
25.71000 398.601
25.72000 404.137
25.73000 408.512
25.74000 412.758
25.75000 414.915
25.76000 411.129
25.77000 406.979
25.78000 404.212
25.79000 408.411
25.80000 411.653
25.81000 411.716
25.82000 407.599
25.83000 403.464
25.84000 400.362
25.85000 398.143
25.86000 395.950
25.87000 396.496
25.88000 398.559
25.89000 400.428
25.90000 398.408
25.91000 394.865
25.92000 392.014
25.93000 396.404
25.94000 402.720
25.95000 408.290
25.96000 409.082
25.97000 409.039
25.98000 409.352
25.99000 411.138
26.00000 413.085
26.01000 412.147
26.02000 403.116
26.03000 393.601
26.04000 387.293
26.05000 384.686
26.06000 382.828
26.07000 385.342
26.08000 393.513
26.09000 401.697
26.10000 404.386
26.11000 402.448
26.12000 400.533
26.13000 398.992
26.14000 397.695
26.15000 396.519
26.16000 397.710
26.17000 399.813
26.18000 401.520
26.19000 399.162
26.20000 395.739
26.21000 392.727
26.22000 397.909
26.23000 403.588
26.24000 406.306
26.25000 396.947
26.26000 386.296
26.27000 377.326
26.28000 373.009
26.29000 368.962
26.30000 366.293
26.31000 385.753
26.32000 400.483
26.33000 409.051
26.34000 409.770
26.35000 410.458
26.36000 409.462
26.37000 407.071
26.38000 404.710
26.39000 403.842
26.40000 403.805
26.41000 403.643
26.42000 401.112
26.43000 397.681
26.44000 394.148
26.45000 389.595
26.46000 384.779
26.47000 380.552
26.48000 388.541
26.49000 397.189
26.50000 403.914
26.51000 402.916
26.52000 401.107
26.53000 398.394
26.54000 393.216
26.55000 387.899
26.56000 384.412
26.57000 395.195
26.58000 403.363
26.59000 407.027
26.60000 405.044
26.61000 403.046
26.62000 402.654
26.63000 403.571
26.64000 404.475
26.65000 396.913
26.66000 385.048
26.67000 373.931
26.68000 376.556
26.69000 384.330
26.70000 391.757
26.71000 395.776
26.72000 398.928
26.73000 401.687
26.74000 397.324
26.75000 392.561
26.76000 389.302
26.77000 391.992
26.78000 395.293
26.79000 398.102
26.80000 399.590
26.81000 401.005
26.82000 401.928
26.83000 387.445
26.84000 376.572
26.85000 373.821
26.86000 381.095
26.87000 388.385
26.88000 391.612
26.89000 391.576
26.90000 391.542
26.91000 387.902
26.92000 382.476
26.93000 377.772
26.94000 385.963
26.95000 398.916
26.96000 410.195
26.97000 405.374
26.98000 396.518
26.99000 388.784
27.00000 380.772
27.01000 373.875
27.02000 368.285
27.03000 367.790
27.04000 367.807
27.05000 368.317
27.06000 370.128
27.07000 372.010
27.08000 373.231
27.09000 382.656
27.10000 389.682
27.11000 388.385
27.12000 376.980
27.13000 365.584
27.14000 363.869
27.15000 369.806
27.16000 375.654
27.17000 382.344
27.18000 389.268
27.19000 395.622
27.20000 392.058
27.21000 384.884
27.22000 378.604
27.23000 380.745
27.24000 384.965
27.25000 388.640
27.26000 389.240
27.27000 389.328
27.28000 387.985
27.29000 381.150
27.30000 373.775
27.31000 368.976
27.32000 370.901
27.33000 373.176
27.34000 374.644
27.35000 374.497
27.36000 374.366
27.37000 375.969
27.38000 379.646
27.39000 383.323
27.40000 386.176
27.41000 388.387
27.42000 390.563
27.43000 386.755
27.44000 380.026
27.45000 373.601
27.46000 372.322
27.47000 372.888
27.48000 374.108
27.49000 381.366
27.50000 390.092
27.51000 397.675
27.52000 393.469
27.53000 388.284
27.54000 383.872
27.55000 382.380
27.56000 381.170
27.57000 379.960
27.58000 378.750
27.59000 377.541
27.60000 376.765
27.61000 366.104
27.62000 358.198
27.63000 358.273
27.64000 367.738
27.65000 377.195
27.66000 381.236
27.67000 381.129
27.68000 381.023
27.69000 385.817
27.70000 392.905
27.71000 399.157
27.72000 391.626
27.73000 379.222
27.74000 368.612
27.75000 374.248
27.76000 383.772
27.77000 392.028
27.78000 378.161
27.79000 363.417
27.80000 354.071
27.81000 364.831
27.82000 377.491
27.83000 385.269
27.84000 380.672
27.85000 375.468
27.86000 372.148
27.87000 378.897
27.88000 383.937
27.89000 385.766
27.90000 383.879
27.91000 382.004
27.92000 383.767
27.93000 388.272
27.94000 392.700
27.95000 386.995
27.96000 376.495
27.97000 366.787
27.98000 369.814
27.99000 377.276
28.00000 383.580
28.01000 379.600
28.02000 373.197
28.03000 367.661
28.04000 373.200
28.05000 379.351
28.06000 383.993
28.07000 383.103
28.08000 381.702
28.09000 380.917
28.10000 381.672
28.11000 382.500
28.12000 383.025
28.13000 396.791
28.14000 406.943
28.15000 405.725
28.16000 391.558
28.17000 377.404
28.18000 368.318
28.19000 362.993
28.20000 357.765
28.21000 364.483
28.22000 376.754
28.23000 388.571
28.24000 393.285
28.25000 395.561
28.26000 396.577
28.27000 386.630
28.28000 374.138
28.29000 363.365
28.30000 366.426
28.31000 370.791
28.32000 374.924
28.33000 378.218
28.34000 381.435
28.35000 383.330
28.36000 381.970
28.37000 380.459
28.38000 379.506
28.39000 374.950
28.40000 371.610
28.41000 371.588
28.42000 375.285
28.43000 378.949
28.44000 376.599
28.45000 369.852
28.46000 363.232
28.47000 360.819
28.48000 360.501
28.49000 360.580
28.50000 366.729
28.51000 374.933
28.52000 382.768
28.53000 387.458
28.54000 391.430
28.55000 394.847
28.56000 386.430
28.57000 377.822
28.58000 370.166
28.59000 365.905
28.60000 361.945
28.61000 359.174
28.62000 359.290
28.63000 359.535
28.64000 359.688
28.65000 359.549
28.66000 359.445
28.67000 361.751
28.68000 366.715
28.69000 371.644
28.70000 371.103
28.71000 366.625
28.72000 362.235
28.73000 359.688
28.74000 358.102
28.75000 356.625
28.76000 356.786
28.77000 357.494
28.78000 357.843
28.79000 355.186
28.80000 351.853
28.81000 348.993
28.82000 352.226
28.83000 355.708
28.84000 358.486
28.85000 358.796
28.86000 358.894
28.87000 359.545
28.88000 361.523
28.89000 363.559
28.90000 364.828
28.91000 363.358
28.92000 362.271
28.93000 362.466
28.94000 364.054
28.95000 365.654
28.96000 369.079
28.97000 373.796
28.98000 378.417
28.99000 380.082
29.00000 380.318
29.01000 380.553
29.02000 380.787
29.03000 381.020
29.04000 380.855
29.05000 377.417
29.06000 373.254
29.07000 369.692
29.08000 366.843
29.09000 364.526
29.10000 362.025
29.11000 358.883
29.12000 355.688
29.13000 354.539
29.14000 358.215
29.15000 362.094
29.16000 364.497
29.17000 359.301
29.18000 355.491
29.19000 356.502
29.20000 362.654
29.21000 368.771
29.22000 370.294
29.23000 368.610
29.24000 366.961
29.25000 366.040
29.26000 365.485
29.27000 364.853
29.28000 363.113
29.29000 361.014
29.30000 359.284
29.31000 360.520
29.32000 362.402
29.33000 364.009
29.34000 371.113
29.35000 377.744
29.36000 379.835
29.37000 366.468
29.38000 351.822
29.39000 344.179
29.40000 352.814
29.41000 362.111
29.42000 367.838
29.43000 374.977
29.44000 380.112
29.45000 380.482
29.46000 375.852
29.47000 371.242
29.48000 369.061
29.49000 368.549
29.50000 368.048
29.51000 371.255
29.52000 375.988
29.53000 379.893
29.54000 372.375
29.55000 361.210
29.56000 351.670
29.57000 354.972
29.58000 361.030
29.59000 366.185
29.60000 373.834
29.61000 380.550
29.62000 384.956
29.63000 381.611
29.64000 377.638
29.65000 375.967
29.66000 379.569
29.67000 383.378
29.68000 385.710
29.69000 380.101
29.70000 376.018
29.71000 370.653
29.72000 363.964
29.73000 357.314
29.74000 354.825
29.75000 355.154
29.76000 355.476
29.77000 362.200
29.78000 371.456
29.79000 379.958
29.80000 378.291
29.81000 373.427
29.82000 369.754
29.83000 375.329
29.84000 382.856
29.85000 389.245
29.86000 396.262
29.87000 402.219
29.88000 406.461
29.89000 405.034
29.90000 403.159
29.91000 406.410
29.92000 421.238
29.93000 436.506
29.94000 445.797
29.95000 435.624
29.96000 428.206
29.97000 428.534
29.98000 436.716
29.99000 444.898
30.00000 452.988
30.01000 461.016
30.02000 468.852
30.03000 467.163
30.04000 461.419
30.05000 456.094
30.06000 456.264
30.07000 458.137
30.08000 459.078
30.09000 452.921
30.10000 445.290
30.11000 438.831
30.12000 444.873
30.13000 451.322
30.14000 458.756
30.15000 469.401
30.16000 480.293
30.17000 482.661
30.18000 466.052
30.19000 448.746
30.20000 438.280
30.21000 433.038
30.22000 429.341
30.23000 429.885
30.24000 434.658
30.25000 439.330
30.26000 434.434
30.27000 423.253
30.28000 412.353
30.29000 412.541
30.30000 417.453
30.31000 421.819
30.32000 419.178
30.33000 414.397
30.34000 410.091
30.35000 409.341
30.36000 409.317
30.37000 409.297
30.38000 405.722
30.39000 402.347
30.40000 400.396
30.41000 403.011
30.42000 405.971
30.43000 408.099
30.44000 408.400
30.45000 408.636
30.46000 408.778
30.47000 402.940
30.48000 398.750
30.49000 400.237
30.50000 407.289
30.51000 414.282
30.52000 416.098
30.53000 414.564
30.54000 413.070
30.55000 408.598
30.56000 403.083
30.57000 398.129
30.58000 400.222
30.59000 404.435
30.60000 407.713
30.61000 404.131
30.62000 399.168
30.63000 394.992
30.64000 395.533
30.65000 396.488
30.66000 398.371
30.67000 403.189
30.68000 408.224
30.69000 412.419
30.70000 414.797
30.71000 417.113
30.72000 418.496
30.73000 420.820
30.74000 422.474
30.75000 424.725
30.76000 427.551
30.77000 430.403
30.78000 435.454
30.79000 441.905
30.80000 448.182
30.81000 442.460
30.82000 432.053
30.83000 422.954
30.84000 429.904
30.85000 441.612
30.86000 452.014
30.87000 453.000
30.88000 452.121
30.89000 451.383
30.90000 460.406
30.91000 468.938
30.92000 476.389
30.93000 480.467
30.94000 484.303
30.95000 489.629
30.96000 498.132
30.97000 506.740
30.98000 511.846
30.99000 510.801
31.00000 510.028
31.01000 520.305
31.02000 541.058
31.03000 561.726
31.04000 575.748
31.05000 585.599
31.06000 595.173
31.07000 622.238
31.08000 655.081
31.09000 688.096
31.10000 723.162
31.11000 758.828
31.12000 796.115
31.13000 844.882
31.14000 895.886
31.15000 938.563
31.16000 1003.176
31.17000 1059.110
31.18000 1118.343
31.19000 1187.712
31.20000 1257.792
31.21000 1341.195
31.22000 1452.588
31.23000 1564.871
31.24000 1631.053
31.25000 1790.567
31.26000 1903.656
31.27000 2025.258
31.28000 2154.797
31.29000 2283.988
31.30000 2387.656
31.31000 2475.534
31.32000 2560.863
31.33000 2654.975
31.34000 2747.824
31.35000 2839.225
31.36000 2913.657
31.37000 2983.205
31.38000 3050.024
31.39000 3097.872
31.40000 3142.082
31.41000 3178.966
31.42000 3159.372
31.43000 3137.458
31.44000 3107.786
31.45000 3054.631
31.46000 2999.870
31.47000 2931.335
31.48000 2834.281
31.49000 2736.354
31.50000 2679.013
31.51000 2572.327
31.52000 2496.953
31.53000 2393.512
31.54000 2264.335
31.55000 2135.460
31.56000 2027.382
31.57000 1931.982
31.58000 1839.450
31.59000 1722.418
31.60000 1601.838
31.61000 1484.863
31.62000 1409.207
31.63000 1345.267
31.64000 1281.307
31.65000 1217.204
31.66000 1153.074
31.67000 1099.728
31.68000 1015.893
31.69000 943.502
31.70000 881.419
31.71000 850.085
31.72000 820.801
31.73000 788.784
31.74000 751.185
31.75000 713.423
31.76000 691.458
31.77000 662.476
31.78000 642.089
31.79000 623.451
31.80000 606.392
31.81000 589.318
31.82000 571.258
31.83000 552.606
31.84000 534.535
31.85000 520.080
31.86000 507.801
31.87000 496.118
31.88000 491.097
31.89000 487.937
31.90000 483.839
31.91000 473.438
31.92000 461.867
31.93000 452.271
31.94000 450.625
31.95000 450.029
31.96000 446.454
31.97000 434.119
31.98000 421.216
31.99000 412.908
32.00000 413.845
32.01000 415.043
32.02000 415.735
32.03000 404.356
32.04000 396.331
32.05000 386.212
32.06000 374.232
32.07000 362.420
32.08000 360.856
32.09000 365.356
32.10000 369.712
32.11000 369.325
32.12000 367.149
32.13000 365.488
32.14000 369.483
32.15000 375.035
32.16000 379.602
32.17000 377.683
32.18000 374.579
32.19000 372.013
32.20000 370.300
32.21000 368.968
32.22000 366.901
32.23000 362.705
32.24000 358.373
32.25000 354.152
32.26000 350.150
32.27000 346.154
32.28000 343.861
32.29000 348.212
32.30000 351.274
32.31000 351.650
32.32000 349.679
32.33000 347.801
32.34000 351.268
32.35000 357.852
32.36000 364.217
32.37000 358.548
32.38000 348.677
32.39000 339.390
32.40000 336.375
32.41000 335.061
32.42000 334.759
32.43000 341.009
32.44000 348.436
32.45000 354.558
32.46000 350.165
32.47000 345.582
32.48000 341.898
32.49000 340.785
32.50000 339.831
32.51000 338.404
32.52000 336.055
32.53000 333.682
32.54000 332.329
32.55000 337.620
32.56000 341.319
32.57000 336.907
32.58000 325.529
32.59000 314.392
32.60000 316.609
32.61000 326.498
32.62000 336.047
32.63000 333.222
32.64000 325.984
32.65000 319.633
32.66000 322.611
32.67000 328.079
32.68000 332.847
32.69000 333.153
32.70000 332.670
32.71000 332.274
32.72000 325.812
32.73000 319.956
32.74000 316.163
32.75000 318.176
32.76000 320.538
32.77000 323.978
32.78000 329.492
32.79000 335.058
32.80000 338.208
32.81000 331.436
32.82000 326.702
32.83000 325.125
32.84000 326.218
32.85000 327.294
32.86000 327.537
32.87000 327.309
32.88000 327.088
32.89000 321.330
32.90000 313.897
32.91000 307.352
32.92000 309.941
32.93000 314.933
32.94000 318.681
32.95000 314.651
32.96000 309.271
32.97000 304.863
32.98000 306.779
32.99000 308.908
33.00000 310.869
33.01000 312.366
33.02000 313.836
33.03000 312.789
33.04000 306.965
33.05000 301.027
33.06000 297.690
33.07000 304.064
33.08000 308.502
33.09000 308.671
33.10000 305.287
33.11000 302.015
33.12000 304.266
33.13000 309.597
33.14000 314.733
33.15000 312.108
33.16000 306.862
33.17000 302.084
33.18000 302.024
33.19000 303.186
33.20000 304.112
33.21000 303.584
33.22000 302.808
33.23000 302.174
33.24000 305.243
33.25000 308.074
33.26000 310.524
33.27000 311.928
33.28000 313.273
33.29000 313.536
33.30000 311.774
33.31000 309.966
33.32000 308.958
33.33000 305.594
33.34000 303.263
33.35000 301.775
33.36000 300.979
33.37000 300.236
33.38000 302.069
33.39000 305.316
33.40000 308.441
33.41000 304.665
33.42000 298.690
33.43000 293.530
33.44000 296.391
33.45000 301.301
33.46000 305.388
33.47000 304.502
33.48000 302.781
33.49000 301.380
33.50000 300.889
33.51000 300.565
33.52000 301.783
33.53000 307.157
33.54000 312.762
33.55000 314.148
33.56000 307.762
33.57000 301.206
33.58000 297.574
33.59000 308.106
33.60000 315.387
33.61000 316.948
33.62000 313.901
33.63000 310.868
33.64000 308.462
33.65000 306.396
33.66000 304.411
33.67000 299.710
33.68000 294.365
33.69000 289.533
33.70000 289.652
33.71000 291.014
33.72000 292.756
33.73000 296.752
33.74000 301.119
33.75000 304.663
33.76000 301.873
33.77000 299.076
33.78000 297.158
33.79000 297.570
33.80000 298.109
33.81000 297.511
33.82000 294.850
33.83000 292.147
33.84000 290.660
33.85000 295.993
33.86000 299.665
33.87000 299.932
33.88000 297.499
33.89000 295.158
33.90000 296.876
33.91000 300.759
33.92000 304.487
33.93000 300.601
33.94000 294.369
33.95000 289.065
33.96000 292.547
33.97000 298.205
33.98000 302.110
33.99000 295.777
34.00000 287.784
34.01000 281.318
34.02000 278.120
34.03000 275.780
34.04000 276.066
34.05000 283.223
34.06000 290.739
34.07000 295.162
34.08000 294.049
34.09000 292.826
34.10000 292.159
34.11000 286.695
34.12000 282.953
34.13000 283.887
34.14000 288.473
34.15000 293.012
34.16000 295.630
34.17000 297.238
34.18000 298.780
34.19000 296.989
34.20000 294.197
34.21000 291.582
34.22000 290.597
34.23000 290.010
34.24000 290.219
34.25000 294.996
34.26000 300.501
34.27000 304.940
34.28000 299.106
34.29000 293.559
34.30000 288.218
34.31000 283.409
34.32000 278.626
34.33000 274.960
34.34000 273.262
34.35000 271.601
34.36000 270.701
34.37000 281.833
34.38000 289.445
34.39000 290.516
34.40000 286.562
34.41000 282.755
34.42000 284.808
34.43000 289.900
34.44000 294.774
34.45000 291.002
34.46000 284.628
34.47000 279.317
34.48000 283.670
34.49000 290.344
34.50000 295.828
34.51000 294.590
34.52000 292.299
34.53000 290.457
34.54000 284.187
34.55000 278.764
34.56000 274.129
34.57000 271.499
34.58000 268.968
34.59000 269.254
34.60000 274.433
34.61000 279.701
34.62000 282.534
34.63000 284.167
34.64000 285.289
34.65000 287.865
34.66000 291.541
34.67000 295.174
34.68000 297.170
34.69000 298.330
34.70000 299.439
34.71000 295.769
34.72000 290.799
34.73000 286.433
34.74000 287.452
34.75000 289.745
34.76000 290.904
34.77000 285.764
34.78000 279.654
34.79000 274.761
34.80000 270.495
34.81000 267.091
34.82000 267.035
34.83000 275.371
34.84000 284.109
34.85000 288.094
34.86000 283.942
34.87000 279.651
34.88000 277.362
34.89000 282.104
34.90000 285.313
34.91000 282.999
34.92000 276.573
34.93000 270.360
34.94000 271.968
34.95000 277.515
34.96000 282.812
34.97000 282.009
34.98000 279.310
34.99000 276.501
35.00000 272.728
35.01000 268.730
35.02000 265.561
35.03000 266.915
35.04000 268.954
35.05000 270.582
35.06000 274.033
35.07000 276.953
35.08000 279.190
35.09000 279.736
35.10000 280.204
35.11000 278.250
35.12000 272.211
35.13000 266.106
35.14000 262.873
35.15000 260.401
35.16000 258.750
35.17000 261.890
35.18000 268.546
35.19000 275.024
35.20000 275.265
35.21000 272.412
35.22000 269.691
35.23000 268.949
35.24000 268.883
35.25000 269.020
35.26000 270.888
35.27000 273.153
35.28000 274.585
35.29000 271.536
35.30000 267.821
35.31000 264.866
35.32000 263.176
35.33000 261.904
35.34000 262.335
35.35000 266.911
35.36000 271.674
35.37000 273.826
35.38000 271.639
35.39000 269.385
35.40000 268.201
35.41000 264.079
35.42000 261.312
35.43000 263.075
35.44000 268.109
35.45000 273.107
35.46000 276.846
35.47000 279.969
35.48000 282.944
35.49000 276.932
35.50000 268.580
35.51000 261.205
35.52000 262.048
35.53000 264.746
35.54000 266.939
35.55000 266.461
35.56000 265.593
35.57000 264.905
35.58000 266.332
35.59000 267.628
35.60000 265.755
35.61000 256.276
35.62000 246.464
35.63000 242.908
35.64000 249.593
35.65000 256.426
35.66000 259.988
35.67000 274.987
35.68000 285.054
35.69000 284.155
35.70000 275.455
35.71000 266.861
35.72000 261.728
35.73000 258.262
35.74000 254.966
35.75000 258.621
35.76000 264.119
35.77000 269.049
35.78000 269.291
35.79000 268.493
35.80000 267.709
35.81000 267.002
35.82000 266.307
35.83000 265.758
35.84000 267.145
35.85000 268.392
35.86000 268.403
35.87000 265.495
35.88000 262.462
35.89000 260.539
35.90000 260.406
35.91000 260.296
35.92000 260.240
35.93000 251.835
35.94000 246.225
35.95000 248.437
35.96000 256.127
35.97000 263.694
35.98000 267.432
35.99000 269.350
36.00000 271.171
36.01000 272.276
36.02000 273.080
36.03000 274.143
36.04000 277.291
36.05000 280.895
36.06000 282.333
36.07000 272.687
36.08000 261.479
36.09000 252.655
36.10000 262.919
36.11000 272.414
36.12000 276.948
36.13000 269.915
36.14000 262.408
36.15000 259.223
36.16000 262.908
36.17000 266.681
36.18000 268.616
36.19000 258.082
36.20000 251.090
36.21000 255.189
36.22000 266.939
36.23000 278.234
36.24000 275.824
36.25000 266.996
36.26000 258.625
36.27000 256.826
36.28000 257.106
36.29000 257.503
36.30000 258.822
36.31000 260.340
36.32000 261.450
36.33000 260.506
36.34000 259.279
36.35000 258.316
36.36000 259.619
36.37000 260.808
36.38000 261.927
36.39000 262.883
36.40000 263.833
36.41000 263.947
36.42000 262.754
36.43000 261.544
36.44000 260.929
36.45000 262.644
36.46000 263.797
36.47000 265.206
36.48000 266.791
36.49000 268.265
36.50000 266.525
36.51000 263.303
36.52000 260.251
36.53000 262.875
36.54000 266.936
36.55000 270.522
36.56000 270.398
36.57000 269.489
36.58000 267.880
36.59000 262.807
36.60000 257.263
36.61000 252.929
36.62000 257.303
36.63000 261.346
36.64000 263.708
36.65000 262.264
36.66000 260.675
36.67000 259.882
36.68000 260.317
36.69000 260.766
36.70000 260.992
36.71000 265.083
36.72000 267.779
36.73000 266.372
36.74000 262.221
36.75000 258.182
36.76000 257.309
36.77000 257.875
36.78000 258.410
36.79000 262.183
36.80000 266.574
36.81000 270.750
36.82000 273.292
36.83000 275.492
36.84000 278.161
36.85000 283.117
36.86000 288.377
36.87000 292.474
36.88000 286.950
36.89000 281.955
36.90000 279.753
36.91000 283.787
36.92000 288.052
36.93000 286.807
36.94000 277.193
36.95000 267.491
36.96000 262.639
36.97000 274.031
36.98000 281.576
36.99000 284.284
37.00000 283.802
37.01000 283.353
37.02000 283.778
37.03000 284.595
37.04000 285.366
37.05000 285.004
37.06000 284.355
37.07000 283.836
37.08000 284.295
37.09000 284.955
37.10000 285.036
37.11000 282.342
37.12000 279.284
37.13000 276.911
37.14000 272.782
37.15000 269.394
37.16000 267.994
37.17000 270.970
37.18000 274.102
37.19000 273.453
37.20000 267.146
37.21000 260.785
37.22000 260.478
37.23000 266.128
37.24000 271.756
37.25000 275.430
37.26000 277.834
37.27000 280.058
37.28000 277.559
37.29000 272.974
37.30000 268.652
37.31000 270.681
37.32000 274.294
37.33000 276.989
37.34000 272.917
37.35000 267.477
37.36000 262.516
37.37000 259.817
37.38000 257.409
37.39000 255.547
37.40000 260.079
37.41000 264.050
37.42000 267.936
37.43000 271.641
37.44000 275.338
37.45000 276.983
37.46000 275.604
37.47000 274.197
37.48000 273.703
37.49000 274.093
37.50000 274.433
37.51000 270.548
37.52000 263.961
37.53000 257.556
37.54000 255.732
37.55000 255.905
37.56000 256.067
37.57000 255.589
37.58000 254.979
37.59000 254.388
37.60000 253.941
37.61000 253.523
37.62000 253.937
37.63000 258.221
37.64000 262.994
37.65000 266.670
37.66000 266.229
37.67000 265.645
37.68000 263.716
37.69000 258.911
37.70000 254.011
37.71000 253.800
37.72000 260.395
37.73000 267.046
37.74000 267.308
37.75000 261.491
37.76000 255.735
37.77000 254.827
37.78000 256.973
37.79000 259.087
37.80000 260.410
37.81000 261.394
37.82000 262.319
37.83000 262.803
37.84000 263.128
37.85000 263.660
37.86000 265.672
37.87000 267.973
37.88000 269.245
37.89000 265.803
37.90000 261.778
37.91000 258.690
37.92000 258.810
37.93000 259.085
37.94000 259.963
37.95000 262.116
37.96000 264.309
37.97000 264.057
37.98000 260.308
37.99000 256.534
38.00000 255.226
38.01000 256.227
38.02000 257.233
38.03000 258.649
38.04000 260.319
38.05000 261.880
38.06000 260.867
38.07000 258.765
38.08000 256.792
38.09000 257.628
38.10000 259.127
38.11000 260.947
38.12000 265.001
38.13000 269.486
38.14000 273.200
38.15000 273.443
38.16000 273.265
38.17000 273.130
38.18000 270.079
38.19000 267.516
38.20000 267.397
38.21000 272.358
38.22000 277.477
38.23000 282.670
38.24000 287.970
38.25000 293.270
38.26000 294.675
38.27000 292.498
38.28000 290.298
38.29000 286.576
38.30000 281.924
38.31000 277.883
38.32000 287.883
38.33000 303.740
38.34000 318.594
38.35000 320.628
38.36000 319.161
38.37000 318.888
38.38000 326.796
38.39000 336.253
38.40000 344.760
38.41000 349.053
38.42000 352.843
38.43000 355.729
38.44000 372.917
38.45000 387.200
38.46000 399.884
38.47000 409.293
38.48000 418.605
38.49000 433.998
38.50000 457.820
38.51000 481.689
38.52000 504.986
38.53000 527.744
38.54000 550.675
38.55000 585.028
38.56000 626.261
38.57000 667.110
38.58000 699.415
38.59000 728.208
38.60000 755.133
38.61000 801.592
38.62000 848.753
38.63000 892.129
38.64000 910.014
38.65000 923.150
38.66000 939.972
38.67000 972.892
38.68000 1007.693
38.69000 1034.092
38.70000 1060.010
38.71000 1080.346
38.72000 1097.757
38.73000 1109.268
38.74000 1120.611
38.75000 1126.874
38.76000 1126.203
38.77000 1125.491
38.78000 1105.755
38.79000 1069.123
38.80000 1032.557
38.81000 1000.142
38.82000 970.191
38.83000 940.407
38.84000 914.242
38.85000 889.545
38.86000 866.486
38.87000 823.936
38.88000 780.480
38.89000 738.744
38.90000 708.383
38.91000 680.105
38.92000 650.714
38.93000 616.533
38.94000 581.804
38.95000 555.562
38.96000 519.910
38.97000 491.490
38.98000 467.025
38.99000 450.427
39.00000 434.045
39.01000 420.375
39.02000 410.351
39.03000 400.351
39.04000 383.560
39.05000 360.855
39.06000 338.359
39.07000 328.183
39.08000 325.213
39.09000 322.142
39.10000 316.973
39.11000 310.966
39.12000 305.368
39.13000 297.438
39.14000 289.686
39.15000 282.620
39.16000 280.002
39.17000 278.186
39.18000 276.013
39.19000 272.332
39.20000 268.480
39.21000 265.582
39.22000 266.511
39.23000 267.424
39.24000 266.389
39.25000 261.537
39.26000 256.584
39.27000 255.273
39.28000 258.783
39.29000 262.313
39.30000 264.765
39.31000 266.283
39.32000 267.751
39.33000 266.380
39.34000 263.372
39.35000 260.445
39.36000 259.151
39.37000 258.500
39.38000 257.894
39.39000 253.310
39.40000 248.205
39.41000 244.464
39.42000 249.436
39.43000 255.952
39.44000 260.856
39.45000 259.037
39.46000 256.477
39.47000 254.558
39.48000 249.410
39.49000 245.238
39.50000 244.017
39.51000 248.492
39.52000 253.112
39.53000 254.261
39.54000 250.890
39.55000 247.502
39.56000 243.130
39.57000 237.935
39.58000 232.814
39.59000 231.686
39.60000 232.825
39.61000 234.033
39.62000 236.621
39.63000 239.744
39.64000 242.645
39.65000 241.717
39.66000 239.967
39.67000 237.930
39.68000 234.082
39.69000 229.919
39.70000 226.014
39.71000 223.170
39.72000 220.441
39.73000 218.403
39.74000 218.754
39.75000 219.138
39.76000 221.964
39.77000 229.439
39.78000 237.027
39.79000 240.538
39.80000 238.820
39.81000 237.085
39.82000 236.643
39.83000 237.279
39.84000 237.903
39.85000 237.950
39.86000 237.673
39.87000 237.269
39.88000 234.415
39.89000 230.625
39.90000 227.110
39.91000 233.840
39.92000 242.300
39.93000 249.376
39.94000 247.917
39.95000 244.995
39.96000 241.484
39.97000 235.593
39.98000 229.450
39.99000 224.882
40.00000 227.141
40.01000 229.202
40.02000 228.239
40.03000 221.603
40.04000 214.836
40.05000 212.100
40.06000 214.452
40.07000 216.818
40.08000 218.948
40.09000 220.878
40.10000 222.853
40.11000 226.972
40.12000 232.274
40.13000 237.087
40.14000 232.820
40.15000 225.129
40.16000 218.010
40.17000 219.027
40.18000 221.814
40.19000 224.754
40.20000 228.618
40.21000 232.638
40.22000 236.106
40.23000 237.376
40.24000 238.417
40.25000 239.189
40.26000 231.994
40.27000 226.064
40.28000 223.109
40.29000 225.649
40.30000 228.311
40.31000 228.379
40.32000 225.225
40.33000 222.066
40.34000 220.515
40.35000 220.266
40.36000 220.046
40.37000 221.125
40.38000 222.910
40.39000 224.634
40.40000 225.244
40.41000 225.440
40.42000 225.620
40.43000 225.262
40.44000 224.818
40.45000 224.091
40.46000 221.675
40.47000 218.981
40.48000 217.994
40.49000 223.709
40.50000 230.104
40.51000 234.820
40.52000 231.044
40.53000 227.762
40.54000 225.810
40.55000 226.279
40.56000 226.800
40.57000 228.400
40.58000 231.320
40.59000 234.239
40.60000 231.181
40.61000 223.403
40.62000 215.827
40.63000 217.115
40.64000 223.148
40.65000 228.839
40.66000 228.519
40.67000 225.996
40.68000 223.670
40.69000 218.196
40.70000 212.592
40.71000 207.938
40.72000 208.855
40.73000 210.679
40.74000 212.131
40.75000 212.144
40.76000 212.015
40.77000 211.919
40.78000 216.558
40.79000 220.336
40.80000 221.754
40.81000 218.936
40.82000 216.034
40.83000 216.460
40.84000 220.895
40.85000 225.329
40.86000 224.334
40.87000 219.115
40.88000 213.987
40.89000 212.682
40.90000 213.394
40.91000 214.155
40.92000 215.746
40.93000 217.636
40.94000 219.377
40.95000 222.223
40.96000 225.011
40.97000 226.719
40.98000 222.201
40.99000 216.687
41.00000 212.877
41.01000 215.554
41.02000 218.862
41.03000 221.281
41.04000 220.113
41.05000 219.070
41.06000 215.914
41.07000 209.022
41.08000 202.059
41.09000 200.455
41.10000 205.199
41.11000 209.944
41.12000 213.513
41.13000 216.159
41.14000 218.711
41.15000 217.483
41.16000 214.288
41.17000 211.187
41.18000 209.643
41.19000 208.653
41.20000 207.743
41.21000 213.485
41.22000 220.042
41.23000 225.120
41.24000 221.813
41.25000 217.186
41.26000 214.292
41.27000 217.899
41.28000 222.125
41.29000 225.202
41.30000 217.707
41.31000 211.532
41.32000 207.735
41.33000 208.082
41.34000 208.505
41.35000 210.118
41.36000 213.118
41.37000 216.113
41.38000 215.426
41.39000 211.966
41.40000 208.600
41.41000 208.802
41.42000 210.833
41.43000 212.632
41.44000 210.654
41.45000 207.351
41.46000 204.322
41.47000 203.261
41.48000 202.731
41.49000 202.860
41.50000 206.669
41.51000 211.047
41.52000 214.176
41.53000 212.694
41.54000 210.781
41.55000 209.395
41.56000 213.588
41.57000 217.016
41.58000 218.337
41.59000 216.038
41.60000 213.677
41.61000 210.198
41.62000 205.437
41.63000 200.688
41.64000 199.635
41.65000 201.330
41.66000 203.015
41.67000 204.299
41.68000 205.381
41.69000 206.621
41.70000 210.371
41.71000 214.987
41.72000 219.213
41.73000 221.627
41.74000 223.399
41.75000 224.214
41.76000 219.782
41.77000 214.553
41.78000 211.052
41.79000 213.840
41.80000 217.201
41.81000 219.628
41.82000 211.483
41.83000 204.860
41.84000 200.746
41.85000 200.880
41.86000 201.083
41.87000 199.248
41.88000 195.112
41.89000 190.987
41.90000 194.798
41.91000 204.374
41.92000 213.790
41.93000 217.564
41.94000 218.529
41.95000 219.117
41.96000 213.887
41.97000 206.677
41.98000 200.089
41.99000 204.683
42.00000 211.046
42.01000 217.152
42.02000 221.868
42.03000 226.377
42.04000 228.349
42.05000 221.235
42.06000 213.309
42.07000 207.614
42.08000 201.147
42.09000 196.172
42.10000 193.672
42.11000 195.297
42.12000 196.986
42.13000 198.167
42.14000 198.783
42.15000 199.396
42.16000 201.145
42.17000 203.696
42.18000 206.223
42.19000 207.948
42.20000 209.281
42.21000 210.605
42.22000 211.802
42.23000 212.955
42.24000 214.008
42.25000 207.429
42.26000 200.066
42.27000 194.920
42.28000 201.549
42.29000 209.904
42.30000 215.349
42.31000 210.520
42.32000 204.792
42.33000 200.694
42.34000 203.524
42.35000 205.918
42.36000 206.596
42.37000 204.455
42.38000 202.274
42.39000 203.757
42.40000 209.241
42.41000 214.705
42.42000 211.072
42.43000 201.045
42.44000 191.348
42.45000 192.460
42.46000 198.799
42.47000 204.697
42.48000 204.145
42.49000 201.459
42.50000 199.014
42.51000 195.585
42.52000 192.356
42.53000 190.557
42.54000 196.225
42.55000 202.968
42.56000 208.947
42.57000 212.263
42.58000 215.352
42.59000 217.552
42.60000 203.690
42.61000 192.606
42.62000 187.864
42.63000 193.388
42.64000 199.052
42.65000 200.552
42.66000 197.579
42.67000 194.618
42.68000 196.267
42.69000 201.105
42.70000 205.759
42.71000 204.631
42.72000 200.747
42.73000 197.451
42.74000 202.557
42.75000 210.403
42.76000 217.529
42.77000 211.795
42.78000 204.237
42.79000 198.582
42.80000 202.701
42.81000 208.203
42.82000 211.250
42.83000 205.887
42.84000 199.820
42.85000 195.518
42.86000 192.737
42.87000 190.670
42.88000 190.003
42.89000 191.570
42.90000 193.164
42.91000 195.990
42.92000 200.116
42.93000 204.222
42.94000 204.189
42.95000 201.324
42.96000 198.518
42.97000 197.518
42.98000 197.367
42.99000 197.332
43.00000 198.913
43.01000 201.014
43.02000 202.919
43.03000 203.227
43.04000 203.194
43.05000 203.353
43.06000 204.482
43.07000 205.746
43.08000 205.481
43.09000 200.055
43.10000 194.208
43.11000 190.081
43.12000 203.233
43.13000 213.736
43.14000 217.171
43.15000 209.504
43.16000 201.704
43.17000 199.041
43.18000 201.717
43.19000 204.380
43.20000 203.306
43.21000 199.729
43.22000 196.246
43.23000 195.476
43.24000 195.963
43.25000 196.572
43.26000 198.839
43.27000 201.632
43.28000 204.157
43.29000 202.449
43.30000 200.152
43.31000 199.027
43.32000 203.736
43.33000 209.240
43.34000 212.185
43.35000 206.613
43.36000 200.361
43.37000 195.970
43.38000 204.779
43.39000 211.836
43.40000 214.748
43.41000 211.248
43.42000 207.675
43.43000 202.496
43.44000 195.676
43.45000 188.895
43.46000 188.308
43.47000 191.831
43.48000 195.248
43.49000 195.638
43.50000 194.648
43.51000 193.886
43.52000 196.159
43.53000 199.379
43.54000 202.285
43.55000 201.251
43.56000 199.616
43.57000 198.248
43.58000 198.181
43.59000 198.289
43.60000 198.633
43.61000 199.752
43.62000 200.932
43.63000 201.756
43.64000 193.335
43.65000 186.711
43.66000 184.635
43.67000 189.490
43.68000 194.419
43.69000 199.313
43.70000 204.172
43.71000 209.002
43.72000 207.092
43.73000 200.814
43.74000 194.790
43.75000 195.686
43.76000 199.693
43.77000 203.408
43.78000 203.322
43.79000 202.068
43.80000 200.938
43.81000 201.463
43.82000 202.223
43.83000 202.217
43.84000 198.517
43.85000 194.332
43.86000 191.468
43.87000 192.868
43.88000 194.594
43.89000 195.795
43.90000 195.665
43.91000 195.531
43.92000 196.586
43.93000 199.425
43.94000 202.281
43.95000 203.621
43.96000 203.462
43.97000 203.305
43.98000 197.932
43.99000 189.293
44.00000 181.126
44.01000 185.415
44.02000 195.226
44.03000 204.217
44.04000 202.826
44.05000 198.290
44.06000 194.212
44.07000 195.026
44.08000 196.607
44.09000 197.898
44.10000 197.814
44.11000 197.554
44.12000 197.846
44.13000 199.900
44.14000 202.085
44.15000 203.598
44.16000 199.847
44.17000 196.887
44.18000 196.434
44.19000 199.690
44.20000 202.979
44.21000 203.264
44.22000 200.631
44.23000 198.017
44.24000 198.081
44.25000 199.835
44.26000 201.549
44.27000 202.209
44.28000 202.409
44.29000 202.539
44.30000 201.805
44.31000 200.814
44.32000 199.924
44.33000 200.471
44.34000 201.199
44.35000 201.637
44.36000 200.726
44.37000 199.644
44.38000 198.757
44.39000 198.484
44.40000 198.255
44.41000 198.097
44.42000 197.781
44.43000 197.539
44.44000 197.622
44.45000 198.176
44.46000 198.734
44.47000 198.192
44.48000 196.598
44.49000 195.017
44.50000 198.369
44.51000 204.730
44.52000 210.758
44.53000 208.580
44.54000 202.867
44.55000 197.635
44.56000 198.224
44.57000 200.524
44.58000 202.582
44.59000 199.606
44.60000 196.146
44.61000 193.966
44.62000 197.666
44.63000 202.097
44.64000 206.500
44.65000 210.818
44.66000 215.129
44.67000 218.085
44.68000 213.584
44.69000 210.030
44.70000 209.534
44.71000 213.424
44.72000 217.347
44.73000 218.347
44.74000 216.601
44.75000 214.870
44.76000 219.266
44.77000 227.330
44.78000 234.983
44.79000 232.819
44.80000 226.488
44.81000 220.946
44.82000 224.751
44.83000 231.263
44.84000 237.080
44.85000 239.894
44.86000 241.841
44.87000 245.209
44.88000 255.005
44.89000 265.585
44.90000 272.727
44.91000 269.393
44.92000 265.335
44.93000 262.565
44.94000 260.758
44.95000 259.429
44.96000 261.220
44.97000 267.416
44.98000 273.643
44.99000 277.215
45.00000 278.336
45.01000 279.448
45.02000 283.020
45.03000 288.005
45.04000 292.868
45.05000 294.902
45.06000 295.754
45.07000 296.618
45.08000 297.640
45.09000 298.706
45.10000 299.656
45.11000 312.798
45.12000 326.239
45.13000 337.072
45.14000 336.297
45.15000 334.133
45.16000 331.192
45.17000 325.919
45.18000 320.489
45.19000 316.802
45.20000 322.323
45.21000 326.649
45.22000 327.146
45.23000 322.318
45.24000 317.456
45.25000 315.394
45.26000 315.876
45.27000 316.352
45.28000 317.055
45.29000 317.876
45.30000 318.628
45.31000 317.820
45.32000 316.369
45.33000 314.160
45.34000 303.382
45.35000 290.194
45.36000 278.467
45.37000 279.303
45.38000 282.067
45.39000 284.009
45.40000 282.349
45.41000 280.266
45.42000 278.583
45.43000 278.083
45.44000 277.660
45.45000 277.375
45.46000 270.704
45.47000 265.600
45.48000 260.669
45.49000 255.975
45.50000 251.286
45.51000 250.198
45.52000 252.329
45.53000 254.438
45.54000 253.691
45.55000 251.294
45.56000 248.668
45.57000 241.070
45.58000 231.452
45.59000 222.653
45.60000 222.922
45.61000 225.704
45.62000 228.171
45.63000 222.397
45.64000 216.082
45.65000 211.444
45.66000 214.044
45.67000 217.477
45.68000 220.307
45.69000 221.380
45.70000 222.340
45.71000 222.986
45.72000 218.311
45.73000 214.729
45.74000 211.373
45.75000 208.323
45.76000 205.277
45.77000 206.001
45.78000 210.037
45.79000 214.031
45.80000 215.780
45.81000 216.201
45.82000 216.597
45.83000 216.444
45.84000 216.071
45.85000 215.471
45.86000 212.405
45.87000 208.665
45.88000 205.356
45.89000 202.693
45.90000 200.493
45.91000 198.357
45.92000 196.500
45.93000 194.675
45.94000 194.428
45.95000 198.718
45.96000 203.292
45.97000 206.351
45.98000 196.454
45.99000 188.862
46.00000 187.110
46.01000 193.113
46.02000 199.149
46.03000 201.823
46.04000 201.588
46.05000 201.357
46.06000 197.317
46.07000 191.222
46.08000 185.513
46.09000 187.690
46.10000 192.983
46.11000 197.558
46.12000 194.527
46.13000 189.450
46.14000 184.967
46.15000 182.822
46.16000 181.329
46.17000 179.999
46.18000 179.350
46.19000 178.778
46.20000 178.380
46.21000 178.480
46.22000 178.609
46.23000 178.696
46.24000 180.599
46.25000 182.041
46.26000 183.559
46.27000 185.179
46.28000 186.794
46.29000 185.434
46.30000 181.542
46.31000 177.696
46.32000 175.827
46.33000 175.103
46.34000 174.745
46.35000 181.648
46.36000 191.378
46.37000 199.706
46.38000 193.479
46.39000 183.396
46.40000 174.514
46.41000 175.926
46.42000 178.694
46.43000 180.920
46.44000 180.908
46.45000 180.655
46.46000 179.995
46.47000 178.204
46.48000 176.345
46.49000 175.115
46.50000 176.194
46.51000 177.032
46.52000 178.792
46.53000 181.739
46.54000 184.684
46.55000 184.313
46.56000 181.164
46.57000 178.054
46.58000 177.496
46.59000 178.348
46.60000 179.220
46.61000 180.446
46.62000 181.809
46.63000 182.985
46.64000 182.257
46.65000 181.033
46.66000 179.956
46.67000 180.867
46.68000 181.945
46.69000 182.621
46.70000 181.665
46.71000 180.537
46.72000 178.677
46.73000 174.805
46.74000 170.817
46.75000 168.193
46.76000 174.834
46.77000 179.884
46.78000 180.823
46.79000 176.553
46.80000 172.268
46.81000 169.006
46.82000 166.589
46.83000 164.203
46.84000 165.904
46.85000 169.759
46.86000 173.399
46.87000 173.003
46.88000 171.082
46.89000 169.368
46.90000 169.719
46.91000 170.600
46.92000 171.372
46.93000 168.054
46.94000 164.612
46.95000 162.822
46.96000 167.639
46.97000 173.144
46.98000 176.923
46.99000 176.023
47.00000 174.861
47.01000 174.101
47.02000 171.821
47.03000 170.120
47.04000 169.850
47.05000 171.363
47.06000 172.870
47.07000 170.095
47.08000 163.848
47.09000 157.687
47.10000 158.693
47.11000 163.469
47.12000 168.198
47.13000 172.060
47.14000 175.600
47.15000 178.517
47.16000 175.357
47.17000 170.659
47.18000 166.550
47.19000 170.115
47.20000 174.263
47.21000 177.376
47.22000 176.412
47.23000 175.033
47.24000 174.045
47.25000 174.102
47.26000 174.216
47.27000 174.291
47.28000 174.194
47.29000 174.120
47.30000 172.808
47.31000 169.974
47.32000 167.139
47.33000 164.853
47.34000 163.005
47.35000 161.185
47.36000 160.081
47.37000 159.382
47.38000 158.639
47.39000 157.102
47.40000 155.274
47.41000 153.725
47.42000 154.839
47.43000 156.617
47.44000 158.168
47.45000 160.464
47.46000 162.533
47.47000 164.045
47.48000 163.401
47.49000 162.542
47.50000 162.550
47.51000 164.845
47.52000 167.262
47.53000 168.826
47.54000 165.381
47.55000 162.786
47.56000 162.761
47.57000 165.842
47.58000 168.915
47.59000 168.096
47.60000 164.218
47.61000 160.398
47.62000 157.824
47.63000 155.967
47.64000 154.289
47.65000 155.711
47.66000 158.256
47.67000 160.769
47.68000 162.990
47.69000 165.140
47.70000 167.011
47.71000 171.247
47.72000 175.188
47.73000 177.686
47.74000 174.672
47.75000 171.120
47.76000 167.950
47.77000 165.777
47.78000 163.654
47.79000 162.288
47.80000 161.798
47.81000 161.452
47.82000 162.204
47.83000 164.261
47.84000 166.315
47.85000 166.900
47.86000 166.350
47.87000 165.808
47.88000 165.306
47.89000 164.838
47.90000 164.239
47.91000 161.428
47.92000 157.828
47.93000 155.051
47.94000 159.819
47.95000 166.412
47.96000 172.136
47.97000 165.476
47.98000 158.134
47.99000 151.605
48.00000 148.135
48.01000 144.959
48.02000 145.828
48.03000 157.051
48.04000 168.791
48.05000 176.309
48.06000 168.543
48.07000 162.681
48.08000 160.048
48.09000 161.192
48.10000 162.334
48.11000 161.870
48.12000 160.184
48.13000 158.526
48.14000 160.464
48.15000 164.127
48.16000 167.701
48.17000 169.826
48.18000 171.442
48.19000 173.169
48.20000 175.904
48.21000 178.877
48.22000 181.453
48.23000 175.896
48.24000 170.095
48.25000 165.086
48.26000 163.011
48.27000 161.211
48.28000 160.687
48.29000 163.382
48.30000 166.232
48.31000 168.048
48.32000 166.468
48.33000 165.278
48.34000 163.454
48.35000 160.902
48.36000 158.375
48.37000 161.246
48.38000 168.163
48.39000 174.959
48.40000 173.919
48.41000 169.078
48.42000 164.380
48.43000 161.942
48.44000 160.288
48.45000 158.803
48.46000 158.809
48.47000 159.164
48.48000 159.470
48.49000 157.003
48.50000 154.550
48.51000 153.601
48.52000 158.144
48.53000 163.190
48.54000 166.261
48.55000 164.421
48.56000 162.349
48.57000 161.037
48.58000 158.449
48.59000 156.557
48.60000 155.526
48.61000 155.471
48.62000 155.430
48.63000 157.659
48.64000 161.566
48.65000 165.400
48.66000 166.348
48.67000 165.870
48.68000 165.411
48.69000 165.222
48.70000 165.125
48.71000 164.897
48.72000 163.533
48.73000 161.908
48.74000 160.507
48.75000 160.177
48.76000 160.033
48.77000 158.772
48.78000 153.496
48.79000 147.860
48.80000 144.442
48.81000 146.460
48.82000 148.726
48.83000 150.153
48.84000 155.678
48.85000 159.722
48.86000 161.710
48.87000 161.408
48.88000 161.092
48.89000 158.800
48.90000 155.072
48.91000 151.415
48.92000 152.337
48.93000 155.396
48.94000 157.954
48.95000 152.947
48.96000 145.393
48.97000 138.773
48.98000 140.080
48.99000 143.188
49.00000 145.858
49.01000 153.399
49.02000 160.384
49.03000 166.009
49.04000 166.813
49.05000 167.193
49.06000 167.733
49.07000 168.662
49.08000 169.608
49.09000 170.200
49.10000 155.973
49.11000 145.545
49.12000 142.323
49.13000 146.999
49.14000 151.653
49.15000 152.425
49.16000 150.417
49.17000 148.449
49.18000 147.183
49.19000 146.292
49.20000 145.596
49.21000 147.777
49.22000 150.912
49.23000 153.873
49.24000 155.394
49.25000 156.591
49.26000 157.618
49.27000 161.048
49.28000 164.239
49.29000 165.268
49.30000 158.757
49.31000 151.597
49.32000 148.001
49.33000 152.887
49.34000 158.138
49.35000 161.404
49.36000 147.053
49.37000 136.541
49.38000 135.044
49.39000 143.268
49.40000 151.469
49.41000 156.130
49.42000 158.297
49.43000 160.418
49.44000 159.801
49.45000 157.950
49.46000 156.299
49.47000 157.528
49.48000 159.699
49.49000 161.651
49.50000 161.823
49.51000 161.603
49.52000 161.415
49.53000 161.391
49.54000 161.390
49.55000 162.084
49.56000 165.162
49.57000 168.441
49.58000 168.190
49.59000 159.653
49.60000 150.773
49.61000 145.281
49.62000 157.031
49.63000 165.637
49.64000 168.720
49.65000 165.947
49.66000 163.169
49.67000 159.948
49.68000 156.420
49.69000 152.969
49.70000 151.501
49.71000 150.990
49.72000 150.618
49.73000 152.200
49.74000 154.413
49.75000 156.441
49.76000 156.999
49.77000 157.237
49.78000 157.441
49.79000 156.094
49.80000 154.779
49.81000 153.756
49.82000 153.725
49.83000 153.775
49.84000 154.175
49.85000 155.384
49.86000 156.626
49.87000 157.389
49.88000 157.944
49.89000 158.340
49.90000 159.123
49.91000 160.311
49.92000 161.469
49.93000 159.144
49.94000 154.438
49.95000 149.838
49.96000 150.901
49.97000 154.440
49.98000 157.725
49.99000 157.547
50.00000 156.268
50.01000 155.456
50.02000 158.313
50.03000 161.952
50.04000 165.046
50.05000 159.701
50.06000 154.241
50.07000 149.877
50.08000 149.174
50.09000 148.763
50.10000 148.381
50.11000 148.060
50.12000 147.742
50.13000 147.547
50.14000 155.752
50.15000 161.690
50.16000 163.276
50.17000 160.400
50.18000 157.546
50.19000 157.060
50.20000 158.168
50.21000 159.249
50.22000 161.032
50.23000 163.044
50.24000 165.048
50.25000 166.931
50.26000 168.777
50.27000 169.893
50.28000 165.385
50.29000 159.697
50.30000 154.874
50.31000 156.101
50.32000 157.811
50.33000 159.772
50.34000 162.554
50.35000 165.400
50.36000 167.194
50.37000 166.623
50.38000 165.963
50.39000 165.562
50.40000 168.893
50.41000 171.299
50.42000 172.111
50.43000 171.314
50.44000 170.528
50.45000 170.743
50.46000 171.623
50.47000 172.482
50.48000 172.254
50.49000 171.568
50.50000 171.303
50.51000 176.533
50.52000 183.458
50.53000 189.626
50.54000 190.065
50.55000 189.320
50.56000 188.690
50.57000 192.948
50.58000 197.049
50.59000 201.395
50.60000 206.533
50.61000 211.731
50.62000 217.309
50.63000 223.728
50.64000 230.178
50.65000 234.070
50.66000 226.804
50.67000 221.551
50.68000 221.471
50.69000 226.517
50.70000 231.511
50.71000 231.759
50.72000 228.905
50.73000 226.123
50.74000 228.667
50.75000 233.354
50.76000 237.420
50.77000 233.560
50.78000 227.293
50.79000 222.847
50.80000 231.931
50.81000 243.768
50.82000 253.747
50.83000 244.198
50.84000 234.111
50.85000 227.308
50.86000 230.991
50.87000 235.458
50.88000 233.968
50.89000 219.473
50.90000 204.522
50.91000 195.558
50.92000 206.664
50.93000 214.685
50.94000 214.310
50.95000 205.752
50.96000 197.222
50.97000 191.058
50.98000 186.416
50.99000 181.897
51.00000 180.582
51.01000 180.666
51.02000 180.896
51.03000 182.938
51.04000 185.522
51.05000 187.257
51.06000 182.799
51.07000 177.101
51.08000 172.311
51.09000 171.343
51.10000 170.941
51.11000 171.543
51.12000 175.301
51.13000 179.289
51.14000 179.884
51.15000 173.179
51.16000 166.227
51.17000 162.086
51.18000 159.987
51.19000 158.513
51.20000 160.462
51.21000 165.691
51.22000 170.829
51.23000 168.624
51.24000 161.760
51.25000 155.085
51.26000 156.572
51.27000 161.342
51.28000 165.760
51.29000 165.898
51.30000 164.774
51.31000 163.351
51.32000 159.789
51.33000 155.805
51.34000 152.465
51.35000 154.785
51.36000 157.303
51.37000 158.651
51.38000 156.369
51.39000 153.829
51.40000 152.648
51.41000 154.349
51.42000 156.143
51.43000 157.206
51.44000 151.078
51.45000 146.706
51.46000 145.309
51.47000 146.716
51.48000 148.107
51.49000 148.347
51.50000 147.867
51.51000 147.400
51.52000 152.214
51.53000 158.924
51.54000 165.021
51.55000 163.819
51.56000 160.497
51.57000 157.518
51.58000 156.954
51.59000 156.859
51.60000 156.780
51.61000 152.553
51.62000 148.622
51.63000 145.848
51.64000 146.612
51.65000 147.621
51.66000 149.546
51.67000 153.384
51.68000 157.281
51.69000 159.573
51.70000 161.938
51.71000 163.605
51.72000 164.483
51.73000 164.629
51.74000 164.727
51.75000 161.378
51.76000 155.907
51.77000 150.598
51.78000 148.351
51.79000 147.438
51.80000 146.336
51.81000 143.025
51.82000 139.081
51.83000 135.727
51.84000 136.452
51.85000 137.956
51.86000 139.209
51.87000 138.046
51.88000 136.841
51.89000 136.735
51.90000 139.936
51.91000 143.361
51.92000 145.836
51.93000 146.354
51.94000 146.814
51.95000 147.082
51.96000 148.346
51.97000 149.238
51.98000 148.029
51.99000 144.904
52.00000 141.783
52.01000 138.972
52.02000 136.349
52.03000 133.805
52.04000 136.644
52.05000 141.444
52.06000 145.924
52.07000 146.780
52.08000 146.612
52.09000 146.095
52.10000 143.199
52.11000 139.856
52.12000 137.078
52.13000 136.686
52.14000 136.595
52.15000 137.724
52.16000 142.478
52.17000 147.472
52.18000 150.954
52.19000 151.369
52.20000 151.694
52.21000 151.883
52.22000 147.089
52.23000 143.705
52.24000 141.333
52.25000 139.869
52.26000 138.436
52.27000 138.898
52.28000 140.493
52.29000 142.038
52.30000 142.127
52.31000 141.650
52.32000 140.927
52.33000 137.463
52.34000 133.238
52.35000 129.738
52.36000 131.076
52.37000 133.306
52.38000 135.155
52.39000 139.022
52.40000 142.408
52.41000 144.777
52.42000 144.174
52.43000 143.379
52.44000 142.588
52.45000 141.805
52.46000 141.023
52.47000 140.572
52.48000 142.446
52.49000 143.767
52.50000 144.202
52.51000 143.855
52.52000 143.510
52.53000 143.302
52.54000 143.175
52.55000 143.052
52.56000 144.103
52.57000 145.542
52.58000 146.761
52.59000 145.592
52.60000 143.769
52.61000 142.316
52.62000 143.291
52.63000 144.708
52.64000 145.878
52.65000 142.959
52.66000 140.171
52.67000 138.934
52.68000 142.164
52.69000 145.675
52.70000 146.906
52.71000 143.640
52.72000 140.253
52.73000 138.315
52.74000 141.096
52.75000 143.054
52.76000 143.931
52.77000 143.869
52.78000 143.765
52.79000 141.258
52.80000 137.358
52.81000 133.589
52.82000 135.386
52.83000 139.160
52.84000 142.444
52.85000 140.493
52.86000 137.131
52.87000 134.790
52.88000 139.020
52.89000 144.423
52.90000 148.872
52.91000 146.735
52.92000 144.376
52.93000 142.125
52.94000 140.183
52.95000 138.259
52.96000 137.230
52.97000 137.941
52.98000 138.696
52.99000 139.125
53.00000 134.776
53.01000 131.734
53.02000 131.038
53.03000 132.343
53.04000 133.617
53.05000 133.128
53.06000 131.632
53.07000 130.189
53.08000 133.794
53.09000 139.045
53.10000 143.735
53.11000 142.576
53.12000 139.863
53.13000 138.246
53.14000 143.555
53.15000 150.081
53.16000 155.439
53.17000 151.077
53.18000 146.627
53.19000 144.087
53.20000 146.892
53.21000 150.015
53.22000 151.903
53.23000 151.426
53.24000 150.890
53.25000 150.588
53.26000 152.634
53.27000 154.058
53.28000 153.207
53.29000 150.443
53.30000 147.716
53.31000 146.905
53.32000 147.172
53.33000 147.430
53.34000 144.948
53.35000 141.624
53.36000 138.958
53.37000 143.020
53.38000 148.843
53.39000 153.731
53.40000 152.802
53.41000 150.870
53.42000 149.288
53.43000 152.676
53.44000 155.886
53.45000 158.939
53.46000 161.558
53.47000 164.152
53.48000 165.374
53.49000 164.007
53.50000 162.579
53.51000 161.779
53.52000 153.939
53.53000 148.499
53.54000 148.249
53.55000 152.292
53.56000 156.237
53.57000 155.359
53.58000 151.805
53.59000 148.382
53.60000 148.786
53.61000 150.528
53.62000 151.845
53.63000 148.909
53.64000 144.877
53.65000 141.276
53.66000 140.307
53.67000 139.786
53.68000 139.360
53.69000 141.181
53.70000 142.862
53.71000 143.466
53.72000 141.140
53.73000 138.648
53.74000 139.967
53.75000 148.373
53.76000 156.938
53.77000 161.706
53.78000 155.815
53.79000 151.719
53.80000 147.886
53.81000 144.265
53.82000 140.759
53.83000 142.611
53.84000 147.394
53.85000 151.994
53.86000 151.206
53.87000 148.580
53.88000 146.413
53.89000 148.758
53.90000 152.248
53.91000 154.563
53.92000 149.818
53.93000 143.894
53.94000 139.076
53.95000 139.768
53.96000 140.793
53.97000 142.484
53.98000 145.962
53.99000 149.539
54.00000 149.888
54.01000 144.322
54.02000 138.630
54.03000 135.484
54.04000 130.370
54.05000 126.856
54.06000 128.722
54.07000 134.899
54.08000 140.973
54.09000 142.414
54.10000 141.359
54.11000 140.345
54.12000 141.333
54.13000 142.949
54.14000 144.385
54.15000 144.094
54.16000 143.371
54.17000 142.541
54.18000 141.075
54.19000 139.504
54.20000 138.232
54.21000 134.198
54.22000 130.686
54.23000 128.664
54.24000 130.577
54.25000 132.700
54.26000 135.333
54.27000 138.886
54.28000 142.459
54.29000 144.419
54.30000 142.911
54.31000 141.869
54.32000 141.267
54.33000 141.011
54.34000 140.753
54.35000 140.387
54.36000 139.962
54.37000 139.556
54.38000 138.206
54.39000 136.625
54.40000 135.672
54.41000 140.631
54.42000 147.045
54.43000 151.594
54.44000 145.310
54.45000 137.278
54.46000 130.789
54.47000 138.689
54.48000 146.263
54.49000 150.966
54.50000 148.191
54.51000 145.028
54.52000 142.002
54.53000 139.219
54.54000 136.441
54.55000 134.928
54.56000 130.822
54.57000 128.030
54.58000 132.723
54.59000 143.229
54.60000 153.466
54.61000 152.722
54.62000 146.231
54.63000 140.012
54.64000 136.325
54.65000 133.732
54.66000 131.711
54.67000 134.971
54.68000 139.510
54.69000 143.648
54.70000 145.491
54.71000 146.969
54.72000 148.160
54.73000 148.729
54.74000 149.142
54.75000 147.800
54.76000 141.950
54.77000 135.874
54.78000 132.733
54.79000 134.743
54.80000 136.848
54.81000 137.985
54.82000 139.941
54.83000 141.281
54.84000 142.559
54.85000 143.790
54.86000 144.996
54.87000 145.226
54.88000 144.952
54.89000 144.690
54.90000 141.111
54.91000 136.687
54.92000 132.717
54.93000 132.848
54.94000 133.958
54.95000 134.906
54.96000 134.947
54.97000 134.846
54.98000 134.765
54.99000 142.430
55.00000 149.230
55.01000 153.461
55.02000 151.193
55.03000 148.608
55.04000 145.828
55.05000 142.710
55.06000 139.586
55.07000 137.911
55.08000 141.757
55.09000 144.385
55.10000 146.535
55.11000 148.324
55.12000 150.009
55.13000 147.792
55.14000 143.592
55.15000 139.578
55.16000 139.591
55.17000 140.905
55.18000 142.366
55.19000 145.132
55.20000 148.204
55.21000 150.976
55.22000 152.089
55.23000 152.948
55.24000 153.635
55.25000 150.885
55.26000 148.405
55.27000 146.294
55.28000 145.102
55.29000 143.953
55.30000 145.252
55.31000 150.720
55.32000 156.258
55.33000 159.205
55.34000 162.984
55.35000 165.543
55.36000 165.407
55.37000 163.275
55.38000 161.177
55.39000 160.357
55.40000 160.177
55.41000 160.005
55.42000 162.576
55.43000 165.835
55.44000 168.694
55.45000 168.072
55.46000 166.644
55.47000 165.881
55.48000 168.727
55.49000 172.117
55.50000 174.819
55.51000 170.886
55.52000 167.229
55.53000 166.691
55.54000 173.821
55.55000 181.304
55.56000 185.413
55.57000 183.861
55.58000 182.220
55.59000 181.353
55.60000 189.661
55.61000 195.298
55.62000 199.445
55.63000 202.505
55.64000 205.504
55.65000 206.379
55.66000 206.205
55.67000 206.039
55.68000 218.916
55.69000 234.940
55.70000 250.465
55.71000 261.758
55.72000 272.084
55.73000 282.139
55.74000 290.742
55.75000 299.130
55.76000 305.795
55.77000 319.062
55.78000 330.215
55.79000 343.142
55.80000 360.367
55.81000 377.783
55.82000 394.310
55.83000 409.368
55.84000 424.403
55.85000 432.281
55.86000 442.608
55.87000 449.659
55.88000 465.254
55.89000 486.986
55.90000 508.598
55.91000 526.224
55.92000 541.909
55.93000 556.839
55.94000 560.041
55.95000 559.392
55.96000 558.979
55.97000 560.532
55.98000 562.526
55.99000 564.524
56.00000 566.542
56.01000 568.563
56.02000 570.163
56.03000 562.455
56.04000 555.613
56.05000 550.225
56.06000 548.308
56.07000 546.541
56.08000 539.222
56.09000 522.857
56.10000 506.365
56.11000 497.793
56.12000 477.515
56.13000 463.873
56.14000 458.206
56.15000 458.180
56.16000 457.791
56.17000 445.751
56.18000 428.123
56.19000 411.368
56.20000 396.538
56.21000 383.416
56.22000 370.821
56.23000 362.550
56.24000 355.235
56.25000 346.871
56.26000 333.088
56.27000 318.531
56.28000 307.045
56.29000 300.339
56.30000 295.283
56.31000 286.146
56.32000 267.400
56.33000 248.253
56.34000 235.981
56.35000 234.741
56.36000 233.648
56.37000 233.084
56.38000 223.623
56.39000 217.271
56.40000 213.829
56.41000 212.415
56.42000 210.891
56.43000 205.954
56.44000 199.404
56.45000 193.187
56.46000 192.303
56.47000 193.078
56.48000 193.740
56.49000 193.498
56.50000 193.059
56.51000 192.303
56.52000 189.931
56.53000 187.332
56.54000 185.289
56.55000 179.189
56.56000 174.037
56.57000 170.893
56.58000 172.406
56.59000 174.108
56.60000 174.214
56.61000 171.796
56.62000 169.347
56.63000 168.095
56.64000 166.983
56.65000 166.231
56.66000 164.813
56.67000 162.937
56.68000 160.977
56.69000 156.503
56.70000 150.858
56.71000 145.508
56.72000 147.388
56.73000 151.240
56.74000 154.558
56.75000 153.659
56.76000 151.858
56.77000 149.717
56.78000 145.878
56.79000 141.806
56.80000 138.615
56.81000 138.356
56.82000 138.339
56.83000 139.684
56.84000 144.145
56.85000 148.728
56.86000 150.648
56.87000 148.419
56.88000 146.142
56.89000 144.987
56.90000 139.425
56.91000 135.748
56.92000 137.367
56.93000 142.566
56.94000 147.537
56.95000 145.967
56.96000 141.393
56.97000 137.064
56.98000 138.315
56.99000 141.077
57.00000 143.500
57.01000 143.305
57.02000 142.558
57.03000 141.582
57.04000 139.477
57.05000 137.219
57.06000 135.456
57.07000 134.001
57.08000 132.860
57.09000 131.945
57.10000 131.537
57.11000 131.149
57.12000 130.858
57.13000 130.719
57.14000 130.581
57.15000 130.511
57.16000 134.798
57.17000 137.621
57.18000 136.256
57.19000 132.105
57.20000 128.071
57.21000 127.291
57.22000 127.984
57.23000 128.640
57.24000 127.595
57.25000 126.152
57.26000 124.906
57.27000 125.147
57.28000 125.697
57.29000 126.626
57.30000 129.397
57.31000 132.412
57.32000 134.757
57.33000 132.520
57.34000 130.459
57.35000 129.699
57.36000 131.831
57.37000 134.068
57.38000 133.781
57.39000 129.677
57.40000 125.535
57.41000 125.120
57.42000 128.413
57.43000 131.697
57.44000 134.193
57.45000 136.171
57.46000 138.044
57.47000 137.078
57.48000 134.845
57.49000 132.739
57.50000 130.491
57.51000 128.390
57.52000 126.116
57.53000 122.542
57.54000 118.704
57.55000 116.611
57.56000 122.856
57.57000 130.185
57.58000 135.866
57.59000 133.660
57.60000 131.437
57.61000 129.485
57.62000 128.129
57.63000 126.794
57.64000 125.716
57.65000 125.021
57.66000 124.330
57.67000 123.057
57.68000 121.215
57.69000 119.397
57.70000 119.713
57.71000 121.406
57.72000 123.030
57.73000 122.826
57.74000 121.820
57.75000 120.871
57.76000 124.325
57.77000 128.697
57.78000 132.454
57.79000 131.713
57.80000 130.068
57.81000 128.523
57.82000 127.449
57.83000 126.434
57.84000 125.651
57.85000 126.922
57.86000 128.050
57.87000 127.781
57.88000 124.498
57.89000 121.113
57.90000 119.822
57.91000 121.604
57.92000 123.412
57.93000 123.797
57.94000 122.815
57.95000 121.831
57.96000 120.764
57.97000 119.644
57.98000 118.620
57.99000 120.016
58.00000 122.460
58.01000 124.759
58.02000 130.014
58.03000 135.613
58.04000 139.703
58.05000 132.936
58.06000 124.024
58.07000 116.864
58.08000 117.808
58.09000 119.769
58.10000 121.277
58.11000 121.689
58.12000 121.953
58.13000 123.228
58.14000 126.655
58.15000 130.152
58.16000 131.794
58.17000 130.758
58.18000 129.700
58.19000 129.049
58.20000 128.781
58.21000 128.501
58.22000 127.320
58.23000 125.573
58.24000 123.946
58.25000 125.233
58.26000 127.764
58.27000 130.142
58.28000 125.033
58.29000 118.383
58.30000 112.944
58.31000 116.060
58.32000 120.841
58.33000 125.113
58.34000 127.071
58.35000 128.744
58.36000 130.027
58.37000 129.584
58.38000 129.139
58.39000 128.468
58.40000 127.323
58.41000 126.163
58.42000 126.617
58.43000 129.364
58.44000 132.127
58.45000 132.557
58.46000 130.817
58.47000 129.061
58.48000 126.173
58.49000 122.586
58.50000 119.318
58.51000 123.530
58.52000 130.892
58.53000 137.795
58.54000 133.319
58.55000 126.268
58.56000 119.996
58.57000 119.133
58.58000 119.306
58.59000 120.155
58.60000 124.038
58.61000 128.287
58.62000 131.531
58.63000 125.610
58.64000 120.452
58.65000 116.104
58.66000 113.432
58.67000 110.811
58.68000 110.283
58.69000 112.684
58.70000 115.104
58.71000 115.693
58.72000 114.608
58.73000 113.567
58.74000 115.632
58.75000 119.584
58.76000 123.333
58.77000 122.457
58.78000 119.660
58.79000 117.043
58.80000 120.686
58.81000 125.609
58.82000 129.945
58.83000 130.286
58.84000 129.876
58.85000 128.628
58.86000 123.687
58.87000 118.308
58.88000 114.217
58.89000 119.081
58.90000 123.375
58.91000 126.716
58.92000 128.117
58.93000 129.462
58.94000 128.641
58.95000 124.834
58.96000 121.010
58.97000 118.983
58.98000 118.572
58.99000 118.188
59.00000 119.477
59.01000 121.770
59.02000 123.929
59.03000 123.141
59.04000 121.148
59.05000 119.284
59.06000 120.046
59.07000 121.401
59.08000 122.219
59.09000 119.433
59.10000 115.980
59.11000 113.189
59.12000 113.275
59.13000 113.694
59.14000 114.012
59.15000 116.003
59.16000 117.651
59.17000 118.549
59.18000 117.943
59.19000 117.294
59.20000 118.756
59.21000 123.081
59.22000 127.420
59.23000 127.532
59.24000 123.904
59.25000 120.302
59.26000 118.251
59.27000 117.116
59.28000 116.019
59.29000 115.749
59.30000 115.812
59.31000 115.870
59.32000 117.740
59.33000 119.884
59.34000 121.820
59.35000 122.382
59.36000 122.694
59.37000 122.429
59.38000 119.695
59.39000 116.680
59.40000 114.406
59.41000 114.727
59.42000 115.108
59.43000 115.686
59.44000 116.656
59.45000 117.636
59.46000 118.263
59.47000 118.418
59.48000 118.571
59.49000 119.034
59.50000 119.768
59.51000 120.492
59.52000 120.703
59.53000 120.613
59.54000 120.526
59.55000 120.484
59.56000 120.459
59.57000 120.436
59.58000 124.170
59.59000 128.467
59.60000 131.473
59.61000 126.138
59.62000 119.309
59.63000 113.814
59.64000 113.940
59.65000 114.694
59.66000 115.260
59.67000 111.281
59.68000 107.952
59.69000 106.826
59.70000 109.998
59.71000 113.281
59.72000 114.161
59.73000 111.877
59.74000 109.582
59.75000 110.354
59.76000 113.748
59.77000 117.127
59.78000 119.657
59.79000 121.700
59.80000 123.711
59.81000 125.088
59.82000 126.217
59.83000 127.266
59.84000 126.482
59.85000 125.333
59.86000 124.018
59.87000 121.654
59.88000 119.105
59.89000 117.368
59.90000 118.999
59.91000 120.999
59.92000 122.496
59.93000 122.495
59.94000 122.423
59.95000 122.002
59.96000 120.907
59.97000 119.796
59.98000 120.208
59.99000 122.595
60.00000 124.987
60.01000 124.842
60.02000 122.563
60.03000 120.316
60.04000 119.742
60.05000 120.114
60.06000 120.482
60.07000 120.787
60.08000 121.068
60.09000 121.328
60.10000 122.604
60.11000 123.995
60.12000 124.957
60.13000 123.243
60.14000 121.066
60.15000 119.607
60.16000 121.081
60.17000 122.868
60.18000 124.201
60.19000 123.510
60.20000 122.881
60.21000 122.514
60.22000 122.646
60.23000 122.791
60.24000 121.001
60.25000 116.745
60.26000 112.485
60.27000 111.423
60.28000 113.011
60.29000 114.576
60.30000 115.062
60.31000 114.946
60.32000 114.885
60.33000 115.853
60.34000 117.212
60.35000 118.472
60.36000 120.500
60.37000 122.504
60.38000 123.924
60.39000 121.767
60.40000 119.000
60.41000 116.749
60.42000 116.570
60.43000 116.609
60.44000 116.638
60.45000 115.523
60.46000 114.606
60.47000 114.860
60.48000 117.301
60.49000 119.791
60.50000 119.152
60.51000 114.584
60.52000 110.010
60.53000 110.681
60.54000 115.620
60.55000 120.512
60.56000 123.162
60.57000 124.584
60.58000 125.871
60.59000 124.691
60.60000 122.585
60.61000 120.637
60.62000 122.741
60.63000 125.559
60.64000 127.820
60.65000 126.727
60.66000 125.072
60.67000 123.090
60.68000 119.814
60.69000 116.404
60.70000 113.883
60.71000 116.621
60.72000 118.971
60.73000 119.746
60.74000 117.628
60.75000 115.447
60.76000 113.663
60.77000 112.369
60.78000 111.080
60.79000 111.410
60.80000 113.036
60.81000 114.650
60.82000 115.731
60.83000 116.522
60.84000 117.423
60.85000 120.266
60.86000 123.828
60.87000 127.117
60.88000 124.294
60.89000 120.388
60.90000 117.122
60.91000 117.652
60.92000 118.807
60.93000 119.652
60.94000 119.282
60.95000 118.789
60.96000 118.427
60.97000 110.324
60.98000 103.730
60.99000 102.818
61.00000 112.203
61.01000 121.801
61.02000 125.958
61.03000 123.495
61.04000 121.021
61.05000 120.687
61.06000 122.040
61.07000 123.357
61.08000 123.171
61.09000 122.184
61.10000 121.410
61.11000 124.345
61.12000 128.632
61.13000 132.584
61.14000 130.875
61.15000 128.092
61.16000 125.838
61.17000 126.659
61.18000 127.978
61.19000 128.987
61.20000 128.805
61.21000 128.505
61.22000 128.285
61.23000 124.370
61.24000 121.196
61.25000 119.891
61.26000 121.921
61.27000 124.018
61.28000 123.800
61.29000 120.812
61.30000 117.825
61.31000 120.318
61.32000 127.045
61.33000 133.604
61.34000 133.236
61.35000 129.231
61.36000 125.366
61.37000 123.887
61.38000 123.264
61.39000 122.691
61.40000 124.083
61.41000 125.755
61.42000 127.695
61.43000 131.168
61.44000 134.886
61.45000 137.403
61.46000 135.379
61.47000 132.916
61.48000 131.118
61.49000 143.224
61.50000 153.100
61.51000 163.990
61.52000 176.666
61.53000 189.376
61.54000 202.100
61.55000 214.842
61.56000 227.553
61.57000 243.957
61.58000 263.077
61.59000 282.119
61.60000 298.063
61.61000 312.402
61.62000 326.221
61.63000 331.431
61.64000 333.594
61.65000 335.580
61.66000 339.161
61.67000 342.697
61.68000 346.518
61.69000 351.941
61.70000 357.616
61.71000 363.277
61.72000 368.889
61.73000 374.497
61.74000 378.574
61.75000 364.229
61.76000 352.496
61.77000 335.310
61.78000 308.667
61.79000 281.855
61.80000 259.867
61.81000 243.470
61.82000 227.125
61.83000 211.170
61.84000 195.615
61.85000 180.192
61.86000 169.754
61.87000 161.857
61.88000 154.304
61.89000 152.281
61.90000 152.187
61.91000 152.101
61.92000 146.228
61.93000 139.781
61.94000 134.618
61.95000 136.571
61.96000 139.618
61.97000 141.618
61.98000 139.777
61.99000 137.580
62.00000 135.990
62.01000 130.307
62.02000 125.794
62.03000 124.927
62.04000 130.289
62.05000 135.756
62.06000 135.773
62.07000 129.575
62.08000 123.389
62.09000 124.817
62.10000 131.852
62.11000 138.709
62.12000 139.101
62.13000 136.244
62.14000 133.468
62.15000 131.951
62.16000 130.867
62.17000 129.876
62.18000 128.867
62.19000 127.966
62.20000 127.554
62.21000 129.806
62.22000 132.459
62.23000 134.206
62.24000 132.672
62.25000 130.841
62.26000 129.521
62.27000 133.217
62.28000 136.227
62.29000 137.452
62.30000 135.671
62.31000 133.842
62.32000 134.541
62.33000 138.075
62.34000 141.601
62.35000 140.575
62.36000 136.254
62.37000 131.986
62.38000 129.566
62.39000 128.063
62.40000 126.627
62.41000 126.218
62.42000 126.158
62.43000 126.103
62.44000 128.505
62.45000 131.136
62.46000 133.053
62.47000 131.139
62.48000 128.657
62.49000 127.617
62.50000 131.721
62.51000 136.281
62.52000 139.553
62.53000 134.554
62.54000 130.448
62.55000 129.766
62.56000 134.763
62.57000 139.847
62.58000 140.964
62.59000 137.702
62.60000 134.449
62.61000 133.326
62.62000 133.733
62.63000 134.171
62.64000 135.627
62.65000 137.579
62.66000 139.236
62.67000 136.490
62.68000 132.275
62.69000 128.434
62.70000 132.991
62.71000 138.704
62.72000 142.931
62.73000 139.312
62.74000 134.550
62.75000 130.449
62.76000 128.675
62.77000 127.102
62.78000 125.978
62.79000 129.597
62.80000 132.516
62.81000 135.812
62.82000 139.726
62.83000 143.649
62.84000 142.879
62.85000 137.015
62.86000 131.172
62.87000 132.281
62.88000 138.266
62.89000 144.144
62.90000 146.569
62.91000 147.334
62.92000 148.020
62.93000 147.574
62.94000 146.755
62.95000 146.011
62.96000 145.220
62.97000 144.512
62.98000 143.315
62.99000 139.581
63.00000 135.484
63.01000 133.438
63.02000 138.485
63.03000 144.134
63.04000 148.150
63.05000 148.313
63.06000 148.313
63.07000 145.835
63.08000 139.365
63.09000 132.842
63.10000 130.870
63.11000 133.759
63.12000 136.637
63.13000 139.138
63.14000 141.354
63.15000 143.388
63.16000 139.783
63.17000 133.504
63.18000 128.013
63.19000 133.693
63.20000 142.994
63.21000 151.437
63.22000 149.856
63.23000 146.530
63.24000 142.891
63.25000 137.660
63.26000 132.204
63.27000 128.480
63.28000 130.657
63.29000 133.324
63.30000 135.211
63.31000 140.042
63.32000 143.805
63.33000 145.250
63.34000 143.020
63.35000 140.743
63.36000 136.601
63.37000 130.498
63.38000 124.425
63.39000 125.882
63.40000 132.446
63.41000 138.892
63.42000 141.809
63.43000 143.077
63.44000 144.135
63.45000 142.295
63.46000 139.529
63.47000 137.023
63.48000 136.708
63.49000 136.845
63.50000 137.510
63.51000 140.831
63.52000 144.518
63.53000 147.159
63.54000 146.281
63.55000 145.118
63.56000 144.298
63.57000 144.072
63.58000 143.918
63.59000 143.804
63.60000 143.754
63.61000 143.705
63.62000 141.305
63.63000 136.475
63.64000 131.671
63.65000 133.115
63.66000 138.726
63.67000 144.161
63.68000 144.514
63.69000 142.526
63.70000 140.727
63.71000 141.488
63.72000 143.056
63.73000 144.473
63.74000 149.822
63.75000 155.260
63.76000 159.030
63.77000 154.555
63.78000 148.961
63.79000 144.785
63.80000 145.299
63.81000 146.185
63.82000 146.806
63.83000 142.775
63.84000 139.591
63.85000 140.061
63.86000 146.157
63.87000 152.314
63.88000 153.443
63.89000 149.464
63.90000 145.508
63.91000 146.543
63.92000 150.853
63.93000 155.100
63.94000 157.608
63.95000 159.327
63.96000 160.813
63.97000 159.237
63.98000 156.712
63.99000 154.433
64.00000 153.360
64.01000 152.638
64.02000 151.917
64.03000 151.203
64.04000 150.489
64.05000 150.437
64.06000 152.542
64.07000 154.813
64.08000 156.398
64.09000 153.340
64.10000 150.902
64.11000 148.932
64.12000 147.670
64.13000 146.416
64.14000 147.206
64.15000 150.035
64.16000 152.847
64.17000 154.648
64.18000 155.767
64.19000 156.798
64.20000 155.433
64.21000 152.995
64.22000 150.858
64.23000 152.591
64.24000 155.507
64.25000 158.132
64.26000 164.287
64.27000 170.316
64.28000 174.864
64.29000 172.316
64.30000 168.840
64.31000 165.508
64.32000 162.635
64.33000 159.797
64.34000 157.825
64.35000 158.647
64.36000 159.342
64.37000 160.855
64.38000 163.592
64.39000 166.340
64.40000 167.806
64.41000 168.012
64.42000 168.217
64.43000 169.700
64.44000 171.976
64.45000 173.975
64.46000 168.783
64.47000 160.419
64.48000 153.052
64.49000 158.219
64.50000 167.163
64.51000 175.197
64.52000 176.643
64.53000 176.746
64.54000 176.365
64.55000 173.703
64.56000 170.748
64.57000 167.718
64.58000 164.447
64.59000 161.158
64.60000 158.885
64.61000 164.859
64.62000 169.565
64.63000 172.423
64.64000 172.564
64.65000 172.680
64.66000 174.512
64.67000 177.999
64.68000 181.460
64.69000 182.553
64.70000 182.141
64.71000 181.706
64.72000 180.711
64.73000 179.471
64.74000 178.155
64.75000 175.893
64.76000 173.350
64.77000 171.070
64.78000 178.053
64.79000 185.758
64.80000 191.914
64.81000 190.885
64.82000 188.951
64.83000 187.171
64.84000 185.873
64.85000 184.610
64.86000 183.741
64.87000 188.869
64.88000 192.865
64.89000 194.178
64.90000 191.602
64.91000 188.994
64.92000 187.862
64.93000 188.132
64.94000 188.400
64.95000 191.629
64.96000 196.631
64.97000 201.474
64.98000 202.429
64.99000 201.718
65.00000 201.275
65.01000 204.060
65.02000 207.788
65.03000 211.123
65.04000 209.110
65.05000 206.444
65.06000 204.516
65.07000 205.961
65.08000 207.823
65.09000 210.070
65.10000 213.501
65.11000 217.016
65.12000 219.422
65.13000 217.937
65.14000 216.733
65.15000 219.839
65.16000 229.095
65.17000 238.395
65.18000 240.566
65.19000 236.080
65.20000 231.633
65.21000 235.497
65.22000 244.347
65.23000 252.756
65.24000 250.783
65.25000 244.424
65.26000 239.043
65.27000 245.130
65.28000 254.524
65.29000 262.907
65.30000 272.399
65.31000 280.848
65.32000 288.798
65.33000 294.507
65.34000 299.945
65.35000 304.698
65.36000 307.376
65.37000 309.911
65.38000 311.638
65.39000 329.921
65.40000 343.962
65.41000 355.047
65.42000 361.982
65.43000 368.888
65.44000 376.136
65.45000 383.700
65.46000 391.197
65.47000 401.129
65.48000 412.326
65.49000 423.387
65.50000 431.339
65.51000 437.996
65.52000 444.907
65.53000 454.739
65.54000 465.399
65.55000 474.892
65.56000 497.998
65.57000 520.309
65.58000 539.277
65.59000 543.441
65.60000 545.847
65.61000 552.468
65.62000 571.680
65.63000 591.734
65.64000 605.326
65.65000 659.524
65.66000 700.827
65.67000 759.392
65.68000 841.840
65.69000 924.457
65.70000 1034.401
65.71000 1169.026
65.72000 1302.380
65.73000 1453.401
65.74000 1611.748
65.75000 1769.690
65.76000 1918.670
65.77000 2063.974
65.78000 2206.875
65.79000 2322.797
65.80000 2431.173
65.81000 2527.463
65.82000 2577.387
65.83000 2613.214
65.84000 2643.732
65.85000 2651.108
65.86000 2655.786
65.87000 2659.178
65.88000 2658.783
65.89000 2658.141
65.90000 2657.708
65.91000 2576.618
65.92000 2514.585
65.93000 2424.299
65.94000 2295.523
65.95000 2166.509
65.96000 2018.994
65.97000 1855.038
65.98000 1692.730
65.99000 1521.665
66.00000 1349.199
66.01000 1178.863
66.02000 1054.281
66.03000 948.205
66.04000 844.211
66.05000 763.095
66.06000 688.282
66.07000 621.964
66.08000 586.390
66.09000 560.457
66.10000 534.393
66.11000 507.762
66.12000 481.066
66.13000 458.418
66.14000 447.510
66.15000 437.348
66.16000 430.531
66.17000 427.678
66.18000 425.640
66.19000 430.679
66.20000 445.212
66.21000 459.789
66.22000 470.089
66.23000 476.649
66.24000 483.140
66.25000 497.676
66.26000 516.474
66.27000 535.684
66.28000 563.463
66.29000 594.659
66.30000 624.857
66.31000 644.332
66.32000 660.896
66.33000 675.546
66.34000 706.818
66.35000 736.427
66.36000 761.731
66.37000 768.842
66.38000 773.914
66.39000 779.882
66.40000 788.410
66.41000 797.097
66.42000 802.895
66.43000 800.187
66.44000 798.016
66.45000 787.830
66.46000 767.058
66.47000 746.250
66.48000 734.255
66.49000 729.843
66.50000 725.479
66.51000 702.762
66.52000 670.277
66.53000 637.742
66.54000 604.185
66.55000 570.228
66.56000 537.310
66.57000 515.337
66.58000 496.290
66.59000 479.484
66.60000 462.668
66.61000 448.160
66.62000 435.169
66.63000 428.493
66.64000 422.510
66.65000 417.633
66.66000 415.872
66.67000 414.300
66.68000 413.256
66.69000 417.125
66.70000 420.077
66.71000 422.461
66.72000 424.109
66.73000 425.744
66.74000 421.732
66.75000 412.939
66.76000 404.252
66.77000 402.637
66.78000 404.970
66.79000 407.422
66.80000 412.223
66.81000 417.933
66.82000 422.822
66.83000 419.247
66.84000 413.443
66.85000 408.334
66.86000 411.157
66.87000 414.777
66.88000 416.597
66.89000 411.046
66.90000 404.700
66.91000 403.156
66.92000 414.946
66.93000 427.518
66.94000 435.822
66.95000 423.837
66.96000 414.638
66.97000 412.935
66.98000 420.828
66.99000 428.750
67.00000 433.515
67.01000 435.650
67.02000 437.758
67.03000 435.248
67.04000 430.291
67.05000 425.645
67.06000 426.936
67.07000 430.492
67.08000 434.073
67.09000 437.916
67.10000 441.827
67.11000 445.261
67.12000 441.492
67.13000 437.193
67.14000 434.301
67.15000 437.093
67.16000 440.484
67.17000 440.763
67.18000 432.528
67.19000 423.806
67.20000 418.076
67.21000 428.346
67.22000 436.174
67.23000 443.355
67.24000 449.721
67.25000 456.077
67.26000 459.634
67.27000 460.896
67.28000 462.141
67.29000 454.794
67.30000 443.048
67.31000 432.263
67.32000 439.287
67.33000 453.012
67.34000 466.130
67.35000 473.252
67.36000 478.842
67.37000 483.740
67.38000 482.263
67.39000 480.077
67.40000 478.477
67.41000 479.210
67.42000 480.183
67.43000 480.870
67.44000 480.784
67.45000 480.656
67.46000 480.572
67.47000 481.571
67.48000 482.323
67.49000 481.001
67.50000 477.110
67.51000 473.232
67.52000 476.867
67.53000 486.563
67.54000 496.123
67.55000 498.411
67.56000 496.804
67.57000 495.132
67.58000 492.298
67.59000 489.033
67.60000 486.774
67.61000 494.257
67.62000 504.191
67.63000 512.874
67.64000 515.486
67.65000 516.864
67.66000 516.428
67.67000 508.894
67.68000 500.641
67.69000 495.612
67.70000 499.154
67.71000 503.160
67.72000 505.762
67.73000 508.441
67.74000 510.406
67.75000 510.644
67.76000 508.776
67.77000 506.914
67.78000 508.671
67.79000 513.302
67.80000 517.864
67.81000 529.131
67.82000 543.543
67.83000 556.897
67.84000 551.711
67.85000 539.750
67.86000 529.431
67.87000 534.695
67.88000 543.823
67.89000 551.781
67.90000 557.517
67.91000 562.113
67.92000 566.009
67.93000 567.206
67.94000 568.135
67.95000 569.760
67.96000 573.208
67.97000 576.752
67.98000 579.042
67.99000 575.931
68.00000 573.578
68.01000 572.900
68.02000 574.234
68.03000 575.589
68.04000 581.156
68.05000 590.018
68.06000 598.743
68.07000 595.927
68.08000 587.306
68.09000 579.626
68.10000 587.999
68.11000 602.155
68.12000 614.838
68.13000 613.838
68.14000 609.497
68.15000 605.723
68.16000 599.372
68.17000 593.603
68.18000 592.345
68.19000 608.220
68.20000 625.759
68.21000 639.637
68.22000 644.057
68.23000 647.995
68.24000 650.526
68.25000 658.985
68.26000 665.237
68.27000 667.753
68.28000 665.852
68.29000 663.983
68.30000 671.743
68.31000 686.914
68.32000 701.838
68.33000 699.546
68.34000 688.677
68.35000 678.991
68.36000 688.942
68.37000 705.864
68.38000 721.212
68.39000 722.213
68.40000 719.764
68.41000 717.639
68.42000 740.732
68.43000 763.772
68.44000 781.203
68.45000 777.653
68.46000 772.109
68.47000 772.930
68.48000 789.962
68.49000 807.796
68.50000 819.193
68.51000 845.171
68.52000 864.270
68.53000 875.305
68.54000 876.959
68.55000 878.650
68.56000 891.024
68.57000 911.490
68.58000 931.608
68.59000 969.235
68.60000 1014.272
68.61000 1059.955
68.62000 1116.109
68.63000 1175.927
68.64000 1234.566
68.65000 1282.682
68.66000 1328.306
68.67000 1367.783
68.68000 1435.615
68.69000 1497.000
68.70000 1559.850
68.71000 1628.095
68.72000 1696.843
68.73000 1761.395
68.74000 1815.419
68.75000 1868.936
68.76000 1902.946
68.77000 1986.191
68.78000 2047.257
68.79000 2111.242
68.80000 2178.569
68.81000 2245.979
68.82000 2328.715
68.83000 2422.884
68.84000 2515.377
68.85000 2664.153
68.86000 2835.193
68.87000 3012.329
68.88000 3285.553
68.89000 3591.915
68.90000 3947.475
68.91000 4733.797
68.92000 5620.534
68.93000 6385.841
68.94000 8755.935
68.95000 10973.541
68.96000 13572.352
68.97000 17555.172
68.98000 21664.029
68.99000 25992.627
69.00000 30864.775
69.01000 35762.262
69.02000 38856.703
69.03000 44608.039
69.04000 48806.605
69.05000 52103.664
69.06000 54385.551
69.07000 56662.145
69.08000 58170.801
69.09000 59115.453
69.10000 60042.539
69.11000 60980.969
69.12000 61891.289
69.13000 62805.891
69.14000 63786.211
69.15000 64788.863
69.16000 65723.211
69.17000 66071.039
69.18000 66284.250
69.19000 66467.789
69.20000 64404.863
69.21000 62374.176
69.22000 59939.934
69.23000 56062.285
69.24000 52056.027
69.25000 48168.402
69.26000 44570.000
69.27000 40984.672
69.28000 38732.438
69.29000 36001.211
69.30000 34021.348
69.31000 32585.646
69.32000 31752.762
69.33000 30921.572
69.34000 30296.527
69.35000 29820.564
69.36000 29353.846
69.37000 28440.326
69.38000 27349.939
69.39000 26207.119
69.40000 24279.127
69.41000 22088.133
69.42000 19857.896
69.43000 17297.203
69.44000 14661.835
69.45000 12399.190
69.46000 10092.132
69.47000 8136.159
69.48000 6371.861
69.49000 5282.980
69.50000 4252.963
69.51000 3391.987
69.52000 2937.251
69.53000 2500.312
69.54000 2227.443
69.55000 1955.477
69.56000 1759.312
69.57000 1613.709
69.58000 1523.202
69.59000 1432.824
69.60000 1357.556
69.61000 1293.048
69.62000 1229.848
69.63000 1183.255
69.64000 1146.155
69.65000 1108.646
69.66000 1065.164
69.67000 1019.710
69.68000 976.748
69.69000 954.373
69.70000 936.578
69.71000 921.340
69.72000 878.802
69.73000 839.595
69.74000 806.493
69.75000 794.587
69.76000 784.488
69.77000 772.749
69.78000 757.125
69.79000 741.336
69.80000 731.534
69.81000 709.396
69.82000 693.342
69.83000 684.378
69.84000 683.013
69.85000 681.582
69.86000 671.203
69.87000 654.548
69.88000 638.245
69.89000 629.532
69.90000 624.632
69.91000 619.093
69.92000 604.450
69.93000 586.845
69.94000 571.331
69.95000 572.753
69.96000 577.885
69.97000 582.268
69.98000 574.049
69.99000 565.628
70.00000 558.340
