20.00000 525.501
20.01000 517.798
20.02000 508.994
20.03000 500.630
20.04000 493.999
20.05000 487.546
20.06000 482.780
20.07000 487.043
20.08000 490.731
20.09000 492.877
20.10000 492.199
20.11000 491.460
20.12000 491.760
20.13000 493.338
20.14000 494.916
20.15000 495.760
20.16000 496.015
20.17000 496.246
20.18000 495.393
20.19000 493.957
20.20000 492.766
20.21000 495.935
20.22000 500.707
20.23000 505.112
20.24000 497.533
20.25000 488.056
20.26000 480.355
20.27000 483.131
20.28000 487.623
20.29000 491.349
20.30000 492.100
20.31000 492.552
20.32000 492.885
20.33000 489.335
20.34000 486.429
20.35000 485.360
20.36000 487.605
20.37000 489.918
20.38000 484.769
20.39000 470.586
20.40000 456.410
20.41000 459.112
20.42000 475.028
20.43000 490.520
20.44000 487.925
20.45000 475.735
20.46000 464.187
20.47000 463.710
20.48000 467.250
20.49000 470.510
20.50000 477.495
20.51000 484.564
20.52000 489.903
20.53000 485.203
20.54000 478.887
20.55000 473.578
20.56000 472.121
20.57000 471.042
20.58000 470.251
20.59000 471.857
20.60000 473.192
20.61000 474.949
20.62000 477.457
20.63000 479.980
20.64000 479.932
20.65000 476.821
20.66000 473.711
20.67000 471.389
20.68000 469.686
20.69000 468.081
20.70000 470.465
20.71000 474.933
20.72000 479.243
20.73000 480.896
20.74000 481.600
20.75000 482.247
20.76000 470.978
20.77000 458.333
20.78000 448.687
20.79000 456.144
20.80000 466.309
20.81000 473.713
20.82000 470.717
20.83000 466.722
20.84000 463.808
20.85000 466.404
20.86000 468.617
20.87000 466.891
20.88000 458.263
20.89000 449.507
20.90000 445.826
20.91000 448.093
20.92000 450.365
20.93000 455.420
20.94000 462.556
20.95000 469.519
20.96000 469.707
20.97000 466.406
20.98000 463.369
20.99000 464.664
21.00000 467.485
21.01000 470.074
21.02000 473.255
21.03000 476.216
21.04000 478.607
21.05000 477.801
21.06000 476.496
21.07000 475.950
21.08000 478.218
21.09000 480.751
21.10000 482.589
21.11000 474.526
21.12000 467.956
21.13000 464.187
21.14000 465.254
21.15000 466.406
21.16000 466.806
21.17000 466.337
21.18000 465.868
21.19000 469.144
21.20000 475.191
21.21000 481.061
21.22000 480.260
21.23000 476.072
21.24000 472.252
21.25000 474.311
21.26000 478.411
21.27000 482.168
21.28000 482.247
21.29000 481.549
21.30000 480.778
21.31000 479.599
21.32000 478.358
21.33000 476.938
21.34000 474.865
21.35000 472.732
21.36000 471.190
21.37000 466.655
21.38000 463.067
21.39000 465.515
21.40000 478.230
21.41000 491.116
21.42000 492.790
21.43000 481.738
21.44000 470.708
21.45000 469.432
21.46000 475.327
21.47000 481.127
21.48000 483.482
21.49000 484.113
21.50000 484.618
21.51000 483.151
21.52000 481.008
21.53000 479.049
21.54000 486.198
21.55000 494.423
21.56000 501.134
21.57000 499.634
21.58000 496.900
21.59000 494.429
21.60000 492.906
21.61000 491.469
21.62000 490.434
21.63000 481.897
21.64000 475.096
21.65000 474.560
21.66000 484.523
21.67000 494.651
21.68000 498.394
21.69000 495.009
21.70000 491.629
21.71000 492.680
21.72000 496.922
21.73000 501.019
21.74000 500.094
21.75000 496.694
21.76000 493.353
21.77000 490.897
21.78000 488.740
21.79000 486.772
21.80000 495.472
21.81000 505.345
21.82000 513.375
21.83000 511.568
21.84000 508.310
21.85000 508.667
21.86000 521.855
21.87000 536.175
21.88000 546.435
21.89000 540.325
21.90000 535.101
21.91000 533.547
21.92000 538.056
21.93000 542.654
21.94000 543.354
21.95000 539.773
21.96000 536.203
21.97000 539.209
21.98000 546.861
21.99000 554.450
22.00000 559.986
22.01000 564.523
22.02000 568.861
22.03000 570.257
22.04000 570.676
22.05000 571.058
22.06000 583.810
22.07000 597.559
22.08000 608.542
22.09000 605.002
22.10000 599.357
22.11000 592.715
22.12000 582.589
22.13000 572.162
22.14000 564.725
22.15000 577.789
22.16000 588.425
22.17000 591.652
22.18000 582.828
22.19000 573.834
22.20000 570.256
22.21000 572.531
22.22000 574.797
22.23000 576.757
22.24000 578.481
22.25000 580.134
22.26000 579.512
22.27000 577.801
22.28000 575.662
22.29000 567.353
22.30000 557.022
22.31000 547.632
22.32000 547.691
22.33000 549.587
22.34000 549.149
22.35000 536.657
22.36000 522.449
22.37000 511.679
22.38000 512.756
22.39000 514.831
22.40000 516.305
22.41000 533.133
22.42000 546.426
22.43000 545.517
22.44000 521.845
22.45000 497.872
22.46000 488.792
22.47000 495.536
22.48000 502.253
22.49000 506.787
22.50000 509.769
22.51000 512.445
22.52000 505.686
22.53000 494.472
22.54000 483.705
22.55000 479.209
22.56000 476.738
22.57000 474.496
22.58000 471.402
22.59000 468.509
22.60000 465.223
22.61000 459.942
22.62000 454.381
22.63000 450.654
22.64000 453.150
22.65000 456.157
22.66000 458.283
22.67000 452.606
22.68000 448.056
22.69000 443.000
22.70000 437.147
22.71000 431.283
22.72000 434.314
22.73000 446.640
22.74000 458.904
22.75000 462.325
22.76000 459.718
22.77000 457.195
22.78000 457.189
22.79000 458.354
22.80000 459.361
22.81000 458.200
22.82000 456.349
22.83000 454.673
22.84000 446.623
22.85000 438.331
22.86000 431.528
22.87000 432.170
22.88000 433.834
22.89000 434.469
22.90000 431.663
22.91000 428.581
22.92000 426.412
22.93000 435.464
22.94000 442.656
22.95000 447.875
22.96000 450.025
22.97000 452.139
22.98000 450.803
22.99000 445.922
23.00000 441.068
23.01000 442.077
23.02000 446.982
23.03000 451.625
23.04000 448.806
23.05000 442.564
23.06000 436.581
23.07000 434.079
23.08000 432.667
23.09000 431.391
23.10000 430.350
23.11000 429.477
23.12000 430.364
23.13000 439.915
23.14000 450.635
23.15000 459.199
23.16000 460.662
23.17000 461.567
23.18000 462.200
23.19000 451.274
23.20000 442.681
23.21000 437.732
23.22000 438.365
23.23000 439.058
23.24000 440.195
23.25000 441.779
23.26000 443.354
23.27000 443.303
23.28000 442.185
23.29000 441.021
23.30000 438.550
23.31000 435.487
23.32000 432.741
23.33000 434.134
23.34000 436.804
23.35000 439.212
23.36000 437.034
23.37000 434.289
23.38000 432.466
23.39000 435.110
23.40000 438.345
23.41000 440.010
23.42000 436.579
23.43000 432.757
23.44000 430.093
23.45000 430.664
23.46000 431.184
23.47000 432.338
23.48000 434.449
23.49000 436.569
23.50000 435.778
23.51000 432.095
23.52000 428.436
23.53000 427.263
23.54000 427.711
23.55000 428.135
23.56000 427.933
23.57000 427.452
23.58000 427.012
23.59000 427.094
23.60000 427.335
23.61000 427.552
23.62000 426.329
23.63000 425.001
23.64000 424.609
23.65000 428.679
23.66000 433.329
23.67000 436.282
23.68000 433.803
23.69000 430.916
23.70000 428.914
23.71000 429.041
23.72000 429.192
23.73000 429.112
23.74000 428.688
23.75000 428.260
23.76000 429.156
23.77000 431.346
23.78000 433.521
23.79000 427.884
23.80000 417.373
23.81000 407.284
23.82000 408.084
23.83000 413.667
23.84000 418.864
23.85000 419.248
23.86000 418.188
23.87000 417.236
23.88000 416.410
23.89000 415.710
23.90000 415.861
23.91000 420.011
23.92000 424.671
23.93000 429.200
23.94000 433.315
23.95000 437.399
23.96000 440.218
23.97000 430.462
23.98000 422.810
23.99000 417.919
24.00000 417.070
24.01000 416.256
24.02000 418.994
24.03000 425.143
24.04000 431.247
24.05000 436.875
24.06000 442.113
24.07000 447.236
24.08000 449.488
24.09000 450.497
24.10000 450.761
24.11000 441.951
24.12000 430.459
24.13000 420.165
24.14000 421.939
24.15000 425.567
24.16000 429.141
24.17000 432.459
24.18000 435.745
24.19000 438.461
24.20000 439.402
24.21000 440.216
24.22000 440.775
24.23000 430.545
24.24000 422.608
24.25000 419.337
24.26000 422.794
24.27000 426.304
24.28000 430.159
24.29000 434.340
24.30000 438.487
24.31000 435.433
24.32000 428.005
24.33000 420.615
24.34000 414.155
24.35000 408.093
24.36000 402.691
24.37000 405.158
24.38000 409.917
24.39000 414.170
24.40000 419.048
24.41000 423.406
24.42000 426.928
24.43000 426.651
24.44000 425.909
24.45000 425.207
24.46000 424.633
24.47000 424.067
24.48000 423.680
24.49000 420.877
24.50000 418.722
24.51000 416.888
24.52000 415.511
24.53000 414.137
24.54000 412.925
24.55000 411.865
24.56000 410.814
24.57000 411.249
24.58000 412.575
24.59000 413.699
24.60000 410.110
24.61000 404.539
24.62000 399.361
24.63000 398.770
24.64000 399.495
24.65000 400.141
24.66000 402.825
24.67000 405.498
24.68000 408.101
24.69000 410.393
24.70000 412.647
24.71000 412.207
24.72000 403.637
24.73000 394.515
24.74000 388.310
24.75000 402.211
24.76000 413.046
24.77000 418.079
24.78000 414.999
24.79000 411.865
24.80000 411.554
24.81000 413.824
24.82000 416.073
24.83000 418.882
24.84000 421.969
24.85000 424.912
24.86000 424.592
24.87000 422.919
24.88000 421.585
24.89000 424.128
24.90000 427.766
24.91000 431.003
24.92000 423.243
24.93000 414.709
24.94000 408.010
24.95000 409.399
24.96000 411.744
24.97000 413.283
24.98000 412.424
24.99000 411.406
25.00000 410.717
25.01000 411.337
25.02000 411.828
25.03000 409.839
25.04000 404.435
25.05000 399.013
25.06000 397.649
25.07000 399.931
25.08000 402.191
25.09000 408.268
25.10000 416.455
25.11000 424.203
25.12000 422.294
25.13000 416.440
25.14000 410.594
25.15000 404.841
25.16000 399.115
25.17000 394.031
25.18000 403.386
25.19000 413.810
25.20000 421.325
25.21000 416.219
25.22000 409.649
25.23000 404.147
25.24000 401.771
25.25000 399.598
25.26000 398.134
25.27000 400.328
25.28000 402.036
25.29000 401.309
25.30000 397.280
25.31000 393.235
25.32000 390.829
25.33000 389.873
25.34000 388.927
25.35000 393.851
25.36000 402.054
25.37000 410.035
25.38000 413.281
25.39000 414.619
25.40000 415.283
25.41000 408.578
25.42000 399.852
25.43000 392.121
25.44000 396.840
25.45000 402.882
25.46000 407.471
25.47000 405.854
25.48000 403.532
25.49000 401.632
25.50000 400.955
25.51000 400.354
25.52000 399.952
25.53000 398.127
25.54000 396.745
25.55000 397.233
25.56000 400.219
25.57000 403.211
25.58000 401.455
25.59000 395.570
25.60000 389.749
25.61000 391.951
25.62000 398.658
25.63000 404.985
25.64000 403.482
25.65000 398.870
25.66000 394.756
25.67000 395.960
25.68000 398.600
25.69000 400.934
25.70000 404.356
25.71000 407.479
25.72000 408.397
25.73000 400.033
25.74000 390.636
25.75000 385.186
25.76000 390.977
25.77000 397.458
25.78000 401.777
25.79000 398.299
25.80000 395.575
25.81000 397.287
25.82000 404.830
25.83000 412.389
25.84000 412.195
25.85000 405.366
25.86000 398.615
25.87000 396.980
25.88000 398.244
25.89000 399.448
25.90000 399.434
25.91000 398.943
25.92000 398.362
25.93000 396.835
25.94000 395.056
25.95000 393.487
25.96000 390.784
25.97000 388.283
25.98000 386.956
25.99000 390.496
26.00000 394.568
26.01000 398.192
26.02000 400.562
26.03000 402.858
26.04000 404.380
26.05000 397.223
26.06000 391.777
26.07000 390.978
26.08000 396.192
26.09000 401.425
26.10000 403.497
26.11000 402.906
26.12000 402.322
26.13000 399.952
26.14000 396.658
26.15000 393.445
26.16000 391.810
26.17000 390.784
26.18000 389.894
26.19000 390.393
26.20000 391.257
26.21000 392.016
26.22000 391.848
26.23000 391.565
26.24000 391.740
26.25000 393.785
26.26000 396.030
26.27000 397.674
26.28000 397.654
26.29000 397.537
26.30000 397.460
26.31000 400.094
26.32000 402.083
26.33000 402.646
26.34000 401.393
26.35000 400.128
26.36000 396.396
26.37000 390.621
26.38000 384.920
26.39000 385.588
26.40000 389.686
26.41000 393.434
26.42000 390.556
26.43000 385.160
26.44000 380.412
26.45000 382.161
26.46000 385.588
26.47000 388.596
26.48000 393.450
26.49000 397.889
26.50000 399.787
26.51000 391.476
26.52000 382.094
26.53000 377.227
26.54000 384.668
26.55000 392.806
26.56000 398.143
26.57000 400.077
26.58000 401.442
26.59000 400.474
26.60000 396.583
26.61000 392.681
26.62000 388.466
26.63000 383.994
26.64000 379.582
26.65000 382.113
26.66000 388.273
26.67000 394.018
26.68000 392.135
26.69000 387.394
26.70000 382.750
26.71000 379.067
26.72000 375.627
26.73000 372.616
26.74000 365.439
26.75000 358.687
26.76000 353.999
26.77000 357.477
26.78000 361.793
26.79000 367.169
26.80000 375.390
26.81000 383.768
26.82000 389.233
26.83000 385.242
26.84000 382.163
26.85000 379.524
26.86000 377.430
26.87000 375.347
26.88000 376.637
26.89000 380.635
26.90000 384.577
26.91000 383.449
26.92000 379.695
26.93000 376.055
26.94000 374.458
26.95000 373.615
26.96000 373.122
26.97000 375.996
26.98000 379.713
26.99000 382.960
27.00000 376.876
27.01000 370.355
27.02000 366.093
27.03000 370.630
27.04000 376.054
27.05000 379.541
27.06000 377.903
27.07000 375.990
27.08000 374.749
27.09000 373.669
27.10000 372.882
27.11000 372.877
27.12000 373.825
27.13000 374.788
27.14000 379.661
27.15000 387.623
27.16000 395.467
27.17000 391.282
27.18000 381.013
27.19000 371.270
27.20000 370.673
27.21000 373.404
27.22000 376.277
27.23000 380.486
27.24000 385.026
27.25000 388.981
27.26000 391.186
27.27000 392.828
27.28000 392.570
27.29000 385.020
27.30000 376.750
27.31000 371.048
27.32000 372.044
27.33000 373.389
27.34000 374.257
27.35000 376.899
27.36000 378.854
27.37000 377.941
27.38000 373.599
27.39000 369.270
27.40000 370.366
27.41000 375.680
27.42000 380.911
27.43000 378.552
27.44000 372.411
27.45000 366.602
27.46000 366.415
27.47000 368.245
27.48000 369.912
27.49000 370.076
27.50000 369.874
27.51000 369.700
27.52000 373.992
27.53000 378.259
27.54000 380.586
27.55000 375.582
27.56000 369.871
27.57000 367.803
27.58000 375.103
27.59000 382.877
27.60000 387.865
27.61000 379.837
27.62000 373.807
27.63000 370.697
27.64000 371.021
27.65000 371.336
27.66000 368.002
27.67000 361.873
27.68000 355.844
27.69000 357.701
27.70000 363.439
27.71000 369.095
27.72000 373.391
27.73000 377.205
27.74000 380.862
27.75000 383.104
27.76000 385.007
27.77000 386.656
27.78000 380.144
27.79000 373.516
27.80000 368.133
27.81000 367.387
27.82000 367.079
27.83000 369.657
27.84000 379.551
27.85000 389.805
27.86000 396.346
27.87000 374.167
27.88000 357.664
27.89000 350.541
27.90000 354.278
27.91000 358.030
27.92000 361.787
27.93000 365.549
27.94000 369.247
27.95000 372.083
27.96000 374.401
27.97000 376.343
27.98000 372.258
27.99000 366.073
28.00000 360.693
28.01000 362.454
28.02000 365.897
28.03000 368.874
28.04000 367.012
28.05000 364.799
28.06000 362.674
28.07000 360.875
28.08000 359.106
28.09000 358.726
28.10000 361.815
28.11000 365.070
28.12000 367.135
28.13000 368.999
28.14000 370.348
28.15000 370.251
28.16000 368.504
28.17000 366.764
28.18000 366.631
28.19000 367.693
28.20000 368.735
28.21000 369.090
28.22000 369.099
28.23000 369.089
28.24000 368.766
28.25000 368.336
28.26000 368.181
28.27000 370.408
28.28000 373.188
28.29000 375.586
28.30000 375.463
28.31000 375.036
28.32000 376.512
28.33000 384.861
28.34000 393.831
28.35000 396.863
28.36000 385.270
28.37000 373.002
28.38000 365.264
28.39000 371.812
28.40000 376.718
28.41000 377.826
28.42000 374.678
28.43000 371.559
28.44000 374.066
28.45000 380.685
28.46000 387.179
28.47000 379.328
28.48000 364.919
28.49000 351.485
28.50000 352.901
28.51000 359.341
28.52000 365.587
28.53000 370.178
28.54000 374.390
28.55000 378.014
28.56000 373.463
28.57000 368.586
28.58000 365.773
28.59000 370.311
28.60000 375.500
28.61000 377.578
28.62000 372.103
28.63000 366.290
28.64000 362.644
28.65000 357.149
28.66000 353.159
28.67000 352.416
28.68000 355.253
28.69000 358.062
28.70000 356.198
28.71000 350.972
28.72000 345.849
28.73000 352.059
28.74000 363.355
28.75000 373.963
28.76000 374.345
28.77000 371.316
28.78000 368.268
28.79000 365.050
28.80000 361.795
28.81000 359.002
28.82000 364.443
28.83000 370.052
28.84000 375.089
28.85000 378.119
28.86000 380.976
28.87000 380.992
28.88000 374.214
28.89000 367.141
28.90000 362.732
28.91000 352.319
28.92000 344.751
28.93000 343.045
28.94000 347.693
28.95000 352.321
28.96000 353.661
28.97000 352.670
28.98000 351.699
28.99000 358.794
29.00000 369.341
29.01000 378.898
29.02000 374.123
29.03000 364.637
29.04000 356.688
29.05000 361.362
29.06000 368.833
29.07000 375.224
29.08000 373.712
29.09000 371.484
29.10000 368.610
29.11000 363.505
29.12000 358.210
29.13000 356.756
29.14000 364.359
29.15000 372.344
29.16000 377.291
29.17000 371.370
29.18000 367.007
29.19000 362.820
29.20000 358.820
29.21000 354.825
29.22000 351.431
29.23000 348.456
29.24000 345.545
29.25000 353.697
29.26000 366.553
29.27000 378.364
29.28000 375.394
29.29000 367.637
29.30000 360.846
29.31000 361.839
29.32000 364.529
29.33000 366.824
29.34000 364.005
29.35000 361.028
29.36000 360.175
29.37000 366.556
29.38000 373.536
29.39000 375.755
29.40000 366.903
29.41000 357.600
29.42000 351.870
29.43000 361.535
29.44000 368.609
29.45000 372.646
29.46000 373.500
29.47000 374.327
29.48000 372.024
29.49000 367.567
29.50000 363.211
29.51000 364.954
29.52000 369.356
29.53000 373.226
29.54000 369.759
29.55000 363.949
29.56000 359.028
29.57000 361.121
29.58000 364.720
29.59000 367.783
29.60000 362.187
29.61000 356.482
29.62000 353.671
29.63000 360.569
29.64000 368.252
29.65000 373.348
29.66000 372.519
29.67000 371.456
29.68000 370.805
29.69000 365.829
29.70000 362.231
29.71000 362.986
29.72000 368.231
29.73000 373.413
29.74000 371.661
29.75000 365.213
29.76000 358.915
29.77000 361.616
29.78000 368.166
29.79000 374.487
29.80000 377.731
29.81000 380.008
29.82000 381.951
29.83000 381.311
29.84000 380.125
29.85000 379.119
29.86000 386.762
29.87000 394.154
29.88000 401.023
29.89000 406.160
29.90000 411.161
29.91000 413.774
29.92000 410.997
29.93000 408.014
29.94000 406.199
29.95000 417.058
29.96000 424.913
29.97000 427.760
29.98000 425.529
29.99000 423.333
30.00000 424.631
30.01000 428.260
30.02000 431.802
30.03000 432.857
30.04000 432.788
30.05000 433.197
30.06000 439.884
30.07000 448.516
30.08000 455.409
30.09000 449.046
30.10000 439.928
30.11000 432.212
30.12000 437.294
30.13000 442.973
30.14000 446.957
30.15000 445.425
30.16000 443.467
30.17000 440.352
30.18000 434.662
30.19000 428.878
30.20000 425.380
30.21000 417.875
30.22000 412.497
30.23000 410.303
30.24000 411.282
30.25000 412.266
30.26000 413.664
30.27000 415.335
30.28000 416.964
30.29000 418.361
30.30000 419.597
30.31000 420.174
30.32000 412.295
30.33000 401.834
30.34000 393.253
30.35000 398.734
30.36000 407.092
30.37000 414.146
30.38000 408.720
30.39000 402.826
30.40000 398.309
30.41000 398.215
30.42000 398.454
30.43000 398.491
30.44000 398.084
30.45000 397.661
30.46000 397.406
30.47000 400.292
30.48000 402.364
30.49000 399.999
30.50000 393.282
30.51000 386.587
30.52000 381.866
30.53000 378.423
30.54000 375.068
30.55000 378.421
30.56000 384.434
30.57000 390.092
30.58000 391.289
30.59000 391.144
30.60000 390.782
30.61000 388.817
30.62000 386.530
30.63000 384.606
30.64000 391.027
30.65000 397.275
30.66000 401.465
30.67000 399.149
30.68000 396.355
30.69000 395.447
30.70000 398.622
30.71000 401.936
30.72000 403.915
30.73000 399.807
30.74000 396.855
30.75000 398.437
30.76000 404.388
30.77000 410.288
30.78000 411.993
30.79000 411.023
30.80000 410.079
30.81000 417.338
30.82000 427.640
30.83000 436.866
30.84000 432.910
30.85000 425.045
30.86000 418.728
30.87000 423.571
30.88000 430.624
30.89000 436.542
30.90000 434.212
30.91000 431.409
30.92000 431.430
30.93000 440.250
30.94000 449.703
30.95000 457.737
30.96000 462.746
30.97000 467.656
30.98000 470.569
30.99000 484.337
31.00000 494.140
31.01000 502.495
31.02000 509.478
31.03000 516.563
31.04000 531.547
31.05000 551.493
31.06000 570.880
31.07000 581.792
31.08000 588.716
31.09000 597.097
31.10000 622.944
31.11000 653.892
31.12000 685.472
31.13000 721.517
31.14000 758.433
31.15000 789.322
31.16000 840.942
31.17000 885.957
31.18000 936.395
31.19000 1003.489
31.20000 1071.750
31.21000 1141.627
31.22000 1214.896
31.23000 1288.274
31.24000 1331.523
31.25000 1465.759
31.26000 1560.991
31.27000 1659.742
31.28000 1761.773
31.29000 1863.839
31.30000 1968.507
31.31000 2074.784
31.32000 2177.977
31.33000 2263.663
31.34000 2337.986
31.35000 2411.198
31.36000 2471.382
31.37000 2527.815
31.38000 2584.851
31.39000 2646.070
31.40000 2708.090
31.41000 2759.833
31.42000 2726.849
31.43000 2690.995
31.44000 2656.119
31.45000 2624.208
31.46000 2592.498
31.47000 2550.991
31.48000 2489.197
31.49000 2426.782
31.50000 2390.235
31.51000 2278.377
31.52000 2199.242
31.53000 2108.001
31.54000 2005.658
31.55000 1903.291
31.56000 1799.198
31.57000 1694.054
31.58000 1592.070
31.59000 1514.132
31.60000 1449.738
31.61000 1384.078
31.62000 1303.902
31.63000 1219.609
31.64000 1138.683
31.65000 1080.746
31.66000 1027.147
31.67000 982.562
31.68000 922.808
31.69000 871.855
31.70000 821.889
31.71000 774.863
31.72000 728.033
31.73000 692.671
31.74000 680.709
31.75000 669.437
31.76000 662.880
31.77000 621.670
31.78000 592.574
31.79000 572.144
31.80000 559.531
31.81000 546.856
31.82000 530.144
31.83000 511.008
31.84000 492.466
31.85000 477.864
31.86000 465.573
31.87000 454.314
31.88000 454.635
31.89000 458.191
31.90000 461.304
31.91000 461.448
31.92000 461.042
31.93000 460.704
31.94000 438.471
31.95000 417.997
31.96000 402.739
31.97000 402.817
31.98000 403.892
31.99000 404.187
32.00000 402.913
32.01000 401.595
32.02000 400.833
32.03000 379.695
32.04000 364.809
32.05000 358.903
32.06000 360.964
32.07000 363.040
32.08000 365.986
32.09000 369.447
32.10000 372.797
32.11000 367.656
32.12000 359.557
32.13000 352.233
32.14000 353.419
32.15000 356.947
32.16000 359.916
32.17000 359.200
32.18000 357.811
32.19000 356.663
32.20000 352.040
32.21000 347.901
32.22000 344.361
32.23000 342.555
32.24000 340.859
32.25000 340.101
32.26000 341.201
32.27000 342.351
32.28000 343.012
32.29000 338.699
32.30000 335.674
32.31000 338.652
32.32000 346.872
32.33000 354.928
32.34000 353.429
32.35000 346.361
32.36000 339.527
32.37000 334.401
32.38000 330.206
32.39000 326.969
32.40000 334.023
32.41000 343.866
32.42000 351.449
32.43000 344.386
32.44000 334.693
32.45000 326.703
32.46000 335.910
32.47000 345.071
32.48000 350.441
32.49000 344.984
32.50000 338.858
32.51000 333.845
32.52000 331.006
32.53000 328.224
32.54000 326.638
32.55000 332.915
32.56000 337.311
32.57000 336.970
32.58000 332.560
32.59000 328.253
32.60000 329.621
32.61000 334.249
32.62000 338.717
32.63000 335.213
32.64000 328.962
32.65000 322.917
32.66000 319.026
32.67000 315.712
32.68000 312.972
32.69000 313.892
32.70000 315.458
32.71000 316.746
32.72000 315.356
32.73000 313.974
32.74000 314.239
32.75000 319.140
32.76000 324.320
32.77000 325.992
32.78000 320.911
32.79000 315.661
32.80000 312.690
32.81000 315.695
32.82000 317.799
32.83000 318.145
32.84000 317.007
32.85000 315.839
32.86000 313.117
32.87000 309.517
32.88000 306.044
32.89000 303.647
32.90000 301.784
32.91000 300.720
32.92000 307.882
32.93000 317.207
32.94000 324.565
32.95000 319.618
32.96000 312.533
32.97000 306.729
32.98000 310.575
32.99000 314.578
33.00000 314.672
33.01000 303.920
33.02000 292.535
33.03000 286.454
33.04000 290.439
33.05000 294.664
33.06000 297.039
33.07000 310.236
33.08000 319.410
33.09000 323.150
33.10000 322.373
33.11000 321.599
33.12000 321.012
33.13000 320.528
33.14000 320.062
33.15000 315.672
33.16000 310.142
33.17000 304.690
33.18000 300.021
33.19000 295.554
33.20000 292.081
33.21000 294.721
33.22000 298.406
33.23000 301.415
33.24000 301.610
33.25000 301.527
33.26000 302.581
33.27000 306.743
33.28000 311.082
33.29000 312.836
33.30000 309.754
33.31000 306.562
33.32000 304.781
33.33000 302.829
33.34000 301.473
33.35000 298.125
33.36000 293.145
33.37000 288.278
33.38000 288.774
33.39000 292.219
33.40000 295.533
33.41000 297.073
33.42000 297.892
33.43000 298.816
33.44000 300.780
33.45000 303.009
33.46000 305.007
33.47000 305.606
33.48000 305.969
33.49000 306.265
33.50000 304.286
33.51000 302.478
33.52000 299.730
33.53000 294.447
33.54000 289.024
33.55000 286.053
33.56000 287.600
33.57000 289.245
33.58000 290.156
33.59000 291.764
33.60000 292.881
33.61000 296.063
33.62000 300.908
33.63000 305.554
33.64000 301.157
33.65000 291.861
33.66000 282.927
33.67000 283.602
33.68000 287.568
33.69000 291.317
33.70000 292.977
33.71000 294.113
33.72000 295.350
33.73000 297.188
33.74000 299.126
33.75000 300.699
33.76000 302.223
33.77000 303.462
33.78000 302.923
33.79000 297.662
33.80000 292.148
33.81000 288.851
33.82000 289.583
33.83000 290.398
33.84000 290.846
33.85000 301.406
33.86000 308.672
33.87000 309.261
33.88000 304.556
33.89000 299.864
33.90000 295.769
33.91000 291.993
33.92000 288.369
33.93000 286.508
33.94000 285.368
33.95000 284.469
33.96000 285.840
33.97000 287.772
33.98000 289.785
33.99000 292.265
34.00000 294.820
34.01000 296.887
34.02000 298.171
34.03000 299.152
34.04000 297.990
34.05000 291.216
34.06000 284.149
34.07000 279.425
34.08000 278.894
34.09000 278.447
34.10000 278.203
34.11000 288.513
34.12000 295.581
34.13000 294.892
34.14000 288.148
34.15000 281.603
34.16000 283.329
34.17000 289.406
34.18000 295.231
34.19000 296.703
34.20000 296.615
34.21000 296.282
34.22000 293.690
34.23000 290.546
34.24000 287.397
34.25000 284.221
34.26000 281.041
34.27000 278.477
34.28000 283.625
34.29000 288.414
34.30000 290.556
34.31000 285.869
34.32000 280.835
34.33000 279.624
34.34000 285.156
34.35000 290.815
34.36000 293.881
34.37000 291.934
34.38000 290.589
34.39000 287.956
34.40000 284.334
34.41000 280.796
34.42000 280.612
34.43000 282.166
34.44000 283.653
34.45000 287.021
34.46000 290.781
34.47000 293.959
34.48000 291.847
34.49000 288.465
34.50000 285.399
34.51000 284.122
34.52000 283.126
34.53000 282.325
34.54000 290.078
34.55000 297.020
34.56000 299.783
34.57000 291.918
34.58000 283.528
34.59000 277.594
34.60000 275.930
34.61000 274.342
34.62000 273.488
34.63000 281.568
34.64000 287.088
34.65000 290.656
34.66000 292.749
34.67000 294.686
34.68000 290.713
34.69000 283.720
34.70000 277.034
34.71000 280.227
34.72000 286.411
34.73000 291.930
34.74000 291.519
34.75000 289.705
34.76000 288.086
34.77000 287.548
34.78000 287.177
34.79000 286.879
34.80000 286.236
34.81000 285.690
34.82000 283.368
34.83000 276.593
34.84000 269.605
34.85000 266.714
34.86000 270.838
34.87000 275.080
34.88000 277.344
34.89000 278.639
34.90000 279.511
34.91000 278.399
34.92000 275.808
34.93000 273.465
34.94000 280.153
34.95000 291.387
34.96000 302.115
34.97000 295.012
34.98000 282.706
34.99000 271.965
35.00000 274.904
35.01000 281.028
35.02000 286.351
35.03000 287.297
35.04000 287.582
35.05000 287.808
35.06000 284.432
35.07000 281.442
35.08000 278.858
35.09000 277.281
35.10000 275.751
35.11000 272.470
35.12000 266.234
35.13000 259.950
35.14000 256.623
35.15000 272.343
35.16000 282.977
35.17000 283.080
35.18000 275.458
35.19000 268.024
35.20000 267.176
35.21000 269.597
35.22000 271.906
35.23000 276.699
35.24000 281.928
35.25000 286.309
35.26000 283.414
35.27000 278.852
35.28000 274.630
35.29000 272.236
35.30000 270.114
35.31000 268.426
35.32000 265.214
35.33000 262.515
35.34000 260.851
35.35000 261.703
35.36000 262.669
35.37000 265.696
35.38000 272.150
35.39000 278.656
35.40000 282.074
35.41000 272.585
35.42000 266.210
35.43000 269.719
35.44000 280.367
35.45000 290.663
35.46000 289.035
35.47000 281.576
35.48000 274.474
35.49000 271.938
35.50000 271.005
35.51000 269.780
35.52000 266.103
35.53000 261.873
35.54000 258.704
35.55000 261.152
35.56000 264.420
35.57000 267.011
35.58000 269.142
35.59000 270.823
35.60000 270.905
35.61000 267.148
35.62000 263.222
35.63000 259.987
35.64000 257.881
35.65000 255.792
35.66000 254.702
35.67000 255.772
35.68000 256.494
35.69000 256.972
35.70000 257.276
35.71000 257.598
35.72000 258.466
35.73000 259.599
35.74000 260.677
35.75000 267.797
35.76000 276.223
35.77000 282.902
35.78000 275.176
35.79000 264.249
35.80000 256.075
35.81000 262.226
35.82000 270.432
35.83000 276.915
35.84000 271.986
35.85000 267.251
35.86000 263.376
35.87000 261.538
35.88000 259.786
35.89000 261.564
35.90000 269.036
35.91000 276.585
35.92000 280.489
35.93000 264.388
35.94000 253.606
35.95000 252.962
35.96000 259.417
35.97000 265.753
35.98000 268.348
35.99000 269.167
36.00000 269.943
36.01000 267.950
36.02000 265.279
36.03000 263.000
36.04000 263.893
36.05000 265.479
36.06000 267.095
36.07000 268.865
36.08000 270.656
36.09000 272.066
36.10000 267.304
36.11000 263.079
36.12000 260.828
36.13000 263.183
36.14000 265.727
36.15000 265.226
36.16000 259.888
36.17000 254.488
36.18000 251.718
36.19000 255.560
36.20000 258.142
36.21000 260.515
36.22000 262.745
36.23000 264.968
36.24000 267.032
36.25000 269.021
36.26000 270.906
36.27000 268.968
36.28000 266.053
36.29000 263.464
36.30000 263.464
36.31000 264.020
36.32000 264.176
36.33000 262.317
36.34000 260.178
36.35000 258.500
36.36000 255.844
36.37000 253.657
36.38000 254.090
36.39000 260.545
36.40000 267.239
36.41000 271.293
36.42000 271.213
36.43000 271.083
36.44000 271.017
36.45000 270.418
36.46000 269.990
36.47000 266.713
36.48000 261.500
36.49000 256.571
36.50000 259.889
36.51000 267.014
36.52000 273.759
36.53000 278.463
36.54000 282.199
36.55000 284.657
36.56000 277.162
36.57000 267.557
36.58000 259.903
36.59000 261.917
36.60000 265.245
36.61000 267.846
36.62000 266.081
36.63000 264.396
36.64000 262.221
36.65000 258.937
36.66000 255.610
36.67000 256.044
36.68000 262.278
36.69000 268.577
36.70000 271.754
36.71000 266.862
36.72000 263.597
36.73000 261.001
36.74000 258.851
36.75000 256.820
36.76000 258.123
36.77000 260.942
36.78000 263.608
36.79000 262.759
36.80000 260.974
36.81000 260.098
36.82000 266.179
36.83000 273.711
36.84000 278.271
36.85000 268.341
36.86000 256.477
36.87000 247.237
36.88000 254.426
36.89000 261.169
36.90000 266.625
36.91000 269.208
36.92000 271.686
36.93000 274.907
36.94000 279.258
36.95000 283.620
36.96000 285.802
36.97000 270.403
36.98000 260.251
36.99000 261.254
37.00000 269.609
37.01000 277.608
37.02000 275.945
37.03000 269.951
37.04000 264.292
37.05000 270.903
37.06000 280.415
37.07000 288.620
37.08000 287.009
37.09000 283.384
37.10000 279.965
37.11000 277.535
37.12000 275.236
37.13000 273.451
37.14000 278.952
37.15000 283.763
37.16000 286.457
37.17000 284.489
37.18000 282.355
37.19000 281.647
37.20000 283.073
37.21000 284.520
37.22000 281.403
37.23000 273.795
37.24000 266.219
37.25000 261.549
37.26000 258.764
37.27000 256.090
37.28000 256.301
37.29000 257.787
37.30000 259.188
37.31000 256.478
37.32000 252.861
37.33000 250.418
37.34000 256.637
37.35000 264.605
37.36000 270.561
37.37000 267.008
37.38000 262.233
37.39000 258.541
37.40000 265.021
37.41000 270.759
37.42000 274.486
37.43000 273.848
37.44000 273.060
37.45000 271.050
37.46000 267.238
37.47000 263.410
37.48000 259.638
37.49000 255.919
37.50000 252.233
37.51000 251.211
37.52000 251.894
37.53000 252.470
37.54000 250.334
37.55000 247.017
37.56000 243.894
37.57000 243.051
37.58000 242.899
37.59000 244.122
37.60000 255.292
37.61000 268.439
37.62000 278.099
37.63000 271.537
37.64000 262.930
37.65000 256.299
37.66000 256.463
37.67000 256.981
37.68000 257.590
37.69000 258.392
37.70000 259.200
37.71000 257.049
37.72000 250.603
37.73000 244.121
37.74000 242.838
37.75000 246.499
37.76000 250.114
37.77000 250.088
37.78000 247.767
37.79000 245.610
37.80000 247.480
37.81000 251.078
37.82000 254.459
37.83000 254.983
37.84000 254.697
37.85000 255.360
37.86000 262.771
37.87000 271.502
37.88000 277.868
37.89000 273.405
37.90000 267.603
37.91000 263.150
37.92000 253.497
37.93000 245.580
37.94000 241.303
37.95000 244.699
37.96000 248.340
37.97000 252.529
37.98000 257.498
37.99000 262.473
38.00000 264.148
38.01000 262.735
38.02000 261.325
38.03000 260.166
38.04000 259.161
38.05000 258.121
38.06000 256.223
38.07000 253.964
38.08000 251.843
38.09000 256.490
38.10000 262.503
38.11000 267.740
38.12000 267.553
38.13000 266.322
38.14000 265.300
38.15000 265.215
38.16000 265.245
38.17000 265.267
38.18000 260.362
38.19000 256.226
38.20000 255.815
38.21000 263.140
38.22000 270.704
38.23000 278.589
38.24000 286.925
38.25000 295.264
38.26000 295.027
38.27000 286.906
38.28000 278.919
38.29000 280.334
38.30000 287.498
38.31000 294.445
38.32000 296.402
38.33000 296.278
38.34000 296.161
38.35000 296.853
38.36000 297.691
38.37000 298.542
38.38000 299.470
38.39000 300.414
38.40000 301.468
38.41000 303.011
38.42000 304.612
38.43000 305.831
38.44000 314.996
38.45000 322.629
38.46000 332.974
38.47000 348.870
38.48000 364.931
38.49000 379.901
38.50000 393.361
38.51000 406.806
38.52000 427.075
38.53000 453.499
38.54000 479.829
38.55000 500.015
38.56000 516.499
38.57000 533.496
38.58000 561.895
38.59000 594.981
38.60000 625.922
38.61000 666.689
38.62000 706.210
38.63000 745.166
38.64000 780.321
38.65000 814.767
38.66000 846.996
38.67000 869.540
38.68000 890.952
38.69000 907.194
38.70000 919.920
38.71000 929.736
38.72000 946.883
38.73000 978.819
38.74000 1011.177
38.75000 1029.816
38.76000 1029.726
38.77000 1029.528
38.78000 1016.584
38.79000 992.320
38.80000 968.061
38.81000 944.106
38.82000 920.331
38.83000 896.712
38.84000 876.464
38.85000 857.583
38.86000 839.955
38.87000 808.785
38.88000 777.136
38.89000 744.228
38.90000 702.985
38.91000 660.214
38.92000 620.845
38.93000 596.107
38.94000 573.044
38.95000 555.618
38.96000 535.439
38.97000 519.480
38.98000 498.060
38.99000 465.778
39.00000 433.198
39.01000 407.356
39.02000 390.574
39.03000 373.848
39.04000 359.076
39.05000 346.035
39.06000 333.031
39.07000 322.239
39.08000 312.739
39.09000 303.510
39.10000 299.948
39.11000 298.651
39.12000 297.441
39.13000 290.355
39.14000 282.495
39.15000 275.876
39.16000 277.328
39.17000 280.235
39.18000 280.713
39.19000 270.909
39.20000 259.949
39.21000 251.700
39.22000 252.141
39.23000 252.907
39.24000 252.335
39.25000 249.138
39.26000 245.872
39.27000 245.454
39.28000 248.804
39.29000 252.169
39.30000 257.065
39.31000 263.268
39.32000 269.229
39.33000 261.614
39.34000 246.177
39.35000 231.700
39.36000 236.726
39.37000 249.431
39.38000 261.252
39.39000 259.476
39.40000 254.579
39.41000 249.442
39.42000 242.770
39.43000 235.825
39.44000 231.446
39.45000 237.762
39.46000 245.257
39.47000 250.875
39.48000 253.944
39.49000 256.220
39.50000 254.064
39.51000 243.349
39.52000 232.418
39.53000 227.675
39.54000 230.995
39.55000 234.346
39.56000 236.675
39.57000 238.133
39.58000 239.525
39.59000 237.362
39.60000 233.182
39.61000 229.441
39.62000 234.354
39.63000 242.625
39.64000 250.308
39.65000 242.477
39.66000 231.720
39.67000 222.878
39.68000 226.067
39.69000 231.353
39.70000 236.333
39.71000 240.056
39.72000 243.644
39.73000 246.322
39.74000 240.415
39.75000 235.417
39.76000 230.999
39.77000 227.685
39.78000 224.397
39.79000 224.713
39.80000 229.654
39.81000 234.606
39.82000 235.991
39.83000 234.402
39.84000 232.853
39.85000 233.353
39.86000 234.998
39.87000 236.518
39.88000 235.637
39.89000 233.839
39.90000 232.171
39.91000 234.072
39.92000 236.619
39.93000 238.083
39.94000 232.861
39.95000 226.493
39.96000 221.027
39.97000 219.206
39.98000 217.770
39.99000 216.703
40.00000 215.783
40.01000 215.073
40.02000 218.759
40.03000 230.689
40.04000 242.809
40.05000 248.692
40.06000 246.700
40.07000 244.684
40.08000 241.206
40.09000 236.544
40.10000 231.937
40.11000 230.043
40.12000 229.643
40.13000 229.276
40.14000 229.526
40.15000 230.007
40.16000 230.452
40.17000 229.045
40.18000 227.354
40.19000 226.132
40.20000 227.750
40.21000 229.846
40.22000 231.295
40.23000 230.165
40.24000 228.767
40.25000 227.732
40.26000 225.755
40.27000 224.180
40.28000 222.586
40.29000 220.958
40.30000 219.329
40.31000 220.302
40.32000 224.510
40.33000 228.721
40.34000 228.674
40.35000 225.198
40.36000 221.775
40.37000 220.785
40.38000 221.116
40.39000 221.471
40.40000 222.254
40.41000 223.194
40.42000 224.064
40.43000 227.636
40.44000 231.454
40.45000 234.520
40.46000 233.105
40.47000 230.947
40.48000 227.847
40.49000 221.049
40.50000 213.876
40.51000 208.586
40.52000 217.670
40.53000 225.310
40.54000 228.928
40.55000 225.219
40.56000 221.355
40.57000 218.133
40.58000 215.696
40.59000 213.266
40.60000 211.746
40.61000 210.954
40.62000 210.236
40.63000 212.752
40.64000 216.999
40.65000 221.050
40.66000 221.667
40.67000 221.026
40.68000 220.434
40.69000 221.255
40.70000 222.305
40.71000 223.272
40.72000 223.753
40.73000 224.154
40.74000 224.018
40.75000 221.800
40.76000 219.376
40.77000 217.595
40.78000 213.049
40.79000 209.422
40.80000 207.872
40.81000 210.050
40.82000 212.303
40.83000 216.072
40.84000 221.664
40.85000 227.250
40.86000 228.367
40.87000 225.996
40.88000 223.666
40.89000 223.088
40.90000 223.434
40.91000 223.740
40.92000 223.349
40.93000 222.708
40.94000 222.117
40.95000 214.406
40.96000 205.951
40.97000 199.529
40.98000 204.829
40.99000 212.006
41.00000 218.042
41.01000 219.736
41.02000 221.006
41.03000 221.935
41.04000 219.679
41.05000 217.812
41.06000 216.334
41.07000 215.545
41.08000 214.769
41.09000 214.810
41.10000 215.820
41.11000 216.829
41.12000 217.016
41.13000 216.570
41.14000 216.039
41.15000 212.092
41.16000 206.368
41.17000 201.100
41.18000 203.447
41.19000 208.502
41.20000 213.148
41.21000 214.723
41.22000 215.469
41.23000 216.147
41.24000 216.442
41.25000 216.677
41.26000 217.226
41.27000 218.951
41.28000 220.788
41.29000 222.125
41.30000 218.783
41.31000 216.030
41.32000 214.365
41.33000 214.595
41.34000 214.860
41.35000 214.431
41.36000 213.194
41.37000 211.959
41.38000 212.833
41.39000 215.293
41.40000 217.611
41.41000 214.481
41.42000 208.561
41.43000 203.044
41.44000 204.096
41.45000 207.451
41.46000 210.528
41.47000 211.138
41.48000 211.159
41.49000 211.093
41.50000 210.538
41.51000 209.907
41.52000 208.876
41.53000 206.368
41.54000 203.722
41.55000 201.804
41.56000 203.681
41.57000 205.264
41.58000 206.931
41.59000 208.740
41.60000 210.551
41.61000 211.291
41.62000 210.800
41.63000 210.310
41.64000 210.718
41.65000 211.792
41.66000 212.859
41.67000 213.705
41.68000 214.440
41.69000 214.989
41.70000 212.597
41.71000 209.189
41.72000 206.069
41.73000 205.588
41.74000 205.710
41.75000 206.157
41.76000 208.392
41.77000 210.899
41.78000 213.530
41.79000 216.616
41.80000 219.744
41.81000 222.001
41.82000 216.955
41.83000 212.823
41.84000 210.978
41.85000 213.001
41.86000 215.087
41.87000 213.675
41.88000 208.316
41.89000 202.970
41.90000 201.446
41.91000 202.724
41.92000 203.925
41.93000 202.412
41.94000 199.547
41.95000 196.787
41.96000 195.647
41.97000 195.059
41.98000 194.522
41.99000 199.013
42.00000 204.028
42.01000 208.346
42.02000 208.902
42.03000 208.897
42.04000 209.278
42.05000 211.043
42.06000 212.931
42.07000 214.288
42.08000 220.602
42.09000 225.604
42.10000 224.950
42.11000 214.863
42.12000 204.630
42.13000 199.287
42.14000 199.371
42.15000 199.459
42.16000 200.436
42.17000 202.045
42.18000 203.691
42.19000 206.643
42.20000 210.235
42.21000 213.734
42.22000 215.823
42.23000 217.439
42.24000 218.913
42.25000 213.493
42.26000 207.304
42.27000 202.983
42.28000 208.571
42.29000 215.613
42.30000 219.910
42.31000 214.515
42.32000 208.274
42.33000 203.808
42.34000 206.555
42.35000 208.895
42.36000 209.602
42.37000 207.629
42.38000 205.617
42.39000 206.253
42.40000 209.781
42.41000 213.296
42.42000 214.267
42.43000 213.430
42.44000 212.493
42.45000 208.273
42.46000 202.467
42.47000 197.251
42.48000 200.684
42.49000 206.979
42.50000 212.708
42.51000 211.424
42.52000 208.904
42.53000 207.088
42.54000 208.943
42.55000 211.328
42.56000 212.173
42.57000 207.666
42.58000 202.700
42.59000 199.164
42.60000 202.446
42.61000 205.169
42.62000 205.574
42.63000 202.229
42.64000 198.833
42.65000 198.200
42.66000 200.533
42.67000 202.858
42.68000 207.082
42.69000 212.584
42.70000 217.774
42.71000 213.167
42.72000 203.889
42.73000 195.400
42.74000 198.179
42.75000 204.629
42.76000 210.488
42.77000 209.653
42.78000 207.617
42.79000 206.103
42.80000 207.269
42.81000 208.815
42.82000 208.037
42.83000 199.297
42.84000 189.892
42.85000 183.224
42.86000 191.204
42.87000 197.732
42.88000 202.904
42.89000 205.915
42.90000 208.898
42.91000 209.381
42.92000 207.223
42.93000 205.075
42.94000 205.219
42.95000 206.930
42.96000 208.562
42.97000 207.788
42.98000 205.885
42.99000 204.013
43.00000 202.593
43.01000 201.317
43.02000 200.160
43.03000 199.908
43.04000 199.858
43.05000 199.740
43.06000 199.284
43.07000 198.780
43.08000 200.360
43.09000 208.976
43.10000 218.166
43.11000 224.651
43.12000 211.594
43.13000 201.095
43.14000 192.252
43.15000 186.012
43.16000 179.804
43.17000 181.035
43.18000 189.997
43.19000 198.912
43.20000 201.077
43.21000 198.671
43.22000 196.433
43.23000 199.109
43.24000 204.059
43.25000 208.407
43.26000 204.550
43.27000 198.095
43.28000 192.256
43.29000 192.429
43.30000 193.707
43.31000 195.185
43.32000 197.663
43.33000 200.277
43.34000 202.112
43.35000 201.354
43.36000 200.388
43.37000 199.710
43.38000 191.324
43.39000 184.748
43.40000 179.748
43.41000 177.188
43.42000 174.656
43.43000 180.924
43.44000 196.183
43.45000 211.356
43.46000 211.832
43.47000 202.564
43.48000 193.615
43.49000 193.710
43.50000 197.932
43.51000 201.955
43.52000 203.334
43.53000 203.889
43.54000 204.389
43.55000 204.951
43.56000 205.456
43.57000 205.390
43.58000 202.532
43.59000 199.300
43.60000 197.220
43.61000 198.919
43.62000 200.913
43.63000 202.306
43.64000 202.718
43.65000 203.002
43.66000 203.884
43.67000 205.677
43.68000 207.480
43.69000 206.778
43.70000 203.561
43.71000 200.364
43.72000 197.138
43.73000 193.938
43.74000 190.856
43.75000 190.966
43.76000 192.512
43.77000 194.198
43.78000 197.696
43.79000 201.751
43.80000 205.404
43.81000 201.154
43.82000 195.998
43.83000 191.985
43.84000 193.483
43.85000 195.705
43.86000 197.849
43.87000 199.737
43.88000 201.607
43.89000 202.907
43.90000 195.537
43.91000 189.744
43.92000 185.437
43.93000 183.361
43.94000 181.307
43.95000 180.886
43.96000 182.078
43.97000 183.262
43.98000 187.461
43.99000 193.532
44.00000 199.267
44.01000 196.137
44.02000 189.078
44.03000 182.661
44.04000 184.384
44.05000 188.571
44.06000 192.336
44.07000 197.493
44.08000 202.256
44.09000 205.227
44.10000 199.698
44.11000 193.072
44.12000 187.556
44.13000 185.575
44.14000 183.856
44.15000 182.666
44.16000 188.568
44.17000 193.194
44.18000 195.150
44.19000 193.158
44.20000 191.130
44.21000 193.237
44.22000 199.359
44.23000 205.437
44.24000 206.901
44.25000 205.427
44.26000 203.885
44.27000 200.596
44.28000 196.543
44.29000 192.936
44.30000 194.853
44.31000 198.418
44.32000 201.616
44.33000 201.365
44.34000 200.545
44.35000 200.188
44.36000 201.991
44.37000 204.068
44.38000 204.284
44.39000 198.658
44.40000 192.609
44.41000 188.440
44.42000 197.709
44.43000 205.007
44.44000 208.524
44.45000 206.535
44.46000 204.500
44.47000 201.702
44.48000 198.177
44.49000 194.679
44.50000 194.502
44.51000 196.392
44.52000 198.132
44.53000 196.179
44.54000 192.636
44.55000 189.770
44.56000 195.091
44.57000 202.819
44.58000 209.737
44.59000 213.274
44.60000 215.781
44.61000 217.771
44.62000 217.391
44.63000 216.715
44.64000 215.051
44.65000 210.327
44.66000 205.387
44.67000 201.999
44.68000 203.989
44.69000 205.611
44.70000 206.006
44.71000 204.642
44.72000 203.266
44.73000 204.752
44.74000 208.928
44.75000 213.070
44.76000 216.587
44.77000 219.660
44.78000 222.406
44.79000 217.345
44.80000 208.971
44.81000 201.612
44.82000 206.271
44.83000 214.413
44.84000 221.684
44.85000 216.032
44.86000 208.936
44.87000 205.586
44.88000 219.174
44.89000 234.828
44.90000 245.089
44.91000 238.923
44.92000 231.622
44.93000 226.640
44.94000 234.449
44.95000 240.586
44.96000 243.545
44.97000 242.016
44.98000 240.455
44.99000 241.434
45.00000 244.757
45.01000 248.051
45.02000 253.772
45.03000 260.845
45.04000 267.634
45.05000 267.851
45.06000 265.319
45.07000 263.038
45.08000 263.661
45.09000 265.114
45.10000 266.408
45.11000 270.164
45.12000 273.836
45.13000 276.780
45.14000 276.478
45.15000 275.789
45.16000 275.753
45.17000 277.680
45.18000 279.738
45.19000 281.136
45.20000 280.595
45.21000 280.148
45.22000 280.478
45.23000 281.888
45.24000 283.303
45.25000 281.535
45.26000 276.876
45.27000 272.259
45.28000 273.996
45.29000 279.463
45.30000 284.568
45.31000 281.577
45.32000 275.249
45.33000 269.333
45.34000 268.095
45.35000 268.172
45.36000 268.240
45.37000 266.462
45.38000 264.619
45.39000 263.790
45.40000 267.406
45.41000 271.543
45.42000 274.647
45.43000 274.697
45.44000 274.545
45.45000 274.443
45.46000 271.216
45.47000 268.748
45.48000 263.612
45.49000 254.824
45.50000 246.017
45.51000 241.807
45.52000 241.706
45.53000 241.605
45.54000 241.992
45.55000 242.655
45.56000 243.201
45.57000 241.183
45.58000 238.124
45.59000 235.694
45.60000 240.237
45.61000 246.712
45.62000 252.456
45.63000 244.742
45.64000 235.916
45.65000 228.468
45.66000 226.968
45.67000 226.153
45.68000 224.157
45.69000 218.718
45.70000 213.059
45.71000 209.255
45.72000 215.781
45.73000 220.841
45.74000 224.081
45.75000 224.865
45.76000 225.631
45.77000 221.574
45.78000 213.278
45.79000 205.068
45.80000 205.102
45.81000 209.865
45.82000 214.470
45.83000 215.759
45.84000 215.720
45.85000 215.105
45.86000 208.262
45.87000 199.719
45.88000 192.157
45.89000 192.729
45.90000 194.496
45.91000 195.963
45.92000 196.154
45.93000 196.202
45.94000 197.364
45.95000 201.730
45.96000 206.296
45.97000 209.349
45.98000 198.647
45.99000 190.442
46.00000 187.216
46.01000 190.601
46.02000 194.017
46.03000 196.477
46.04000 198.110
46.05000 199.725
46.06000 199.045
46.07000 197.085
46.08000 195.117
46.09000 192.975
46.10000 190.764
46.11000 188.329
46.12000 183.511
46.13000 178.053
46.14000 173.233
46.15000 177.670
46.16000 182.922
46.17000 187.594
46.18000 189.842
46.19000 191.822
46.20000 192.719
46.21000 190.550
46.22000 188.195
46.23000 186.628
46.24000 185.594
46.25000 184.839
46.26000 185.275
46.27000 187.267
46.28000 189.266
46.29000 190.687
46.30000 191.618
46.31000 192.537
46.32000 188.915
46.33000 182.857
46.34000 176.970
46.35000 174.478
46.36000 173.308
46.37000 172.672
46.38000 177.580
46.39000 183.957
46.40000 189.575
46.41000 185.292
46.42000 180.108
46.43000 176.800
46.44000 181.221
46.45000 186.479
46.46000 189.637
46.47000 186.935
46.48000 183.885
46.49000 181.867
46.50000 178.422
46.51000 175.853
46.52000 176.205
46.53000 180.319
46.54000 184.443
46.55000 186.309
46.56000 186.284
46.57000 186.259
46.58000 187.486
46.59000 189.367
46.60000 190.964
46.61000 187.099
46.62000 181.138
46.63000 175.553
46.64000 173.799
46.65000 173.045
46.66000 172.381
46.67000 175.297
46.68000 178.335
46.69000 180.019
46.70000 176.207
46.71000 171.812
46.72000 169.970
46.73000 175.151
46.74000 180.738
46.75000 184.414
46.76000 182.407
46.77000 180.832
46.78000 179.671
46.79000 179.035
46.80000 178.399
46.81000 177.231
46.82000 175.622
46.83000 174.035
46.84000 171.385
46.85000 168.233
46.86000 165.250
46.87000 165.406
46.88000 166.749
46.89000 168.337
46.90000 172.359
46.91000 177.007
46.92000 181.082
46.93000 178.454
46.94000 175.225
46.95000 172.297
46.96000 170.568
46.97000 168.965
46.98000 168.716
46.99000 172.140
47.00000 175.771
47.01000 178.147
47.02000 171.694
47.03000 166.807
47.04000 164.716
47.05000 166.112
47.06000 167.522
47.07000 170.592
47.08000 175.006
47.09000 179.360
47.10000 180.326
47.11000 179.471
47.12000 178.465
47.13000 174.743
47.14000 170.007
47.15000 165.706
47.16000 165.652
47.17000 166.672
47.18000 167.565
47.19000 170.251
47.20000 172.808
47.21000 173.444
47.22000 166.516
47.23000 158.816
47.24000 154.674
47.25000 160.040
47.26000 165.925
47.27000 169.757
47.28000 166.337
47.29000 163.716
47.30000 163.857
47.31000 167.389
47.32000 170.923
47.33000 172.173
47.34000 171.601
47.35000 171.036
47.36000 171.108
47.37000 171.509
47.38000 171.965
47.39000 173.376
47.40000 175.139
47.41000 176.325
47.42000 172.009
47.43000 166.322
47.44000 161.359
47.45000 162.950
47.46000 165.228
47.47000 167.306
47.48000 168.608
47.49000 169.833
47.50000 169.172
47.51000 163.543
47.52000 157.651
47.53000 153.836
47.54000 155.944
47.55000 157.575
47.56000 159.275
47.57000 161.060
47.58000 162.848
47.59000 165.654
47.60000 169.261
47.61000 172.813
47.62000 170.930
47.63000 166.313
47.64000 161.897
47.65000 160.918
47.66000 161.185
47.67000 161.672
47.68000 164.219
47.69000 167.273
47.70000 169.930
47.71000 169.947
47.72000 169.598
47.73000 168.458
47.74000 164.297
47.75000 159.840
47.76000 157.400
47.77000 160.196
47.78000 163.262
47.79000 165.236
47.80000 163.737
47.81000 162.593
47.82000 160.787
47.83000 158.195
47.84000 155.620
47.85000 157.607
47.86000 163.124
47.87000 168.552
47.88000 168.216
47.89000 164.978
47.90000 162.020
47.91000 163.782
47.92000 167.226
47.93000 169.880
47.94000 165.274
47.95000 158.913
47.96000 153.390
47.97000 159.572
47.98000 166.417
47.99000 170.509
48.00000 164.252
48.01000 157.003
48.02000 152.882
48.03000 156.769
48.04000 161.055
48.05000 163.800
48.06000 162.963
48.07000 162.305
48.08000 161.694
48.09000 161.137
48.10000 160.585
48.11000 160.974
48.12000 162.082
48.13000 163.171
48.14000 166.889
48.15000 171.794
48.16000 176.286
48.17000 174.037
48.18000 169.416
48.19000 164.937
48.20000 161.726
48.21000 158.817
48.22000 156.297
48.23000 157.728
48.24000 159.468
48.25000 160.835
48.26000 160.827
48.27000 160.690
48.28000 160.230
48.29000 158.955
48.30000 157.640
48.31000 156.803
48.32000 156.853
48.33000 156.901
48.34000 159.591
48.35000 165.322
48.36000 171.026
48.37000 170.546
48.38000 165.427
48.39000 160.398
48.40000 154.741
48.41000 148.970
48.42000 143.676
48.43000 145.959
48.44000 150.870
48.45000 155.425
48.46000 156.850
48.47000 157.542
48.48000 158.139
48.49000 159.100
48.50000 159.964
48.51000 160.643
48.52000 160.652
48.53000 160.599
48.54000 161.438
48.55000 164.495
48.56000 167.657
48.57000 169.658
48.58000 162.931
48.59000 157.948
48.60000 157.069
48.61000 160.839
48.62000 164.582
48.63000 162.666
48.64000 156.571
48.65000 150.589
48.66000 153.546
48.67000 160.705
48.68000 167.467
48.69000 168.092
48.70000 166.619
48.71000 165.402
48.72000 166.401
48.73000 167.912
48.74000 169.213
48.75000 166.535
48.76000 163.759
48.77000 160.688
48.78000 156.555
48.79000 152.327
48.80000 149.217
48.81000 148.844
48.82000 148.597
48.83000 148.441
48.84000 152.498
48.85000 155.482
48.86000 158.106
48.87000 160.330
48.88000 162.541
48.89000 162.562
48.90000 160.992
48.91000 159.451
48.92000 157.991
48.93000 156.622
48.94000 155.477
48.95000 157.715
48.96000 161.091
48.97000 164.393
48.98000 167.064
48.99000 169.592
49.00000 171.764
49.01000 166.919
49.02000 161.946
49.03000 158.696
49.04000 161.548
49.05000 164.936
49.06000 166.195
49.07000 162.311
49.08000 158.200
49.09000 155.627
49.10000 156.558
49.11000 157.269
49.12000 158.350
49.13000 159.838
49.14000 161.310
49.15000 160.226
49.16000 157.313
49.17000 154.458
49.18000 155.091
49.19000 157.328
49.20000 159.493
49.21000 160.603
49.22000 161.364
49.23000 162.069
49.24000 162.320
49.25000 162.469
49.26000 162.597
49.27000 163.613
49.28000 164.579
49.29000 164.170
49.30000 158.962
49.31000 153.342
49.32000 149.388
49.33000 149.398
49.34000 149.578
49.35000 149.690
49.36000 150.878
49.37000 151.744
49.38000 155.318
49.39000 161.809
49.40000 168.265
49.41000 169.647
49.42000 167.451
49.43000 165.300
49.44000 162.730
49.45000 160.067
49.46000 157.606
49.47000 158.047
49.48000 159.437
49.49000 160.485
49.50000 158.751
49.51000 156.405
49.52000 154.399
49.53000 156.274
49.54000 158.318
49.55000 159.441
49.56000 157.394
49.57000 155.081
49.58000 153.127
49.59000 152.013
49.60000 150.934
49.61000 150.267
49.62000 146.965
49.63000 144.567
49.64000 142.769
49.65000 141.608
49.66000 140.484
49.67000 143.916
49.68000 150.513
49.69000 156.966
49.70000 159.362
49.71000 159.827
49.72000 159.928
49.73000 154.918
49.74000 148.261
49.75000 142.260
49.76000 141.510
49.77000 141.899
49.78000 142.230
49.79000 144.604
49.80000 146.841
49.81000 148.916
49.82000 150.440
49.83000 151.919
49.84000 153.236
49.85000 154.176
49.86000 155.101
49.87000 155.670
49.88000 153.026
49.89000 151.103
49.90000 150.521
49.91000 151.338
49.92000 152.134
49.93000 150.349
49.94000 146.801
49.95000 143.333
49.96000 146.103
49.97000 151.532
49.98000 156.495
49.99000 155.071
50.00000 151.618
50.01000 148.870
50.02000 151.653
50.03000 155.617
50.04000 158.987
50.05000 158.505
50.06000 157.657
50.07000 156.742
50.08000 155.605
50.09000 154.450
50.10000 151.600
50.11000 144.884
50.12000 138.018
50.13000 133.824
50.14000 141.259
50.15000 146.673
50.16000 153.977
50.17000 163.219
50.18000 172.366
50.19000 171.432
50.20000 163.707
50.21000 156.164
50.22000 152.788
50.23000 151.384
50.24000 150.310
50.25000 153.640
50.26000 158.348
50.27000 162.052
50.28000 158.006
50.29000 152.333
50.30000 147.523
50.31000 148.806
50.32000 150.568
50.33000 152.702
50.34000 156.061
50.35000 159.516
50.36000 161.422
50.37000 159.849
50.38000 158.145
50.39000 157.110
50.40000 163.664
50.41000 168.398
50.42000 169.798
50.43000 167.835
50.44000 165.878
50.45000 164.609
50.46000 163.795
50.47000 163.001
50.48000 164.295
50.49000 166.432
50.50000 168.430
50.51000 168.628
50.52000 168.270
50.53000 168.240
50.54000 170.685
50.55000 173.642
50.56000 176.142
50.57000 181.982
50.58000 187.237
50.59000 191.704
50.60000 193.616
50.61000 195.333
50.62000 198.771
50.63000 206.020
50.64000 213.408
50.65000 217.865
50.66000 217.440
50.67000 217.103
50.68000 218.982
50.69000 223.056
50.70000 227.138
50.71000 231.860
50.72000 237.001
50.73000 242.012
50.74000 243.701
50.75000 243.904
50.76000 243.760
50.77000 239.204
50.78000 233.307
50.79000 228.565
50.80000 232.396
50.81000 237.973
50.82000 242.674
50.83000 237.560
50.84000 232.227
50.85000 226.340
50.86000 218.679
50.87000 210.886
50.88000 207.663
50.89000 214.417
50.90000 221.521
50.91000 225.781
50.92000 213.056
50.93000 203.906
50.94000 199.665
50.95000 200.206
50.96000 200.735
50.97000 200.138
50.98000 198.817
50.99000 197.530
51.00000 193.406
51.01000 188.290
51.02000 183.427
51.03000 181.698
51.04000 180.908
51.05000 180.347
51.06000 181.466
51.07000 182.920
51.08000 184.142
51.09000 177.122
51.10000 170.396
51.11000 165.729
51.12000 167.536
51.13000 169.817
51.14000 170.732
51.15000 168.710
51.16000 166.590
51.17000 165.326
51.18000 163.186
51.19000 161.665
51.20000 161.610
51.21000 162.959
51.22000 164.312
51.23000 165.918
51.24000 167.683
51.25000 169.400
51.26000 167.450
51.27000 164.088
51.28000 160.725
51.29000 157.352
51.30000 153.976
51.31000 151.427
51.32000 154.800
51.33000 159.340
51.34000 163.146
51.35000 162.819
51.36000 162.117
51.37000 161.018
51.38000 158.691
51.39000 156.276
51.40000 153.728
51.41000 150.899
51.42000 148.060
51.43000 146.380
51.44000 152.824
51.45000 157.424
51.46000 159.962
51.47000 160.555
51.48000 161.118
51.49000 159.342
51.50000 156.103
51.51000 152.957
51.52000 149.197
51.53000 145.376
51.54000 142.244
51.55000 147.305
51.56000 154.746
51.57000 161.064
51.58000 159.482
51.59000 156.369
51.60000 153.767
51.61000 156.608
51.62000 159.520
51.63000 161.604
51.64000 161.158
51.65000 160.535
51.66000 158.319
51.67000 152.771
51.68000 147.120
51.69000 143.796
51.70000 143.327
51.71000 143.010
51.72000 141.288
51.73000 138.262
51.74000 135.303
51.75000 137.124
51.76000 141.889
51.77000 146.513
51.78000 146.974
51.79000 145.754
51.80000 144.602
51.81000 144.235
51.82000 144.094
51.83000 143.724
51.84000 141.775
51.85000 139.525
51.86000 137.650
51.87000 144.701
51.88000 151.434
51.89000 154.673
51.90000 147.386
51.91000 139.387
51.92000 135.570
51.93000 140.370
51.94000 145.430
51.95000 148.386
51.96000 150.629
51.97000 152.202
51.98000 151.737
51.99000 149.414
52.00000 147.078
52.01000 143.797
52.02000 139.944
52.03000 136.209
52.04000 136.450
52.05000 138.237
52.06000 139.910
52.07000 140.291
52.08000 140.307
52.09000 140.642
52.10000 143.137
52.11000 146.038
52.12000 148.448
52.13000 144.046
52.14000 139.741
52.15000 137.367
52.16000 140.729
52.17000 144.470
52.18000 146.061
52.19000 143.288
52.20000 140.388
52.21000 138.706
52.22000 140.467
52.23000 141.718
52.24000 142.979
52.25000 144.249
52.26000 145.476
52.27000 143.916
52.28000 140.690
52.29000 137.566
52.30000 139.875
52.31000 144.155
52.32000 147.804
52.33000 144.432
52.34000 139.109
52.35000 134.762
52.36000 136.920
52.37000 140.280
52.38000 143.063
52.39000 142.860
52.40000 142.408
52.41000 142.691
52.42000 145.125
52.43000 147.698
52.44000 149.449
52.45000 149.555
52.46000 149.615
52.47000 149.650
52.48000 141.110
52.49000 135.102
52.50000 133.214
52.51000 134.962
52.52000 136.652
52.53000 134.900
52.54000 131.121
52.55000 127.466
52.56000 127.672
52.57000 129.334
52.58000 131.040
52.59000 133.240
52.60000 135.575
52.61000 137.794
52.62000 139.250
52.63000 140.569
52.64000 141.657
52.65000 140.552
52.66000 139.437
52.67000 138.272
52.68000 136.965
52.69000 135.650
52.70000 135.797
52.71000 138.831
52.72000 141.942
52.73000 143.724
52.74000 137.327
52.75000 132.837
52.76000 132.137
52.77000 134.729
52.78000 137.283
52.79000 137.644
52.80000 136.733
52.81000 135.853
52.82000 137.706
52.83000 140.475
52.84000 142.733
52.85000 139.548
52.86000 134.895
52.87000 130.703
52.88000 129.481
52.89000 128.789
52.90000 128.220
52.91000 133.589
52.92000 138.548
52.93000 140.662
52.94000 134.693
52.95000 128.229
52.96000 124.626
52.97000 126.580
52.98000 128.678
52.99000 129.871
53.00000 130.956
53.01000 131.711
53.02000 132.199
53.03000 132.458
53.04000 132.723
53.05000 133.297
53.06000 134.049
53.07000 134.774
53.08000 133.729
53.09000 132.095
53.10000 130.802
53.11000 133.069
53.12000 136.282
53.13000 139.115
53.14000 139.540
53.15000 139.542
53.16000 139.543
53.17000 140.963
53.18000 142.254
53.19000 143.702
53.20000 145.585
53.21000 147.494
53.22000 148.429
53.23000 147.496
53.24000 146.517
53.25000 145.964
53.26000 146.033
53.27000 146.090
53.28000 150.030
53.29000 157.233
53.30000 164.215
53.31000 159.788
53.32000 148.936
53.33000 138.474
53.34000 139.459
53.35000 144.528
53.36000 149.367
53.37000 151.864
53.38000 153.748
53.39000 155.428
53.40000 155.834
53.41000 156.021
53.42000 156.173
53.43000 152.499
53.44000 149.153
53.45000 147.631
53.46000 151.146
53.47000 154.952
53.48000 157.441
53.49000 157.443
53.50000 157.388
53.51000 157.356
53.52000 149.800
53.53000 144.549
53.54000 142.056
53.55000 141.845
53.56000 141.570
53.57000 138.213
53.58000 133.146
53.59000 128.267
53.60000 133.857
53.61000 142.833
53.62000 150.929
53.63000 150.218
53.64000 147.237
53.65000 144.795
53.66000 145.644
53.67000 147.053
53.68000 148.201
53.69000 144.714
53.70000 141.466
53.71000 139.039
53.72000 138.844
53.73000 138.775
53.74000 139.818
53.75000 142.927
53.76000 146.083
53.77000 147.840
53.78000 146.162
53.79000 144.993
53.80000 143.315
53.81000 141.224
53.82000 139.170
53.83000 138.882
53.84000 139.559
53.85000 140.210
53.86000 139.733
53.87000 138.889
53.88000 138.305
53.89000 140.254
53.90000 142.846
53.91000 145.712
53.92000 150.220
53.93000 155.002
53.94000 158.891
53.95000 150.806
53.96000 143.205
53.97000 138.488
53.98000 141.501
53.99000 144.938
54.00000 147.011
54.01000 146.586
54.02000 146.106
54.03000 145.842
54.04000 143.763
54.05000 142.326
54.06000 140.941
54.07000 139.599
54.08000 138.286
54.09000 138.340
54.10000 139.129
54.11000 139.887
54.12000 142.843
54.13000 146.368
54.14000 149.303
54.15000 146.567
54.16000 142.414
54.17000 138.615
54.18000 136.914
54.19000 135.557
54.20000 134.457
54.21000 132.798
54.22000 131.400
54.23000 130.580
54.24000 131.284
54.25000 132.070
54.26000 133.804
54.27000 137.251
54.28000 140.732
54.29000 142.642
54.30000 142.028
54.31000 141.603
54.32000 141.365
54.33000 141.275
54.34000 141.204
54.35000 141.957
54.36000 143.149
54.37000 144.292
54.38000 144.414
54.39000 144.181
54.40000 143.770
54.41000 141.690
54.42000 139.199
54.43000 137.156
54.44000 137.710
54.45000 138.682
54.46000 139.468
54.47000 141.443
54.48000 143.143
54.49000 143.716
54.50000 141.353
54.51000 138.837
54.52000 138.036
54.53000 140.288
54.54000 142.599
54.55000 143.858
54.56000 145.285
54.57000 146.252
54.58000 144.106
54.59000 139.542
54.60000 135.046
54.61000 133.345
54.62000 133.106
54.63000 132.878
54.64000 132.382
54.65000 131.831
54.66000 131.572
54.67000 134.015
54.68000 137.113
54.69000 139.548
54.70000 138.192
54.71000 136.236
54.72000 134.661
54.73000 134.271
54.74000 134.047
54.75000 134.803
54.76000 138.072
54.77000 141.467
54.78000 142.962
54.79000 141.121
54.80000 139.219
54.81000 138.191
54.82000 138.290
54.83000 138.368
54.84000 140.355
54.85000 143.803
54.86000 147.127
54.87000 145.612
54.88000 141.601
54.89000 137.763
54.90000 137.440
54.91000 138.295
54.92000 139.088
54.93000 139.329
54.94000 139.438
54.95000 139.722
54.96000 140.993
54.97000 142.417
54.98000 143.560
54.99000 143.838
55.00000 143.997
55.01000 143.565
55.02000 141.637
55.03000 139.637
55.04000 139.851
55.05000 143.896
55.06000 148.008
55.07000 150.213
55.08000 146.471
55.09000 143.921
55.10000 143.127
55.11000 143.655
55.12000 144.154
55.13000 143.518
55.14000 142.307
55.15000 141.149
55.16000 142.662
55.17000 144.933
55.18000 146.828
55.19000 145.397
55.20000 143.184
55.21000 141.655
55.22000 143.900
55.23000 146.724
55.24000 148.983
55.25000 150.310
55.26000 151.313
55.27000 151.300
55.28000 148.754
55.29000 146.087
55.30000 143.950
55.31000 142.716
55.32000 141.497
55.33000 140.848
55.34000 147.093
55.35000 151.328
55.36000 151.514
55.37000 148.700
55.38000 145.994
55.39000 147.208
55.40000 150.386
55.41000 153.419
55.42000 155.196
55.43000 156.447
55.44000 157.596
55.45000 157.852
55.46000 157.902
55.47000 157.683
55.48000 156.003
55.49000 154.102
55.50000 152.587
55.51000 160.342
55.52000 167.274
55.53000 172.696
55.54000 174.407
55.55000 175.947
55.56000 177.421
55.57000 178.782
55.58000 180.143
55.59000 180.861
55.60000 179.752
55.61000 179.017
55.62000 181.556
55.63000 186.482
55.64000 191.393
55.65000 195.753
55.66000 199.843
55.67000 203.740
55.68000 211.900
55.69000 220.800
55.70000 228.776
55.71000 228.881
55.72000 227.191
55.73000 228.068
55.74000 242.668
55.75000 259.295
55.76000 272.506
55.77000 278.334
55.78000 282.503
55.79000 291.864
55.80000 313.807
55.81000 336.311
55.82000 353.704
55.83000 362.645
55.84000 371.460
55.85000 376.078
55.86000 396.790
55.87000 410.854
55.88000 429.748
55.89000 452.112
55.90000 474.149
55.91000 485.326
55.92000 491.218
55.93000 496.826
55.94000 502.479
55.95000 507.725
55.96000 513.329
55.97000 521.926
55.98000 531.195
55.99000 539.980
56.00000 546.220
56.01000 552.089
56.02000 556.737
56.03000 555.059
56.04000 553.272
56.05000 553.551
56.06000 558.766
56.07000 564.193
56.08000 561.960
56.09000 547.250
56.10000 532.363
56.11000 524.626
56.12000 501.968
56.13000 486.688
56.14000 475.194
56.15000 466.379
56.16000 457.520
56.17000 447.266
56.18000 436.344
56.19000 425.963
56.20000 415.681
56.21000 406.209
56.22000 396.604
56.23000 385.908
56.24000 374.970
56.25000 364.126
56.26000 353.766
56.27000 343.475
56.28000 335.354
56.29000 321.285
56.30000 309.595
56.31000 298.285
56.32000 287.866
56.33000 277.484
56.34000 268.190
56.35000 260.642
56.36000 253.116
56.37000 249.236
56.38000 231.524
56.39000 219.638
56.40000 213.568
56.41000 211.550
56.42000 209.433
56.43000 204.240
56.44000 197.592
56.45000 191.283
56.46000 189.678
56.47000 189.599
56.48000 189.209
56.49000 186.318
56.50000 182.882
56.51000 179.086
56.52000 173.456
56.53000 167.569
56.54000 162.940
56.55000 164.872
56.56000 166.852
56.57000 167.166
56.58000 163.616
56.59000 159.910
56.60000 158.487
56.61000 160.673
56.62000 162.904
56.63000 164.045
56.64000 166.094
56.65000 167.454
56.66000 166.962
56.67000 165.198
56.68000 163.355
56.69000 159.173
56.70000 153.901
56.71000 148.905
56.72000 147.919
56.73000 148.187
56.74000 148.310
56.75000 147.287
56.76000 146.018
56.77000 145.193
56.78000 146.587
56.79000 148.287
56.80000 149.618
56.81000 143.385
56.82000 137.917
56.83000 134.014
56.84000 133.691
56.85000 133.507
56.86000 133.424
56.87000 133.497
56.88000 133.572
56.89000 133.610
56.90000 134.477
56.91000 135.072
56.92000 137.266
56.93000 140.539
56.94000 143.650
56.95000 142.091
56.96000 138.388
56.97000 134.884
56.98000 135.745
56.99000 137.796
57.00000 139.464
57.01000 138.167
57.02000 136.245
57.03000 134.311
57.04000 132.317
57.05000 130.314
57.06000 128.750
57.07000 131.397
57.08000 133.773
57.09000 134.072
57.10000 129.690
57.11000 125.130
57.12000 123.369
57.13000 125.902
57.14000 128.481
57.15000 129.778
57.16000 129.396
57.17000 129.143
57.18000 129.044
57.19000 129.048
57.20000 129.004
57.21000 127.660
57.22000 125.727
57.23000 123.901
57.24000 126.338
57.25000 129.787
57.26000 132.598
57.27000 130.569
57.28000 127.534
57.29000 125.671
57.30000 129.486
57.31000 134.054
57.32000 137.608
57.33000 128.954
57.34000 121.317
57.35000 117.042
57.36000 120.235
57.37000 123.701
57.38000 126.272
57.39000 127.490
57.40000 128.695
57.41000 128.121
57.42000 125.777
57.43000 123.456
57.44000 123.232
57.45000 124.384
57.46000 125.560
57.47000 127.410
57.48000 129.560
57.49000 131.588
57.50000 131.496
57.51000 130.818
57.52000 130.172
57.53000 129.757
57.54000 129.390
57.55000 128.003
57.56000 121.750
57.57000 114.865
57.58000 109.529
57.59000 113.620
57.60000 117.433
57.61000 120.759
57.62000 123.018
57.63000 125.239
57.64000 125.023
57.65000 121.178
57.66000 117.300
57.67000 117.817
57.68000 122.635
57.69000 127.403
57.70000 127.862
57.71000 125.540
57.72000 123.348
57.73000 124.521
57.74000 127.174
57.75000 129.674
57.76000 129.780
57.77000 129.220
57.78000 129.063
57.79000 131.859
57.80000 135.249
57.81000 137.592
57.82000 135.014
57.83000 131.809
57.84000 129.334
57.85000 126.497
57.86000 124.226
57.87000 123.572
57.88000 126.406
57.89000 129.359
57.90000 132.027
57.91000 134.274
57.92000 136.518
57.93000 134.985
57.94000 129.820
57.95000 124.713
57.96000 124.384
57.97000 127.096
57.98000 129.672
57.99000 128.846
58.00000 126.546
58.01000 124.382
58.02000 123.522
58.03000 123.088
58.04000 122.819
58.05000 123.730
58.06000 124.876
58.07000 125.646
58.08000 124.684
58.09000 123.505
58.10000 122.598
58.11000 124.607
58.12000 126.362
58.13000 128.282
58.14000 130.553
58.15000 132.836
58.16000 133.527
58.17000 131.919
58.18000 130.292
58.19000 131.341
58.20000 134.921
58.21000 138.450
58.22000 138.127
58.23000 135.389
58.24000 132.561
58.25000 127.529
58.26000 121.555
58.27000 115.944
58.28000 119.652
58.29000 125.513
58.30000 130.090
58.31000 125.601
58.32000 119.349
58.33000 114.653
58.34000 117.042
58.35000 120.302
58.36000 122.801
58.37000 120.455
58.38000 118.336
58.39000 117.443
58.40000 119.121
58.41000 120.881
58.42000 122.073
58.43000 122.460
58.44000 122.840
58.45000 123.610
58.46000 124.741
58.47000 125.856
58.48000 125.866
58.49000 125.194
58.50000 124.478
58.51000 122.715
58.52000 120.513
58.53000 118.448
58.54000 121.161
58.55000 124.881
58.56000 127.737
58.57000 124.594
58.58000 120.303
58.59000 117.290
58.60000 120.007
58.61000 123.414
58.62000 126.015
58.63000 120.410
58.64000 115.552
58.65000 114.554
58.66000 121.534
58.67000 128.757
58.68000 130.767
58.69000 125.477
58.70000 120.139
58.71000 117.922
58.72000 118.561
58.73000 119.178
58.74000 118.312
58.75000 116.545
58.76000 114.964
58.77000 117.601
58.78000 121.990
58.79000 126.098
58.80000 126.043
58.81000 124.921
58.82000 123.635
58.83000 121.224
58.84000 118.602
58.85000 117.029
58.86000 120.087
58.87000 123.693
58.88000 126.435
58.89000 121.700
58.90000 117.585
58.91000 115.952
58.92000 119.376
58.93000 122.949
58.94000 123.712
58.95000 120.602
58.96000 117.470
58.97000 117.938
58.98000 121.645
58.99000 125.320
59.00000 126.966
59.01000 127.398
59.02000 127.765
59.03000 126.733
59.04000 125.128
59.05000 123.628
59.06000 124.390
59.07000 125.654
59.08000 126.606
59.09000 125.479
59.10000 123.965
59.11000 122.492
59.12000 121.194
59.13000 119.915
59.14000 118.947
59.15000 114.960
59.16000 111.677
59.17000 110.071
59.18000 111.833
59.19000 113.689
59.20000 115.022
59.21000 115.644
59.22000 116.261
59.23000 116.700
59.24000 116.981
59.25000 117.306
59.26000 120.386
59.27000 125.093
59.28000 129.420
59.29000 125.657
59.30000 118.631
59.31000 112.076
59.32000 112.710
59.33000 115.074
59.34000 116.841
59.35000 114.681
59.36000 111.806
59.37000 110.091
59.38000 113.337
59.39000 117.148
59.40000 120.023
59.41000 119.847
59.42000 119.558
59.43000 119.584
59.44000 120.233
59.45000 120.900
59.46000 123.439
59.47000 128.483
59.48000 133.537
59.49000 132.395
59.50000 125.868
59.51000 119.417
59.52000 117.399
59.53000 117.960
59.54000 118.352
59.55000 115.251
59.56000 110.763
59.57000 106.582
59.58000 110.249
59.59000 115.487
59.60000 120.026
59.61000 120.053
59.62000 119.270
59.63000 119.462
59.64000 123.755
59.65000 128.506
59.66000 132.077
59.67000 125.825
59.68000 120.464
59.69000 117.975
59.70000 121.085
59.71000 124.340
59.72000 124.482
59.73000 120.529
59.74000 116.560
59.75000 117.233
59.76000 121.877
59.77000 126.418
59.78000 125.351
59.79000 121.069
59.80000 116.935
59.81000 115.783
59.82000 115.800
59.83000 115.816
59.84000 116.732
59.85000 117.775
59.86000 118.428
59.87000 116.598
59.88000 114.330
59.89000 113.234
59.90000 116.999
59.91000 121.296
59.92000 124.513
59.93000 123.547
59.94000 122.598
59.95000 121.852
59.96000 121.494
59.97000 121.146
59.98000 120.830
59.99000 120.557
60.00000 120.284
60.01000 116.524
60.02000 109.841
60.03000 103.277
60.04000 103.026
60.05000 106.340
60.06000 109.611
60.07000 112.047
60.08000 114.159
60.09000 116.121
60.10000 118.537
60.11000 120.823
60.12000 122.551
60.13000 120.788
60.14000 118.420
60.15000 115.475
60.16000 110.169
60.17000 104.611
60.18000 100.467
60.19000 110.868
60.20000 119.629
60.21000 124.463
60.22000 121.863
60.23000 119.085
60.24000 120.054
60.25000 125.801
60.26000 131.558
60.27000 132.121
60.28000 128.385
60.29000 124.657
60.30000 121.350
60.31000 118.278
60.32000 115.323
60.33000 114.583
60.34000 114.687
60.35000 114.783
60.36000 116.834
60.37000 119.133
60.38000 120.574
60.39000 116.746
60.40000 112.021
60.41000 109.597
60.42000 116.431
60.43000 124.237
60.44000 130.033
60.45000 127.365
60.46000 124.918
60.47000 123.486
60.48000 123.947
60.49000 124.451
60.50000 123.635
60.51000 121.162
60.52000 118.687
60.53000 117.870
60.54000 118.405
60.55000 118.933
60.56000 119.084
60.57000 119.029
60.58000 119.013
60.59000 119.719
60.60000 120.696
60.61000 121.600
60.62000 121.725
60.63000 121.660
60.64000 121.566
60.65000 121.303
60.66000 121.011
60.67000 120.596
60.68000 119.696
60.69000 118.747
60.70000 118.044
60.71000 117.798
60.72000 117.627
60.73000 118.301
60.74000 120.530
60.75000 122.793
60.76000 124.122
60.77000 124.296
60.78000 124.467
60.79000 122.894
60.80000 119.933
60.81000 117.052
60.82000 117.827
60.83000 120.577
60.84000 123.246
60.85000 124.457
60.86000 125.129
60.87000 125.749
60.88000 124.541
60.89000 123.047
60.90000 121.736
60.91000 121.516
60.92000 121.475
60.93000 121.915
60.94000 124.237
60.95000 126.748
60.96000 128.596
60.97000 125.105
60.98000 122.181
60.99000 120.368
61.00000 120.570
61.01000 120.814
61.02000 122.243
61.03000 125.114
61.04000 127.983
61.05000 127.219
61.06000 123.597
61.07000 120.010
61.08000 117.967
61.09000 116.747
61.10000 115.701
61.11000 117.692
61.12000 120.789
61.13000 123.644
61.14000 122.163
61.15000 119.878
61.16000 117.715
61.17000 116.265
61.18000 114.931
61.19000 114.726
61.20000 118.858
61.21000 123.418
61.22000 126.762
61.23000 125.333
61.24000 124.036
61.25000 124.204
61.26000 126.985
61.27000 129.818
61.28000 130.774
61.29000 129.483
61.30000 128.189
61.31000 126.774
61.32000 125.271
61.33000 123.772
61.34000 122.472
61.35000 121.276
61.36000 120.224
61.37000 121.607
61.38000 123.864
61.39000 125.942
61.40000 130.306
61.41000 134.705
61.42000 138.081
61.43000 135.597
61.44000 132.181
61.45000 129.915
61.46000 132.000
61.47000 134.507
61.48000 136.337
61.49000 142.535
61.50000 147.483
61.51000 154.202
61.52000 164.035
61.53000 173.927
61.54000 185.702
61.55000 199.697
61.56000 213.662
61.57000 231.282
61.58000 251.581
61.59000 271.631
61.60000 281.865
61.61000 287.020
61.62000 292.354
61.63000 300.636
61.64000 309.962
61.65000 318.526
61.66000 322.944
61.67000 325.998
61.68000 328.674
61.69000 329.215
61.70000 329.422
61.71000 329.204
61.72000 327.405
61.73000 325.455
61.74000 324.038
61.75000 307.712
61.76000 294.588
61.77000 281.563
61.78000 268.710
61.79000 255.860
61.80000 240.292
61.81000 221.573
61.82000 202.901
61.83000 188.387
61.84000 177.089
61.85000 165.899
61.86000 158.843
61.87000 153.893
61.88000 149.078
61.89000 146.429
61.90000 144.534
61.91000 142.798
61.92000 139.060
61.93000 135.309
61.94000 132.072
61.95000 131.683
61.96000 131.732
61.97000 132.114
61.98000 133.719
61.99000 135.437
62.00000 136.680
62.01000 130.197
62.02000 124.937
62.03000 122.402
62.04000 124.524
62.05000 126.725
62.06000 128.060
62.07000 128.410
62.08000 128.757
62.09000 129.762
62.10000 131.247
62.11000 132.730
62.12000 134.170
62.13000 135.588
62.14000 136.889
62.15000 136.358
62.16000 135.198
62.17000 134.137
62.18000 129.524
62.19000 124.688
62.20000 121.278
62.21000 125.646
62.22000 131.189
62.23000 135.398
62.24000 134.777
62.25000 133.720
62.26000 132.957
62.27000 135.752
62.28000 138.019
62.29000 137.815
62.30000 133.452
62.31000 129.022
62.32000 128.202
62.33000 131.435
62.34000 134.660
62.35000 135.577
62.36000 134.813
62.37000 134.016
62.38000 132.081
62.39000 129.583
62.40000 127.165
62.41000 125.973
62.42000 125.197
62.43000 124.489
62.44000 123.559
62.45000 122.688
62.46000 122.713
62.47000 127.546
62.48000 133.091
62.49000 137.090
62.50000 135.573
62.51000 133.567
62.52000 132.127
62.53000 130.964
62.54000 130.085
62.55000 132.359
62.56000 139.865
62.57000 147.450
62.58000 148.779
62.59000 143.202
62.60000 137.641
62.61000 134.241
62.62000 132.414
62.63000 130.657
62.64000 131.225
62.65000 132.928
62.66000 134.633
62.67000 136.363
62.68000 138.100
62.69000 139.683
62.70000 135.384
62.71000 130.402
62.72000 126.191
62.73000 126.052
62.74000 126.507
62.75000 126.600
62.76000 125.422
62.77000 124.134
62.78000 123.214
62.79000 125.336
62.80000 127.056
62.81000 128.156
62.82000 128.243
62.83000 128.315
62.84000 130.650
62.85000 135.442
62.86000 140.214
62.87000 143.357
62.88000 145.324
62.89000 147.231
62.90000 147.170
62.91000 146.163
62.92000 145.103
62.93000 143.284
62.94000 141.214
62.95000 139.332
62.96000 138.860
62.97000 138.720
62.98000 138.273
62.99000 136.235
63.00000 133.970
63.01000 132.899
63.02000 135.966
63.03000 139.383
63.04000 141.813
63.05000 139.161
63.06000 136.979
63.07000 134.791
63.08000 132.591
63.09000 130.392
63.10000 130.861
63.11000 134.180
63.12000 137.484
63.13000 137.161
63.14000 134.334
63.15000 131.583
63.16000 131.252
63.17000 132.068
63.18000 132.969
63.19000 135.084
63.20000 137.592
63.21000 139.868
63.22000 138.518
63.23000 136.628
63.24000 135.105
63.25000 135.462
63.26000 136.083
63.27000 136.459
63.28000 136.001
63.29000 135.473
63.30000 135.100
63.31000 135.981
63.32000 136.690
63.33000 136.049
63.34000 133.268
63.35000 130.459
63.36000 129.383
63.37000 130.128
63.38000 130.869
63.39000 132.987
63.40000 136.018
63.41000 139.018
63.42000 141.116
63.43000 142.794
63.44000 144.245
63.45000 142.574
63.46000 139.904
63.47000 137.486
63.48000 135.597
63.49000 134.033
63.50000 132.861
63.51000 133.658
63.52000 134.726
63.53000 136.620
63.54000 141.284
63.55000 146.172
63.56000 149.616
63.57000 146.130
63.58000 143.279
63.59000 140.772
63.60000 138.804
63.61000 136.841
63.62000 134.974
63.63000 133.204
63.64000 131.444
63.65000 134.151
63.66000 139.814
63.67000 145.357
63.68000 147.427
63.69000 147.897
63.70000 148.146
63.71000 145.412
63.72000 141.737
63.73000 138.415
63.74000 142.269
63.75000 146.995
63.76000 150.484
63.77000 147.857
63.78000 144.400
63.79000 142.712
63.80000 146.878
63.81000 151.507
63.82000 154.754
63.83000 149.182
63.84000 144.711
63.85000 143.194
63.86000 146.221
63.87000 149.299
63.88000 148.026
63.89000 142.334
63.90000 136.676
63.91000 137.535
63.92000 142.677
63.93000 147.695
63.94000 149.263
63.95000 149.265
63.96000 149.233
63.97000 148.764
63.98000 148.160
63.99000 147.615
64.00000 146.937
64.01000 146.316
64.02000 146.400
64.03000 149.908
64.04000 153.871
64.05000 156.736
64.06000 156.017
64.07000 155.021
64.08000 154.325
64.09000 154.584
64.10000 154.807
64.11000 155.394
64.12000 156.535
64.13000 157.682
64.14000 157.326
64.15000 155.469
64.16000 153.624
64.17000 151.289
64.18000 148.669
64.19000 146.213
64.20000 148.165
64.21000 152.088
64.22000 155.782
64.23000 156.508
64.24000 156.327
64.25000 156.164
64.26000 157.195
64.27000 158.312
64.28000 159.192
64.29000 158.935
64.30000 158.529
64.31000 158.267
64.32000 158.470
64.33000 158.708
64.34000 158.874
64.35000 157.915
64.36000 157.162
64.37000 157.955
64.38000 161.056
64.39000 164.179
64.40000 166.188
64.41000 167.103
64.42000 168.012
64.43000 167.118
64.44000 165.087
64.45000 163.099
64.46000 162.238
64.47000 161.873
64.48000 161.358
64.49000 158.958
64.50000 155.991
64.51000 153.325
64.52000 154.271
64.53000 155.736
64.54000 157.704
64.55000 162.042
64.56000 166.685
64.57000 169.839
64.58000 168.278
64.59000 166.369
64.60000 165.049
64.61000 167.513
64.62000 169.464
64.63000 171.748
64.64000 174.524
64.65000 177.305
64.66000 178.785
64.67000 179.009
64.68000 179.231
64.69000 178.130
64.70000 176.216
64.71000 174.352
64.72000 173.760
64.73000 173.721
64.74000 173.997
64.75000 178.158
64.76000 183.472
64.77000 188.235
64.78000 183.770
64.79000 178.271
64.80000 174.286
64.81000 177.336
64.82000 181.270
64.83000 183.626
64.84000 181.054
64.85000 178.128
64.86000 176.114
64.87000 176.851
64.88000 177.473
64.89000 178.510
64.90000 180.151
64.91000 181.796
64.92000 181.410
64.93000 179.097
64.94000 176.801
64.95000 179.117
64.96000 184.242
64.97000 189.159
64.98000 188.996
64.99000 186.656
65.00000 184.699
65.01000 187.343
65.02000 191.332
65.03000 194.900
65.04000 198.789
65.05000 202.235
65.06000 204.689
65.07000 202.615
65.08000 199.981
65.09000 198.374
65.10000 199.928
65.11000 201.704
65.12000 202.920
65.13000 209.317
65.14000 214.230
65.15000 219.520
65.16000 225.348
65.17000 231.180
65.18000 234.348
65.19000 235.029
65.20000 235.705
65.21000 234.065
65.22000 231.045
65.23000 228.134
65.24000 227.768
65.25000 228.478
65.26000 229.591
65.27000 235.433
65.28000 242.638
65.29000 249.068
65.30000 252.486
65.31000 254.957
65.32000 257.111
65.33000 257.836
65.34000 258.388
65.35000 261.212
65.36000 270.919
65.37000 281.098
65.38000 288.032
65.39000 298.102
65.40000 305.698
65.41000 313.043
65.42000 320.034
65.43000 327.023
65.44000 335.683
65.45000 345.879
65.46000 355.983
65.47000 363.514
65.48000 369.359
65.49000 375.266
65.50000 382.582
65.51000 390.486
65.52000 398.262
65.53000 404.577
65.54000 410.478
65.55000 415.732
65.56000 427.866
65.57000 439.538
65.58000 451.742
65.59000 466.302
65.60000 481.143
65.61000 499.067
65.62000 526.203
65.63000 553.955
65.64000 572.765
65.65000 620.363
65.66000 656.485
65.67000 707.818
65.68000 780.196
65.69000 852.721
65.70000 946.608
65.71000 1059.791
65.72000 1171.904
65.73000 1305.774
65.74000 1449.730
65.75000 1592.782
65.76000 1715.828
65.77000 1830.666
65.78000 1942.623
65.79000 2022.218
65.80000 2092.761
65.81000 2155.438
65.82000 2187.031
65.83000 2209.423
65.84000 2228.606
65.85000 2233.799
65.86000 2237.363
65.87000 2237.274
65.88000 2226.434
65.89000 2214.893
65.90000 2207.110
65.91000 2146.368
65.92000 2100.059
65.93000 2022.987
65.94000 1904.007
65.95000 1784.764
65.96000 1641.048
65.97000 1475.587
65.98000 1311.789
65.99000 1171.797
66.00000 1048.612
66.01000 926.719
66.02000 832.543
66.03000 749.578
66.04000 669.876
66.05000 626.034
66.06000 592.074
66.07000 561.969
66.08000 522.263
66.09000 486.366
66.10000 454.187
66.11000 437.963
66.12000 423.563
66.13000 412.663
66.14000 411.917
66.15000 411.816
66.16000 411.748
66.17000 412.096
66.18000 412.362
66.19000 413.553
66.20000 415.983
66.21000 418.423
66.22000 422.679
66.23000 428.524
66.24000 434.307
66.25000 447.788
66.26000 465.357
66.27000 482.953
66.28000 501.109
66.29000 519.488
66.30000 538.714
66.31000 567.046
66.32000 597.851
66.33000 625.095
66.34000 636.965
66.35000 644.833
66.36000 652.862
66.37000 661.566
66.38000 670.345
66.39000 678.353
66.40000 684.156
66.41000 689.822
66.42000 693.604
66.43000 685.062
66.44000 678.495
66.45000 673.011
66.46000 668.958
66.47000 664.904
66.48000 656.151
66.49000 643.354
66.50000 630.701
66.51000 598.986
66.52000 557.319
66.53000 516.465
66.54000 492.040
66.55000 474.071
66.56000 456.290
66.57000 440.483
66.58000 425.204
66.59000 411.722
66.60000 411.645
66.61000 413.624
66.62000 412.979
66.63000 401.421
66.64000 388.663
66.65000 378.438
66.66000 375.348
66.67000 372.688
66.68000 370.921
66.69000 374.938
66.70000 378.013
66.71000 378.418
66.72000 375.351
66.73000 372.269
66.74000 369.137
66.75000 365.964
66.76000 362.828
66.77000 364.448
66.78000 368.656
66.79000 372.470
66.80000 368.553
66.81000 361.643
66.82000 355.596
66.83000 358.449
66.84000 363.647
66.85000 368.223
66.86000 377.624
66.87000 386.442
66.88000 393.800
66.89000 395.177
66.90000 395.909
66.91000 394.456
66.92000 386.935
66.93000 379.057
66.94000 373.854
66.95000 382.041
66.96000 388.316
66.97000 392.424
66.98000 393.760
66.99000 395.084
67.00000 395.678
67.01000 395.666
67.02000 395.654
67.03000 397.250
67.04000 399.681
67.05000 402.001
67.06000 402.228
67.07000 401.656
67.08000 401.448
67.09000 404.913
67.10000 409.331
67.11000 413.211
67.12000 409.828
67.13000 405.852
67.14000 404.101
67.15000 411.330
67.16000 419.507
67.17000 423.018
67.18000 413.759
67.19000 403.771
67.20000 397.209
67.21000 396.329
67.22000 395.777
67.23000 402.786
67.24000 419.322
67.25000 435.869
67.26000 444.454
67.27000 446.512
67.28000 448.543
67.29000 444.380
67.30000 437.015
67.31000 430.016
67.32000 429.811
67.33000 432.163
67.34000 434.124
67.35000 432.218
67.36000 429.325
67.37000 426.789
67.38000 429.017
67.39000 431.615
67.40000 433.604
67.41000 433.171
67.42000 432.488
67.43000 431.452
67.44000 429.467
67.45000 427.429
67.46000 426.097
67.47000 429.127
67.48000 431.423
67.49000 438.072
67.50000 450.122
67.51000 462.161
67.52000 465.225
67.53000 461.048
67.54000 456.930
67.55000 460.982
67.56000 469.226
67.57000 476.946
67.58000 475.219
67.59000 469.988
67.60000 464.956
67.61000 461.839
67.62000 459.205
67.63000 456.902
67.64000 461.540
67.65000 466.495
67.66000 470.838
67.67000 472.783
67.68000 474.485
67.69000 476.026
67.70000 477.137
67.71000 478.225
67.72000 478.932
67.73000 488.508
67.74000 495.660
67.75000 499.145
67.76000 498.154
67.77000 497.152
67.78000 496.133
67.79000 495.102
67.80000 494.085
67.81000 491.904
67.82000 489.183
67.83000 486.961
67.84000 493.479
67.85000 503.191
67.86000 512.073
67.87000 513.078
67.88000 512.130
67.89000 511.304
67.90000 513.806
67.91000 516.406
67.92000 518.403
67.93000 518.072
67.94000 517.509
67.95000 518.658
67.96000 524.295
67.97000 530.167
67.98000 533.962
67.99000 536.007
68.00000 537.476
68.01000 538.518
68.02000 539.047
68.03000 539.573
68.04000 539.633
68.05000 539.329
68.06000 539.030
68.07000 545.807
68.08000 555.988
68.09000 565.613
68.10000 565.749
68.11000 562.467
68.12000 560.137
68.13000 566.655
68.14000 575.333
68.15000 582.880
68.16000 581.721
68.17000 579.545
68.18000 578.126
68.19000 579.581
68.20000 581.316
68.21000 583.767
68.22000 588.068
68.23000 592.464
68.24000 595.289
68.25000 604.444
68.26000 611.211
68.27000 617.517
68.28000 623.278
68.29000 629.011
68.30000 628.221
68.31000 622.410
68.32000 616.693
68.33000 626.060
68.34000 642.704
68.35000 658.733
68.36000 664.535
68.37000 666.707
68.38000 668.648
68.39000 668.486
68.40000 667.819
68.41000 667.240
68.42000 692.811
68.43000 718.087
68.44000 737.324
68.45000 733.969
68.46000 728.467
68.47000 728.332
68.48000 741.867
68.49000 756.078
68.50000 765.160
68.51000 779.000
68.52000 789.137
68.53000 803.039
68.54000 821.321
68.55000 839.617
68.56000 859.787
68.57000 881.375
68.58000 902.597
68.59000 926.219
68.60000 950.243
68.61000 975.800
68.62000 1026.140
68.63000 1085.153
68.64000 1142.286
68.65000 1182.624
68.66000 1218.986
68.67000 1250.449
68.68000 1296.948
68.69000 1338.450
68.70000 1386.728
68.71000 1459.980
68.72000 1535.556
68.73000 1602.038
68.74000 1645.698
68.75000 1688.261
68.76000 1715.309
68.77000 1798.701
68.78000 1859.962
68.79000 1918.388
68.80000 1973.569
68.81000 2028.806
68.82000 2095.615
68.83000 2171.055
68.84000 2245.154
68.85000 2367.451
68.86000 2508.990
68.87000 2656.844
68.88000 2904.236
68.89000 3185.955
68.90000 3517.781
68.91000 4288.323
68.92000 5161.134
68.93000 5914.422
68.94000 8278.227
68.95000 10491.232
68.96000 13022.816
68.97000 16711.039
68.98000 20504.590
68.99000 24431.457
69.00000 28688.096
69.01000 32960.109
69.02000 35659.348
69.03000 40030.008
69.04000 43216.582
69.05000 45643.191
69.06000 47214.020
69.07000 48781.547
69.08000 49903.156
69.09000 50697.273
69.10000 51476.621
69.11000 52146.672
69.12000 52740.406
69.13000 53350.078
69.14000 54204.531
69.15000 55142.184
69.16000 55995.727
69.17000 56127.102
69.18000 56092.727
69.19000 56063.133
69.20000 53885.602
69.21000 51770.273
69.22000 49340.664
69.23000 45786.980
69.24000 42133.145
69.25000 38724.516
69.26000 35913.730
69.27000 33129.969
69.28000 31381.266
69.29000 29430.930
69.30000 28018.689
69.31000 27025.389
69.32000 26496.189
69.33000 25967.686
69.34000 25501.451
69.35000 25080.248
69.36000 24667.229
69.37000 23794.027
69.38000 22736.160
69.39000 21630.404
69.40000 19807.539
69.41000 17744.471
69.42000 15663.908
69.43000 13436.021
69.44000 11174.843
69.45000 9233.466
69.46000 7514.953
69.47000 6089.622
69.48000 4802.594
69.49000 4002.914
69.50000 3245.707
69.51000 2621.868
69.52000 2318.535
69.53000 2029.244
69.54000 1848.581
69.55000 1641.361
69.56000 1491.612
69.57000 1379.313
69.58000 1307.823
69.59000 1236.466
69.60000 1181.648
69.61000 1138.608
69.62000 1096.441
69.63000 1059.284
69.64000 1025.877
69.65000 992.773
69.66000 964.101
69.67000 936.891
69.68000 909.129
69.69000 876.799
69.70000 843.453
69.71000 814.898
69.72000 787.750
69.73000 765.010
69.74000 744.256
69.75000 730.396
69.76000 717.123
69.77000 704.529
69.78000 693.544
69.79000 682.627
69.80000 675.850
69.81000 655.582
69.82000 640.863
69.83000 632.861
69.84000 632.057
69.85000 631.203
69.86000 623.442
69.87000 610.836
69.88000 598.497
69.89000 582.955
69.90000 566.566
69.91000 551.213
69.92000 550.617
69.93000 554.821
69.94000 557.782
69.95000 550.677
69.96000 541.367
69.97000 533.416
69.98000 531.764
69.99000 531.121
70.00000 530.808
