20.00000 482.796
20.01000 482.222
20.02000 481.567
20.03000 480.993
20.04000 480.739
20.05000 480.519
20.06000 480.356
20.07000 492.491
20.08000 502.419
20.09000 504.692
20.10000 492.950
20.11000 480.908
20.12000 479.112
20.13000 489.919
20.14000 500.741
20.15000 502.872
20.16000 498.071
20.17000 493.342
20.18000 491.851
20.19000 492.103
20.20000 492.362
20.21000 492.750
20.22000 493.185
20.23000 493.587
20.24000 493.085
20.25000 492.432
20.26000 492.234
20.27000 494.713
20.28000 497.632
20.29000 498.751
20.30000 492.883
20.31000 486.315
20.32000 481.484
20.33000 478.396
20.34000 476.079
20.35000 474.179
20.36000 473.033
20.37000 471.903
20.38000 476.621
20.39000 488.421
20.40000 500.213
20.41000 497.414
20.42000 483.192
20.43000 469.258
20.44000 467.561
20.45000 472.355
20.46000 477.091
20.47000 480.808
20.48000 484.157
20.49000 487.242
20.50000 480.117
20.51000 471.493
20.52000 465.131
20.53000 471.879
20.54000 480.740
20.55000 486.922
20.56000 482.858
20.57000 477.788
20.58000 474.076
20.59000 484.242
20.60000 492.644
20.61000 495.209
20.62000 487.397
20.63000 479.384
20.64000 477.271
20.65000 482.189
20.66000 487.109
20.67000 489.435
20.68000 489.747
20.69000 489.990
20.70000 487.422
20.71000 483.385
20.72000 479.702
20.73000 481.976
20.74000 486.380
20.75000 490.429
20.76000 489.371
20.77000 487.321
20.78000 485.000
20.79000 481.139
20.80000 477.034
20.81000 474.823
20.82000 479.751
20.83000 485.364
20.84000 489.457
20.85000 491.762
20.86000 493.469
20.87000 492.353
20.88000 486.290
20.89000 480.135
20.90000 475.444
20.91000 472.470
20.92000 469.505
20.93000 468.126
20.94000 467.959
20.95000 467.942
20.96000 473.820
20.97000 482.733
20.98000 491.409
20.99000 496.189
21.00000 499.595
21.01000 502.722
21.02000 510.581
21.03000 518.595
21.04000 524.037
21.05000 515.049
21.06000 503.816
21.07000 494.217
21.08000 490.684
21.09000 487.722
21.10000 485.571
21.11000 481.818
21.12000 478.873
21.13000 481.184
21.14000 492.570
21.15000 504.115
21.16000 508.639
21.17000 505.063
21.18000 501.486
21.19000 494.693
21.20000 485.545
21.21000 476.623
21.22000 476.154
21.23000 479.975
21.24000 483.733
21.25000 486.476
21.26000 488.867
21.27000 491.057
21.28000 492.307
21.29000 493.223
21.30000 493.588
21.31000 490.916
21.32000 487.779
21.33000 486.283
21.34000 490.788
21.35000 495.844
21.36000 499.499
21.37000 486.066
21.38000 475.139
21.39000 472.062
21.40000 482.339
21.41000 492.837
21.42000 498.790
21.43000 499.583
21.44000 500.368
21.45000 498.932
21.46000 495.875
21.47000 492.706
21.48000 485.458
21.49000 476.171
21.50000 467.536
21.51000 469.056
21.52000 474.053
21.53000 478.621
21.54000 483.649
21.55000 488.212
21.56000 491.448
21.57000 487.481
21.58000 482.432
21.59000 480.384
21.60000 489.146
21.61000 498.882
21.62000 505.889
21.63000 499.826
21.64000 494.723
21.65000 497.604
21.66000 513.865
21.67000 530.335
21.68000 536.793
21.69000 532.069
21.70000 527.353
21.71000 526.580
21.72000 528.662
21.73000 530.460
21.74000 522.427
21.75000 509.547
21.76000 497.701
21.77000 501.532
21.78000 510.651
21.79000 518.973
21.80000 523.926
21.81000 527.640
21.82000 531.963
21.83000 539.538
21.84000 547.592
21.85000 555.516
21.86000 562.974
21.87000 570.391
21.88000 575.705
21.89000 588.910
21.90000 599.268
21.91000 607.095
21.92000 610.741
21.93000 614.324
21.94000 618.121
21.95000 622.152
21.96000 626.167
21.97000 633.470
21.98000 643.041
21.99000 652.604
22.00000 661.900
22.01000 671.064
22.02000 679.574
22.03000 678.404
22.04000 674.016
22.05000 670.019
22.06000 673.746
22.07000 678.580
22.08000 682.011
22.09000 678.074
22.10000 673.069
22.11000 669.865
22.12000 672.958
22.13000 676.593
22.14000 679.186
22.15000 677.090
22.16000 675.338
22.17000 668.829
22.18000 654.583
22.19000 640.229
22.20000 627.018
22.21000 615.043
22.22000 603.119
22.23000 599.279
22.24000 601.132
22.25000 602.735
22.26000 596.390
22.27000 586.237
22.28000 576.346
22.29000 570.217
22.30000 565.322
22.31000 560.873
22.32000 548.414
22.33000 535.839
22.34000 525.194
22.35000 524.526
22.36000 525.279
22.37000 526.445
22.38000 529.036
22.39000 531.747
22.40000 533.673
22.41000 516.943
22.42000 503.620
22.43000 497.805
22.44000 504.023
22.45000 510.401
22.46000 509.450
22.47000 500.712
22.48000 492.012
22.49000 489.085
22.50000 490.161
22.51000 490.931
22.52000 482.272
22.53000 469.162
22.54000 457.127
22.55000 460.230
22.56000 468.221
22.57000 475.470
22.58000 470.802
22.59000 464.399
22.60000 458.905
22.61000 458.030
22.62000 457.802
22.63000 457.153
22.64000 455.075
22.65000 452.878
22.66000 451.326
22.67000 452.789
22.68000 453.992
22.69000 454.134
22.70000 452.602
22.71000 451.049
22.72000 450.601
22.73000 451.307
22.74000 452.010
22.75000 456.506
22.76000 463.518
22.77000 470.070
22.78000 462.986
22.79000 449.556
22.80000 437.053
22.81000 437.256
22.82000 441.502
22.83000 445.345
22.84000 444.582
22.85000 443.042
22.86000 442.654
22.87000 448.034
22.88000 454.205
22.89000 458.102
22.90000 454.392
22.91000 450.070
22.92000 447.029
22.93000 455.289
22.94000 461.883
22.95000 462.398
22.96000 453.460
22.97000 444.413
22.98000 440.464
22.99000 441.756
23.00000 443.041
23.01000 439.373
23.02000 432.452
23.03000 425.874
23.04000 429.129
23.05000 436.894
23.06000 444.099
23.07000 443.806
23.08000 441.163
23.09000 438.775
23.10000 439.801
23.11000 441.335
23.12000 443.121
23.13000 446.146
23.14000 449.338
23.15000 451.173
23.16000 448.535
23.17000 445.545
23.18000 443.451
23.19000 460.367
23.20000 473.702
23.21000 475.082
23.22000 458.145
23.23000 441.010
23.24000 430.593
23.25000 426.965
23.26000 423.358
23.27000 423.476
23.28000 426.034
23.29000 428.586
23.30000 430.967
23.31000 433.271
23.32000 435.226
23.33000 432.611
23.34000 428.584
23.35000 424.953
23.36000 430.580
23.37000 437.202
23.38000 442.426
23.39000 440.873
23.40000 438.423
23.41000 436.194
23.42000 434.685
23.43000 433.231
23.44000 432.218
23.45000 442.408
23.46000 450.406
23.47000 455.411
23.48000 455.900
23.49000 456.343
23.50000 452.678
23.51000 444.930
23.52000 437.232
23.53000 435.106
23.54000 436.607
23.55000 437.998
23.56000 436.481
23.57000 433.668
23.58000 430.741
23.59000 426.362
23.60000 421.540
23.61000 417.202
23.62000 426.189
23.63000 436.444
23.64000 444.144
23.65000 439.665
23.66000 433.604
23.67000 431.555
23.68000 442.344
23.69000 454.096
23.70000 462.248
23.71000 458.233
23.72000 454.887
23.73000 451.213
23.74000 447.050
23.75000 442.882
23.76000 443.115
23.77000 447.644
23.78000 452.142
23.79000 446.816
23.80000 435.336
23.81000 424.238
23.82000 423.000
23.83000 426.093
23.84000 429.316
23.85000 434.161
23.86000 439.492
23.87000 444.278
23.88000 435.199
23.89000 424.825
23.90000 417.032
23.91000 421.350
23.92000 427.211
23.93000 431.027
23.94000 428.393
23.95000 425.287
23.96000 423.143
23.97000 424.382
23.98000 425.400
23.99000 427.867
24.00000 432.455
24.01000 437.063
24.02000 439.770
24.03000 440.652
24.04000 441.528
24.05000 441.343
24.06000 440.498
24.07000 439.540
24.08000 435.763
24.09000 430.765
24.10000 425.901
24.11000 422.664
24.12000 419.907
24.13000 417.438
24.14000 417.936
24.15000 418.882
24.16000 419.295
24.17000 417.249
24.18000 414.895
24.19000 413.771
24.20000 416.469
24.21000 419.439
24.22000 421.480
24.23000 422.132
24.24000 422.586
24.25000 419.426
24.26000 411.052
24.27000 402.638
24.28000 404.290
24.29000 415.449
24.30000 426.519
24.31000 432.487
24.32000 435.212
24.33000 437.652
24.34000 433.202
24.35000 425.813
24.36000 419.071
24.37000 420.043
24.38000 423.263
24.39000 426.140
24.40000 421.557
24.41000 416.300
24.42000 413.240
24.43000 420.171
24.44000 428.329
24.45000 433.453
24.46000 429.286
24.47000 424.472
24.48000 421.181
24.49000 404.972
24.50000 392.538
24.51000 390.502
24.52000 403.232
24.53000 416.067
24.54000 416.139
24.55000 404.355
24.56000 392.671
24.57000 395.379
24.58000 406.746
24.59000 417.560
24.60000 415.447
24.61000 407.897
24.62000 401.446
24.63000 407.815
24.64000 417.862
24.65000 426.822
24.66000 422.622
24.67000 416.780
24.68000 411.839
24.69000 410.933
24.70000 410.513
24.71000 410.290
24.72000 410.660
24.73000 411.071
24.74000 411.350
24.75000 405.907
24.76000 401.712
24.77000 399.479
24.78000 399.988
24.79000 400.517
24.80000 403.070
24.81000 407.471
24.82000 411.833
24.83000 420.044
24.84000 430.387
24.85000 439.913
24.86000 430.961
24.87000 414.350
24.88000 399.097
24.89000 399.333
24.90000 403.948
24.91000 408.054
24.92000 405.858
24.93000 402.923
24.94000 401.496
24.95000 406.717
24.96000 412.724
24.97000 417.767
24.98000 419.941
24.99000 421.926
25.00000 423.269
25.01000 417.782
25.02000 413.544
25.03000 410.035
25.04000 407.528
25.05000 405.029
25.06000 405.452
25.07000 408.499
25.08000 411.517
25.09000 415.599
25.10000 420.219
25.11000 424.548
25.12000 422.480
25.13000 417.799
25.14000 413.217
25.15000 409.737
25.16000 406.565
25.17000 403.748
25.18000 403.782
25.19000 404.269
25.20000 405.536
25.21000 410.188
25.22000 415.233
25.23000 418.805
25.24000 418.064
25.25000 417.044
25.26000 416.357
25.27000 418.337
25.28000 419.865
25.29000 420.893
25.30000 421.241
25.31000 421.583
25.32000 419.748
25.33000 415.988
25.34000 412.266
25.35000 406.570
25.36000 399.859
25.37000 393.283
25.38000 389.562
25.39000 386.991
25.40000 384.993
25.41000 389.241
25.42000 395.203
25.43000 400.484
25.44000 397.842
25.45000 394.308
25.46000 392.381
25.47000 397.318
25.48000 403.035
25.49000 408.694
25.50000 414.183
25.51000 419.661
25.52000 423.331
25.53000 417.172
25.54000 412.407
25.55000 408.765
25.56000 406.624
25.57000 404.497
25.58000 407.994
25.59000 416.383
25.60000 424.682
25.61000 424.971
25.62000 420.705
25.63000 416.383
25.64000 410.894
25.65000 404.941
25.66000 399.391
25.67000 398.130
25.68000 398.029
25.69000 397.939
25.70000 400.148
25.71000 402.410
25.72000 404.246
25.73000 404.287
25.74000 404.129
25.75000 403.755
25.76000 402.763
25.77000 401.734
25.78000 401.048
25.79000 398.981
25.80000 397.424
25.81000 398.098
25.82000 401.705
25.83000 405.325
25.84000 408.915
25.85000 412.479
25.86000 416.003
25.87000 414.276
25.88000 409.656
25.89000 405.266
25.90000 405.486
25.91000 407.510
25.92000 409.080
25.93000 405.901
25.94000 401.459
25.95000 397.541
25.96000 395.480
25.97000 393.985
25.98000 393.224
25.99000 395.506
26.00000 398.121
26.01000 398.059
26.02000 390.491
26.03000 382.475
26.04000 377.160
26.05000 389.086
26.06000 398.210
26.07000 401.001
26.08000 395.596
26.09000 390.163
26.10000 387.270
26.11000 386.518
26.12000 385.775
26.13000 389.153
26.14000 394.712
26.15000 399.917
26.16000 398.217
26.17000 393.854
26.18000 390.079
26.19000 392.322
26.20000 396.144
26.21000 399.506
26.22000 399.691
26.23000 399.377
26.24000 400.014
26.25000 404.531
26.26000 409.463
26.27000 411.161
26.28000 403.915
26.29000 396.149
26.30000 391.027
26.31000 386.164
26.32000 382.584
26.33000 378.692
26.34000 374.401
26.35000 370.122
26.36000 371.721
26.37000 378.193
26.38000 384.582
26.39000 392.939
26.40000 402.141
26.41000 410.794
26.42000 409.056
26.43000 403.370
26.44000 397.902
26.45000 394.625
26.46000 391.914
26.47000 389.534
26.48000 390.699
26.49000 392.218
26.50000 393.087
26.51000 391.344
26.52000 389.328
26.53000 387.328
26.54000 385.373
26.55000 383.421
26.56000 382.141
26.57000 383.018
26.58000 383.699
26.59000 381.786
26.60000 376.620
26.61000 371.464
26.62000 374.193
26.63000 383.353
26.64000 392.389
26.65000 396.289
26.66000 397.344
26.67000 398.536
26.68000 402.226
26.69000 406.853
26.70000 410.473
26.71000 404.213
26.72000 395.438
26.73000 387.757
26.74000 385.153
26.75000 383.648
26.76000 383.318
26.77000 387.634
26.78000 392.428
26.79000 394.357
26.80000 388.593
26.81000 382.405
26.82000 378.369
26.83000 388.794
26.84000 396.673
26.85000 402.710
26.86000 406.473
26.87000 410.218
26.88000 410.177
26.89000 407.096
26.90000 404.059
26.91000 398.219
26.92000 391.077
26.93000 384.062
26.94000 379.310
26.95000 375.393
26.96000 372.420
26.97000 378.532
26.98000 386.920
26.99000 394.246
27.00000 395.546
27.01000 395.810
27.02000 394.364
27.03000 386.249
27.04000 377.463
27.05000 370.855
27.06000 370.014
27.07000 369.481
27.08000 369.136
27.09000 363.402
27.10000 359.122
27.11000 361.980
27.12000 373.511
27.13000 385.031
27.14000 387.257
27.15000 382.139
27.16000 377.098
27.17000 377.473
27.18000 380.633
27.19000 383.580
27.20000 382.819
27.21000 380.708
27.22000 378.456
27.23000 374.868
27.24000 370.951
27.25000 367.538
27.26000 367.692
27.27000 368.316
27.28000 370.098
27.29000 376.324
27.30000 382.989
27.31000 387.821
27.32000 387.869
27.33000 387.668
27.34000 387.539
27.35000 382.028
27.36000 377.925
27.37000 380.578
27.38000 391.306
27.39000 401.990
27.40000 396.781
27.41000 379.206
27.42000 361.907
27.43000 359.059
27.44000 363.641
27.45000 368.047
27.46000 369.465
27.47000 369.812
27.48000 370.186
27.49000 370.809
27.50000 371.492
27.51000 372.085
27.52000 371.909
27.53000 371.653
27.54000 372.493
27.55000 377.470
27.56000 382.846
27.57000 384.857
27.58000 378.214
27.59000 371.134
27.60000 366.591
27.61000 364.366
27.62000 362.775
27.63000 362.287
27.64000 363.097
27.65000 363.915
27.66000 366.432
27.67000 370.248
27.68000 374.001
27.69000 378.609
27.70000 383.496
27.71000 388.071
27.72000 387.523
27.73000 385.164
27.74000 382.719
27.75000 379.498
27.76000 376.092
27.77000 373.140
27.78000 371.694
27.79000 370.663
27.80000 370.597
27.81000 374.122
27.82000 377.986
27.83000 380.874
27.84000 381.286
27.85000 381.576
27.86000 381.761
27.87000 369.913
27.88000 361.140
27.89000 359.873
27.90000 367.296
27.91000 374.688
27.92000 373.474
27.93000 365.771
27.94000 358.201
27.95000 360.748
27.96000 368.188
27.97000 375.503
27.98000 380.794
27.99000 385.379
28.00000 389.246
28.01000 386.729
28.02000 382.707
28.03000 379.230
28.04000 376.414
28.05000 374.108
28.06000 372.403
28.07000 372.909
28.08000 373.619
28.09000 374.940
28.10000 377.792
28.11000 380.717
28.12000 382.572
28.13000 379.025
28.14000 376.384
28.15000 376.704
28.16000 380.395
28.17000 384.067
28.18000 383.341
28.19000 379.350
28.20000 375.431
28.21000 380.079
28.22000 388.714
28.23000 396.449
28.24000 390.100
28.25000 378.914
28.26000 368.627
28.27000 366.159
28.28000 365.506
28.29000 364.942
28.30000 364.399
28.31000 363.941
28.32000 364.521
28.33000 368.853
28.34000 373.523
28.35000 378.992
28.36000 386.424
28.37000 393.947
28.38000 398.693
28.39000 396.704
28.40000 395.186
28.41000 389.837
28.42000 380.194
28.43000 370.592
28.44000 368.450
28.45000 371.762
28.46000 375.011
28.47000 371.162
28.48000 364.067
28.49000 357.471
28.50000 358.477
28.51000 362.056
28.52000 365.863
28.53000 371.614
28.54000 377.808
28.55000 383.137
28.56000 366.422
28.57000 349.508
28.58000 339.576
28.59000 354.506
28.60000 371.636
28.61000 381.878
28.62000 375.397
28.63000 368.167
28.64000 363.633
28.65000 368.078
28.66000 371.387
28.67000 374.757
28.68000 378.193
28.69000 381.592
28.70000 379.062
28.71000 372.264
28.72000 365.600
28.73000 368.960
28.74000 376.898
28.75000 384.147
28.76000 381.143
28.77000 374.720
28.78000 368.970
28.79000 368.860
28.80000 370.019
28.81000 371.013
28.82000 377.680
28.83000 384.010
28.84000 387.985
28.85000 383.695
28.86000 378.690
28.87000 375.200
28.88000 375.335
28.89000 375.627
28.90000 375.810
28.91000 369.195
28.92000 364.358
28.93000 361.729
28.94000 361.494
28.95000 361.287
28.96000 364.842
28.97000 371.062
28.98000 377.155
28.99000 372.523
29.00000 363.115
29.01000 354.313
29.02000 354.286
29.03000 357.144
29.04000 359.592
29.05000 358.675
29.06000 357.014
29.07000 355.592
29.08000 359.526
29.09000 363.489
29.10000 368.052
29.11000 374.692
29.12000 381.507
29.13000 385.871
29.14000 384.453
29.15000 382.793
29.16000 381.764
29.17000 373.413
29.18000 367.337
29.19000 365.700
29.20000 368.796
29.21000 371.851
29.22000 369.319
29.23000 362.887
29.24000 356.592
29.25000 362.620
29.26000 374.009
29.27000 384.405
29.28000 380.763
29.29000 372.574
29.30000 365.420
29.31000 366.601
29.32000 369.600
29.33000 372.159
29.34000 368.432
29.35000 364.552
29.36000 363.939
29.37000 374.453
29.38000 385.887
29.39000 391.070
29.40000 381.718
29.41000 371.775
29.42000 365.651
29.43000 367.914
29.44000 369.613
29.45000 369.189
29.46000 366.536
29.47000 363.916
29.48000 365.193
29.49000 369.149
29.50000 373.017
29.51000 366.489
29.52000 355.579
29.53000 345.695
29.54000 349.979
29.55000 358.784
29.56000 367.143
29.57000 371.967
29.58000 376.032
29.59000 379.492
29.60000 381.623
29.61000 383.260
29.62000 383.989
29.63000 381.672
29.64000 379.108
29.65000 376.208
29.66000 372.537
29.67000 368.835
29.68000 366.569
29.69000 363.658
29.70000 361.569
29.71000 359.874
29.72000 358.587
29.73000 357.335
29.74000 359.921
29.75000 365.106
29.76000 370.172
29.77000 369.432
29.78000 366.168
29.79000 363.913
29.80000 375.253
29.81000 390.870
29.82000 405.379
29.83000 411.303
29.84000 415.414
29.85000 418.902
29.86000 410.450
29.87000 402.006
29.88000 397.885
29.89000 408.058
29.90000 419.361
29.91000 428.228
29.92000 431.594
29.93000 434.750
29.94000 436.671
29.95000 442.327
29.96000 446.396
29.97000 451.170
29.98000 456.659
29.99000 462.106
30.00000 463.237
30.01000 461.489
30.02000 459.783
30.03000 457.331
30.04000 454.664
30.05000 452.637
30.06000 459.029
30.07000 468.031
30.08000 474.833
30.09000 464.885
30.10000 451.455
30.11000 440.090
30.12000 444.497
30.13000 449.942
30.14000 453.854
30.15000 452.777
30.16000 451.314
30.17000 448.477
30.18000 442.579
30.19000 436.570
30.20000 432.935
30.21000 439.291
30.22000 443.893
30.23000 443.361
30.24000 437.712
30.25000 432.052
30.26000 425.293
30.27000 417.813
30.28000 410.521
30.29000 407.401
30.30000 406.202
30.31000 405.216
30.32000 406.969
30.33000 409.558
30.34000 411.784
30.35000 411.302
30.36000 410.264
30.37000 409.389
30.38000 404.847
30.39000 400.652
30.40000 397.850
30.41000 399.523
30.42000 401.532
30.43000 403.706
30.44000 406.241
30.45000 408.788
30.46000 410.318
30.47000 404.411
30.48000 400.161
30.49000 399.740
30.50000 403.072
30.51000 406.344
30.52000 404.256
30.53000 398.701
30.54000 393.290
30.55000 400.877
30.56000 413.569
30.57000 425.072
30.58000 421.657
30.59000 413.753
30.60000 406.802
30.61000 406.838
30.62000 408.281
30.63000 409.496
30.64000 405.151
30.65000 400.933
30.66000 399.447
30.67000 406.601
30.68000 414.390
30.69000 418.663
30.70000 415.331
30.71000 411.739
30.72000 409.594
30.73000 405.062
30.74000 401.834
30.75000 404.498
30.76000 412.841
30.77000 421.154
30.78000 426.895
30.79000 430.999
30.80000 434.991
30.81000 437.233
30.82000 438.643
30.83000 440.463
30.84000 447.313
30.85000 455.655
30.86000 463.068
30.87000 463.784
30.88000 463.173
30.89000 462.661
30.90000 468.950
30.91000 474.896
30.92000 482.032
30.93000 492.879
30.94000 503.992
30.95000 514.324
30.96000 522.993
30.97000 531.606
30.98000 536.716
30.99000 534.623
31.00000 533.103
31.01000 544.974
31.02000 569.537
31.03000 594.154
31.04000 622.965
31.05000 654.411
31.06000 684.976
31.07000 717.117
31.08000 748.312
31.09000 779.509
31.10000 810.729
31.11000 841.956
31.12000 875.554
31.13000 925.936
31.14000 979.590
31.15000 1024.484
31.16000 1102.791
31.17000 1171.278
31.18000 1245.352
31.19000 1336.585
31.20000 1429.021
31.21000 1525.509
31.22000 1630.510
31.23000 1735.781
31.24000 1797.829
31.25000 1937.804
31.26000 2037.020
31.27000 2146.090
31.28000 2264.344
31.29000 2382.378
31.30000 2484.183
31.31000 2575.948
31.32000 2665.051
31.33000 2760.638
31.34000 2853.967
31.35000 2943.760
31.36000 2992.101
31.37000 3028.511
31.38000 3064.819
31.39000 3100.421
31.40000 3135.887
31.41000 3165.476
31.42000 3106.207
31.43000 3048.141
31.44000 2989.561
31.45000 2929.425
31.46000 2869.183
31.47000 2795.951
31.48000 2695.823
31.49000 2594.870
31.50000 2535.757
31.51000 2404.783
31.52000 2312.208
31.53000 2214.271
31.54000 2111.420
31.55000 2008.465
31.56000 1898.356
31.57000 1783.885
31.58000 1672.856
31.59000 1566.083
31.60000 1466.560
31.61000 1368.010
31.62000 1280.623
31.63000 1196.402
31.64000 1115.036
31.65000 1053.171
31.66000 994.985
31.67000 946.584
31.68000 907.375
31.69000 875.821
31.70000 841.760
31.71000 800.217
31.72000 758.175
31.73000 717.476
31.74000 679.517
31.75000 641.640
31.76000 619.608
31.77000 597.008
31.78000 581.131
31.79000 566.081
31.80000 551.778
31.81000 537.431
31.82000 520.304
31.83000 501.505
31.84000 483.292
31.85000 474.659
31.86000 470.205
31.87000 465.584
31.88000 459.095
31.89000 452.084
31.90000 444.713
31.91000 434.925
31.92000 424.689
31.93000 416.199
31.94000 412.415
31.95000 409.741
31.96000 405.183
31.97000 395.085
31.98000 384.627
31.99000 379.260
32.00000 384.129
32.01000 389.288
32.02000 392.269
32.03000 386.214
32.04000 381.936
32.05000 380.056
32.06000 380.302
32.07000 380.531
32.08000 379.716
32.09000 378.282
32.10000 376.895
32.11000 371.136
32.12000 364.025
32.13000 357.540
32.14000 357.927
32.15000 360.205
32.16000 361.729
32.17000 358.276
32.18000 353.916
32.19000 350.310
32.20000 352.382
32.21000 354.626
32.22000 356.419
32.23000 356.911
32.24000 357.320
32.25000 357.488
32.26000 357.178
32.27000 356.854
32.28000 356.669
32.29000 351.006
32.30000 347.027
32.31000 342.405
32.32000 337.223
32.33000 332.153
32.34000 333.706
32.35000 339.118
32.36000 344.350
32.37000 349.615
32.38000 354.595
32.39000 359.253
32.40000 360.468
32.41000 360.749
32.42000 359.905
32.43000 351.778
32.44000 342.342
32.45000 334.564
32.46000 338.457
32.47000 342.736
32.48000 345.813
32.49000 345.455
32.50000 344.886
32.51000 346.601
32.52000 352.776
32.53000 359.068
32.54000 362.654
32.55000 345.061
32.56000 332.740
32.57000 331.413
32.58000 339.527
32.59000 347.486
32.60000 346.786
32.61000 341.113
32.62000 335.635
32.63000 335.587
32.64000 337.550
32.65000 338.893
32.66000 333.730
32.67000 326.828
32.68000 321.821
32.69000 328.867
32.70000 338.042
32.71000 345.582
32.72000 347.877
32.73000 349.290
32.74000 347.774
32.75000 338.014
32.76000 327.759
32.77000 321.539
32.78000 323.087
32.79000 324.830
32.80000 325.816
32.81000 323.569
32.82000 322.000
32.83000 322.713
32.84000 325.355
32.85000 328.007
32.86000 331.210
32.87000 334.725
32.88000 338.115
32.89000 341.295
32.90000 344.210
32.91000 346.714
32.92000 345.001
32.93000 342.177
32.94000 338.600
32.95000 330.312
32.96000 321.206
32.97000 313.746
32.98000 313.464
32.99000 313.865
33.00000 314.500
33.01000 315.782
33.02000 317.102
33.03000 319.191
33.04000 322.737
33.05000 326.318
33.06000 328.330
33.07000 321.055
33.08000 315.991
33.09000 314.678
33.10000 316.484
33.11000 318.261
33.12000 318.553
33.13000 318.017
33.14000 317.501
33.15000 310.134
33.16000 300.760
33.17000 293.011
33.18000 301.628
33.19000 314.487
33.20000 324.886
33.21000 320.164
33.22000 312.859
33.23000 306.894
33.24000 308.093
33.25000 309.693
33.26000 310.849
33.27000 310.793
33.28000 310.668
33.29000 306.987
33.30000 296.656
33.31000 286.173
33.32000 280.324
33.33000 298.555
33.34000 311.202
33.35000 313.818
33.36000 308.224
33.37000 302.677
33.38000 299.363
33.39000 297.276
33.40000 295.268
33.41000 299.069
33.42000 304.680
33.43000 309.778
33.44000 309.802
33.45000 308.532
33.46000 307.368
33.47000 306.839
33.48000 306.417
33.49000 306.073
33.50000 300.334
33.51000 295.191
33.52000 292.126
33.53000 294.662
33.54000 297.507
33.55000 301.134
33.56000 306.201
33.57000 311.299
33.58000 314.123
33.59000 306.387
33.60000 301.030
33.61000 297.395
33.62000 295.147
33.63000 293.107
33.64000 300.553
33.65000 313.137
33.66000 325.231
33.67000 318.126
33.68000 304.813
33.69000 292.647
33.70000 291.558
33.71000 293.254
33.72000 295.120
33.73000 297.994
33.74000 301.035
33.75000 303.503
33.76000 307.158
33.77000 310.236
33.78000 310.304
33.79000 302.381
33.80000 294.027
33.81000 290.229
33.82000 294.706
33.83000 299.356
33.84000 301.913
33.85000 303.916
33.86000 305.289
33.87000 305.183
33.88000 303.904
33.89000 302.547
33.90000 297.790
33.91000 291.218
33.92000 284.911
33.93000 288.082
33.94000 294.282
33.95000 299.542
33.96000 295.906
33.97000 290.067
33.98000 285.694
33.99000 289.889
34.00000 295.473
34.01000 299.991
34.02000 297.664
34.03000 295.219
34.04000 293.420
34.05000 293.309
34.06000 293.287
34.07000 293.747
34.08000 295.073
34.09000 296.415
34.10000 297.148
34.11000 298.803
34.12000 299.932
34.13000 298.797
34.14000 295.894
34.15000 293.105
34.16000 295.056
34.17000 299.500
34.18000 303.760
34.19000 298.653
34.20000 290.740
34.21000 283.054
34.22000 277.469
34.23000 272.397
34.24000 269.072
34.25000 275.791
34.26000 284.112
34.27000 290.821
34.28000 296.878
34.29000 301.747
34.30000 303.962
34.31000 299.330
34.32000 294.350
34.33000 291.360
34.34000 291.878
34.35000 292.461
34.36000 292.778
34.37000 291.106
34.38000 289.980
34.39000 293.904
34.40000 301.709
34.41000 309.263
34.42000 306.852
34.43000 299.276
34.44000 292.022
34.45000 291.436
34.46000 293.093
34.47000 294.258
34.48000 290.941
34.49000 286.547
34.50000 283.348
34.51000 286.893
34.52000 291.495
34.53000 295.193
34.54000 292.594
34.55000 290.003
34.56000 287.142
34.57000 283.591
34.58000 280.006
34.59000 277.409
34.60000 276.531
34.61000 275.683
34.62000 275.227
34.63000 276.006
34.64000 276.556
34.65000 280.652
34.66000 287.431
34.67000 294.028
34.68000 293.657
34.69000 289.725
34.70000 285.966
34.71000 284.454
34.72000 283.778
34.73000 282.887
34.74000 280.094
34.75000 276.851
34.76000 273.883
34.77000 272.451
34.78000 271.255
34.79000 270.297
34.80000 275.222
34.81000 279.648
34.82000 283.234
34.83000 284.714
34.84000 286.092
34.85000 288.095
34.86000 291.166
34.87000 294.256
34.88000 295.904
34.89000 285.042
34.90000 277.660
34.91000 275.939
34.92000 278.436
34.93000 280.850
34.94000 280.234
34.95000 278.092
34.96000 276.047
34.97000 280.349
34.98000 286.378
34.99000 291.345
35.00000 287.028
35.01000 280.550
35.02000 274.562
35.03000 271.260
35.04000 268.364
35.05000 266.053
35.06000 264.265
35.07000 262.859
35.08000 263.865
35.09000 270.829
35.10000 278.069
35.11000 280.824
35.12000 276.016
35.13000 271.085
35.14000 268.474
35.15000 264.598
35.16000 261.991
35.17000 264.260
35.18000 270.105
35.19000 275.799
35.20000 276.137
35.21000 273.819
35.22000 271.609
35.23000 276.776
35.24000 283.891
35.25000 289.715
35.26000 284.464
35.27000 276.674
35.28000 270.335
35.29000 271.797
35.30000 274.419
35.31000 276.505
35.32000 282.198
35.33000 287.044
35.34000 288.715
35.35000 282.652
35.36000 276.241
35.37000 272.150
35.38000 271.916
35.39000 271.741
35.40000 271.648
35.41000 272.627
35.42000 273.267
35.43000 270.103
35.44000 264.191
35.45000 258.671
35.46000 266.366
35.47000 280.523
35.48000 294.005
35.49000 296.597
35.50000 295.623
35.51000 294.047
35.52000 287.411
35.53000 279.633
35.54000 272.465
35.55000 268.521
35.56000 265.048
35.57000 262.294
35.58000 263.813
35.59000 265.334
35.60000 266.782
35.61000 268.057
35.62000 269.325
35.63000 268.892
35.64000 265.677
35.65000 262.421
35.66000 260.724
35.67000 266.459
35.68000 270.306
35.69000 269.403
35.70000 265.123
35.71000 260.858
35.72000 257.112
35.73000 253.615
35.74000 250.290
35.75000 256.708
35.76000 265.613
35.77000 273.986
35.78000 277.973
35.79000 280.986
35.80000 283.689
35.81000 284.778
35.82000 285.635
35.83000 286.313
35.84000 274.556
35.85000 264.270
35.86000 257.909
35.87000 260.836
35.88000 264.156
35.89000 264.126
35.90000 258.694
35.91000 253.188
35.92000 250.341
35.93000 259.628
35.94000 265.881
35.95000 270.825
35.96000 274.850
35.97000 278.586
35.98000 273.273
35.99000 263.660
36.00000 254.531
36.01000 262.025
36.02000 273.928
36.03000 284.143
36.04000 280.695
36.05000 274.258
36.06000 268.717
36.07000 267.767
36.08000 267.463
36.09000 267.224
36.10000 262.568
36.11000 258.544
36.12000 256.336
36.13000 258.360
36.14000 260.558
36.15000 262.952
36.16000 265.659
36.17000 268.370
36.18000 269.760
36.19000 266.854
36.20000 264.901
36.21000 263.099
36.22000 261.402
36.23000 259.845
36.24000 262.489
36.25000 267.101
36.26000 271.474
36.27000 270.519
36.28000 268.067
36.29000 265.788
36.30000 264.882
36.31000 264.272
36.32000 263.857
36.33000 264.430
36.34000 265.139
36.35000 265.695
36.36000 267.836
36.37000 269.650
36.38000 270.326
36.39000 268.383
36.40000 266.336
36.41000 264.621
36.42000 263.424
36.43000 262.233
36.44000 261.627
36.45000 264.095
36.46000 265.763
36.47000 268.851
36.48000 272.904
36.49000 276.877
36.50000 278.533
36.51000 279.121
36.52000 279.677
36.53000 275.215
36.54000 269.651
36.55000 263.659
36.56000 254.331
36.57000 244.295
36.58000 237.562
36.59000 247.198
36.60000 259.059
36.61000 268.330
36.62000 265.181
36.63000 261.881
36.64000 259.625
36.65000 259.736
36.66000 259.938
36.67000 259.813
36.68000 259.187
36.69000 258.554
36.70000 258.235
36.71000 261.954
36.72000 264.459
36.73000 268.880
36.74000 274.583
36.75000 279.962
36.76000 276.245
36.77000 268.390
36.78000 260.964
36.79000 264.513
36.80000 270.908
36.81000 276.637
36.82000 277.264
36.83000 276.827
36.84000 275.473
36.85000 269.651
36.86000 263.233
36.87000 258.234
36.88000 272.017
36.89000 284.155
36.90000 291.182
36.91000 286.797
36.92000 281.989
36.93000 281.108
36.94000 286.196
36.95000 291.345
36.96000 293.920
36.97000 292.933
36.98000 292.306
36.99000 294.789
37.00000 299.320
37.01000 303.695
37.02000 303.854
37.03000 302.122
37.04000 300.486
37.05000 292.608
37.06000 283.628
37.07000 275.591
37.08000 274.633
37.09000 275.128
37.10000 275.799
37.11000 277.315
37.12000 278.942
37.13000 280.204
37.14000 285.283
37.15000 289.550
37.16000 289.992
37.17000 282.016
37.18000 273.740
37.19000 271.578
37.20000 278.566
37.21000 285.642
37.22000 285.438
37.23000 278.071
37.24000 270.777
37.25000 269.977
37.26000 273.393
37.27000 276.626
37.28000 275.055
37.29000 271.362
37.30000 267.880
37.31000 264.800
37.32000 262.090
37.33000 259.732
37.34000 259.975
37.35000 260.742
37.36000 262.146
37.37000 266.561
37.38000 271.362
37.39000 275.074
37.40000 280.962
37.41000 285.761
37.42000 287.276
37.43000 281.665
37.44000 275.809
37.45000 271.105
37.46000 268.100
37.47000 265.110
37.48000 264.515
37.49000 266.236
37.50000 267.914
37.51000 265.898
37.52000 261.519
37.53000 257.083
37.54000 251.184
37.55000 244.648
37.56000 238.496
37.57000 247.332
37.58000 259.484
37.59000 269.886
37.60000 267.615
37.61000 262.825
37.62000 258.897
37.63000 258.977
37.64000 259.563
37.65000 260.014
37.66000 255.146
37.67000 250.986
37.68000 248.691
37.69000 250.383
37.70000 252.208
37.71000 253.970
37.72000 255.641
37.73000 257.312
37.74000 257.936
37.75000 257.564
37.76000 257.204
37.77000 257.777
37.78000 258.938
37.79000 260.019
37.80000 259.113
37.81000 257.354
37.82000 255.701
37.83000 253.536
37.84000 251.422
37.85000 250.602
37.86000 258.972
37.87000 269.139
37.88000 276.480
37.89000 270.883
37.90000 263.685
37.91000 258.161
37.92000 262.900
37.93000 267.217
37.94000 267.380
37.95000 258.786
37.96000 249.911
37.97000 246.974
37.98000 252.523
37.99000 258.137
38.00000 259.801
38.01000 257.769
38.02000 255.752
38.03000 254.857
38.04000 254.658
38.05000 254.723
38.06000 261.062
38.07000 270.055
38.08000 278.493
38.09000 277.675
38.10000 274.495
38.11000 271.476
38.12000 269.583
38.13000 267.906
38.14000 267.515
38.15000 272.918
38.16000 279.024
38.17000 283.692
38.18000 281.137
38.19000 278.730
38.20000 278.055
38.21000 280.978
38.22000 284.012
38.23000 287.453
38.24000 291.467
38.25000 295.485
38.26000 299.908
38.27000 304.701
38.28000 309.435
38.29000 310.021
38.30000 308.072
38.31000 306.507
38.32000 313.778
38.33000 324.735
38.34000 334.998
38.35000 339.473
38.36000 342.046
38.37000 344.832
38.38000 349.082
38.39000 353.608
38.40000 358.307
38.41000 363.769
38.42000 369.321
38.43000 373.550
38.44000 391.010
38.45000 405.453
38.46000 419.545
38.47000 432.920
38.48000 446.273
38.49000 470.935
38.50000 511.272
38.51000 551.697
38.52000 580.368
38.53000 598.381
38.54000 616.438
38.55000 637.376
38.56000 660.049
38.57000 683.385
38.58000 721.477
38.59000 765.634
38.60000 806.928
38.61000 826.098
38.62000 837.874
38.63000 851.833
38.64000 880.492
38.65000 911.890
38.66000 941.873
38.67000 965.680
38.68000 988.766
38.69000 1006.278
38.70000 1018.308
38.71000 1027.477
38.72000 1030.879
38.73000 1022.647
38.74000 1014.083
38.75000 1001.923
38.76000 984.855
38.77000 967.765
38.78000 949.405
38.79000 929.938
38.80000 910.308
38.81000 880.498
38.82000 844.646
38.83000 808.807
38.84000 773.273
38.85000 737.862
38.86000 704.801
38.87000 682.269
38.88000 664.476
38.89000 645.317
38.90000 617.112
38.91000 587.250
38.92000 556.447
38.93000 521.600
38.94000 486.291
38.95000 459.610
38.96000 444.764
38.97000 433.716
38.98000 419.631
38.99000 399.506
39.00000 379.216
39.01000 360.784
39.02000 344.848
39.03000 328.936
39.04000 319.198
39.05000 314.876
39.06000 310.609
39.07000 309.550
39.08000 310.368
39.09000 310.875
39.10000 304.889
39.11000 296.310
39.12000 288.313
39.13000 282.524
39.14000 277.829
39.15000 274.303
39.16000 278.390
39.17000 283.848
39.18000 287.947
39.19000 286.287
39.20000 283.980
39.21000 282.244
39.22000 280.469
39.23000 279.078
39.24000 277.248
39.25000 274.560
39.26000 271.850
39.27000 269.826
39.28000 268.709
39.29000 267.598
39.30000 264.157
39.31000 258.719
39.32000 253.331
39.33000 250.727
39.34000 249.728
39.35000 248.733
39.36000 247.847
39.37000 247.003
39.38000 246.218
39.39000 249.067
39.40000 252.520
39.41000 255.030
39.42000 251.514
39.43000 246.931
39.44000 242.717
39.45000 240.045
39.46000 237.544
39.47000 235.668
39.48000 239.206
39.49000 242.225
39.50000 245.691
39.51000 250.020
39.52000 254.371
39.53000 255.296
39.54000 251.755
39.55000 248.198
39.56000 246.077
39.57000 245.175
39.58000 244.188
39.59000 238.711
39.60000 230.684
39.61000 222.981
39.62000 221.692
39.63000 222.892
39.64000 224.006
39.65000 228.050
39.66000 232.394
39.67000 236.077
39.68000 235.610
39.69000 234.419
39.70000 233.859
39.71000 235.891
39.72000 238.203
39.73000 239.929
39.74000 232.747
39.75000 226.741
39.76000 224.757
39.77000 230.428
39.78000 236.284
39.79000 237.560
39.80000 232.961
39.81000 228.345
39.82000 228.677
39.83000 233.127
39.84000 237.457
39.85000 235.770
39.86000 230.715
39.87000 225.923
39.88000 226.141
39.89000 228.277
39.90000 230.257
39.91000 228.808
39.92000 226.701
39.93000 225.882
39.94000 233.020
39.95000 241.521
39.96000 247.722
39.97000 244.622
39.98000 240.539
39.99000 237.502
40.00000 235.479
40.01000 233.950
40.02000 232.204
40.03000 230.050
40.04000 227.886
40.05000 226.872
40.06000 227.309
40.07000 227.750
40.08000 225.992
40.09000 222.440
40.10000 219.037
40.11000 222.852
40.12000 230.646
40.13000 237.998
40.14000 237.123
40.15000 233.146
40.16000 229.465
40.17000 232.024
40.18000 235.760
40.19000 238.674
40.20000 236.595
40.21000 233.675
40.22000 230.790
40.23000 228.038
40.24000 225.300
40.25000 223.273
40.26000 218.500
40.27000 214.677
40.28000 214.794
40.29000 222.195
40.30000 229.756
40.31000 233.116
40.32000 231.255
40.33000 229.381
40.34000 229.410
40.35000 230.969
40.36000 232.498
40.37000 232.636
40.38000 232.020
40.39000 231.337
40.40000 229.465
40.41000 227.151
40.42000 225.013
40.43000 223.674
40.44000 222.653
40.45000 221.472
40.46000 219.338
40.47000 217.047
40.48000 214.791
40.49000 212.671
40.50000 210.565
40.51000 209.012
40.52000 214.626
40.53000 219.275
40.54000 221.873
40.55000 220.734
40.56000 219.517
40.57000 218.192
40.58000 216.735
40.59000 215.281
40.60000 215.357
40.61000 216.646
40.62000 217.976
40.63000 221.091
40.64000 225.161
40.65000 228.806
40.66000 224.965
40.67000 218.382
40.68000 212.311
40.69000 211.236
40.70000 211.386
40.71000 212.881
40.72000 222.272
40.73000 232.948
40.74000 240.573
40.75000 236.413
40.76000 231.081
40.77000 227.166
40.78000 226.425
40.79000 225.981
40.80000 226.517
40.81000 228.811
40.82000 231.140
40.83000 229.325
40.84000 222.522
40.85000 215.721
40.86000 212.923
40.87000 213.258
40.88000 213.625
40.89000 215.311
40.90000 217.694
40.91000 219.912
40.92000 219.304
40.93000 217.677
40.94000 216.179
40.95000 214.184
40.96000 212.291
40.97000 211.955
40.98000 220.592
40.99000 230.666
41.00000 238.018
41.01000 235.015
41.02000 231.003
41.03000 228.069
41.04000 216.538
41.05000 207.303
41.06000 203.788
41.07000 210.392
41.08000 217.189
41.09000 220.761
41.10000 220.510
41.11000 220.254
41.12000 219.738
41.13000 219.025
41.14000 218.370
41.15000 220.005
41.16000 222.831
41.17000 225.322
41.18000 222.207
41.19000 217.099
41.20000 212.405
41.21000 216.565
41.22000 222.183
41.23000 226.213
41.24000 221.240
41.25000 214.850
41.26000 210.194
41.27000 212.039
41.28000 214.503
41.29000 216.298
41.30000 219.000
41.31000 221.115
41.32000 221.968
41.33000 220.625
41.34000 219.241
41.35000 217.382
41.36000 214.970
41.37000 212.564
41.38000 211.459
41.39000 211.343
41.40000 211.215
41.41000 210.619
41.42000 209.782
41.43000 209.048
41.44000 209.972
41.45000 211.479
41.46000 212.861
41.47000 217.747
41.48000 222.842
41.49000 225.836
41.50000 217.115
41.51000 206.582
41.52000 199.920
41.53000 207.556
41.54000 216.526
41.55000 223.028
41.56000 222.373
41.57000 221.604
41.58000 218.173
41.59000 210.173
41.60000 202.093
41.61000 199.500
41.62000 203.199
41.63000 206.895
41.64000 210.803
41.65000 214.841
41.66000 218.818
41.67000 220.538
41.68000 221.117
41.69000 221.373
41.70000 216.513
41.71000 209.884
41.72000 203.816
41.73000 208.052
41.74000 213.963
41.75000 219.059
41.76000 219.686
41.77000 219.634
41.78000 218.723
41.79000 214.689
41.80000 210.369
41.81000 207.251
41.82000 208.975
41.83000 210.471
41.84000 211.106
41.85000 210.283
41.86000 209.436
41.87000 210.824
41.88000 214.735
41.89000 218.635
41.90000 217.752
41.91000 213.385
41.92000 209.111
41.93000 208.143
41.94000 208.821
41.95000 209.179
41.96000 204.595
41.97000 198.329
41.98000 192.603
41.99000 198.126
42.00000 205.328
42.01000 211.610
42.02000 212.921
42.03000 213.491
42.04000 213.422
42.05000 211.063
42.06000 208.499
42.07000 206.657
42.08000 218.739
42.09000 228.466
42.10000 230.689
42.11000 220.400
42.12000 209.918
42.13000 201.887
42.14000 196.575
42.15000 191.285
42.16000 193.701
42.17000 201.631
42.18000 209.359
42.19000 210.185
42.20000 207.626
42.21000 205.293
42.22000 206.346
42.23000 208.536
42.24000 210.533
42.25000 209.873
42.26000 208.753
42.27000 207.763
42.28000 207.456
42.29000 207.250
42.30000 206.965
42.31000 206.403
42.32000 205.817
42.33000 205.397
42.34000 203.950
42.35000 202.811
42.36000 202.182
42.37000 202.393
42.38000 202.616
42.39000 203.263
42.40000 204.375
42.41000 205.482
42.42000 201.901
42.43000 195.041
42.44000 188.402
42.45000 189.024
42.46000 193.157
42.47000 197.090
42.48000 198.080
42.49000 198.097
42.50000 198.113
42.51000 198.230
42.52000 198.354
42.53000 199.023
42.54000 202.538
42.55000 206.464
42.56000 209.930
42.57000 211.799
42.58000 213.532
42.59000 214.765
42.60000 208.304
42.61000 203.130
42.62000 202.736
42.63000 210.077
42.64000 217.524
42.65000 215.780
42.66000 204.161
42.67000 192.590
42.68000 190.673
42.69000 195.490
42.70000 200.136
42.71000 199.400
42.72000 196.099
42.73000 193.305
42.74000 197.767
42.75000 204.594
42.76000 210.794
42.77000 207.856
42.78000 203.489
42.79000 200.074
42.80000 201.553
42.81000 203.724
42.82000 204.631
42.83000 201.207
42.84000 197.421
42.85000 194.737
42.86000 199.336
42.87000 203.062
42.88000 205.293
42.89000 205.140
42.90000 204.957
42.91000 204.451
42.92000 203.604
42.93000 202.761
42.94000 203.569
42.95000 205.500
42.96000 207.281
42.97000 204.538
42.98000 199.670
42.99000 195.240
43.00000 196.922
43.01000 200.567
43.02000 203.871
43.03000 206.080
43.04000 207.819
43.05000 208.854
43.06000 206.332
43.07000 203.315
43.08000 200.696
43.09000 199.414
43.10000 198.242
43.11000 197.415
43.12000 203.793
43.13000 208.851
43.14000 208.978
43.15000 201.358
43.16000 193.644
43.17000 194.891
43.18000 205.448
43.19000 215.951
43.20000 219.555
43.21000 218.469
43.22000 217.297
43.23000 213.608
43.24000 208.753
43.25000 204.352
43.26000 206.133
43.27000 209.870
43.28000 213.250
43.29000 210.052
43.30000 206.004
43.31000 202.745
43.32000 203.406
43.33000 204.602
43.34000 205.378
43.35000 204.755
43.36000 204.021
43.37000 203.506
43.38000 207.795
43.39000 211.183
43.40000 210.763
43.41000 204.452
43.42000 198.074
43.43000 197.851
43.44000 203.915
43.45000 209.946
43.46000 211.503
43.47000 210.075
43.48000 208.511
43.49000 203.090
43.50000 195.908
43.51000 189.243
43.52000 189.438
43.53000 191.772
43.54000 193.880
43.55000 192.916
43.56000 191.504
43.57000 191.035
43.58000 195.180
43.59000 199.943
43.60000 203.463
43.61000 202.909
43.62000 202.036
43.63000 201.426
43.64000 204.546
43.65000 207.009
43.66000 209.001
43.67000 210.272
43.68000 211.536
43.69000 213.130
43.70000 215.057
43.71000 216.971
43.72000 214.105
43.73000 208.162
43.74000 202.311
43.75000 198.955
43.76000 196.721
43.77000 194.671
43.78000 195.012
43.79000 196.088
43.80000 197.057
43.81000 197.483
43.82000 197.759
43.83000 198.199
43.84000 199.430
43.85000 200.766
43.86000 201.931
43.87000 202.546
43.88000 203.119
43.89000 203.518
43.90000 203.684
43.91000 203.803
43.92000 203.773
43.93000 203.518
43.94000 203.262
43.95000 203.334
43.96000 203.731
43.97000 204.125
43.98000 202.475
43.99000 199.538
44.00000 196.809
44.01000 199.545
44.02000 204.704
44.03000 209.000
44.04000 202.355
44.05000 192.396
44.06000 183.443
44.07000 184.736
44.08000 187.687
44.09000 190.622
44.10000 193.482
44.11000 196.332
44.12000 199.234
44.13000 202.302
44.14000 205.382
44.15000 207.515
44.16000 205.972
44.17000 204.715
44.18000 203.134
44.19000 201.074
44.20000 199.011
44.21000 199.385
44.22000 202.128
44.23000 204.850
44.24000 205.107
44.25000 203.803
44.26000 202.518
44.27000 201.701
44.28000 201.090
44.29000 200.423
44.30000 199.052
44.31000 197.473
44.32000 196.056
44.33000 198.555
44.34000 201.423
44.35000 203.531
44.36000 202.092
44.37000 200.203
44.38000 199.522
44.39000 202.632
44.40000 206.016
44.41000 208.349
44.42000 213.601
44.43000 217.619
44.44000 218.438
44.45000 214.599
44.46000 210.721
44.47000 208.383
44.48000 207.514
44.49000 206.652
44.50000 206.177
44.51000 205.952
44.52000 205.747
44.53000 206.069
44.54000 206.618
44.55000 207.332
44.56000 210.056
44.57000 213.371
44.58000 216.338
44.59000 215.048
44.60000 213.193
44.61000 211.516
44.62000 210.650
44.63000 209.885
44.64000 210.686
44.65000 216.328
44.66000 222.312
44.67000 226.416
44.68000 230.201
44.69000 233.029
44.70000 234.416
44.71000 233.736
44.72000 233.040
44.73000 236.151
44.74000 242.836
44.75000 249.466
44.76000 253.052
44.77000 254.710
44.78000 256.367
44.79000 257.969
44.80000 259.549
44.81000 261.500
44.82000 267.841
44.83000 275.454
44.84000 282.253
44.85000 287.186
44.86000 291.169
44.87000 293.815
44.88000 290.414
44.89000 286.277
44.90000 285.007
44.91000 292.475
44.92000 300.546
44.93000 306.054
44.94000 323.339
44.95000 336.537
44.96000 344.362
44.97000 344.598
44.98000 344.781
44.99000 351.108
45.00000 363.107
45.01000 375.003
45.02000 378.496
45.03000 376.866
45.04000 375.303
45.05000 375.266
45.06000 375.867
45.07000 376.521
45.08000 377.786
45.09000 379.226
45.10000 380.508
45.11000 384.105
45.12000 387.614
45.13000 391.232
45.14000 395.337
45.15000 399.500
45.16000 401.424
45.17000 396.623
45.18000 391.369
45.19000 387.802
45.20000 369.799
45.21000 356.044
45.22000 345.808
45.23000 340.466
45.24000 335.158
45.25000 335.063
45.26000 339.703
45.27000 344.300
45.28000 339.518
45.29000 329.278
45.30000 319.261
45.31000 314.229
45.32000 311.254
45.33000 307.984
45.34000 301.362
45.35000 293.798
45.36000 287.072
45.37000 288.047
45.38000 290.142
45.39000 290.219
45.40000 281.453
45.41000 271.649
45.42000 264.306
45.43000 264.243
45.44000 264.659
45.45000 264.940
45.46000 258.793
45.47000 254.078
45.48000 253.547
45.49000 258.747
45.50000 263.974
45.51000 261.454
45.52000 252.011
45.53000 242.660
45.54000 239.897
45.55000 241.033
45.56000 241.980
45.57000 238.836
45.58000 234.030
45.59000 229.729
45.60000 231.026
45.61000 233.875
45.62000 236.402
45.63000 234.338
45.64000 231.818
45.65000 228.548
45.66000 222.040
45.67000 215.159
45.68000 210.978
45.69000 214.668
45.70000 218.864
45.71000 221.683
45.72000 219.601
45.73000 217.954
45.74000 216.987
45.75000 216.939
45.76000 216.891
45.77000 213.198
45.78000 206.299
45.79000 199.472
45.80000 200.193
45.81000 205.227
45.82000 210.052
45.83000 210.476
45.84000 209.135
45.85000 207.756
45.86000 205.953
45.87000 204.034
45.88000 202.336
45.89000 199.682
45.90000 197.237
45.91000 195.382
45.92000 196.032
45.93000 196.965
45.94000 198.331
45.95000 200.943
45.96000 203.634
45.97000 205.432
45.98000 201.382
45.99000 198.264
46.00000 196.582
46.01000 196.807
46.02000 197.038
46.03000 195.154
46.04000 191.440
46.05000 187.767
46.06000 189.798
46.07000 195.002
46.08000 199.773
46.09000 195.695
46.10000 188.123
46.11000 181.158
46.12000 180.644
46.13000 181.864
46.14000 182.941
46.15000 183.777
46.16000 184.462
46.17000 185.436
46.18000 187.624
46.19000 189.946
46.20000 191.407
46.21000 190.426
46.22000 189.296
46.23000 188.545
46.24000 189.088
46.25000 189.513
46.26000 188.281
46.27000 184.883
46.28000 181.481
46.29000 181.638
46.30000 184.824
46.31000 187.972
46.32000 188.020
46.33000 186.342
46.34000 184.613
46.35000 181.860
46.36000 178.707
46.37000 175.864
46.38000 176.230
46.39000 177.446
46.40000 178.517
46.41000 181.562
46.42000 184.484
46.43000 185.432
46.44000 178.245
46.45000 170.175
46.46000 165.554
46.47000 170.561
46.48000 176.137
46.49000 179.827
46.50000 178.859
46.51000 178.061
46.52000 180.015
46.53000 185.512
46.54000 191.017
46.55000 193.132
46.56000 192.408
46.57000 191.693
46.58000 186.490
46.59000 178.964
46.60000 171.860
46.61000 172.879
46.62000 177.015
46.63000 180.793
46.64000 180.945
46.65000 180.149
46.66000 179.451
46.67000 178.821
46.68000 178.290
46.69000 177.182
46.70000 173.733
46.71000 170.035
46.72000 169.300
46.73000 176.713
46.74000 184.596
46.75000 189.784
46.76000 182.645
46.77000 177.174
46.78000 173.546
46.79000 172.252
46.80000 170.970
46.81000 171.404
46.82000 173.255
46.83000 175.081
46.84000 176.075
46.85000 176.595
46.86000 177.126
46.87000 177.865
46.88000 178.682
46.89000 179.450
46.90000 179.733
46.91000 179.890
46.92000 180.028
46.93000 174.827
46.94000 169.587
46.95000 165.532
46.96000 166.210
46.97000 167.381
46.98000 168.988
46.99000 171.779
47.00000 174.636
47.01000 176.506
47.02000 180.463
47.03000 183.405
47.04000 184.557
47.05000 183.477
47.06000 182.389
47.07000 180.499
47.08000 177.959
47.09000 175.454
47.10000 172.275
47.11000 168.827
47.12000 165.638
47.13000 167.156
47.14000 170.428
47.15000 173.271
47.16000 171.933
47.17000 169.537
47.18000 167.441
47.19000 164.318
47.20000 161.495
47.21000 159.960
47.22000 163.492
47.23000 167.541
47.24000 169.324
47.25000 165.052
47.26000 160.450
47.27000 157.454
47.28000 162.706
47.29000 166.686
47.30000 169.614
47.31000 171.251
47.32000 172.880
47.33000 173.030
47.34000 171.999
47.35000 170.983
47.36000 171.969
47.37000 173.972
47.38000 175.768
47.39000 173.907
47.40000 170.702
47.41000 168.018
47.42000 170.314
47.43000 173.851
47.44000 176.937
47.45000 175.436
47.46000 173.512
47.47000 171.665
47.48000 170.116
47.49000 168.598
47.50000 167.596
47.51000 167.952
47.52000 168.380
47.53000 168.657
47.54000 171.006
47.55000 172.755
47.56000 170.139
47.57000 162.249
47.58000 154.375
47.59000 154.395
47.60000 160.620
47.61000 166.749
47.62000 168.276
47.63000 167.392
47.64000 166.523
47.65000 165.895
47.66000 165.353
47.67000 164.628
47.68000 162.185
47.69000 159.320
47.70000 156.827
47.71000 161.224
47.72000 165.924
47.73000 170.217
47.74000 172.957
47.75000 175.544
47.76000 176.319
47.77000 172.388
47.78000 168.215
47.79000 165.527
47.80000 167.476
47.81000 168.964
47.82000 167.736
47.83000 163.278
47.84000 158.832
47.85000 158.791
47.86000 162.158
47.87000 165.472
47.88000 167.200
47.89000 168.072
47.90000 168.761
47.91000 166.374
47.92000 162.890
47.93000 160.091
47.94000 163.585
47.95000 168.600
47.96000 172.953
47.97000 170.901
47.98000 168.290
47.99000 166.375
48.00000 167.076
48.01000 168.027
48.02000 167.807
48.03000 164.590
48.04000 161.224
48.05000 159.068
48.06000 160.776
48.07000 162.072
48.08000 162.019
48.09000 160.388
48.10000 158.764
48.11000 159.274
48.12000 161.411
48.13000 163.513
48.14000 167.895
48.15000 173.268
48.16000 178.230
48.17000 176.463
48.18000 172.331
48.19000 168.700
48.20000 169.582
48.21000 171.539
48.22000 173.233
48.23000 173.281
48.24000 173.105
48.25000 172.362
48.26000 169.519
48.27000 166.478
48.28000 164.341
48.29000 164.482
48.30000 164.734
48.31000 164.894
48.32000 165.756
48.33000 166.392
48.34000 166.122
48.35000 164.810
48.36000 163.485
48.37000 159.846
48.38000 154.472
48.39000 149.192
48.40000 146.798
48.41000 145.899
48.42000 145.299
48.43000 149.442
48.44000 155.230
48.45000 160.718
48.46000 163.561
48.47000 165.784
48.48000 167.705
48.49000 169.374
48.50000 170.760
48.51000 170.783
48.52000 165.839
48.53000 160.438
48.54000 156.339
48.55000 155.474
48.56000 154.762
48.57000 154.312
48.58000 161.288
48.59000 166.436
48.60000 167.653
48.61000 164.418
48.62000 161.189
48.63000 159.714
48.64000 159.535
48.65000 159.359
48.66000 161.074
48.67000 163.639
48.68000 166.115
48.69000 167.211
48.70000 167.834
48.71000 168.315
48.72000 167.566
48.73000 166.534
48.74000 165.644
48.75000 165.187
48.76000 164.855
48.77000 164.634
48.78000 164.816
48.79000 165.034
48.80000 164.898
48.81000 163.896
48.82000 162.854
48.83000 162.198
48.84000 162.812
48.85000 163.270
48.86000 162.500
48.87000 160.362
48.88000 158.230
48.89000 157.199
48.90000 156.969
48.91000 156.742
48.92000 157.270
48.93000 158.137
48.94000 158.984
48.95000 159.537
48.96000 159.991
48.97000 160.029
48.98000 156.541
48.99000 152.251
49.00000 148.565
49.01000 153.415
49.02000 158.581
49.03000 161.982
49.04000 159.128
49.05000 155.725
49.06000 152.871
49.07000 151.345
49.08000 149.877
49.09000 148.959
49.10000 151.998
49.11000 154.234
49.12000 156.206
49.13000 157.886
49.14000 159.558
49.15000 159.980
49.16000 159.508
49.17000 159.044
49.18000 157.459
49.19000 155.410
49.20000 153.709
49.21000 157.129
49.22000 162.248
49.23000 166.285
49.24000 161.331
49.25000 154.365
49.26000 148.395
49.27000 148.662
49.28000 149.649
49.29000 151.063
49.30000 153.967
49.31000 156.999
49.32000 158.968
49.33000 158.405
49.34000 157.733
49.35000 157.316
49.36000 154.178
49.37000 151.890
49.38000 153.629
49.39000 159.709
49.40000 165.729
49.41000 163.401
49.42000 155.188
49.43000 147.145
49.44000 151.676
49.45000 161.806
49.46000 171.284
49.47000 171.391
49.48000 168.435
49.49000 165.589
49.50000 163.647
49.51000 161.905
49.52000 160.415
49.53000 155.884
49.54000 151.700
49.55000 148.820
49.56000 150.419
49.57000 152.394
49.58000 154.575
49.59000 157.240
49.60000 159.924
49.61000 161.583
49.62000 155.498
49.63000 151.053
49.64000 150.730
49.65000 154.780
49.66000 158.790
49.67000 157.617
49.68000 152.846
49.69000 148.178
49.70000 150.126
49.71000 154.987
49.72000 159.554
49.73000 160.004
49.74000 159.128
49.75000 158.204
49.76000 156.891
49.77000 155.493
49.78000 154.301
49.79000 157.975
49.80000 161.636
49.81000 164.502
49.82000 164.675
49.83000 164.626
49.84000 162.801
49.85000 156.868
49.86000 150.770
49.87000 147.022
49.88000 147.798
49.89000 148.394
49.90000 151.469
49.91000 157.128
49.92000 162.755
49.93000 164.564
49.94000 163.762
49.95000 162.978
49.96000 160.964
49.97000 158.487
49.98000 156.086
49.99000 154.729
50.00000 153.704
50.01000 152.637
50.02000 151.238
50.03000 149.768
50.04000 148.518
50.05000 152.372
50.06000 156.194
50.07000 159.360
50.08000 160.335
50.09000 161.133
50.10000 161.709
50.11000 161.774
50.12000 161.821
50.13000 161.849
50.14000 159.555
50.15000 157.896
50.16000 160.816
50.17000 168.433
50.18000 175.975
50.19000 175.516
50.20000 169.666
50.21000 163.954
50.22000 160.864
50.23000 159.054
50.24000 157.575
50.25000 160.519
50.26000 164.846
50.27000 168.810
50.28000 169.970
50.29000 170.540
50.30000 171.025
50.31000 169.447
50.32000 167.893
50.33000 168.477
50.34000 176.093
50.35000 184.260
50.36000 188.482
50.37000 183.836
50.38000 178.856
50.39000 175.833
50.40000 175.336
50.41000 175.000
50.42000 176.401
50.43000 179.553
50.44000 182.688
50.45000 184.293
50.46000 184.882
50.47000 185.457
50.48000 187.219
50.49000 189.416
50.50000 191.497
50.51000 192.085
50.52000 192.212
50.53000 192.478
50.54000 193.796
50.55000 195.331
50.56000 196.628
50.57000 204.701
50.58000 212.203
50.59000 217.837
50.60000 217.418
50.61000 216.536
50.62000 217.929
50.63000 224.359
50.64000 230.973
50.65000 234.963
50.66000 237.443
50.67000 239.197
50.68000 239.254
50.69000 237.629
50.70000 236.012
50.71000 235.077
50.72000 234.589
50.73000 234.113
50.74000 233.769
50.75000 233.496
50.76000 233.412
50.77000 235.736
50.78000 238.792
50.79000 241.598
50.80000 242.555
50.81000 243.135
50.82000 243.624
50.83000 240.556
50.84000 237.610
50.85000 234.535
50.86000 231.050
50.87000 227.534
50.88000 224.030
50.89000 220.552
50.90000 217.075
50.91000 214.990
50.92000 216.293
50.93000 217.242
50.94000 213.409
50.95000 204.918
50.96000 196.458
50.97000 190.760
50.98000 186.840
50.99000 183.023
51.00000 181.973
51.01000 182.128
51.02000 182.284
51.03000 182.444
51.04000 182.605
51.05000 182.524
51.06000 180.668
51.07000 178.458
51.08000 176.600
51.09000 172.264
51.10000 168.389
51.11000 167.139
51.12000 174.154
51.13000 181.773
51.14000 183.771
51.15000 173.678
51.16000 163.175
51.17000 156.918
51.18000 161.936
51.19000 165.560
51.20000 168.535
51.21000 170.888
51.22000 173.197
51.23000 171.982
51.24000 168.532
51.25000 165.176
51.26000 163.287
51.27000 162.091
51.28000 160.904
51.29000 159.814
51.30000 158.753
51.31000 157.867
51.32000 158.239
51.33000 158.858
51.34000 159.377
51.35000 157.867
51.36000 156.401
51.37000 156.395
51.38000 160.916
51.39000 165.760
51.40000 167.434
51.41000 162.388
51.42000 157.122
51.43000 154.006
51.44000 151.855
51.45000 150.339
51.46000 150.007
51.47000 150.789
51.48000 151.580
51.49000 153.129
51.50000 155.150
51.51000 157.114
51.52000 152.191
51.53000 144.727
51.54000 138.163
51.55000 142.302
51.56000 149.553
51.57000 155.581
51.58000 153.015
51.59000 148.783
51.60000 145.245
51.61000 145.542
51.62000 146.178
51.63000 146.950
51.64000 148.135
51.65000 149.350
51.66000 149.168
51.67000 146.070
51.68000 142.879
51.69000 141.003
51.70000 143.001
51.71000 144.431
51.72000 146.979
51.73000 150.563
51.74000 154.108
51.75000 154.777
51.76000 153.677
51.77000 152.609
51.78000 153.136
51.79000 154.270
51.80000 155.193
51.81000 153.655
51.82000 151.412
51.83000 149.601
51.84000 150.770
51.85000 152.507
51.86000 153.954
51.87000 150.248
51.88000 146.662
51.89000 144.441
51.90000 146.326
51.91000 148.490
51.92000 148.728
51.93000 145.002
51.94000 141.155
51.95000 138.908
51.96000 143.152
51.97000 146.168
51.98000 147.737
51.99000 147.986
52.00000 148.237
52.01000 148.557
52.02000 148.919
52.03000 149.271
52.04000 150.205
52.05000 151.318
52.06000 152.227
52.07000 150.823
52.08000 148.766
52.09000 147.167
52.10000 148.679
52.11000 150.775
52.12000 152.517
52.13000 156.207
52.14000 159.450
52.15000 161.189
52.16000 158.464
52.17000 155.444
52.18000 152.112
52.19000 148.144
52.20000 144.158
52.21000 141.845
52.22000 140.042
52.23000 138.781
52.24000 139.775
52.25000 142.789
52.26000 145.710
52.27000 142.647
52.28000 136.008
52.29000 129.579
52.30000 133.643
52.31000 141.535
52.32000 148.777
52.33000 148.797
52.34000 146.809
52.35000 144.748
52.36000 142.203
52.37000 139.568
52.38000 137.384
52.39000 141.161
52.40000 144.848
52.41000 147.526
52.42000 147.253
52.43000 146.790
52.44000 144.403
52.45000 138.166
52.46000 131.822
52.47000 128.165
52.48000 138.329
52.49000 145.496
52.50000 150.132
52.51000 152.533
52.52000 154.880
52.53000 153.878
52.54000 150.906
52.55000 148.030
52.56000 146.697
52.57000 146.023
52.58000 145.217
52.59000 142.957
52.60000 140.300
52.61000 138.346
52.62000 141.007
52.63000 144.505
52.64000 147.394
52.65000 145.241
52.66000 142.997
52.67000 141.906
52.68000 144.141
52.69000 146.586
52.70000 147.493
52.71000 145.367
52.72000 143.161
52.73000 141.898
52.74000 135.165
52.75000 130.453
52.76000 132.663
52.77000 140.883
52.78000 148.966
52.79000 149.200
52.80000 144.881
52.81000 140.708
52.82000 142.748
52.83000 146.994
52.84000 150.448
52.85000 145.474
52.86000 138.227
52.87000 132.130
52.88000 133.439
52.89000 136.070
52.90000 138.236
52.91000 139.338
52.92000 140.147
52.93000 140.197
52.94000 138.090
52.95000 135.852
52.96000 134.564
52.97000 135.124
52.98000 135.731
52.99000 136.077
53.00000 137.264
53.01000 138.092
53.02000 137.515
53.03000 135.739
53.04000 134.029
53.05000 135.949
53.06000 139.944
53.07000 143.800
53.08000 146.424
53.09000 148.442
53.10000 150.435
53.11000 152.161
53.12000 153.815
53.13000 154.523
53.14000 149.242
53.15000 142.910
53.16000 137.711
53.17000 142.920
53.18000 148.127
53.19000 151.525
53.20000 149.855
53.21000 147.884
53.22000 145.647
53.23000 142.902
53.24000 140.144
53.25000 138.587
53.26000 143.316
53.27000 146.614
53.28000 146.954
53.29000 144.807
53.30000 142.725
53.31000 144.035
53.32000 147.256
53.33000 150.361
53.34000 152.518
53.35000 154.204
53.36000 155.891
53.37000 157.589
53.38000 159.291
53.39000 160.729
53.40000 160.534
53.41000 160.056
53.42000 159.666
53.43000 153.775
53.44000 148.468
53.45000 145.780
53.46000 150.323
53.47000 155.286
53.48000 157.932
53.49000 156.208
53.50000 154.381
53.51000 153.357
53.52000 146.718
53.53000 142.110
53.54000 141.338
53.55000 143.739
53.56000 146.133
53.57000 148.153
53.58000 149.967
53.59000 151.713
53.60000 149.764
53.61000 146.617
53.62000 143.946
53.63000 146.031
53.64000 149.341
53.65000 152.258
53.66000 152.769
53.67000 152.872
53.68000 152.955
53.69000 150.606
53.70000 148.477
53.71000 146.673
53.72000 145.755
53.73000 144.887
53.74000 144.028
53.75000 143.187
53.76000 142.346
53.77000 141.878
53.78000 144.120
53.79000 145.673
53.80000 145.872
53.81000 144.970
53.82000 144.130
53.83000 146.211
53.84000 149.889
53.85000 153.427
53.86000 149.850
53.87000 144.004
53.88000 138.986
53.89000 142.075
53.90000 147.221
53.91000 151.245
53.92000 148.523
53.93000 144.676
53.94000 141.547
53.95000 139.708
53.96000 138.315
53.97000 137.604
53.98000 138.721
53.99000 139.938
54.00000 141.033
54.01000 141.905
54.02000 142.772
54.03000 143.251
54.04000 147.157
54.05000 149.847
54.06000 149.334
54.07000 146.253
54.08000 143.311
54.09000 146.559
54.10000 153.142
54.11000 159.465
54.12000 156.696
54.13000 150.968
54.14000 145.494
54.15000 142.468
54.16000 140.053
54.17000 138.082
54.18000 138.731
54.19000 139.809
54.20000 140.683
54.21000 138.168
54.22000 135.841
54.23000 133.879
54.24000 132.882
54.25000 131.937
54.26000 133.092
54.27000 138.042
54.28000 143.070
54.29000 145.828
54.30000 147.176
54.31000 148.101
54.32000 148.579
54.33000 148.705
54.34000 148.811
54.35000 148.055
54.36000 146.841
54.37000 145.677
54.38000 142.748
54.39000 139.412
54.40000 136.758
54.41000 140.517
54.42000 145.854
54.43000 149.836
54.44000 145.946
54.45000 140.786
54.46000 136.618
54.47000 138.259
54.48000 140.058
54.49000 142.157
54.50000 145.036
54.51000 147.956
54.52000 148.777
54.53000 145.861
54.54000 142.873
54.55000 141.245
54.56000 141.712
54.57000 142.029
54.58000 140.558
54.59000 137.699
54.60000 134.984
54.61000 138.126
54.62000 144.334
54.63000 150.282
54.64000 150.845
54.65000 149.571
54.66000 148.226
54.67000 146.211
54.68000 144.034
54.69000 142.438
54.70000 144.154
54.71000 146.395
54.72000 148.200
54.73000 141.798
54.74000 135.962
54.75000 132.445
54.76000 134.877
54.77000 137.610
54.78000 139.322
54.79000 139.246
54.80000 139.136
54.81000 139.077
54.82000 140.981
54.83000 142.292
54.84000 145.042
54.85000 148.893
54.86000 152.679
54.87000 153.968
54.88000 153.968
54.89000 153.969
54.90000 151.940
54.91000 149.382
54.92000 146.921
54.93000 145.331
54.94000 143.950
54.95000 142.513
54.96000 140.768
54.97000 138.974
54.98000 137.534
54.99000 141.072
55.00000 144.319
55.01000 147.273
55.02000 149.489
55.03000 151.670
55.04000 151.313
55.05000 146.572
55.06000 141.753
55.07000 139.168
55.08000 146.553
55.09000 151.577
55.10000 151.265
55.11000 146.939
55.12000 142.685
55.13000 141.183
55.14000 141.080
55.15000 140.981
55.16000 145.407
55.17000 150.986
55.18000 156.296
55.19000 159.230
55.20000 161.605
55.21000 162.918
55.22000 158.360
55.23000 152.904
55.24000 148.540
55.25000 155.373
55.26000 161.732
55.27000 165.522
55.28000 162.903
55.29000 159.979
55.30000 158.422
55.31000 159.191
55.32000 159.999
55.33000 160.429
55.34000 166.021
55.35000 169.815
55.36000 170.546
55.37000 169.010
55.38000 167.612
55.39000 171.237
55.40000 177.379
55.41000 183.240
55.42000 178.542
55.43000 170.818
55.44000 164.177
55.45000 166.932
55.46000 171.862
55.47000 176.348
55.48000 178.413
55.49000 180.115
55.50000 181.472
55.51000 189.099
55.52000 195.710
55.53000 198.845
55.54000 193.438
55.55000 187.639
55.56000 186.345
55.57000 192.612
55.58000 199.000
55.59000 202.372
55.60000 221.062
55.61000 233.729
55.62000 241.070
55.63000 244.527
55.64000 248.035
55.65000 253.364
55.66000 259.593
55.67000 265.529
55.68000 274.811
55.69000 284.463
55.70000 293.988
55.71000 302.424
55.72000 310.611
55.73000 319.675
55.74000 333.428
55.75000 347.873
55.76000 359.351
55.77000 371.778
55.78000 381.854
55.79000 396.771
55.80000 423.419
55.81000 450.590
55.82000 468.162
55.83000 469.866
55.84000 471.333
55.85000 472.101
55.86000 499.979
55.87000 518.831
55.88000 531.919
55.89000 540.866
55.90000 549.921
55.91000 562.589
55.92000 577.015
55.93000 590.745
55.94000 588.442
55.95000 581.369
55.96000 575.056
55.97000 575.080
55.98000 576.526
55.99000 576.968
56.00000 572.123
56.01000 566.512
56.02000 562.068
56.03000 550.382
56.04000 540.486
56.05000 528.318
56.06000 510.723
56.07000 492.893
56.08000 482.980
56.09000 485.960
56.10000 489.123
56.11000 490.766
56.12000 471.680
56.13000 458.772
56.14000 444.241
56.15000 428.562
56.16000 413.002
56.17000 401.246
56.18000 391.313
56.19000 381.873
56.20000 368.823
56.21000 355.667
56.22000 343.255
56.23000 336.930
56.24000 331.949
56.25000 325.515
56.26000 311.557
56.27000 296.526
56.28000 284.666
56.29000 276.479
56.30000 270.160
56.31000 263.433
56.32000 255.744
56.33000 248.014
56.34000 241.960
56.35000 238.595
56.36000 235.265
56.37000 233.548
56.38000 223.016
56.39000 215.927
56.40000 209.694
56.41000 204.057
56.42000 198.594
56.43000 198.477
56.44000 200.886
56.45000 203.173
56.46000 194.651
56.47000 183.564
56.48000 173.981
56.49000 176.484
56.50000 181.617
56.51000 186.116
56.52000 187.388
56.53000 188.209
56.54000 188.854
56.55000 178.608
56.56000 169.686
56.57000 162.895
56.58000 161.047
56.59000 159.400
56.60000 159.681
56.61000 163.009
56.62000 166.375
56.63000 168.096
56.64000 161.383
56.65000 156.877
56.66000 152.795
56.67000 149.004
56.68000 145.273
56.69000 143.316
56.70000 142.185
56.71000 141.113
56.72000 141.971
56.73000 143.329
56.74000 144.857
56.75000 147.736
56.76000 150.904
56.77000 153.208
56.78000 151.183
56.79000 148.563
56.80000 146.511
56.81000 146.426
56.82000 146.485
56.83000 144.928
56.84000 139.677
56.85000 134.281
56.86000 130.959
56.87000 130.866
56.88000 130.810
56.89000 130.782
56.90000 139.951
56.91000 146.053
56.92000 147.761
56.93000 146.501
56.94000 145.244
56.95000 144.068
56.96000 142.930
56.97000 141.853
56.98000 143.377
56.99000 145.529
57.00000 147.071
57.01000 143.896
57.02000 139.727
57.03000 135.813
57.04000 133.154
57.05000 130.665
57.06000 128.721
57.07000 132.698
57.08000 136.242
57.09000 139.672
57.10000 142.845
57.11000 146.008
57.12000 144.837
57.13000 137.017
57.14000 129.125
57.15000 125.156
57.16000 125.340
57.17000 125.460
57.18000 125.298
57.19000 124.947
57.20000 124.567
57.21000 123.385
57.22000 121.839
57.23000 120.378
57.24000 126.410
57.25000 134.076
57.26000 140.605
57.27000 138.497
57.28000 134.597
57.29000 131.108
57.30000 129.615
57.31000 128.387
57.32000 127.431
57.33000 127.562
57.34000 127.732
57.35000 126.189
57.36000 120.839
57.37000 115.350
57.38000 114.616
57.39000 121.067
57.40000 127.591
57.41000 129.226
57.42000 125.995
57.43000 122.811
57.44000 124.009
57.45000 128.081
57.46000 131.948
57.47000 130.349
57.48000 126.312
57.49000 122.502
57.50000 121.944
57.51000 122.341
57.52000 122.668
57.53000 122.468
57.54000 122.161
57.55000 122.494
57.56000 125.881
57.57000 129.665
57.58000 132.598
57.59000 129.993
57.60000 127.594
57.61000 125.093
57.62000 122.369
57.63000 119.638
57.64000 118.564
57.65000 119.958
57.66000 121.375
57.67000 122.495
57.68000 123.326
57.69000 124.179
57.70000 126.892
57.71000 130.807
57.72000 134.567
57.73000 134.300
57.74000 132.263
57.75000 130.344
57.76000 130.480
57.77000 131.170
57.78000 131.058
57.79000 125.079
57.80000 117.922
57.81000 112.406
57.82000 114.606
57.83000 117.791
57.84000 120.251
57.85000 122.156
57.86000 123.634
57.87000 124.980
57.88000 126.038
57.89000 127.087
57.90000 126.938
57.91000 125.032
57.92000 123.111
57.93000 123.607
57.94000 126.426
57.95000 129.191
57.96000 127.434
57.97000 122.801
57.98000 118.319
57.99000 117.622
58.00000 118.564
58.01000 119.451
58.02000 122.032
58.03000 124.848
58.04000 127.243
58.05000 126.605
58.06000 125.367
58.07000 124.628
58.08000 126.192
58.09000 128.044
58.10000 129.469
58.11000 128.990
58.12000 128.502
58.13000 127.448
58.14000 125.189
58.15000 122.890
58.16000 122.452
58.17000 124.702
58.18000 126.974
58.19000 128.683
58.20000 129.859
58.21000 130.997
58.22000 129.139
58.23000 125.403
58.24000 121.688
58.25000 118.478
58.26000 115.485
58.27000 112.674
58.28000 113.995
58.29000 116.298
58.30000 118.370
58.31000 118.804
58.32000 118.920
58.33000 119.052
58.34000 119.257
58.35000 119.472
58.36000 119.637
58.37000 125.429
58.38000 130.314
58.39000 133.005
58.40000 131.094
58.41000 129.038
58.42000 127.009
58.43000 125.019
58.44000 123.029
58.45000 120.103
58.46000 116.307
58.47000 112.610
58.48000 116.068
58.49000 123.944
58.50000 131.574
58.51000 133.435
58.52000 132.867
58.53000 132.334
58.54000 128.042
58.55000 123.151
58.56000 118.851
58.57000 118.646
58.58000 119.226
58.59000 119.575
58.60000 118.890
58.61000 118.082
58.62000 117.464
58.63000 115.953
58.64000 114.714
58.65000 113.387
58.66000 111.875
58.67000 110.358
58.68000 111.590
58.69000 116.670
58.70000 121.775
58.71000 124.252
58.72000 124.324
58.73000 124.415
58.74000 125.809
58.75000 127.996
58.76000 129.953
58.77000 126.707
58.78000 121.300
58.79000 116.239
58.80000 115.917
58.81000 116.844
58.82000 118.057
58.83000 121.218
58.84000 124.745
58.85000 127.288
58.86000 125.491
58.87000 123.181
58.88000 121.424
58.89000 115.167
58.90000 110.010
58.91000 108.749
58.92000 115.422
58.93000 122.327
58.94000 125.727
58.95000 124.294
58.96000 122.832
58.97000 123.779
58.98000 126.893
58.99000 129.929
59.00000 127.963
59.01000 122.999
59.02000 118.156
59.03000 115.979
59.04000 114.892
59.05000 113.877
59.06000 117.041
59.07000 120.971
59.08000 124.388
59.09000 124.378
59.10000 123.732
59.11000 123.128
59.12000 122.706
59.13000 122.306
59.14000 122.002
59.15000 117.811
59.16000 114.323
59.17000 112.526
59.18000 114.122
59.19000 115.813
59.20000 116.523
59.21000 115.902
59.22000 115.273
59.23000 114.946
59.24000 114.886
59.25000 114.833
59.26000 115.270
59.27000 115.995
59.28000 116.669
59.29000 116.236
59.30000 115.358
59.31000 114.538
59.32000 114.852
59.33000 115.418
59.34000 116.171
59.35000 118.146
59.36000 120.344
59.37000 123.007
59.38000 127.656
59.39000 132.530
59.40000 136.209
59.41000 126.747
59.42000 118.685
59.43000 113.817
59.44000 115.269
59.45000 116.891
59.46000 118.894
59.47000 121.405
59.48000 123.917
59.49000 123.689
59.50000 121.078
59.51000 118.488
59.52000 117.065
59.53000 116.323
59.54000 115.632
59.55000 116.014
59.56000 116.823
59.57000 117.577
59.58000 117.881
59.59000 118.046
59.60000 118.130
59.61000 117.690
59.62000 117.157
59.63000 116.973
59.64000 118.262
59.65000 119.716
59.66000 120.809
59.67000 122.562
59.68000 123.965
59.69000 124.846
59.70000 124.710
59.71000 124.549
59.72000 122.828
59.73000 119.054
59.74000 115.274
59.75000 114.219
59.76000 115.497
59.77000 116.764
59.78000 117.357
59.79000 117.564
59.80000 117.632
59.81000 114.921
59.82000 111.120
59.83000 107.586
59.84000 108.067
59.85000 109.468
59.86000 111.416
59.87000 116.836
59.88000 122.867
59.89000 127.326
59.90000 125.261
59.91000 122.483
59.92000 120.403
59.93000 121.405
59.94000 122.331
59.95000 121.606
59.96000 117.709
59.97000 113.734
59.98000 113.843
59.99000 119.243
60.00000 124.660
60.01000 124.189
60.02000 118.765
60.03000 113.440
60.04000 113.206
60.05000 115.848
60.06000 118.392
60.07000 119.022
60.08000 118.913
60.09000 118.812
60.10000 118.212
60.11000 117.552
60.12000 116.909
60.13000 116.367
60.14000 115.842
60.15000 116.069
60.16000 119.363
60.17000 122.985
60.18000 125.685
60.19000 125.218
60.20000 124.709
60.21000 123.273
60.22000 120.077
60.23000 116.840
60.24000 115.041
60.25000 115.078
60.26000 115.121
60.27000 115.497
60.28000 116.147
60.29000 116.780
60.30000 116.531
60.31000 115.792
60.32000 115.175
60.33000 116.888
60.34000 119.489
60.35000 121.898
60.36000 120.427
60.37000 118.199
60.38000 116.630
60.39000 119.104
60.40000 122.267
60.41000 124.356
60.42000 122.128
60.43000 119.446
60.44000 117.455
60.45000 118.869
60.46000 120.117
60.47000 120.251
60.48000 118.303
60.49000 116.308
60.50000 116.396
60.51000 119.100
60.52000 121.809
60.53000 122.407
60.54000 121.285
60.55000 120.138
60.56000 117.772
60.57000 114.738
60.58000 111.926
60.59000 113.189
60.60000 115.982
60.61000 118.565
60.62000 120.933
60.63000 123.012
60.64000 124.543
60.65000 122.768
60.66000 120.439
60.67000 118.636
60.68000 118.918
60.69000 119.415
60.70000 119.782
60.71000 120.119
60.72000 120.379
60.73000 120.422
60.74000 120.064
60.75000 119.698
60.76000 119.786
60.77000 120.434
60.78000 121.082
60.79000 119.593
60.80000 116.399
60.81000 113.291
60.82000 114.099
60.83000 117.023
60.84000 119.805
60.85000 120.030
60.86000 119.310
60.87000 118.645
60.88000 119.858
60.89000 121.368
60.90000 122.520
60.91000 121.552
60.92000 120.234
60.93000 119.285
60.94000 119.774
60.95000 120.408
60.96000 120.875
60.97000 119.504
60.98000 118.367
60.99000 117.361
61.00000 116.593
61.01000 115.830
61.02000 118.318
61.03000 124.761
61.04000 131.201
61.05000 131.967
61.06000 128.260
61.07000 124.573
61.08000 121.724
61.09000 119.321
61.10000 117.176
61.11000 119.515
61.12000 123.488
61.13000 127.149
61.14000 126.059
61.15000 124.031
61.16000 122.974
61.17000 127.571
61.18000 133.082
61.19000 136.802
61.20000 133.631
61.21000 129.780
61.22000 126.956
61.23000 128.343
61.24000 129.583
61.25000 129.700
61.26000 127.809
61.27000 125.878
61.28000 125.744
61.29000 127.761
61.30000 129.778
61.31000 128.433
61.32000 124.491
61.33000 120.628
61.34000 120.028
61.35000 121.141
61.36000 122.313
61.37000 124.474
61.38000 126.990
61.39000 129.305
61.40000 130.765
61.41000 131.884
61.42000 132.708
61.43000 131.843
61.44000 130.709
61.45000 130.633
61.46000 134.558
61.47000 138.870
61.48000 142.018
61.49000 159.014
61.50000 172.656
61.51000 185.605
61.52000 197.332
61.53000 209.036
61.54000 222.643
61.55000 238.491
61.56000 254.305
61.57000 272.710
61.58000 292.977
61.59000 313.252
61.60000 333.795
61.61000 354.477
61.62000 374.333
61.63000 380.534
61.64000 381.902
61.65000 383.158
61.66000 391.708
61.67000 400.896
61.68000 408.657
61.69000 408.380
61.70000 406.846
61.71000 404.954
61.72000 401.731
61.73000 398.381
61.74000 395.946
61.75000 381.739
61.76000 370.364
61.77000 355.189
61.78000 333.425
61.79000 311.544
61.80000 286.836
61.81000 258.853
61.82000 230.941
61.83000 211.913
61.84000 199.676
61.85000 187.407
61.86000 173.940
61.87000 159.861
61.88000 146.383
61.89000 142.568
61.90000 142.123
61.91000 141.715
61.92000 143.877
61.93000 146.344
61.94000 148.163
61.95000 146.394
61.96000 144.073
61.97000 142.752
61.98000 145.099
61.99000 147.786
62.00000 149.731
62.01000 141.919
62.02000 135.563
62.03000 131.069
62.04000 129.757
62.05000 128.499
62.06000 128.119
62.07000 128.740
62.08000 129.361
62.09000 131.721
62.10000 135.347
62.11000 138.854
62.12000 137.992
62.13000 134.935
62.14000 132.034
62.15000 131.583
62.16000 131.973
62.17000 132.331
62.18000 129.350
62.19000 126.010
62.20000 123.816
62.21000 127.870
62.22000 132.867
62.23000 136.448
62.24000 134.906
62.25000 132.899
62.26000 131.453
62.27000 130.828
62.28000 130.379
62.29000 130.151
62.30000 130.298
62.31000 130.450
62.32000 132.070
62.33000 135.337
62.34000 138.594
62.35000 138.876
62.36000 136.997
62.37000 135.202
62.38000 136.323
62.39000 138.888
62.40000 141.035
62.41000 136.804
62.42000 130.413
62.43000 124.577
62.44000 127.139
62.45000 131.118
62.46000 134.682
62.47000 136.018
62.48000 137.025
62.49000 138.791
62.50000 143.268
62.51000 147.984
62.52000 151.369
62.53000 145.053
62.54000 139.891
62.55000 136.823
62.56000 137.229
62.57000 137.688
62.58000 138.428
62.59000 139.478
62.60000 140.525
62.61000 139.469
62.62000 136.922
62.63000 134.462
62.64000 134.943
62.65000 136.858
62.66000 138.517
62.67000 136.366
62.68000 132.942
62.69000 129.822
62.70000 131.519
62.71000 133.984
62.72000 136.102
62.73000 136.394
62.74000 136.420
62.75000 136.688
62.76000 137.807
62.77000 139.000
62.78000 139.852
62.79000 140.607
62.80000 141.179
62.81000 140.064
62.82000 136.190
62.83000 132.277
62.84000 131.750
62.85000 134.900
62.86000 138.038
62.87000 140.398
62.88000 142.188
62.89000 143.947
62.90000 144.713
62.91000 145.001
62.92000 145.121
62.93000 142.804
62.94000 139.686
62.95000 136.850
62.96000 141.577
62.97000 147.241
62.98000 151.676
62.99000 149.731
63.00000 146.873
63.01000 144.425
63.02000 143.392
63.03000 142.479
63.04000 141.830
63.05000 142.519
63.06000 143.087
63.07000 143.252
63.08000 142.770
63.09000 142.280
63.10000 142.991
63.11000 144.986
63.12000 146.971
63.13000 148.366
63.14000 149.337
63.15000 150.317
63.16000 151.597
63.17000 153.019
63.18000 154.116
63.19000 150.621
63.20000 145.635
63.21000 141.110
63.22000 142.776
63.23000 145.440
63.24000 147.211
63.25000 144.423
63.26000 140.994
63.27000 137.805
63.28000 135.436
63.29000 133.136
63.30000 131.508
63.31000 132.571
63.32000 133.463
63.33000 134.589
63.34000 136.089
63.35000 137.594
63.36000 136.901
63.37000 133.899
63.38000 130.911
63.39000 132.308
63.40000 136.673
63.41000 141.010
63.42000 144.497
63.43000 147.586
63.44000 150.299
63.45000 147.825
63.46000 143.692
63.47000 139.949
63.48000 141.961
63.49000 144.824
63.50000 146.522
63.51000 142.363
63.52000 137.396
63.53000 134.271
63.54000 137.338
63.55000 140.906
63.56000 143.421
63.57000 145.076
63.58000 146.306
63.59000 146.391
63.60000 144.688
63.61000 142.964
63.62000 140.577
63.63000 137.505
63.64000 134.449
63.65000 134.975
63.66000 137.892
63.67000 140.833
63.68000 144.461
63.69000 148.406
63.70000 152.082
63.71000 152.146
63.72000 151.073
63.73000 150.102
63.74000 150.174
63.75000 150.430
63.76000 150.812
63.77000 151.812
63.78000 152.895
63.79000 153.539
63.80000 152.732
63.81000 151.809
63.82000 151.162
63.83000 152.694
63.84000 153.916
63.85000 153.366
63.86000 150.088
63.87000 146.780
63.88000 145.780
63.89000 147.122
63.90000 148.456
63.91000 152.555
63.92000 158.421
63.93000 164.073
63.94000 163.761
63.95000 160.740
63.96000 157.753
63.97000 155.204
63.98000 152.792
63.99000 150.616
64.00000 149.639
64.01000 149.000
64.02000 149.211
64.03000 153.559
64.04000 158.457
64.05000 161.920
64.06000 160.702
64.07000 159.121
64.08000 158.017
64.09000 154.006
64.10000 150.897
64.11000 151.982
64.12000 159.429
64.13000 166.941
64.14000 167.222
64.15000 160.282
64.16000 153.387
64.17000 151.847
64.18000 153.803
64.19000 155.689
64.20000 155.677
64.21000 154.817
64.22000 154.114
64.23000 155.430
64.24000 157.363
64.25000 159.104
64.26000 159.294
64.27000 159.182
64.28000 159.781
64.29000 163.782
64.30000 168.228
64.31000 171.922
64.32000 173.203
64.33000 174.300
64.34000 175.063
64.35000 170.397
64.36000 166.735
64.37000 164.673
64.38000 164.997
64.39000 165.345
64.40000 166.022
64.41000 167.023
64.42000 168.016
64.43000 166.712
64.44000 163.963
64.45000 161.395
64.46000 163.573
64.47000 167.844
64.48000 171.731
64.49000 170.781
64.50000 168.374
64.51000 166.212
64.52000 171.716
64.53000 177.885
64.54000 182.674
64.55000 180.951
64.56000 178.394
64.57000 176.594
64.58000 177.193
64.59000 177.969
64.60000 178.505
64.61000 181.078
64.62000 183.065
64.63000 183.368
64.64000 181.193
64.65000 178.996
64.66000 177.283
64.67000 176.036
64.68000 174.798
64.69000 178.309
64.70000 184.745
64.71000 190.944
64.72000 191.161
64.73000 188.778
64.74000 186.616
64.75000 187.176
64.76000 188.544
64.77000 189.770
64.78000 191.344
64.79000 192.780
64.80000 193.062
64.81000 187.991
64.82000 182.246
64.83000 179.726
64.84000 187.270
64.85000 195.539
64.86000 201.227
64.87000 203.644
64.88000 205.376
64.89000 205.987
64.90000 204.973
64.91000 203.947
64.92000 203.040
64.93000 202.248
64.94000 201.462
64.95000 203.712
64.96000 207.800
64.97000 211.792
64.98000 213.474
64.99000 214.164
65.00000 215.147
65.01000 219.635
65.02000 225.149
65.03000 230.080
65.04000 230.017
65.05000 229.112
65.06000 227.910
65.07000 225.349
65.08000 222.621
65.09000 221.025
65.10000 222.916
65.11000 225.052
65.12000 226.514
65.13000 237.669
65.14000 246.252
65.15000 251.810
65.16000 253.050
65.17000 254.258
65.18000 255.693
65.19000 257.340
65.20000 258.973
65.21000 257.038
65.22000 252.968
65.23000 249.426
65.24000 258.354
65.25000 272.548
65.26000 286.271
65.27000 294.457
65.28000 301.047
65.29000 306.929
65.30000 317.304
65.31000 327.086
65.32000 334.257
65.33000 329.684
65.34000 323.689
65.35000 322.105
65.36000 333.890
65.37000 346.592
65.38000 355.244
65.39000 360.842
65.40000 364.954
65.41000 368.654
65.42000 371.775
65.43000 374.894
65.44000 382.215
65.45000 393.393
65.46000 404.473
65.47000 417.225
65.48000 430.732
65.49000 444.322
65.50000 459.817
65.51000 476.105
65.52000 492.001
65.53000 503.405
65.54000 513.532
65.55000 522.551
65.56000 525.858
65.57000 527.794
65.58000 533.061
65.59000 553.074
65.60000 574.839
65.61000 596.719
65.62000 618.946
65.63000 641.195
65.64000 656.275
65.65000 739.866
65.66000 803.698
65.67000 879.371
65.68000 971.425
65.69000 1063.607
65.70000 1193.489
65.71000 1357.423
65.72000 1519.807
65.73000 1695.946
65.74000 1876.594
65.75000 2056.656
65.76000 2223.758
65.77000 2385.541
65.78000 2545.654
65.79000 2687.000
65.80000 2823.097
65.81000 2944.017
65.82000 2990.462
65.83000 3018.739
65.84000 3042.712
65.85000 3047.919
65.86000 3050.940
65.87000 3048.279
65.88000 3028.893
65.89000 3008.417
65.90000 2994.609
65.91000 2903.907
65.92000 2834.802
65.93000 2733.052
65.94000 2586.828
65.95000 2440.332
65.96000 2274.650
65.97000 2091.922
65.98000 1911.030
65.99000 1718.330
66.00000 1522.925
66.01000 1329.562
66.02000 1180.038
66.03000 1048.246
66.04000 920.391
66.05000 835.806
66.06000 763.146
66.07000 698.734
66.08000 649.632
66.09000 609.544
66.10000 574.525
66.11000 561.257
66.12000 550.476
66.13000 540.230
66.14000 531.536
66.15000 522.941
66.16000 517.175
66.17000 499.479
66.18000 486.101
66.19000 479.429
66.20000 481.750
66.21000 484.125
66.22000 491.923
66.23000 504.461
66.24000 516.866
66.25000 540.042
66.26000 568.839
66.27000 597.324
66.28000 619.314
66.29000 638.716
66.30000 659.747
66.31000 698.308
66.32000 741.628
66.33000 779.942
66.34000 809.951
66.35000 834.596
66.36000 856.432
66.37000 866.402
66.38000 875.043
66.39000 882.246
66.40000 885.335
66.41000 888.170
66.42000 890.063
66.43000 886.062
66.44000 882.984
66.45000 874.336
66.46000 858.330
66.47000 842.286
66.48000 823.999
66.49000 803.783
66.50000 783.795
66.51000 753.058
66.52000 717.014
66.53000 681.554
66.54000 657.891
66.55000 638.864
66.56000 618.569
66.57000 584.928
66.58000 547.717
66.59000 514.884
66.60000 499.130
66.61000 488.146
66.62000 478.005
66.63000 471.374
66.64000 465.129
66.65000 456.674
66.66000 441.990
66.67000 426.931
66.68000 416.932
66.69000 432.439
66.70000 444.374
66.71000 449.072
66.72000 444.359
66.73000 439.611
66.74000 437.213
66.75000 436.805
66.76000 436.402
66.77000 433.207
66.78000 428.549
66.79000 423.954
66.80000 420.584
66.81000 417.690
66.82000 415.844
66.83000 424.810
66.84000 436.623
66.85000 447.022
66.86000 449.030
66.87000 449.502
66.88000 450.142
66.89000 451.467
66.90000 452.866
66.91000 453.292
66.92000 451.015
66.93000 448.580
66.94000 446.971
66.95000 454.345
66.96000 459.943
66.97000 466.016
66.98000 472.698
66.99000 479.373
67.00000 482.063
67.01000 481.433
67.02000 480.811
67.03000 477.757
67.04000 473.460
67.05000 469.586
67.06000 473.808
67.07000 481.121
67.08000 487.468
67.09000 484.083
67.10000 478.173
67.11000 472.983
67.12000 472.268
67.13000 472.312
67.14000 474.868
67.15000 487.566
67.16000 501.333
67.17000 509.533
67.18000 502.492
67.19000 494.581
67.20000 489.384
67.21000 488.954
67.22000 488.719
67.23000 492.226
67.24000 500.448
67.25000 508.664
67.26000 507.524
67.27000 498.716
67.28000 490.025
67.29000 483.553
67.30000 478.446
67.31000 473.688
67.32000 475.405
67.33000 479.559
67.34000 484.488
67.35000 497.084
67.36000 511.639
67.37000 524.391
67.38000 519.622
67.39000 513.003
67.40000 509.482
67.41000 518.277
67.42000 528.345
67.43000 533.249
67.44000 524.222
67.45000 514.421
67.46000 508.017
67.47000 529.654
67.48000 545.994
67.49000 552.377
67.50000 546.412
67.51000 540.433
67.52000 542.116
67.53000 549.982
67.54000 557.737
67.55000 553.660
67.56000 543.463
67.57000 533.703
67.58000 531.843
67.59000 532.911
67.60000 534.506
67.61000 541.195
67.62000 549.166
67.63000 556.133
67.64000 555.867
67.65000 554.616
67.66000 553.702
67.67000 554.107
67.68000 554.646
67.69000 554.196
67.70000 551.118
67.71000 547.897
67.72000 545.804
67.73000 551.360
67.74000 555.549
67.75000 562.693
67.76000 573.444
67.77000 584.173
67.78000 585.480
67.79000 579.306
67.80000 573.223
67.81000 574.750
67.82000 580.179
67.83000 585.465
67.84000 588.238
67.85000 590.093
67.86000 592.621
67.87000 601.533
67.88000 612.028
67.89000 621.177
67.90000 612.124
67.91000 601.857
67.92000 594.962
67.93000 601.070
67.94000 608.467
67.95000 612.921
67.96000 609.660
67.97000 605.995
67.98000 603.627
67.99000 606.361
68.00000 608.435
68.01000 615.512
68.02000 628.598
68.03000 641.670
68.04000 647.395
68.05000 647.376
68.06000 647.358
68.07000 647.783
68.08000 648.421
68.09000 649.074
68.10000 649.985
68.11000 650.989
68.12000 652.521
68.13000 658.968
68.14000 666.614
68.15000 673.264
68.16000 671.817
68.17000 669.479
68.18000 668.129
68.19000 670.531
68.20000 673.297
68.21000 679.764
68.22000 695.791
68.23000 712.305
68.24000 722.919
68.25000 732.720
68.26000 739.858
68.27000 738.919
68.28000 728.432
68.29000 717.970
68.30000 717.571
68.31000 724.915
68.32000 732.140
68.33000 730.609
68.34000 724.730
68.35000 719.576
68.36000 726.490
68.37000 737.689
68.38000 749.974
68.39000 772.159
68.40000 796.724
68.41000 818.034
68.42000 825.207
68.43000 829.426
68.44000 834.676
68.45000 843.787
68.46000 853.265
68.47000 862.917
68.48000 873.014
68.49000 883.133
68.50000 889.600
68.51000 909.690
68.52000 924.491
68.53000 944.168
68.54000 969.516
68.55000 994.852
68.56000 1015.774
68.57000 1033.352
68.58000 1050.631
68.59000 1091.645
68.60000 1143.032
68.61000 1194.228
68.62000 1242.310
68.63000 1289.303
68.64000 1338.347
68.65000 1405.709
68.66000 1477.408
68.67000 1539.447
68.68000 1623.802
68.69000 1698.440
68.70000 1771.193
68.71000 1836.992
68.72000 1902.145
68.73000 1967.853
68.74000 2034.957
68.75000 2102.127
68.76000 2144.813
68.77000 2223.855
68.78000 2281.709
68.79000 2367.347
68.80000 2484.785
68.81000 2602.266
68.82000 2721.097
68.83000 2840.937
68.84000 2958.645
68.85000 3145.286
68.86000 3359.044
68.87000 3583.019
68.88000 3968.015
68.89000 4408.542
68.90000 4909.310
68.91000 5937.518
68.92000 7088.677
68.93000 8082.196
68.94000 11029.442
68.95000 13781.686
68.96000 16979.580
68.97000 21795.465
68.98000 26758.693
68.99000 31918.137
69.00000 37562.945
69.01000 43230.379
69.02000 46811.301
69.03000 53120.695
69.04000 57724.469
69.05000 61387.758
69.06000 63991.992
69.07000 66590.266
69.08000 68311.359
69.09000 69388.227
69.10000 70445.070
69.11000 71534.016
69.12000 72599.414
69.13000 73663.906
69.14000 74714.531
69.15000 75760.438
69.16000 76734.336
69.17000 77089.977
69.18000 77303.711
69.19000 77487.703
69.20000 74632.930
69.21000 71831.609
69.22000 68639.461
69.23000 64049.469
69.24000 59334.930
69.25000 54894.887
69.26000 51124.102
69.27000 47383.574
69.28000 45033.844
69.29000 41945.988
69.30000 39705.430
69.31000 38088.934
69.32000 37163.777
69.33000 36239.734
69.34000 35420.672
69.35000 34677.531
69.36000 33948.828
69.37000 32730.797
69.38000 31327.119
69.39000 29865.244
69.40000 27531.883
69.41000 24906.607
69.42000 22246.611
69.43000 19294.242
69.44000 16275.802
69.45000 13684.265
69.46000 11180.047
69.47000 9073.682
69.48000 7161.925
69.49000 5935.916
69.50000 4769.670
69.51000 3789.960
69.52000 3258.526
69.53000 2746.731
69.54000 2427.114
69.55000 2139.581
69.56000 1932.513
69.57000 1771.837
69.58000 1661.714
69.59000 1551.853
69.60000 1476.431
69.61000 1425.535
69.62000 1375.671
69.63000 1315.870
69.64000 1253.749
69.65000 1192.846
69.66000 1149.723
69.67000 1112.470
69.68000 1075.705
69.69000 1042.982
69.70000 1011.157
69.71000 983.906
69.72000 949.867
69.73000 920.319
69.74000 892.315
69.75000 869.667
69.76000 847.476
69.77000 824.772
69.78000 800.856
69.79000 776.888
69.80000 762.008
69.81000 759.564
69.82000 757.927
69.83000 750.512
69.84000 736.903
69.85000 723.271
69.86000 706.980
69.87000 688.823
69.88000 671.050
69.89000 658.355
69.90000 648.484
69.91000 639.235
69.92000 638.848
69.93000 641.343
69.94000 642.643
69.95000 634.249
69.96000 623.733
69.97000 614.752
69.98000 613.298
69.99000 612.969
70.00000 610.096
