20.00000 479.202
20.01000 483.365
20.02000 488.123
20.03000 491.784
20.04000 491.122
20.05000 490.017
20.06000 489.202
20.07000 494.712
20.08000 499.253
20.09000 502.681
20.10000 504.076
20.11000 505.427
20.12000 507.460
20.13000 510.333
20.14000 513.203
20.15000 508.007
20.16000 496.408
20.17000 484.974
20.18000 480.890
20.19000 480.762
20.20000 480.506
20.21000 477.962
20.22000 474.576
20.23000 471.451
20.24000 474.023
20.25000 477.603
20.26000 480.848
20.27000 482.121
20.28000 483.070
20.29000 482.762
20.30000 477.569
20.31000 471.886
20.32000 467.707
20.33000 470.855
20.34000 473.591
20.35000 477.983
20.36000 485.364
20.37000 492.805
20.38000 493.720
20.39000 486.735
20.40000 479.746
20.41000 476.814
20.42000 477.077
20.43000 477.328
20.44000 477.049
20.45000 476.489
20.46000 476.085
20.47000 478.370
20.48000 481.631
20.49000 484.634
20.50000 490.380
20.51000 496.124
20.52000 499.527
20.53000 489.344
20.54000 476.973
20.55000 468.931
20.56000 477.447
20.57000 487.588
20.58000 495.015
20.59000 474.624
20.60000 457.772
20.61000 450.467
20.62000 460.138
20.63000 470.138
20.64000 474.649
20.65000 472.621
20.66000 470.584
20.67000 472.037
20.68000 476.171
20.69000 480.287
20.70000 483.674
20.71000 486.679
20.72000 489.497
20.73000 489.148
20.74000 487.668
20.75000 486.307
20.76000 481.638
20.77000 476.751
20.78000 473.021
20.79000 475.888
20.80000 479.799
20.81000 481.631
20.82000 475.622
20.83000 468.861
20.84000 463.931
20.85000 468.432
20.86000 472.263
20.87000 476.808
20.88000 482.601
20.89000 488.416
20.90000 490.105
20.91000 486.956
20.92000 483.808
20.93000 479.450
20.94000 474.203
20.95000 469.014
20.96000 466.133
20.97000 464.439
20.98000 462.980
20.99000 465.365
21.00000 469.105
21.01000 472.537
21.02000 474.204
21.03000 475.316
21.04000 476.474
21.05000 477.891
21.06000 479.347
21.07000 481.063
21.08000 483.740
21.09000 486.508
21.10000 488.518
21.11000 492.783
21.12000 496.147
21.13000 496.497
21.14000 491.645
21.15000 486.701
21.16000 482.735
21.17000 479.898
21.18000 477.070
21.19000 478.455
21.20000 482.975
21.21000 487.384
21.22000 487.617
21.23000 485.730
21.24000 483.786
21.25000 480.927
21.26000 477.751
21.27000 474.841
21.28000 481.644
21.29000 489.731
21.30000 496.047
21.31000 492.587
21.32000 487.634
21.33000 482.145
21.34000 474.696
21.35000 467.066
21.36000 461.551
21.37000 476.370
21.38000 488.479
21.39000 493.751
21.40000 487.396
21.41000 480.847
21.42000 477.873
21.43000 478.957
21.44000 480.041
21.45000 483.682
21.46000 489.174
21.47000 494.460
21.48000 492.349
21.49000 486.536
21.50000 481.074
21.51000 481.066
21.52000 482.926
21.53000 484.626
21.54000 480.806
21.55000 476.278
21.56000 473.532
21.57000 480.458
21.58000 488.837
21.59000 494.207
21.60000 488.735
21.61000 482.287
21.62000 477.646
21.63000 478.444
21.64000 479.247
21.65000 481.465
21.66000 486.055
21.67000 490.682
21.68000 494.170
21.69000 496.386
21.70000 498.593
21.71000 499.317
21.72000 498.963
21.73000 498.796
21.74000 505.060
21.75000 514.496
21.76000 523.557
21.77000 526.940
21.78000 528.408
21.79000 529.747
21.80000 539.300
21.81000 549.434
21.82000 558.410
21.83000 561.212
21.84000 563.102
21.85000 564.176
21.86000 562.355
21.87000 560.278
21.88000 558.790
21.89000 566.694
21.90000 573.052
21.91000 584.105
21.92000 602.909
21.93000 621.828
21.94000 629.612
21.95000 625.163
21.96000 620.724
21.97000 627.033
21.98000 640.921
21.99000 654.731
22.00000 665.960
22.01000 675.935
22.02000 685.221
22.03000 684.321
22.04000 680.034
22.05000 676.129
22.06000 675.547
22.07000 675.690
22.08000 676.143
22.09000 678.214
22.10000 680.520
22.11000 682.017
22.12000 680.685
22.13000 679.109
22.14000 677.986
22.15000 661.047
22.16000 647.611
22.17000 636.153
22.18000 627.914
22.19000 619.720
22.20000 613.611
22.21000 609.754
22.22000 605.915
22.23000 600.980
22.24000 595.328
22.25000 589.732
22.26000 585.889
22.27000 582.886
22.28000 579.409
22.29000 569.098
22.30000 556.549
22.31000 545.142
22.32000 539.188
22.33000 534.988
22.34000 531.150
22.35000 529.173
22.36000 527.462
22.37000 526.024
22.38000 525.525
22.39000 525.105
22.40000 524.807
22.41000 518.710
22.42000 513.887
22.43000 510.323
22.44000 508.777
22.45000 507.259
22.46000 501.113
22.47000 490.050
22.48000 479.037
22.49000 471.819
22.50000 467.293
22.51000 463.072
22.52000 468.260
22.53000 477.890
22.54000 486.942
22.55000 487.858
22.56000 486.147
22.57000 484.595
22.58000 477.039
22.59000 469.221
22.60000 462.080
22.61000 458.380
22.62000 455.162
22.63000 451.932
22.64000 448.663
22.65000 445.391
22.66000 443.078
22.67000 443.022
22.68000 443.049
22.69000 445.178
22.70000 450.628
22.71000 456.118
22.72000 457.544
22.73000 454.721
22.74000 451.913
22.75000 454.732
22.76000 461.329
22.77000 467.575
22.78000 463.402
22.79000 454.380
22.80000 445.833
22.81000 443.784
22.82000 443.804
22.83000 443.821
22.84000 443.741
22.85000 443.652
22.86000 442.603
22.87000 436.755
22.88000 430.248
22.89000 428.078
22.90000 440.416
22.91000 453.922
22.92000 463.425
22.93000 457.433
22.94000 452.434
22.95000 449.314
22.96000 449.115
22.97000 448.951
22.98000 449.367
22.99000 450.379
23.00000 451.386
23.01000 451.446
23.02000 450.873
23.03000 450.182
23.04000 446.086
23.05000 440.429
23.06000 435.267
23.07000 436.737
23.08000 440.285
23.09000 443.490
23.10000 443.198
23.11000 442.294
23.12000 441.552
23.13000 441.605
23.14000 441.765
23.15000 441.567
23.16000 440.187
23.17000 438.715
23.18000 437.683
23.19000 444.154
23.20000 449.261
23.21000 449.977
23.22000 443.965
23.23000 437.880
23.24000 434.651
23.25000 434.307
23.26000 433.966
23.27000 432.113
23.28000 429.293
23.29000 426.824
23.30000 434.010
23.31000 445.561
23.32000 456.230
23.33000 455.342
23.34000 450.884
23.35000 446.866
23.36000 444.798
23.37000 443.339
23.38000 442.104
23.39000 441.959
23.40000 441.957
23.41000 440.695
23.42000 435.340
23.43000 429.669
23.44000 425.718
23.45000 431.326
23.46000 435.822
23.47000 438.693
23.48000 439.113
23.49000 439.509
23.50000 441.560
23.51000 445.257
23.52000 448.930
23.53000 446.749
23.54000 440.822
23.55000 434.975
23.56000 431.256
23.57000 428.486
23.58000 426.012
23.59000 427.332
23.60000 429.806
23.61000 432.031
23.62000 424.478
23.63000 416.114
23.64000 409.132
23.65000 408.740
23.66000 409.204
23.67000 411.311
23.68000 418.673
23.69000 426.430
23.70000 431.810
23.71000 435.334
23.72000 437.939
23.73000 439.010
23.74000 437.802
23.75000 436.572
23.76000 435.857
23.77000 435.645
23.78000 435.435
23.79000 432.258
23.80000 427.248
23.81000 422.382
23.82000 421.214
23.83000 421.670
23.84000 422.400
23.85000 426.545
23.86000 431.713
23.87000 436.353
23.88000 431.513
23.89000 425.617
23.90000 420.676
23.91000 420.224
23.92000 420.343
23.93000 420.518
23.94000 420.867
23.95000 421.228
23.96000 421.478
23.97000 418.277
23.98000 415.783
23.99000 416.449
24.00000 421.741
24.01000 427.073
24.02000 430.409
24.03000 431.827
24.04000 433.235
24.05000 437.929
24.06000 444.597
24.07000 450.830
24.08000 446.191
24.09000 436.847
24.10000 428.472
24.11000 431.924
24.12000 438.872
24.13000 445.095
24.14000 439.260
24.15000 432.086
24.16000 426.378
24.17000 427.443
24.18000 429.356
24.19000 428.823
24.20000 420.692
24.21000 412.018
24.22000 406.060
24.23000 394.687
24.24000 386.026
24.25000 388.005
24.26000 405.328
24.27000 422.773
24.28000 428.156
24.29000 422.150
24.30000 416.191
24.31000 420.180
24.32000 430.218
24.33000 439.786
24.34000 438.056
24.35000 431.505
24.36000 425.325
24.37000 423.565
24.38000 423.092
24.39000 422.670
24.40000 413.365
24.41000 403.751
24.42000 397.876
24.43000 408.996
24.44000 422.202
24.45000 431.154
24.46000 427.075
24.47000 422.088
24.48000 418.679
24.49000 430.932
24.50000 440.471
24.51000 443.471
24.52000 437.186
24.53000 430.834
24.54000 426.542
24.55000 424.166
24.56000 421.810
24.57000 425.292
24.58000 432.243
24.59000 438.658
24.60000 432.579
24.61000 421.245
24.62000 410.986
24.63000 413.273
24.64000 419.159
24.65000 424.409
24.66000 425.966
24.67000 426.706
24.68000 427.313
24.69000 427.324
24.70000 427.265
24.71000 424.514
24.72000 413.643
24.73000 402.219
24.74000 394.450
24.75000 402.116
24.76000 408.190
24.77000 411.491
24.78000 410.914
24.79000 410.312
24.80000 412.571
24.81000 417.444
24.82000 422.274
24.83000 424.441
24.84000 424.979
24.85000 425.472
24.86000 424.920
24.87000 423.936
24.88000 422.792
24.89000 419.812
24.90000 416.314
24.91000 413.200
24.92000 414.531
24.93000 416.413
24.94000 418.132
24.95000 419.136
24.96000 420.055
24.97000 419.976
24.98000 416.925
24.99000 413.677
25.00000 411.479
25.01000 417.542
25.02000 422.239
25.03000 420.524
25.04000 409.980
25.05000 399.385
25.06000 393.145
25.07000 390.820
25.08000 388.518
25.09000 392.493
25.10000 400.065
25.11000 407.609
25.12000 414.528
25.13000 421.191
25.14000 426.630
25.15000 418.400
25.16000 406.364
25.17000 395.677
25.18000 397.962
25.19000 402.022
25.20000 405.612
25.21000 407.158
25.22000 408.467
25.23000 407.196
25.24000 398.361
25.25000 389.037
25.26000 382.759
25.27000 394.754
25.28000 404.054
25.29000 407.944
25.30000 404.498
25.31000 401.015
25.32000 401.636
25.33000 405.887
25.34000 410.094
25.35000 407.067
25.36000 399.931
25.37000 393.094
25.38000 392.599
25.39000 394.657
25.40000 396.850
25.41000 400.519
25.42000 404.592
25.43000 408.201
25.44000 412.927
25.45000 417.192
25.46000 418.504
25.47000 407.199
25.48000 394.460
25.49000 386.988
25.50000 394.726
25.51000 403.423
25.52000 409.249
25.53000 408.911
25.54000 408.538
25.55000 407.475
25.56000 405.492
25.57000 403.508
25.58000 404.906
25.59000 409.246
25.60000 413.538
25.61000 409.742
25.62000 401.440
25.63000 393.706
25.64000 397.701
25.65000 406.352
25.66000 413.778
25.67000 408.114
25.68000 398.913
25.69000 390.780
25.70000 398.737
25.71000 408.095
25.72000 415.905
25.73000 417.204
25.74000 417.777
25.75000 415.328
25.76000 404.275
25.77000 392.695
25.78000 384.977
25.79000 389.387
25.80000 392.883
25.81000 399.350
25.82000 409.723
25.83000 420.104
25.84000 424.603
25.85000 424.065
25.86000 423.534
25.87000 417.549
25.88000 408.659
25.89000 399.946
25.90000 394.757
25.91000 390.948
25.92000 387.917
25.93000 393.025
25.94000 400.298
25.95000 406.712
25.96000 404.953
25.97000 402.197
25.98000 398.681
25.99000 392.014
26.00000 385.004
26.01000 380.387
26.02000 382.485
26.03000 384.985
26.04000 386.642
26.05000 397.657
26.06000 405.964
26.07000 411.343
26.08000 412.932
26.09000 414.502
26.10000 414.196
26.11000 412.308
26.12000 410.444
26.13000 407.727
26.14000 404.609
26.15000 401.621
26.16000 401.169
26.17000 401.695
26.18000 401.789
26.19000 397.470
26.20000 391.994
26.21000 387.177
26.22000 389.232
26.23000 392.024
26.24000 395.226
26.25000 400.104
26.26000 405.162
26.27000 407.063
26.28000 400.236
26.29000 392.901
26.30000 388.064
26.31000 398.950
26.32000 407.248
26.33000 408.926
26.34000 402.170
26.35000 395.393
26.36000 392.608
26.37000 393.133
26.38000 393.651
26.39000 392.948
26.40000 391.603
26.41000 390.265
26.42000 389.039
26.43000 387.857
26.44000 386.869
26.45000 387.824
26.46000 389.281
26.47000 390.560
26.48000 386.207
26.49000 381.645
26.50000 379.371
26.51000 386.294
26.52000 394.182
26.53000 398.981
26.54000 395.361
26.55000 391.265
26.56000 388.578
26.57000 392.776
26.58000 395.978
26.59000 397.348
26.60000 396.418
26.61000 395.473
26.62000 391.230
26.63000 384.298
26.64000 377.459
26.65000 375.837
26.66000 377.041
26.67000 378.017
26.68000 374.816
26.69000 370.050
26.70000 365.937
26.71000 368.242
26.72000 372.180
26.73000 375.628
26.74000 381.321
26.75000 386.524
26.76000 392.211
26.77000 399.810
26.78000 407.605
26.79000 412.659
26.80000 410.352
26.81000 407.639
26.82000 405.869
26.83000 390.077
26.84000 378.264
26.85000 374.185
26.86000 379.650
26.87000 385.121
26.88000 384.016
26.89000 377.631
26.90000 371.336
26.91000 376.148
26.92000 386.645
26.93000 396.397
26.94000 392.807
26.95000 384.290
26.96000 376.733
26.97000 378.401
26.98000 382.381
26.99000 385.856
27.00000 391.842
27.01000 397.319
27.02000 401.262
27.03000 399.227
27.04000 396.591
27.05000 394.266
27.06000 392.761
27.07000 391.300
27.08000 390.352
27.09000 393.165
27.10000 395.281
27.11000 395.335
27.12000 392.886
27.13000 390.431
27.14000 388.405
27.15000 386.717
27.16000 385.054
27.17000 382.972
27.18000 380.736
27.19000 378.781
27.20000 381.708
27.21000 386.413
27.22000 390.792
27.23000 392.113
27.24000 392.678
27.25000 393.171
27.26000 387.318
27.27000 381.440
27.28000 377.095
27.29000 378.634
27.30000 380.752
27.31000 381.100
27.32000 376.830
27.33000 372.320
27.34000 369.410
27.35000 376.670
27.36000 382.120
27.37000 383.361
27.38000 379.569
27.39000 375.792
27.40000 378.376
27.41000 385.909
27.42000 393.323
27.43000 390.404
27.44000 382.326
27.45000 374.467
27.46000 370.298
27.47000 367.453
27.48000 364.944
27.49000 365.539
27.50000 366.889
27.51000 368.062
27.52000 379.136
27.53000 389.920
27.54000 398.789
27.55000 400.412
27.56000 401.335
27.57000 398.666
27.58000 386.754
27.59000 374.376
27.60000 366.433
27.61000 375.793
27.62000 382.851
27.63000 384.609
27.64000 380.129
27.65000 375.640
27.66000 371.379
27.67000 367.292
27.68000 363.273
27.69000 369.109
27.70000 379.684
27.71000 389.548
27.72000 387.697
27.73000 381.704
27.74000 375.973
27.75000 372.598
27.76000 369.788
27.77000 367.352
27.78000 377.449
27.79000 387.709
27.80000 394.323
27.81000 387.353
27.82000 379.101
27.83000 375.019
27.84000 381.511
27.85000 388.522
27.86000 392.995
27.87000 388.754
27.88000 385.556
27.89000 377.589
27.90000 364.101
27.91000 350.678
27.92000 352.224
27.93000 365.056
27.94000 377.667
27.95000 384.189
27.96000 387.495
27.97000 390.355
27.98000 386.056
27.99000 379.263
28.00000 373.336
28.01000 375.101
28.02000 378.677
28.03000 381.770
28.04000 382.404
28.05000 382.623
28.06000 382.226
28.07000 379.568
28.08000 376.702
28.09000 374.588
28.10000 374.354
28.11000 374.208
28.12000 374.116
28.13000 378.809
28.14000 382.273
28.15000 381.760
28.16000 376.717
28.17000 371.699
28.18000 372.290
28.19000 377.044
28.20000 381.712
28.21000 379.551
28.22000 374.156
28.23000 369.323
28.24000 373.270
28.25000 380.231
28.26000 386.390
28.27000 385.570
28.28000 383.129
28.29000 381.025
28.30000 376.852
28.31000 373.049
28.32000 371.394
28.33000 377.502
28.34000 384.311
28.35000 387.881
28.36000 383.469
28.37000 378.688
28.38000 375.673
28.39000 389.942
28.40000 400.474
28.41000 403.482
28.42000 398.059
28.43000 392.607
28.44000 383.317
28.45000 371.224
28.46000 359.358
28.47000 358.495
28.48000 362.909
28.49000 367.110
28.50000 368.051
28.51000 367.889
28.52000 367.570
28.53000 365.902
28.54000 363.927
28.55000 362.228
28.56000 365.424
28.57000 368.744
28.58000 371.875
28.59000 374.336
28.60000 376.738
28.61000 377.077
28.62000 372.410
28.63000 367.519
28.64000 364.452
28.65000 357.536
28.66000 352.498
28.67000 354.513
28.68000 364.302
28.69000 374.070
28.70000 379.844
28.71000 382.745
28.72000 385.588
28.73000 385.362
28.74000 383.704
28.75000 382.007
28.76000 379.732
28.77000 377.264
28.78000 374.835
28.79000 372.732
28.80000 370.702
28.81000 368.960
28.82000 362.637
28.83000 356.730
28.84000 352.904
28.85000 356.374
28.86000 360.476
28.87000 363.946
28.88000 365.904
28.89000 367.797
28.90000 368.977
28.91000 370.814
28.92000 372.145
28.93000 375.500
28.94000 381.049
28.95000 386.521
28.96000 381.046
28.97000 367.810
28.98000 354.845
28.99000 356.026
29.00000 363.696
29.01000 370.677
29.02000 367.683
29.03000 361.411
29.04000 355.804
29.05000 355.660
29.06000 356.725
29.07000 357.637
29.08000 367.948
29.09000 377.776
29.10000 384.532
29.11000 380.666
29.12000 375.900
29.13000 371.372
29.14000 367.406
29.15000 363.464
29.16000 361.021
29.17000 363.924
29.18000 366.064
29.19000 365.914
29.20000 363.321
29.21000 360.733
29.22000 358.819
29.23000 357.377
29.24000 355.966
29.25000 357.372
29.26000 360.004
29.27000 362.373
29.28000 361.042
29.29000 358.512
29.30000 356.742
29.31000 361.091
29.32000 366.773
29.33000 371.622
29.34000 372.450
29.35000 372.672
29.36000 372.423
29.37000 370.572
29.38000 368.588
29.39000 367.167
29.40000 367.054
29.41000 366.995
29.42000 366.959
29.43000 366.789
29.44000 366.666
29.45000 366.265
29.46000 365.571
29.47000 364.891
29.48000 365.940
29.49000 368.176
29.50000 370.363
29.51000 363.136
29.52000 351.995
29.53000 342.082
29.54000 349.102
29.55000 361.526
29.56000 372.808
29.57000 375.052
29.58000 375.357
29.59000 375.617
29.60000 371.910
29.61000 368.336
29.62000 366.902
29.63000 372.651
29.64000 378.980
29.65000 383.057
29.66000 381.972
29.67000 380.684
29.68000 379.895
29.69000 377.541
29.70000 375.843
29.71000 375.478
29.72000 376.488
29.73000 377.470
29.74000 375.338
29.75000 371.096
29.76000 366.953
29.77000 369.652
29.78000 375.249
29.79000 380.763
29.80000 385.160
29.81000 389.205
29.82000 392.663
29.83000 391.561
29.84000 389.496
29.85000 387.743
29.86000 391.959
29.87000 396.173
29.88000 399.976
29.89000 402.421
29.90000 404.759
29.91000 407.515
29.92000 411.216
29.93000 414.952
29.94000 417.226
29.95000 433.920
29.96000 445.957
29.97000 451.019
29.98000 449.007
29.99000 447.049
30.00000 450.456
30.01000 457.443
30.02000 464.262
30.03000 467.220
30.04000 468.374
30.05000 469.264
30.06000 466.693
30.07000 463.048
30.08000 459.794
30.09000 459.518
30.10000 459.861
30.11000 460.152
30.12000 451.393
30.13000 443.053
30.14000 437.740
30.15000 442.284
30.16000 447.589
30.17000 449.492
30.18000 443.822
30.19000 437.875
30.20000 434.278
30.21000 430.481
30.22000 427.774
30.23000 426.030
30.24000 425.246
30.25000 424.453
30.26000 422.808
30.27000 420.604
30.28000 418.456
30.29000 415.609
30.30000 412.594
30.31000 409.732
30.32000 408.837
30.33000 408.543
30.34000 408.979
30.35000 414.878
30.36000 421.894
30.37000 427.815
30.38000 423.313
30.39000 418.414
30.40000 414.502
30.41000 413.755
30.42000 413.247
30.43000 412.056
30.44000 409.364
30.45000 406.620
30.46000 404.971
30.47000 396.355
30.48000 390.183
30.49000 389.802
30.50000 395.098
30.51000 400.395
30.52000 405.840
30.53000 411.381
30.54000 416.778
30.55000 420.165
30.56000 422.551
30.57000 424.495
30.58000 420.891
30.59000 415.618
30.60000 410.496
30.61000 406.481
30.62000 402.689
30.63000 399.498
30.64000 402.751
30.65000 406.152
30.66000 408.887
30.67000 409.515
30.68000 409.989
30.69000 410.238
30.70000 410.001
30.71000 409.748
30.72000 409.596
30.73000 418.131
30.74000 424.238
30.75000 424.825
30.76000 420.093
30.77000 415.419
30.78000 415.613
30.79000 418.910
30.80000 422.119
30.81000 425.463
30.82000 428.704
30.83000 431.304
30.84000 426.042
30.85000 418.450
30.86000 412.770
30.87000 420.870
30.88000 431.699
30.89000 440.787
30.90000 450.171
30.91000 458.014
30.92000 464.282
30.93000 465.640
30.94000 466.646
30.95000 470.667
30.96000 481.115
30.97000 491.776
30.98000 498.100
30.99000 510.364
31.00000 519.076
31.01000 530.386
31.02000 544.158
31.03000 558.025
31.04000 579.272
31.05000 605.153
31.06000 630.308
31.07000 652.841
31.08000 673.193
31.09000 694.951
31.10000 733.554
31.11000 777.078
31.12000 819.139
31.13000 850.834
31.14000 880.510
31.15000 905.340
31.16000 984.437
31.17000 1055.716
31.18000 1128.550
31.19000 1206.159
31.20000 1284.103
31.21000 1373.283
31.22000 1486.066
31.23000 1599.600
31.24000 1666.519
31.25000 1785.532
31.26000 1869.820
31.27000 1977.136
31.28000 2105.922
31.29000 2234.532
31.30000 2350.295
31.31000 2458.110
31.32000 2562.796
31.33000 2662.167
31.34000 2754.361
31.35000 2844.657
31.36000 2912.708
31.37000 2974.356
31.38000 3032.219
31.39000 3063.767
31.40000 3090.268
31.41000 3112.377
31.42000 3107.942
31.43000 3101.602
31.44000 3090.607
31.45000 3065.525
31.46000 3039.479
31.47000 2990.476
31.48000 2893.939
31.49000 2795.946
31.50000 2738.567
31.51000 2622.742
31.52000 2540.901
31.53000 2458.026
31.54000 2374.203
31.55000 2289.917
31.56000 2173.668
31.57000 2037.936
31.58000 1906.285
31.59000 1791.697
31.60000 1689.813
31.61000 1589.094
31.62000 1501.729
31.63000 1418.151
31.64000 1333.900
31.65000 1245.053
31.66000 1155.338
31.67000 1080.711
31.68000 1023.898
31.69000 978.620
31.70000 934.799
31.71000 895.330
31.72000 856.150
31.73000 818.245
31.74000 782.940
31.75000 747.712
31.76000 727.221
31.77000 679.268
31.78000 645.469
31.79000 621.507
31.80000 606.417
31.81000 591.254
31.82000 571.324
31.83000 548.531
31.84000 526.448
31.85000 508.625
31.86000 493.411
31.87000 479.156
31.88000 475.655
31.89000 475.158
31.90000 473.160
31.91000 461.090
31.92000 447.151
31.93000 435.591
31.94000 427.779
31.95000 421.684
31.96000 415.605
31.97000 409.572
31.98000 403.542
31.99000 399.281
32.00000 398.574
32.01000 397.968
32.02000 397.618
32.03000 394.927
32.04000 393.027
32.05000 385.365
32.06000 372.589
32.07000 360.023
32.08000 360.384
32.09000 368.394
32.10000 376.145
32.11000 371.082
32.12000 361.406
32.13000 352.749
32.14000 355.279
32.15000 360.888
32.16000 365.547
32.17000 363.943
32.18000 361.196
32.19000 358.924
32.20000 364.593
32.21000 370.015
32.22000 372.418
32.23000 366.073
32.24000 359.173
32.25000 352.264
32.26000 345.336
32.27000 338.407
32.28000 334.431
32.29000 342.901
32.30000 348.862
32.31000 351.078
32.32000 350.022
32.33000 348.977
32.34000 348.539
32.35000 348.454
32.36000 348.372
32.37000 343.224
32.38000 336.463
32.39000 330.411
32.40000 331.969
32.41000 335.590
32.42000 339.074
32.43000 341.671
32.44000 344.110
32.45000 346.120
32.46000 340.860
32.47000 335.861
32.48000 332.817
32.49000 335.354
32.50000 338.235
32.51000 340.058
32.52000 339.814
32.53000 339.515
32.54000 339.345
32.55000 328.314
32.56000 320.599
32.57000 321.914
32.58000 330.984
32.59000 339.962
32.60000 343.845
32.61000 344.801
32.62000 345.724
32.63000 345.842
32.64000 345.655
32.65000 344.806
32.66000 336.994
32.67000 327.323
32.68000 319.598
32.69000 324.256
32.70000 331.102
32.71000 336.727
32.72000 332.924
32.73000 328.951
32.74000 325.913
32.75000 325.511
32.76000 325.267
32.77000 325.665
32.78000 327.301
32.79000 328.967
32.80000 329.910
32.81000 328.446
32.82000 327.428
32.83000 330.396
32.84000 336.734
32.85000 342.951
32.86000 342.845
32.87000 339.160
32.88000 335.606
32.89000 333.224
32.90000 331.411
32.91000 329.755
32.92000 329.716
32.93000 330.102
32.94000 330.375
32.95000 329.933
32.96000 329.367
32.97000 328.903
32.98000 326.967
32.99000 325.250
33.00000 322.913
33.01000 318.856
33.02000 314.700
33.03000 311.138
33.04000 308.708
33.05000 306.304
33.06000 304.953
33.07000 305.153
33.08000 305.297
33.09000 305.821
33.10000 306.661
33.11000 307.552
33.12000 310.942
33.13000 315.727
33.14000 320.337
33.15000 318.455
33.16000 314.362
33.17000 310.770
33.18000 312.212
33.19000 314.960
33.20000 317.396
33.21000 317.920
33.22000 318.117
33.23000 318.278
33.24000 308.873
33.25000 300.351
33.26000 294.812
33.27000 297.429
33.28000 300.510
33.29000 304.210
33.30000 309.069
33.31000 313.954
33.32000 316.680
33.33000 309.454
33.34000 304.436
33.35000 301.713
33.36000 300.868
33.37000 300.117
33.38000 303.813
33.39000 309.954
33.40000 315.863
33.41000 313.903
33.42000 309.290
33.43000 305.051
33.44000 304.497
33.45000 304.884
33.46000 305.128
33.47000 304.506
33.48000 303.739
33.49000 303.114
33.50000 304.844
33.51000 306.455
33.52000 306.718
33.53000 303.349
33.54000 299.779
33.55000 298.483
33.56000 301.377
33.57000 304.362
33.58000 306.015
33.59000 299.267
33.60000 294.607
33.61000 295.445
33.62000 300.712
33.63000 305.826
33.64000 304.029
33.65000 298.489
33.66000 293.164
33.67000 295.769
33.68000 300.960
33.69000 305.313
33.70000 301.570
33.71000 295.793
33.72000 291.836
33.73000 298.699
33.74000 307.348
33.75000 314.366
33.76000 307.123
33.77000 300.043
33.78000 295.396
33.79000 297.210
33.80000 299.372
33.81000 299.763
33.82000 296.939
33.83000 294.049
33.84000 292.459
33.85000 298.470
33.86000 302.617
33.87000 305.117
33.88000 306.310
33.89000 307.358
33.90000 302.080
33.91000 293.425
33.92000 285.118
33.93000 282.492
33.94000 281.977
33.95000 281.403
33.96000 280.282
33.97000 279.025
33.98000 278.671
33.99000 283.590
34.00000 289.364
34.01000 294.035
34.02000 295.077
34.03000 295.632
34.04000 296.249
34.05000 297.025
34.06000 297.810
34.07000 298.040
34.08000 297.280
34.09000 296.499
34.10000 296.073
34.11000 298.143
34.12000 299.566
34.13000 300.244
34.14000 300.342
34.15000 300.387
34.16000 298.243
34.17000 294.947
34.18000 291.788
34.19000 294.118
34.20000 298.137
34.21000 301.029
34.22000 293.459
34.23000 283.339
34.24000 274.203
34.25000 270.726
34.26000 268.152
34.27000 266.076
34.28000 274.443
34.29000 282.060
34.30000 287.569
34.31000 287.640
34.32000 287.435
34.33000 287.356
34.34000 287.499
34.35000 287.646
34.36000 287.726
34.37000 285.452
34.38000 283.907
34.39000 286.054
34.40000 291.038
34.41000 295.832
34.42000 293.068
34.43000 286.387
34.44000 279.990
34.45000 286.324
34.46000 296.437
34.47000 305.245
34.48000 302.192
34.49000 296.291
34.50000 290.564
34.51000 285.820
34.52000 281.229
34.53000 277.540
34.54000 283.008
34.55000 288.144
34.56000 291.605
34.57000 290.805
34.58000 289.795
34.59000 287.737
34.60000 283.858
34.61000 279.947
34.62000 277.843
34.63000 283.483
34.64000 287.322
34.65000 286.593
34.66000 282.409
34.67000 278.302
34.68000 277.166
34.69000 277.548
34.70000 277.913
34.71000 279.980
34.72000 282.458
34.73000 284.883
34.74000 286.835
34.75000 288.674
34.76000 289.404
34.77000 283.965
34.78000 277.575
34.79000 272.458
34.80000 282.563
34.81000 291.883
34.82000 296.617
34.83000 289.857
34.84000 282.546
34.85000 279.079
34.86000 282.191
34.87000 285.416
34.88000 287.137
34.89000 294.330
34.90000 299.194
34.91000 295.769
34.92000 286.171
34.93000 276.744
34.94000 273.620
34.95000 273.668
34.96000 273.714
34.97000 276.751
34.98000 280.530
34.99000 284.158
35.00000 286.466
35.01000 288.465
35.02000 289.888
35.03000 288.161
35.04000 285.958
35.05000 284.198
35.06000 280.765
35.07000 277.869
35.08000 277.142
35.09000 281.770
35.10000 286.648
35.11000 289.357
35.12000 288.411
35.13000 287.405
35.14000 286.872
35.15000 280.881
35.16000 276.808
35.17000 273.066
35.18000 269.566
35.19000 266.161
35.20000 266.047
35.21000 267.566
35.22000 269.015
35.23000 271.897
35.24000 275.022
35.25000 277.985
35.26000 279.560
35.27000 280.818
35.28000 281.153
35.29000 276.531
35.30000 271.170
35.31000 266.907
35.32000 268.490
35.33000 270.184
35.34000 270.896
35.35000 269.214
35.36000 267.425
35.37000 269.530
35.38000 278.109
35.39000 286.786
35.40000 291.345
35.41000 270.844
35.42000 257.030
35.43000 257.965
35.44000 269.553
35.45000 280.845
35.46000 282.135
35.47000 278.534
35.48000 275.105
35.49000 274.065
35.50000 273.843
35.51000 273.829
35.52000 275.567
35.53000 277.700
35.54000 279.288
35.55000 277.992
35.56000 276.274
35.57000 274.913
35.58000 268.120
35.59000 262.275
35.60000 259.501
35.61000 264.094
35.62000 269.008
35.63000 271.691
35.64000 270.718
35.65000 269.693
35.66000 269.159
35.67000 262.841
35.68000 258.613
35.69000 260.705
35.70000 267.294
35.71000 273.676
35.72000 273.340
35.73000 269.766
35.74000 266.367
35.75000 262.321
35.76000 258.383
35.77000 254.728
35.78000 253.419
35.79000 252.630
35.80000 252.426
35.81000 255.265
35.82000 258.541
35.83000 261.130
35.84000 263.239
35.85000 264.900
35.86000 267.472
35.87000 272.197
35.88000 277.014
35.89000 279.892
35.90000 279.643
35.91000 279.351
35.92000 279.201
35.93000 277.392
35.94000 276.158
35.95000 272.946
35.96000 268.351
35.97000 263.898
35.98000 263.910
35.99000 266.044
36.00000 268.070
36.01000 269.529
36.02000 270.706
36.03000 271.506
36.04000 269.251
36.05000 266.328
36.06000 263.097
36.07000 258.291
36.08000 253.264
36.09000 249.305
36.10000 263.001
36.11000 275.150
36.12000 282.394
36.13000 278.198
36.14000 273.534
36.15000 269.273
36.16000 265.652
36.17000 262.039
36.18000 260.186
36.19000 268.904
36.20000 274.727
36.21000 275.758
36.22000 273.485
36.23000 271.190
36.24000 268.259
36.25000 265.030
36.26000 261.969
36.27000 262.123
36.28000 263.215
36.29000 263.832
36.30000 260.674
36.31000 256.703
36.32000 253.741
36.33000 255.858
36.34000 258.679
36.35000 260.892
36.36000 267.031
36.37000 272.195
36.38000 274.827
36.39000 271.638
36.40000 268.219
36.41000 264.613
36.42000 260.713
36.43000 256.811
36.44000 254.826
36.45000 269.657
36.46000 279.518
36.47000 279.872
36.48000 273.769
36.49000 267.753
36.50000 264.311
36.51000 262.057
36.52000 259.923
36.53000 261.128
36.54000 263.206
36.55000 265.039
36.56000 264.964
36.57000 264.484
36.58000 263.958
36.59000 263.204
36.60000 262.419
36.61000 261.806
36.62000 267.184
36.63000 271.856
36.64000 274.839
36.65000 273.992
36.66000 272.999
36.67000 274.187
36.68000 278.737
36.69000 283.324
36.70000 285.638
36.71000 284.533
36.72000 283.744
36.73000 277.799
36.74000 268.403
36.75000 259.220
36.76000 255.983
36.77000 255.453
36.78000 254.951
36.79000 261.820
36.80000 270.236
36.81000 277.826
36.82000 279.105
36.83000 279.068
36.84000 278.086
36.85000 272.496
36.86000 266.290
36.87000 261.457
36.88000 262.003
36.89000 262.771
36.90000 263.848
36.91000 265.616
36.92000 267.410
36.93000 271.362
36.94000 278.593
36.95000 285.858
36.96000 289.492
36.97000 290.958
36.98000 291.924
36.99000 291.822
37.00000 291.014
37.01000 290.065
37.02000 285.259
37.03000 278.725
37.04000 272.557
37.05000 277.009
37.06000 284.077
37.07000 290.333
37.08000 290.500
37.09000 289.417
37.10000 287.447
37.11000 281.222
37.12000 274.439
37.13000 269.175
37.14000 273.089
37.15000 276.754
37.16000 280.271
37.17000 283.463
37.18000 286.644
37.19000 287.762
37.20000 285.794
37.21000 283.796
37.22000 280.467
37.23000 275.830
37.24000 271.262
37.25000 272.838
37.26000 278.404
37.27000 283.631
37.28000 279.989
37.29000 272.426
37.30000 265.297
37.31000 266.402
37.32000 269.689
37.33000 271.939
37.34000 266.553
37.35000 259.624
37.36000 254.827
37.37000 260.105
37.38000 266.678
37.39000 271.760
37.40000 275.691
37.41000 278.742
37.42000 278.745
37.43000 272.138
37.44000 265.302
37.45000 261.428
37.46000 261.917
37.47000 262.446
37.48000 262.610
37.49000 262.420
37.50000 262.224
37.51000 261.521
37.52000 260.495
37.53000 259.401
37.54000 256.575
37.55000 252.995
37.56000 249.625
37.57000 250.143
37.58000 251.672
37.59000 253.373
37.60000 256.317
37.61000 259.508
37.62000 263.126
37.63000 268.728
37.64000 274.581
37.65000 279.089
37.66000 279.653
37.67000 279.874
37.68000 278.215
37.69000 272.535
37.70000 266.721
37.71000 261.696
37.72000 257.813
37.73000 253.941
37.74000 256.430
37.75000 264.970
37.76000 273.389
37.77000 272.242
37.78000 265.068
37.79000 258.209
37.80000 259.070
37.81000 263.244
37.82000 267.167
37.83000 272.215
37.84000 277.123
37.85000 280.518
37.86000 273.161
37.87000 263.701
37.88000 256.606
37.89000 260.335
37.90000 265.404
37.91000 269.294
37.92000 265.616
37.93000 262.287
37.94000 258.379
37.95000 253.251
37.96000 248.084
37.97000 246.812
37.98000 251.106
37.99000 255.442
38.00000 259.677
38.01000 263.814
38.02000 267.892
38.03000 267.586
38.04000 264.558
38.05000 261.597
38.06000 260.207
38.07000 259.481
38.08000 258.801
38.09000 268.158
38.10000 279.325
38.11000 288.358
38.12000 282.499
38.13000 273.774
38.14000 266.184
38.15000 263.706
38.16000 261.850
38.17000 260.430
38.18000 267.699
38.19000 273.903
38.20000 279.674
38.21000 284.546
38.22000 289.391
38.23000 290.524
38.24000 286.431
38.25000 282.302
38.26000 285.227
38.27000 294.638
38.28000 303.997
38.29000 309.717
38.30000 313.212
38.31000 316.547
38.32000 316.219
38.33000 314.364
38.34000 312.627
38.35000 315.842
38.36000 320.047
38.37000 324.543
38.38000 331.029
38.39000 337.892
38.40000 344.852
38.41000 352.244
38.42000 359.688
38.43000 365.356
38.44000 374.511
38.45000 381.900
38.46000 392.028
38.47000 407.761
38.48000 423.660
38.49000 442.126
38.50000 464.151
38.51000 486.192
38.52000 505.750
38.53000 523.045
38.54000 540.471
38.55000 566.581
38.56000 597.922
38.57000 629.181
38.58000 658.620
38.59000 687.310
38.60000 714.139
38.61000 736.191
38.62000 755.001
38.63000 774.463
38.64000 798.315
38.65000 822.984
38.66000 846.079
38.67000 862.298
38.68000 877.714
38.69000 889.408
38.70000 914.898
38.71000 935.631
38.72000 947.911
38.73000 943.137
38.74000 937.876
38.75000 931.065
38.76000 922.135
38.77000 913.197
38.78000 893.642
38.79000 864.669
38.80000 835.808
38.81000 813.965
38.82000 796.287
38.83000 778.172
38.84000 750.628
38.85000 719.263
38.86000 689.979
38.87000 658.180
38.88000 628.721
38.89000 600.217
38.90000 578.037
38.91000 557.016
38.92000 535.175
38.93000 509.808
38.94000 484.037
38.95000 464.565
38.96000 450.294
38.97000 439.366
38.98000 425.118
38.99000 404.268
39.00000 383.236
39.01000 369.283
39.02000 364.843
39.03000 360.457
39.04000 353.844
39.05000 345.295
39.06000 336.719
39.07000 326.631
39.08000 315.657
39.09000 304.757
39.10000 295.417
39.11000 286.699
39.12000 278.574
39.13000 278.281
39.14000 279.945
39.15000 281.112
39.16000 279.051
39.17000 276.407
39.18000 274.114
39.19000 273.304
39.20000 272.661
39.21000 272.177
39.22000 267.626
39.23000 263.868
39.24000 260.259
39.25000 256.942
39.26000 253.633
39.27000 251.782
39.28000 251.860
39.29000 251.947
39.30000 252.180
39.31000 252.537
39.32000 252.924
39.33000 254.944
39.34000 257.907
39.35000 260.640
39.36000 258.719
39.37000 254.966
39.38000 251.474
39.39000 251.573
39.40000 252.533
39.41000 252.682
39.42000 247.657
39.43000 241.715
39.44000 237.191
39.45000 238.583
39.46000 240.627
39.47000 242.160
39.48000 243.082
39.49000 243.774
39.50000 244.317
39.51000 244.575
39.52000 244.826
39.53000 244.698
39.54000 244.077
39.55000 243.455
39.56000 246.469
39.57000 252.552
39.58000 258.459
39.59000 254.957
39.60000 246.112
39.61000 237.950
39.62000 243.220
39.63000 253.703
39.64000 263.441
39.65000 255.796
39.66000 244.761
39.67000 235.678
39.68000 238.848
39.69000 244.153
39.70000 248.457
39.71000 248.649
39.72000 248.399
39.73000 248.211
39.74000 250.039
39.75000 251.555
39.76000 250.145
39.77000 243.163
39.78000 236.047
39.79000 232.047
39.80000 232.041
39.81000 232.051
39.82000 233.150
39.83000 235.153
39.84000 237.152
39.85000 238.948
39.86000 240.631
39.87000 242.172
39.88000 241.020
39.89000 238.838
39.90000 236.815
39.91000 232.880
39.92000 228.891
39.93000 226.069
39.94000 230.459
39.95000 236.085
39.96000 239.059
39.97000 231.310
39.98000 222.425
39.99000 215.819
40.00000 224.315
40.01000 231.595
40.02000 235.492
40.03000 233.046
40.04000 230.452
40.05000 226.855
40.06000 221.990
40.07000 217.127
40.08000 216.362
40.09000 218.954
40.10000 221.527
40.11000 223.204
40.12000 224.386
40.13000 225.564
40.14000 226.670
40.15000 227.749
40.16000 228.748
40.17000 228.875
40.18000 228.788
40.19000 229.241
40.20000 232.964
40.21000 237.238
40.22000 239.896
40.23000 236.119
40.24000 231.675
40.25000 228.385
40.26000 228.546
40.27000 228.821
40.28000 229.291
40.29000 230.121
40.30000 230.960
40.31000 230.760
40.32000 229.269
40.33000 227.777
40.34000 224.832
40.35000 220.730
40.36000 216.724
40.37000 217.151
40.38000 219.986
40.39000 222.801
40.40000 225.257
40.41000 227.580
40.42000 229.726
40.43000 229.551
40.44000 228.868
40.45000 228.403
40.46000 229.233
40.47000 230.278
40.48000 230.178
40.49000 225.584
40.50000 220.534
40.51000 216.810
40.52000 215.943
40.53000 215.392
40.54000 217.181
40.55000 223.234
40.56000 229.376
40.57000 233.523
40.58000 235.228
40.59000 236.924
40.60000 236.485
40.61000 234.358
40.62000 232.269
40.63000 231.850
40.64000 232.326
40.65000 232.584
40.66000 228.999
40.67000 224.008
40.68000 219.404
40.69000 217.502
40.70000 216.399
40.71000 215.973
40.72000 219.513
40.73000 223.699
40.74000 226.707
40.75000 225.165
40.76000 223.171
40.77000 221.706
40.78000 223.967
40.79000 225.865
40.80000 225.626
40.81000 221.549
40.82000 217.395
40.83000 216.427
40.84000 219.295
40.85000 222.164
40.86000 225.013
40.87000 227.830
40.88000 230.590
40.89000 230.945
40.90000 230.031
40.91000 228.979
40.92000 225.565
40.93000 221.298
40.94000 217.370
40.95000 216.775
40.96000 216.971
40.97000 217.645
40.98000 221.069
40.99000 224.933
41.00000 227.921
41.01000 227.571
41.02000 226.897
41.03000 226.404
41.04000 223.802
41.05000 221.711
41.06000 219.732
41.07000 217.949
41.08000 216.170
41.09000 214.643
41.10000 213.412
41.11000 212.185
41.12000 214.205
41.13000 218.703
41.14000 223.124
41.15000 224.453
41.16000 224.173
41.17000 223.644
41.18000 218.961
41.19000 212.799
41.20000 207.136
41.21000 211.266
41.22000 217.058
41.23000 221.383
41.24000 217.390
41.25000 212.087
41.26000 208.213
41.27000 209.692
41.28000 211.681
41.29000 213.130
41.30000 210.814
41.31000 208.887
41.32000 209.718
41.33000 215.354
41.34000 221.077
41.35000 223.238
41.36000 221.248
41.37000 219.256
41.38000 219.343
41.39000 220.996
41.40000 222.627
41.41000 223.411
41.42000 223.762
41.43000 224.143
41.44000 225.035
41.45000 226.105
41.46000 227.087
41.47000 222.242
41.48000 216.693
41.49000 212.261
41.50000 214.054
41.51000 216.810
41.52000 218.247
41.53000 214.812
41.54000 210.922
41.55000 208.102
41.56000 207.134
41.57000 206.458
41.58000 205.629
41.59000 204.536
41.60000 203.438
41.61000 203.150
41.62000 203.790
41.63000 204.429
41.64000 208.176
41.65000 214.203
41.66000 219.991
41.67000 216.948
41.68000 209.445
41.69000 202.645
41.70000 206.977
41.71000 215.155
41.72000 222.642
41.73000 223.553
41.74000 222.997
41.75000 221.722
41.76000 216.497
41.77000 210.672
41.78000 206.422
41.79000 207.899
41.80000 209.900
41.81000 211.343
41.82000 215.308
41.83000 218.438
41.84000 219.237
41.85000 216.092
41.86000 212.882
41.87000 212.372
41.88000 214.909
41.89000 217.441
41.90000 217.480
41.91000 215.700
41.92000 213.933
41.93000 212.613
41.94000 211.516
41.95000 210.629
41.96000 212.991
41.97000 216.459
41.98000 219.628
41.99000 215.239
42.00000 209.798
42.01000 205.467
42.02000 207.133
42.03000 209.694
42.04000 211.433
42.05000 210.226
42.06000 208.756
42.07000 207.699
42.08000 211.760
42.09000 215.044
42.10000 215.605
42.11000 211.626
42.12000 207.576
42.13000 206.092
42.14000 207.456
42.15000 208.818
42.16000 208.944
42.17000 208.182
42.18000 207.360
42.19000 204.491
42.20000 200.618
42.21000 196.903
42.22000 195.549
42.23000 194.989
42.24000 194.477
42.25000 199.121
42.26000 204.274
42.27000 208.381
42.28000 206.946
42.29000 204.697
42.30000 203.560
42.31000 206.346
42.32000 209.474
42.33000 211.712
42.34000 203.419
42.35000 196.733
42.36000 194.692
42.37000 200.283
42.38000 205.985
42.39000 208.363
42.40000 207.109
42.41000 205.858
42.42000 207.911
42.43000 212.279
42.44000 216.375
42.45000 211.535
42.46000 202.374
42.47000 193.611
42.48000 190.679
42.49000 189.675
42.50000 188.762
42.51000 196.128
42.52000 204.280
42.53000 211.201
42.54000 211.694
42.55000 211.261
42.56000 211.409
42.57000 213.575
42.58000 215.914
42.59000 217.580
42.60000 212.577
42.61000 208.548
42.62000 205.922
42.63000 205.566
42.64000 205.242
42.65000 203.157
42.66000 199.181
42.67000 195.222
42.68000 194.980
42.69000 197.325
42.70000 199.662
42.71000 201.710
42.72000 203.620
42.73000 205.486
42.74000 206.731
42.75000 207.773
42.76000 208.719
42.77000 204.011
42.78000 198.754
42.79000 195.541
42.80000 202.824
42.81000 211.592
42.82000 218.138
42.83000 217.069
42.84000 215.364
42.85000 214.155
42.86000 211.548
42.87000 209.522
42.88000 206.310
42.89000 201.207
42.90000 196.079
42.91000 195.881
42.92000 200.891
42.93000 205.878
42.94000 206.555
42.95000 204.275
42.96000 202.179
42.97000 205.658
42.98000 211.756
42.99000 217.220
43.00000 213.835
43.01000 207.608
43.02000 201.964
43.03000 199.950
43.04000 198.867
43.05000 198.482
43.06000 201.633
43.07000 205.275
43.08000 209.282
43.09000 214.524
43.10000 219.866
43.11000 223.636
43.12000 217.406
43.13000 212.376
43.14000 211.084
43.15000 215.664
43.16000 220.316
43.17000 220.135
43.18000 214.934
43.19000 209.759
43.20000 210.558
43.21000 215.371
43.22000 219.840
43.23000 214.228
43.24000 203.948
43.25000 194.368
43.26000 194.317
43.27000 197.281
43.28000 199.963
43.29000 196.684
43.30000 192.681
43.31000 190.580
43.32000 197.942
43.33000 206.595
43.34000 213.252
43.35000 213.271
43.36000 212.759
43.37000 212.400
43.38000 212.135
43.39000 211.938
43.40000 208.371
43.41000 199.591
43.42000 190.752
43.43000 188.570
43.44000 193.187
43.45000 197.779
43.46000 199.751
43.47000 199.961
43.48000 200.250
43.49000 202.787
43.50000 206.349
43.51000 209.544
43.52000 207.860
43.53000 204.654
43.54000 201.760
43.55000 202.329
43.56000 203.465
43.57000 204.416
43.58000 204.461
43.59000 204.384
43.60000 204.769
43.61000 206.664
43.62000 208.678
43.63000 210.086
43.64000 208.249
43.65000 206.770
43.66000 204.426
43.67000 200.762
43.68000 197.085
43.69000 195.940
43.70000 197.339
43.71000 198.729
43.72000 200.427
43.73000 202.303
43.74000 204.200
43.75000 206.670
43.76000 209.398
43.77000 211.649
43.78000 207.720
43.79000 201.890
43.80000 196.639
43.81000 200.587
43.82000 205.712
43.83000 209.220
43.84000 204.930
43.85000 199.616
43.86000 195.309
43.87000 194.257
43.88000 193.453
43.89000 192.894
43.90000 191.343
43.91000 190.147
43.92000 190.200
43.93000 192.127
43.94000 194.072
43.95000 195.323
43.96000 195.889
43.97000 196.451
43.98000 199.048
43.99000 202.914
44.00000 206.824
44.01000 211.934
44.02000 217.574
44.03000 222.304
44.04000 215.488
44.05000 205.175
44.06000 195.904
44.07000 196.819
44.08000 199.429
44.09000 201.568
44.10000 201.474
44.11000 201.092
44.12000 200.600
44.13000 199.759
44.14000 198.891
44.15000 198.290
44.16000 201.479
44.17000 203.978
44.18000 203.636
44.19000 199.094
44.20000 194.513
44.21000 192.609
44.22000 193.302
44.23000 193.991
44.24000 194.967
44.25000 196.110
44.26000 197.180
44.27000 196.421
44.28000 194.862
44.29000 193.669
44.30000 196.997
44.31000 201.676
44.32000 205.872
44.33000 206.097
44.34000 205.602
44.35000 205.457
44.36000 206.948
44.37000 208.647
44.38000 209.241
44.39000 206.371
44.40000 203.249
44.41000 201.098
44.42000 205.046
44.43000 208.165
44.44000 209.259
44.45000 207.403
44.46000 205.523
44.47000 205.556
44.48000 207.415
44.49000 209.260
44.50000 210.323
44.51000 210.882
44.52000 211.382
44.53000 210.424
44.54000 208.839
44.55000 207.584
44.56000 210.334
44.57000 214.261
44.58000 217.776
44.59000 218.181
44.60000 218.002
44.61000 218.891
44.62000 224.688
44.63000 231.095
44.64000 235.919
44.65000 235.850
44.66000 235.434
44.67000 235.148
44.68000 230.525
44.69000 226.956
44.70000 226.754
44.71000 231.382
44.72000 236.047
44.73000 237.221
44.74000 235.118
44.75000 233.033
44.76000 239.133
44.77000 250.128
44.78000 261.037
44.79000 269.879
44.80000 277.843
44.81000 285.224
44.82000 285.709
44.83000 284.197
44.84000 282.846
44.85000 285.456
44.86000 288.396
44.87000 291.198
44.88000 293.382
44.89000 295.489
44.90000 300.089
44.91000 312.277
44.92000 324.991
44.93000 333.667
44.94000 338.649
44.95000 342.288
44.96000 344.957
44.97000 346.256
44.98000 347.545
44.99000 350.200
45.00000 354.116
45.01000 357.999
45.02000 360.105
45.03000 361.103
45.04000 362.032
45.05000 361.382
45.06000 360.072
45.07000 359.539
45.08000 368.008
45.09000 379.046
45.10000 388.882
45.11000 385.632
45.12000 380.645
45.13000 376.882
45.14000 378.571
45.15000 380.912
45.16000 381.786
45.17000 378.256
45.18000 374.429
45.19000 371.830
45.20000 369.886
45.21000 368.449
45.22000 362.537
45.23000 350.398
45.24000 338.221
45.25000 328.747
45.26000 321.729
45.27000 314.776
45.28000 314.262
45.29000 317.571
45.30000 320.488
45.31000 314.608
45.32000 305.100
45.33000 295.642
45.34000 286.747
45.35000 278.010
45.36000 270.242
45.37000 271.733
45.38000 274.529
45.39000 276.421
45.40000 274.349
45.41000 271.812
45.42000 269.999
45.43000 270.326
45.44000 270.794
45.45000 271.110
45.46000 266.265
45.47000 262.547
45.48000 259.179
45.49000 256.289
45.50000 253.404
45.51000 252.412
45.52000 253.112
45.53000 253.805
45.54000 250.117
45.55000 243.955
45.56000 237.975
45.57000 235.949
45.58000 235.532
45.59000 234.941
45.60000 232.430
45.61000 229.388
45.62000 226.689
45.63000 222.983
45.64000 219.611
45.65000 216.222
45.66000 212.756
45.67000 209.281
45.68000 207.813
45.69000 212.194
45.70000 216.951
45.71000 220.148
45.72000 222.196
45.73000 223.694
45.74000 223.209
45.75000 220.050
45.76000 216.875
45.77000 210.999
45.78000 202.751
45.79000 194.588
45.80000 192.588
45.81000 194.168
45.82000 195.779
45.83000 198.048
45.84000 200.582
45.85000 202.927
45.86000 203.235
45.87000 202.986
45.88000 202.765
45.89000 202.074
45.90000 201.403
45.91000 199.918
45.92000 194.975
45.93000 189.643
45.94000 185.764
45.95000 186.062
45.96000 186.621
45.97000 186.995
45.98000 187.059
45.99000 187.101
46.00000 188.181
46.01000 190.639
46.02000 193.100
46.03000 192.162
46.04000 188.285
46.05000 184.450
46.06000 186.977
46.07000 193.036
46.08000 198.821
46.09000 199.011
46.10000 196.991
46.11000 194.524
46.12000 187.317
46.13000 178.835
46.14000 171.345
46.15000 173.878
46.16000 177.604
46.17000 180.051
46.18000 177.145
46.19000 173.647
46.20000 173.161
46.21000 181.204
46.22000 189.766
46.23000 195.462
46.24000 191.063
46.25000 187.619
46.26000 185.503
46.27000 185.121
46.28000 184.744
46.29000 183.176
46.30000 180.592
46.31000 178.039
46.32000 177.682
46.33000 178.555
46.34000 179.463
46.35000 181.056
46.36000 182.917
46.37000 184.948
46.38000 188.740
46.39000 193.000
46.40000 196.753
46.41000 192.459
46.42000 187.547
46.43000 183.386
46.44000 182.317
46.45000 181.584
46.46000 181.724
46.47000 184.302
46.48000 187.024
46.49000 188.825
46.50000 187.187
46.51000 185.917
46.52000 184.280
46.53000 182.172
46.54000 180.061
46.55000 177.148
46.56000 173.565
46.57000 170.026
46.58000 171.141
46.59000 174.772
46.60000 178.335
46.61000 180.584
46.62000 182.329
46.63000 183.889
46.64000 183.578
46.65000 182.779
46.66000 182.076
46.67000 170.815
46.68000 159.568
46.69000 151.943
46.70000 159.015
46.71000 167.649
46.72000 175.025
46.73000 178.939
46.74000 182.654
46.75000 185.099
46.76000 178.757
46.77000 173.936
46.78000 171.604
46.79000 172.426
46.80000 173.256
46.81000 172.804
46.82000 171.296
46.83000 169.807
46.84000 168.245
46.85000 166.684
46.86000 165.371
46.87000 168.701
46.88000 173.787
46.89000 178.658
46.90000 181.397
46.91000 183.588
46.92000 185.509
46.93000 179.055
46.94000 172.299
46.95000 167.478
46.96000 170.393
46.97000 174.113
46.98000 176.659
46.99000 176.022
47.00000 175.207
47.01000 174.673
47.02000 170.654
47.03000 167.642
47.04000 170.401
47.05000 180.354
47.06000 190.307
47.07000 191.970
47.08000 186.907
47.09000 181.913
47.10000 178.888
47.11000 176.989
47.12000 175.066
47.13000 172.706
47.14000 170.183
47.15000 168.163
47.16000 171.050
47.17000 175.180
47.18000 178.792
47.19000 179.061
47.20000 178.816
47.21000 177.240
47.22000 170.429
47.23000 163.084
47.24000 158.778
47.25000 162.594
47.26000 166.853
47.27000 169.625
47.28000 162.760
47.29000 157.575
47.30000 156.625
47.31000 160.874
47.32000 165.130
47.33000 167.217
47.34000 167.572
47.35000 167.921
47.36000 168.905
47.37000 170.191
47.38000 171.362
47.39000 170.478
47.40000 168.840
47.41000 167.367
47.42000 167.477
47.43000 167.981
47.44000 168.420
47.45000 167.181
47.46000 165.886
47.47000 164.005
47.48000 159.858
47.49000 155.484
47.50000 153.563
47.51000 158.102
47.52000 162.983
47.53000 166.144
47.54000 162.058
47.55000 158.960
47.56000 158.400
47.57000 160.903
47.58000 163.400
47.59000 161.903
47.60000 157.267
47.61000 152.701
47.62000 155.021
47.63000 160.805
47.64000 166.385
47.65000 168.471
47.66000 169.291
47.67000 169.989
47.68000 169.546
47.69000 168.823
47.70000 168.193
47.71000 165.383
47.72000 162.685
47.73000 160.332
47.74000 159.296
47.75000 158.390
47.76000 158.980
47.77000 163.457
47.78000 168.134
47.79000 171.146
47.80000 172.687
47.81000 173.790
47.82000 173.752
47.83000 172.356
47.84000 170.948
47.85000 167.364
47.86000 162.097
47.87000 156.913
47.88000 155.278
47.89000 155.486
47.90000 155.600
47.91000 154.134
47.92000 152.103
47.93000 150.484
47.94000 152.636
47.95000 155.699
47.96000 158.359
47.97000 165.428
47.98000 172.046
47.99000 176.149
48.00000 170.791
48.01000 164.527
48.02000 159.746
48.03000 158.757
48.04000 157.958
48.05000 157.447
48.06000 161.096
48.07000 163.809
48.08000 163.493
48.09000 159.633
48.10000 155.788
48.11000 156.410
48.12000 160.434
48.13000 164.390
48.14000 168.302
48.15000 172.063
48.16000 175.385
48.17000 171.548
48.18000 165.193
48.19000 159.746
48.20000 162.473
48.21000 167.145
48.22000 171.192
48.23000 172.085
48.24000 172.429
48.25000 171.094
48.26000 163.543
48.27000 155.409
48.28000 150.491
48.29000 153.687
48.30000 157.276
48.31000 159.562
48.32000 163.344
48.33000 166.112
48.34000 165.331
48.35000 160.467
48.36000 155.635
48.37000 158.324
48.38000 166.655
48.39000 174.840
48.40000 175.077
48.41000 171.415
48.42000 167.797
48.43000 164.889
48.44000 162.226
48.45000 160.166
48.46000 163.412
48.47000 167.902
48.48000 171.781
48.49000 168.937
48.50000 165.651
48.51000 163.055
48.52000 162.975
48.53000 163.125
48.54000 162.707
48.55000 160.873
48.56000 158.973
48.57000 157.770
48.58000 159.374
48.59000 160.571
48.60000 161.866
48.61000 163.273
48.62000 164.668
48.63000 163.789
48.64000 161.232
48.65000 158.722
48.66000 160.958
48.67000 165.402
48.68000 169.516
48.69000 168.522
48.70000 165.784
48.71000 163.389
48.72000 163.959
48.73000 165.213
48.74000 166.294
48.75000 165.104
48.76000 163.807
48.77000 162.382
48.78000 160.495
48.79000 158.568
48.80000 157.153
48.81000 156.997
48.82000 156.898
48.83000 156.836
48.84000 155.334
48.85000 154.231
48.86000 154.680
48.87000 156.859
48.88000 159.043
48.89000 161.744
48.90000 164.823
48.91000 167.842
48.92000 169.411
48.93000 170.233
48.94000 170.783
48.95000 167.220
48.96000 162.272
48.97000 157.353
48.98000 152.690
48.99000 148.086
49.00000 144.128
49.01000 147.331
49.02000 150.931
49.03000 152.866
49.04000 148.902
49.05000 144.419
49.06000 143.321
49.07000 150.402
49.08000 157.844
49.09000 162.502
49.10000 162.827
49.11000 163.015
49.12000 162.863
49.13000 162.336
49.14000 161.828
49.15000 164.144
49.16000 168.482
49.17000 172.732
49.18000 170.623
49.19000 165.624
49.20000 160.854
49.21000 159.466
49.22000 159.198
49.23000 158.852
49.24000 157.844
49.25000 156.688
49.26000 155.698
49.27000 157.135
49.28000 158.646
49.29000 160.078
49.30000 161.237
49.31000 162.373
49.32000 162.859
49.33000 161.798
49.34000 160.670
49.35000 159.968
49.36000 163.966
49.37000 166.893
49.38000 167.887
49.39000 166.797
49.40000 165.706
49.41000 164.608
49.42000 163.503
49.43000 162.422
49.44000 162.169
49.45000 162.306
49.46000 162.442
49.47000 162.569
49.48000 162.694
49.49000 162.691
49.50000 161.648
49.51000 160.377
49.52000 159.290
49.53000 162.510
49.54000 165.739
49.55000 167.667
49.56000 165.120
49.57000 162.198
49.58000 160.186
49.59000 160.311
49.60000 160.526
49.61000 160.658
49.62000 161.641
49.63000 162.355
49.64000 161.087
49.65000 157.719
49.66000 154.381
49.67000 154.783
49.68000 157.783
49.69000 160.718
49.70000 160.814
49.71000 159.624
49.72000 158.399
49.73000 156.694
49.74000 154.834
49.75000 153.450
49.76000 155.884
49.77000 159.145
49.78000 161.925
49.79000 158.992
49.80000 155.854
49.81000 153.462
49.82000 153.597
49.83000 153.941
49.84000 153.428
49.85000 150.934
49.86000 148.360
49.87000 146.778
49.88000 149.065
49.89000 150.738
49.90000 152.535
49.91000 154.460
49.92000 156.384
49.93000 158.252
49.94000 160.082
49.95000 161.870
49.96000 159.831
49.97000 156.175
49.98000 152.821
49.99000 153.599
50.00000 155.689
50.01000 157.558
50.02000 157.692
50.03000 157.455
50.04000 157.254
50.05000 159.595
50.06000 161.852
50.07000 164.015
50.08000 165.861
50.09000 167.682
50.10000 168.068
50.11000 165.185
50.12000 162.176
50.13000 160.337
50.14000 162.408
50.15000 163.922
50.16000 164.107
50.17000 162.930
50.18000 161.784
50.19000 163.968
50.20000 168.396
50.21000 172.719
50.22000 170.794
50.23000 166.214
50.24000 161.824
50.25000 159.949
50.26000 158.862
50.27000 158.532
50.28000 164.042
50.29000 170.777
50.30000 176.488
50.31000 173.613
50.32000 170.236
50.33000 167.497
50.34000 166.858
50.35000 166.384
50.36000 166.701
50.37000 168.793
50.38000 170.952
50.39000 172.263
50.40000 173.581
50.41000 174.522
50.42000 178.984
50.43000 186.995
50.44000 194.954
50.45000 197.757
50.46000 197.139
50.47000 196.536
50.48000 196.619
50.49000 196.995
50.50000 197.645
50.51000 201.876
50.52000 207.211
50.53000 212.080
50.54000 213.422
50.55000 214.034
50.56000 214.552
50.57000 217.613
50.58000 220.455
50.59000 223.587
50.60000 227.663
50.61000 231.811
50.62000 234.673
50.63000 234.689
50.64000 234.601
50.65000 234.548
50.66000 238.556
50.67000 241.439
50.68000 242.183
50.69000 240.808
50.70000 239.464
50.71000 240.928
50.72000 244.228
50.73000 247.444
50.74000 249.246
50.75000 250.365
50.76000 251.374
50.77000 250.970
50.78000 250.137
50.79000 249.235
50.80000 247.830
50.81000 246.322
50.82000 245.050
50.83000 238.778
50.84000 232.999
50.85000 229.260
50.86000 232.038
50.87000 235.302
50.88000 237.792
50.89000 238.590
50.90000 239.329
50.91000 239.772
50.92000 235.024
50.93000 231.618
50.94000 226.883
50.95000 220.851
50.96000 214.832
50.97000 209.824
50.98000 205.466
50.99000 201.224
51.00000 200.905
51.01000 202.239
51.02000 203.469
51.03000 203.391
51.04000 202.921
51.05000 201.760
51.06000 195.551
51.07000 188.331
51.08000 182.261
51.09000 181.623
51.10000 181.667
51.11000 180.536
51.12000 175.709
51.13000 170.611
51.14000 167.309
51.15000 167.868
51.16000 168.559
51.17000 168.970
51.18000 167.874
51.19000 167.089
51.20000 170.800
51.21000 178.820
51.22000 186.695
51.23000 182.828
51.24000 171.516
51.25000 160.514
51.26000 158.641
51.27000 160.612
51.28000 162.772
51.29000 167.234
51.30000 172.375
51.31000 176.765
51.32000 175.777
51.33000 173.731
51.34000 172.015
51.35000 166.856
51.36000 162.206
51.37000 157.709
51.38000 153.687
51.39000 149.698
51.40000 148.472
51.41000 153.107
51.42000 157.932
51.43000 160.788
51.44000 156.073
51.45000 152.698
51.46000 152.040
51.47000 153.943
51.48000 155.817
51.49000 155.432
51.50000 153.636
51.51000 151.891
51.52000 150.357
51.53000 148.987
51.54000 147.637
51.55000 146.533
51.56000 145.501
51.57000 144.977
51.58000 148.026
51.59000 151.767
51.60000 154.894
51.61000 153.827
51.62000 152.514
51.63000 150.845
51.64000 148.087
51.65000 145.254
51.66000 143.965
51.67000 145.903
51.68000 147.943
51.69000 149.143
51.70000 147.168
51.71000 145.760
51.72000 145.423
51.73000 146.078
51.74000 146.743
51.75000 148.075
51.76000 149.816
51.77000 151.507
51.78000 152.912
51.79000 154.131
51.80000 154.946
51.81000 151.068
51.82000 145.847
51.83000 141.422
51.84000 142.498
51.85000 144.623
51.86000 146.394
51.87000 149.189
51.88000 151.608
51.89000 152.431
51.90000 148.449
51.91000 144.142
51.92000 142.800
51.93000 147.568
51.94000 152.520
51.95000 155.413
51.96000 150.413
51.97000 146.860
51.98000 145.088
51.99000 144.939
52.00000 144.762
52.01000 142.632
52.02000 139.317
52.03000 136.104
52.04000 138.733
52.05000 143.514
52.06000 148.093
52.07000 150.387
52.08000 152.036
52.09000 153.303
52.10000 151.976
52.11000 150.162
52.12000 148.655
52.13000 151.550
52.14000 154.373
52.15000 154.842
52.16000 148.324
52.17000 141.343
52.18000 137.728
52.19000 140.946
52.20000 144.361
52.21000 146.344
52.22000 150.525
52.23000 153.465
52.24000 150.945
52.25000 143.528
52.26000 136.232
52.27000 136.624
52.28000 141.608
52.29000 146.436
52.30000 147.452
52.31000 146.942
52.32000 146.347
52.33000 144.792
52.34000 142.971
52.35000 141.496
52.36000 142.337
52.37000 143.604
52.38000 144.654
52.39000 144.054
52.40000 143.401
52.41000 142.389
52.42000 140.329
52.43000 138.201
52.44000 138.012
52.45000 141.704
52.46000 145.505
52.47000 147.696
52.48000 144.050
52.49000 141.476
52.50000 139.937
52.51000 139.311
52.52000 138.743
52.53000 141.674
52.54000 146.664
52.55000 151.492
52.56000 149.563
52.57000 145.175
52.58000 141.170
52.59000 141.331
52.60000 142.633
52.61000 143.541
52.62000 141.871
52.63000 139.733
52.64000 137.967
52.65000 141.817
52.66000 145.514
52.67000 148.500
52.68000 149.436
52.69000 150.244
52.70000 150.223
52.71000 148.564
52.72000 146.862
52.73000 145.887
52.74000 140.036
52.75000 135.939
52.76000 137.296
52.77000 143.388
52.78000 149.370
52.79000 149.066
52.80000 145.117
52.81000 141.300
52.82000 139.100
52.83000 137.629
52.84000 136.467
52.85000 138.588
52.86000 141.593
52.87000 144.266
52.88000 144.790
52.89000 144.932
52.90000 145.048
52.91000 149.175
52.92000 152.936
52.93000 153.877
52.94000 146.804
52.95000 139.242
52.96000 134.306
52.97000 134.474
52.98000 134.773
52.99000 134.943
53.00000 139.035
53.01000 141.899
53.02000 144.860
53.03000 147.904
53.04000 150.882
53.05000 150.277
53.06000 147.625
53.07000 145.065
53.08000 145.233
53.09000 146.394
53.10000 147.230
53.11000 144.668
53.12000 141.203
53.13000 138.597
53.14000 141.422
53.15000 145.201
53.16000 148.302
53.17000 145.462
53.18000 142.598
53.19000 140.533
53.20000 140.705
53.21000 141.009
53.22000 143.951
53.23000 151.946
53.24000 160.064
53.25000 164.648
53.26000 160.293
53.27000 157.246
53.28000 156.424
53.29000 157.471
53.30000 158.491
53.31000 158.056
53.32000 156.803
53.33000 155.594
53.34000 156.684
53.35000 158.540
53.36000 159.997
53.37000 157.387
53.38000 153.712
53.39000 151.070
53.40000 154.850
53.41000 159.738
53.42000 163.739
53.43000 160.946
53.44000 158.063
53.45000 156.124
53.46000 156.791
53.47000 157.609
53.48000 158.241
53.49000 158.520
53.50000 158.792
53.51000 158.944
53.52000 153.408
53.53000 149.569
53.54000 151.384
53.55000 157.875
53.56000 164.175
53.57000 161.020
53.58000 152.620
53.59000 144.531
53.60000 145.774
53.61000 150.264
53.62000 154.140
53.63000 151.868
53.64000 148.011
53.65000 144.648
53.66000 144.307
53.67000 144.478
53.68000 144.618
53.69000 144.351
53.70000 144.097
53.71000 144.294
53.72000 145.717
53.73000 147.209
53.74000 147.938
53.75000 147.249
53.76000 146.528
53.77000 146.127
53.78000 142.337
53.79000 139.717
53.80000 140.361
53.81000 143.663
53.82000 146.863
53.83000 145.332
53.84000 141.215
53.85000 137.255
53.86000 138.448
53.87000 141.371
53.88000 143.854
53.89000 142.011
53.90000 139.071
53.91000 136.646
53.92000 137.319
53.93000 138.510
53.94000 139.478
53.95000 142.527
53.96000 145.189
53.97000 145.939
53.98000 141.559
53.99000 136.897
54.00000 134.950
54.01000 137.978
54.02000 141.113
54.03000 142.845
54.04000 143.355
54.05000 143.707
54.06000 144.947
54.07000 146.898
54.08000 148.748
54.09000 146.060
54.10000 140.927
54.11000 135.997
54.12000 136.322
54.13000 138.440
54.14000 140.190
54.15000 138.402
54.16000 135.729
54.17000 133.367
54.18000 132.839
54.19000 132.612
54.20000 132.428
54.21000 140.616
54.22000 147.972
54.23000 152.150
54.24000 147.929
54.25000 143.260
54.26000 140.626
54.27000 141.668
54.28000 142.786
54.29000 143.399
54.30000 143.550
54.31000 143.643
54.32000 140.646
54.33000 135.211
54.34000 129.909
54.35000 130.282
54.36000 133.670
54.37000 136.920
54.38000 137.774
54.39000 137.759
54.40000 137.559
54.41000 135.619
54.42000 133.250
54.43000 131.759
54.44000 135.363
54.45000 139.789
54.46000 143.366
54.47000 142.890
54.48000 142.179
54.49000 140.934
54.50000 138.298
54.51000 135.590
54.52000 134.518
54.53000 136.358
54.54000 138.254
54.55000 139.287
54.56000 139.093
54.57000 138.961
54.58000 139.351
54.59000 140.146
54.60000 140.953
54.61000 142.242
54.62000 143.784
54.63000 145.261
54.64000 146.205
54.65000 146.908
54.66000 147.244
54.67000 144.190
54.68000 140.315
54.69000 137.183
54.70000 138.295
54.71000 140.081
54.72000 141.519
54.73000 143.829
54.74000 145.772
54.75000 146.521
54.76000 144.204
54.77000 141.732
54.78000 140.202
54.79000 140.321
54.80000 140.471
54.81000 140.552
54.82000 139.390
54.83000 138.609
54.84000 141.483
54.85000 147.151
54.86000 152.774
54.87000 156.616
54.88000 159.540
54.89000 162.338
54.90000 156.564
54.91000 148.369
54.92000 140.879
54.93000 139.760
54.94000 140.162
54.95000 141.115
54.96000 145.154
54.97000 149.675
54.98000 153.304
54.99000 148.786
55.00000 144.505
55.01000 140.332
55.02000 136.433
55.03000 132.547
55.04000 131.033
55.05000 133.619
55.06000 136.278
55.07000 137.703
55.08000 141.931
55.09000 144.815
55.10000 146.576
55.11000 147.493
55.12000 148.392
55.13000 148.590
55.14000 148.432
55.15000 148.281
55.16000 149.204
55.17000 150.410
55.18000 151.579
55.19000 152.424
55.20000 153.192
55.21000 153.532
55.22000 151.512
55.23000 149.130
55.24000 147.225
55.25000 141.629
55.26000 136.830
55.27000 135.440
55.28000 142.553
55.29000 150.070
55.30000 155.572
55.31000 157.644
55.32000 159.658
55.33000 160.731
55.34000 159.839
55.35000 159.226
55.36000 157.809
55.37000 155.795
55.38000 153.904
55.39000 156.457
55.40000 161.236
55.41000 165.797
55.42000 164.867
55.43000 162.255
55.44000 160.354
55.45000 164.618
55.46000 170.310
55.47000 175.415
55.48000 177.331
55.49000 178.768
55.50000 179.914
55.51000 188.083
55.52000 195.185
55.53000 200.712
55.54000 202.368
55.55000 203.846
55.56000 206.290
55.57000 210.355
55.58000 214.446
55.59000 216.606
55.60000 215.708
55.61000 215.150
55.62000 223.353
55.63000 237.949
55.64000 252.360
55.65000 260.364
55.66000 265.205
55.67000 269.819
55.68000 277.032
55.69000 284.533
55.70000 292.308
55.71000 302.408
55.72000 313.037
55.73000 323.622
55.74000 333.969
55.75000 344.281
55.76000 352.474
55.77000 367.928
55.78000 380.889
55.79000 397.822
55.80000 424.378
55.81000 451.363
55.82000 470.193
55.83000 475.540
55.84000 480.686
55.85000 483.381
55.86000 495.213
55.87000 503.211
55.88000 508.434
55.89000 511.665
55.90000 515.235
55.91000 530.113
55.92000 550.493
55.93000 569.891
55.94000 577.269
55.95000 580.396
55.96000 583.177
55.97000 583.072
55.98000 582.319
55.99000 582.625
56.00000 588.501
56.01000 595.185
56.02000 600.478
56.03000 588.723
56.04000 578.091
56.05000 564.619
56.06000 544.361
56.07000 523.809
56.08000 510.635
56.09000 509.477
56.10000 508.488
56.11000 507.974
56.12000 479.344
56.13000 460.024
56.14000 443.976
56.15000 430.242
56.16000 416.801
56.17000 412.732
56.18000 413.157
56.19000 413.561
56.20000 393.522
56.21000 368.805
56.22000 346.126
56.23000 340.146
56.24000 337.854
56.25000 334.471
56.26000 325.438
56.27000 315.598
56.28000 307.835
56.29000 295.748
56.30000 285.759
56.31000 274.881
56.32000 261.909
56.33000 248.849
56.34000 239.569
56.35000 236.357
56.36000 233.226
56.37000 231.611
56.38000 223.897
56.39000 218.722
56.40000 216.409
56.41000 216.090
56.42000 215.700
56.43000 213.119
56.44000 209.503
56.45000 206.071
56.46000 201.092
56.47000 196.037
56.48000 191.352
56.49000 189.644
56.50000 188.582
56.51000 187.237
56.52000 184.450
56.53000 181.461
56.54000 179.111
56.55000 180.593
56.56000 182.033
56.57000 181.751
56.58000 177.472
56.59000 173.032
56.60000 170.520
56.61000 171.058
56.62000 171.633
56.63000 171.927
56.64000 165.999
56.65000 162.038
56.66000 160.579
56.67000 160.838
56.68000 161.046
56.69000 159.740
56.70000 157.729
56.71000 155.823
56.72000 153.103
56.73000 150.358
56.74000 147.613
56.75000 144.861
56.76000 142.107
56.77000 140.461
56.78000 144.363
56.79000 149.028
56.80000 152.682
56.81000 149.388
56.82000 146.308
56.83000 143.723
56.84000 142.271
56.85000 140.863
56.86000 138.354
56.87000 134.129
56.88000 129.885
56.89000 127.732
56.90000 131.646
56.91000 134.250
56.92000 134.830
56.93000 134.042
56.94000 133.208
56.95000 131.035
56.96000 128.248
56.97000 125.611
56.98000 132.009
56.99000 140.502
57.00000 147.675
57.01000 144.639
57.02000 139.451
57.03000 135.146
57.04000 135.195
57.05000 135.832
57.06000 136.329
57.07000 133.258
57.08000 130.585
57.09000 129.095
57.10000 130.269
57.11000 131.544
57.12000 132.488
57.13000 132.926
57.14000 133.358
57.15000 133.575
57.16000 126.701
57.17000 122.148
57.18000 121.640
57.19000 123.823
57.20000 125.992
57.21000 127.762
57.22000 129.353
57.23000 130.855
57.24000 128.766
57.25000 125.826
57.26000 123.166
57.27000 122.621
57.28000 122.515
57.29000 122.281
57.30000 121.430
57.31000 120.497
57.32000 119.771
57.33000 125.891
57.34000 131.183
57.35000 133.454
57.36000 129.018
57.37000 124.335
57.38000 122.988
57.39000 126.679
57.40000 130.421
57.41000 133.535
57.42000 136.025
57.43000 138.471
57.44000 136.745
57.45000 132.283
57.46000 127.872
57.47000 124.801
57.48000 122.328
57.49000 119.995
57.50000 123.624
57.51000 128.617
57.52000 132.953
57.53000 132.389
57.54000 130.825
57.55000 129.540
57.56000 129.589
57.57000 129.811
57.58000 129.982
57.59000 127.748
57.60000 125.829
57.61000 125.768
57.62000 129.777
57.63000 133.930
57.64000 134.888
57.65000 131.090
57.66000 127.246
57.67000 127.668
57.68000 132.260
57.69000 136.771
57.70000 134.107
57.71000 126.808
57.72000 119.769
57.73000 119.469
57.74000 122.131
57.75000 124.638
57.76000 127.760
57.77000 130.786
57.78000 133.555
57.79000 134.445
57.80000 134.957
57.81000 134.955
57.82000 132.540
57.83000 129.817
57.84000 127.715
57.85000 127.695
57.86000 127.800
57.87000 127.614
57.88000 126.799
57.89000 125.963
57.90000 126.227
57.91000 128.106
57.92000 129.998
57.93000 130.478
57.94000 129.599
57.95000 128.710
57.96000 126.893
57.97000 124.486
57.98000 122.244
57.99000 124.139
58.00000 127.827
58.01000 131.296
58.02000 129.003
58.03000 125.350
58.04000 122.133
58.05000 122.054
58.06000 122.595
58.07000 122.805
58.08000 121.488
58.09000 119.979
58.10000 118.818
58.11000 117.708
58.12000 116.832
58.13000 116.817
58.14000 118.631
58.15000 120.506
58.16000 123.345
58.17000 127.579
58.18000 131.823
58.19000 132.873
58.20000 130.903
58.21000 128.950
58.22000 128.367
58.23000 128.643
58.24000 128.938
58.25000 129.724
58.26000 130.718
58.27000 131.652
58.28000 127.483
58.29000 122.322
58.30000 118.201
58.31000 121.418
58.32000 126.063
58.33000 129.248
58.34000 125.788
58.35000 121.510
58.36000 118.231
58.37000 122.072
58.38000 125.499
58.39000 126.830
58.40000 123.770
58.41000 120.570
58.42000 119.723
58.43000 122.220
58.44000 124.742
58.45000 122.954
58.46000 117.162
58.47000 111.434
58.48000 110.376
58.49000 112.202
58.50000 114.039
58.51000 116.143
58.52000 118.360
58.53000 120.439
58.54000 124.214
58.55000 128.096
58.56000 131.103
58.57000 128.039
58.58000 123.814
58.59000 120.953
58.60000 124.210
58.61000 128.204
58.62000 131.254
58.63000 128.858
58.64000 126.676
58.65000 125.379
58.66000 125.909
58.67000 126.494
58.68000 126.632
58.69000 126.143
58.70000 125.650
58.71000 124.577
58.72000 122.974
58.73000 121.349
58.74000 118.199
58.75000 114.122
58.76000 110.329
58.77000 112.972
58.78000 118.286
58.79000 123.261
58.80000 128.034
58.81000 132.322
58.82000 135.951
58.83000 135.101
58.84000 133.407
58.85000 130.888
58.86000 124.728
58.87000 118.137
58.88000 113.125
58.89000 121.409
58.90000 128.621
58.91000 132.344
58.92000 128.961
58.93000 125.371
58.94000 122.708
58.95000 121.323
58.96000 119.947
58.97000 121.223
58.98000 124.881
58.99000 128.498
59.00000 129.399
59.01000 128.672
59.02000 127.914
59.03000 126.482
59.04000 124.773
59.05000 123.177
59.06000 122.491
59.07000 122.100
59.08000 121.707
59.09000 121.309
59.10000 120.909
59.11000 121.065
59.12000 123.641
59.13000 126.497
59.14000 128.661
59.15000 127.520
59.16000 126.455
59.17000 124.510
59.18000 120.797
59.19000 117.034
59.20000 115.395
59.21000 116.639
59.22000 117.899
59.23000 116.745
59.24000 113.460
59.25000 110.248
59.26000 111.526
59.27000 115.456
59.28000 119.245
59.29000 120.024
59.30000 119.589
59.31000 119.184
59.32000 116.341
59.33000 113.160
59.34000 110.922
59.35000 114.891
59.36000 119.992
59.37000 124.412
59.38000 125.922
59.39000 127.101
59.40000 127.991
59.41000 124.645
59.42000 121.815
59.43000 120.151
59.44000 120.797
59.45000 121.505
59.46000 121.462
59.47000 120.415
59.48000 119.363
59.49000 119.237
59.50000 119.916
59.51000 120.564
59.52000 119.422
59.53000 117.238
59.54000 115.244
59.55000 117.196
59.56000 120.716
59.57000 123.994
59.58000 121.344
59.59000 117.495
59.60000 114.611
59.61000 117.961
59.62000 122.427
59.63000 125.982
59.64000 125.702
59.65000 124.994
59.66000 124.462
59.67000 125.450
59.68000 126.295
59.69000 127.178
59.70000 128.133
59.71000 129.090
59.72000 126.218
59.73000 118.308
59.74000 110.381
59.75000 107.869
59.76000 109.994
59.77000 112.109
59.78000 113.683
59.79000 114.947
59.80000 116.044
59.81000 113.809
59.82000 110.269
59.83000 106.976
59.84000 109.857
59.85000 113.944
59.86000 117.708
59.87000 119.423
59.88000 120.776
59.89000 121.911
59.90000 122.142
59.91000 122.274
59.92000 122.373
59.93000 122.393
59.94000 122.406
59.95000 123.657
59.96000 127.290
59.97000 130.981
59.98000 130.943
59.99000 126.072
60.00000 121.186
60.01000 118.106
60.02000 116.554
60.03000 115.018
60.04000 114.284
60.05000 114.003
60.06000 113.866
60.07000 116.535
60.08000 120.288
60.09000 123.772
60.10000 122.455
60.11000 120.131
60.12000 117.946
60.13000 116.633
60.14000 115.471
60.15000 115.294
60.16000 119.142
60.17000 123.421
60.18000 126.611
60.19000 126.772
60.20000 126.760
60.21000 125.385
60.22000 121.429
60.23000 117.413
60.24000 117.120
60.25000 121.577
60.26000 126.047
60.27000 127.510
60.28000 126.481
60.29000 125.468
60.30000 125.208
60.31000 125.368
60.32000 125.566
60.33000 126.489
60.34000 127.688
60.35000 128.799
60.36000 123.173
60.37000 116.543
60.38000 111.269
60.39000 114.317
60.40000 118.783
60.41000 121.929
60.42000 119.769
60.43000 117.051
60.44000 115.033
60.45000 111.838
60.46000 109.303
60.47000 108.995
60.48000 112.845
60.49000 116.790
60.50000 119.303
60.51000 120.017
60.52000 120.725
60.53000 122.346
60.54000 124.703
60.55000 126.925
60.56000 122.771
60.57000 115.120
60.58000 107.832
60.59000 107.225
60.60000 109.126
60.61000 110.883
60.62000 110.324
60.63000 109.291
60.64000 108.307
60.65000 107.618
60.66000 106.978
60.67000 107.769
60.68000 114.226
60.69000 121.266
60.70000 126.472
60.71000 124.797
60.72000 123.203
60.73000 121.976
60.74000 121.424
60.75000 120.887
60.76000 119.767
60.77000 117.926
60.78000 116.087
60.79000 117.232
60.80000 120.762
60.81000 124.174
60.82000 122.234
60.83000 117.400
60.84000 112.902
60.85000 114.410
60.86000 118.138
60.87000 121.581
60.88000 123.258
60.89000 124.366
60.90000 125.579
60.91000 127.419
60.92000 129.361
60.93000 129.938
60.94000 125.188
60.95000 119.901
60.96000 116.007
60.97000 119.796
60.98000 123.047
60.99000 123.311
61.00000 118.161
61.01000 112.898
61.02000 111.334
61.03000 114.269
61.04000 117.209
61.05000 119.056
61.06000 120.034
61.07000 120.994
61.08000 121.169
61.09000 120.925
61.10000 120.820
61.11000 123.143
61.12000 126.351
61.13000 129.308
61.14000 129.659
61.15000 129.397
61.16000 128.805
61.17000 126.284
61.18000 123.451
61.19000 120.541
61.20000 117.330
61.21000 114.090
61.22000 111.714
61.23000 116.888
61.24000 121.189
61.25000 124.568
61.26000 126.301
61.27000 128.001
61.28000 128.476
61.29000 127.485
61.30000 126.493
61.31000 123.459
61.32000 118.859
61.33000 114.380
61.34000 114.898
61.35000 118.038
61.36000 120.995
61.37000 120.842
61.38000 119.571
61.39000 118.403
61.40000 122.538
61.41000 127.386
61.42000 131.493
61.43000 131.345
61.44000 130.519
61.45000 130.529
61.46000 133.701
61.47000 137.178
61.48000 139.717
61.49000 153.582
61.50000 164.712
61.51000 177.365
61.52000 192.698
61.53000 208.082
61.54000 222.111
61.55000 234.543
61.56000 246.942
61.57000 267.383
61.58000 293.830
61.59000 320.230
61.60000 344.746
61.61000 368.286
61.62000 390.958
61.63000 399.274
61.64000 402.510
61.65000 405.481
61.66000 413.066
61.67000 420.819
61.68000 427.858
61.69000 430.868
61.70000 433.248
61.71000 435.342
61.72000 436.371
61.73000 437.300
61.74000 437.975
61.75000 416.443
61.76000 399.038
61.77000 382.001
61.78000 365.605
61.79000 349.220
61.80000 325.665
61.81000 293.800
61.82000 262.010
61.83000 237.951
61.84000 219.853
61.85000 201.858
61.86000 187.774
61.87000 175.685
61.88000 163.770
61.89000 154.636
61.90000 146.473
61.91000 138.991
61.92000 141.002
61.93000 144.789
61.94000 147.677
61.95000 145.580
61.96000 142.718
61.97000 140.508
61.98000 140.696
61.99000 141.107
62.00000 141.404
62.01000 144.903
62.02000 147.706
62.03000 149.651
62.04000 150.131
62.05000 150.586
62.06000 149.640
62.07000 147.099
62.08000 144.563
62.09000 141.288
62.10000 137.492
62.11000 133.790
62.12000 133.530
62.13000 134.999
62.14000 136.289
62.15000 134.762
62.16000 132.267
62.17000 129.984
62.18000 130.276
62.19000 131.067
62.20000 132.378
62.21000 136.518
62.22000 141.085
62.23000 143.964
62.24000 140.731
62.25000 136.944
62.26000 134.215
62.27000 134.127
62.28000 134.152
62.29000 132.963
62.30000 129.729
62.31000 126.462
62.32000 127.215
62.33000 132.478
62.34000 137.726
62.35000 139.677
62.36000 139.217
62.37000 138.767
62.38000 138.621
62.39000 138.626
62.40000 138.744
62.41000 140.594
62.42000 143.030
62.43000 145.254
62.44000 136.869
62.45000 127.272
62.46000 120.642
62.47000 129.927
62.48000 141.573
62.49000 150.354
62.50000 148.921
62.51000 146.582
62.52000 144.904
62.53000 148.784
62.54000 151.941
62.55000 152.791
62.56000 149.815
62.57000 146.781
62.58000 146.216
62.59000 148.378
62.60000 150.532
62.61000 147.424
62.62000 140.583
62.63000 133.952
62.64000 134.332
62.65000 138.135
62.66000 141.593
62.67000 139.907
62.68000 136.504
62.69000 133.403
62.70000 132.163
62.71000 131.435
62.72000 130.566
62.73000 128.950
62.74000 127.225
62.75000 126.002
62.76000 126.545
62.77000 127.242
62.78000 127.739
62.79000 133.422
62.80000 137.931
62.81000 140.196
62.82000 138.797
62.83000 137.346
62.84000 138.607
62.85000 142.816
62.86000 147.008
62.87000 148.149
62.88000 147.135
62.89000 146.124
62.90000 145.214
62.91000 144.353
62.92000 143.663
62.93000 145.447
62.94000 148.045
62.95000 150.409
62.96000 144.777
62.97000 138.228
62.98000 133.301
62.99000 136.801
63.00000 141.507
63.01000 144.815
63.02000 143.290
63.03000 141.354
63.04000 139.978
63.05000 141.177
63.06000 142.173
63.07000 141.997
63.08000 139.934
63.09000 137.846
63.10000 135.973
63.11000 134.328
63.12000 132.691
63.13000 133.501
63.14000 135.995
63.15000 138.359
63.16000 136.666
63.17000 133.049
63.18000 129.921
63.19000 133.704
63.20000 139.729
63.21000 145.197
63.22000 149.525
63.23000 153.126
63.24000 155.885
63.25000 154.341
63.26000 152.193
63.27000 149.780
63.28000 146.462
63.29000 143.069
63.30000 140.668
63.31000 140.486
63.32000 140.417
63.33000 141.098
63.34000 142.969
63.35000 144.855
63.36000 144.598
63.37000 142.089
63.38000 139.592
63.39000 138.193
63.40000 137.557
63.41000 137.031
63.42000 139.765
63.43000 144.023
63.44000 148.153
63.45000 150.504
63.46000 152.288
63.47000 153.903
63.48000 148.232
63.49000 141.855
63.50000 136.434
63.51000 135.827
63.52000 135.884
63.53000 137.122
63.54000 142.326
63.55000 147.851
63.56000 151.744
63.57000 148.210
63.58000 145.308
63.59000 143.686
63.60000 144.064
63.61000 144.466
63.62000 146.267
63.63000 149.515
63.64000 152.745
63.65000 151.555
63.66000 147.418
63.67000 143.391
63.68000 142.511
63.69000 143.083
63.70000 143.474
63.71000 141.442
63.72000 138.647
63.73000 136.120
63.74000 140.577
63.75000 145.798
63.76000 150.098
63.77000 149.843
63.78000 148.970
63.79000 148.468
63.80000 149.192
63.81000 150.014
63.82000 150.590
63.83000 150.926
63.84000 151.174
63.85000 148.963
63.86000 142.966
63.87000 136.928
63.88000 136.333
63.89000 141.265
63.90000 146.169
63.91000 148.272
63.92000 148.502
63.93000 148.826
63.94000 151.783
63.95000 155.936
63.96000 159.513
63.97000 155.507
63.98000 149.149
63.99000 143.413
64.00000 140.724
64.01000 138.919
64.02000 137.787
64.03000 139.925
64.04000 142.498
64.05000 145.350
64.06000 149.109
64.07000 152.939
64.08000 155.612
64.09000 155.484
64.10000 155.309
64.11000 155.828
64.12000 157.400
64.13000 158.982
64.14000 161.269
64.15000 164.258
64.16000 167.228
64.17000 165.022
64.18000 159.493
64.19000 154.292
64.20000 157.939
64.21000 165.546
64.22000 172.349
64.23000 168.811
64.24000 162.111
64.25000 156.079
64.26000 157.689
64.27000 160.473
64.28000 163.096
64.29000 164.946
64.30000 166.694
64.31000 167.706
64.32000 166.352
64.33000 164.819
64.34000 163.754
64.35000 160.197
64.36000 157.450
64.37000 157.178
64.38000 160.600
64.39000 164.058
64.40000 167.012
64.41000 169.471
64.42000 171.914
64.43000 175.026
64.44000 178.518
64.45000 181.940
64.46000 183.552
64.47000 184.366
64.48000 184.787
64.49000 180.269
64.50000 174.263
64.51000 168.868
64.52000 168.950
64.53000 169.989
64.54000 170.809
64.55000 170.603
64.56000 170.266
64.57000 170.869
64.58000 174.447
64.59000 178.245
64.60000 180.870
64.61000 180.775
64.62000 180.633
64.63000 181.198
64.64000 182.803
64.65000 184.418
64.66000 185.735
64.67000 186.764
64.68000 187.787
64.69000 191.777
64.70000 197.565
64.71000 203.124
64.72000 202.898
64.73000 200.159
64.74000 197.110
64.75000 190.270
64.76000 182.304
64.77000 175.163
64.78000 176.641
64.79000 179.425
64.80000 181.987
64.81000 183.519
64.82000 184.921
64.83000 186.063
64.84000 186.392
64.85000 186.664
64.86000 186.850
64.87000 192.010
64.88000 196.005
64.89000 198.367
64.90000 198.365
64.91000 198.343
64.92000 198.235
64.93000 198.044
64.94000 197.855
64.95000 201.687
64.96000 207.937
64.97000 213.979
64.98000 214.953
64.99000 213.754
65.00000 213.002
65.01000 217.614
65.02000 223.795
65.03000 229.324
65.04000 234.725
65.05000 239.412
65.06000 242.742
65.07000 239.865
65.08000 236.222
65.09000 233.614
65.10000 234.187
65.11000 234.984
65.12000 235.530
65.13000 236.765
65.14000 237.707
65.15000 241.051
65.16000 247.823
65.17000 254.620
65.18000 258.143
65.19000 258.610
65.20000 259.072
65.21000 261.053
65.22000 263.921
65.23000 266.918
65.24000 272.960
65.25000 280.288
65.26000 287.382
65.27000 291.736
65.28000 295.300
65.29000 298.480
65.30000 300.065
65.31000 301.177
65.32000 302.698
65.33000 306.058
65.34000 309.641
65.35000 314.921
65.36000 325.343
65.37000 336.118
65.38000 343.458
65.39000 350.910
65.40000 356.481
65.41000 361.516
65.42000 365.799
65.43000 370.078
65.44000 378.976
65.45000 392.116
65.46000 405.138
65.47000 418.169
65.48000 430.953
65.49000 443.594
65.50000 452.985
65.51000 461.022
65.52000 469.479
65.53000 482.747
65.54000 497.382
65.55000 510.414
65.56000 521.557
65.57000 530.929
65.58000 542.553
65.59000 564.148
65.60000 586.928
65.61000 610.558
65.62000 636.726
65.63000 663.063
65.64000 680.914
65.65000 739.215
65.66000 783.573
65.67000 845.719
65.68000 932.476
65.69000 1019.414
65.70000 1145.964
65.71000 1308.291
65.72000 1469.083
65.73000 1655.180
65.74000 1852.386
65.75000 2049.325
65.76000 2240.351
65.77000 2428.950
65.78000 2616.145
65.79000 2787.562
65.80000 2954.564
65.81000 3102.943
65.82000 3166.766
65.83000 3208.490
65.84000 3250.568
65.85000 3294.190
65.86000 3337.993
65.87000 3361.356
65.88000 3324.552
65.89000 3283.826
65.90000 3256.363
65.91000 3212.961
65.92000 3180.335
65.93000 3101.329
65.94000 2959.140
65.95000 2816.555
65.96000 2636.278
65.97000 2422.509
65.98000 2210.888
65.99000 1993.225
66.00000 1776.736
66.01000 1562.300
66.02000 1391.954
66.03000 1239.441
66.04000 1091.073
66.05000 988.253
66.06000 897.986
66.07000 817.967
66.08000 749.693
66.09000 692.442
66.10000 640.083
66.11000 608.713
66.12000 579.742
66.13000 554.777
66.14000 541.433
66.15000 528.828
66.16000 520.370
66.17000 510.630
66.18000 503.374
66.19000 503.408
66.20000 513.223
66.21000 523.088
66.22000 532.071
66.23000 540.284
66.24000 548.409
66.25000 565.958
66.26000 588.487
66.27000 611.375
66.28000 641.744
66.29000 675.096
66.30000 708.998
66.31000 748.805
66.32000 790.216
66.33000 826.841
66.34000 853.778
66.35000 875.552
66.36000 895.664
66.37000 908.752
66.38000 921.052
66.39000 930.742
66.40000 932.964
66.41000 934.725
66.42000 935.900
66.43000 941.222
66.44000 945.245
66.45000 940.258
66.46000 923.370
66.47000 906.431
66.48000 891.993
66.49000 879.707
66.50000 867.560
66.51000 841.796
66.52000 808.997
66.53000 775.919
66.54000 737.195
66.55000 696.252
66.56000 655.970
66.57000 622.639
66.58000 591.166
66.59000 563.396
66.60000 535.742
66.61000 511.904
66.62000 492.105
66.63000 489.115
66.64000 487.971
66.65000 485.313
66.66000 478.387
66.67000 471.204
66.68000 466.435
66.69000 458.141
66.70000 451.945
66.71000 449.636
66.72000 452.381
66.73000 455.148
66.74000 458.433
66.75000 462.156
66.76000 465.835
66.77000 467.382
66.78000 467.712
66.79000 467.938
66.80000 466.125
66.81000 463.522
66.82000 461.045
66.83000 459.852
66.84000 458.998
66.85000 458.247
66.86000 459.833
66.87000 461.550
66.88000 462.253
66.89000 458.803
66.90000 454.906
66.91000 454.894
66.92000 465.670
66.93000 477.080
66.94000 484.616
66.95000 468.893
66.96000 456.884
66.97000 454.078
66.98000 463.050
66.99000 472.050
67.00000 473.639
67.01000 469.056
67.02000 464.530
67.03000 468.463
67.04000 476.893
67.05000 484.920
67.06000 485.244
67.07000 482.626
67.08000 480.622
67.09000 484.807
67.10000 490.598
67.11000 495.683
67.12000 492.760
67.13000 489.069
67.14000 486.915
67.15000 490.961
67.16000 495.661
67.17000 501.318
67.18000 509.595
67.19000 518.021
67.20000 523.557
67.21000 516.904
67.22000 511.802
67.23000 504.814
67.24000 495.452
67.25000 486.098
67.26000 483.758
67.27000 487.167
67.28000 490.530
67.29000 495.713
67.30000 501.730
67.31000 507.638
67.32000 511.534
67.33000 514.673
67.34000 517.446
67.35000 516.592
67.36000 514.812
67.37000 513.252
67.38000 515.943
67.39000 518.865
67.40000 520.308
67.41000 515.873
67.42000 510.832
67.43000 509.405
67.44000 517.732
67.45000 526.599
67.46000 532.394
67.47000 544.361
67.48000 553.248
67.49000 559.350
67.50000 562.000
67.51000 564.638
67.52000 566.530
67.53000 567.821
67.54000 569.095
67.55000 564.435
67.56000 556.781
67.57000 549.870
67.58000 556.331
67.59000 567.751
67.60000 577.510
67.61000 571.182
67.62000 560.806
67.63000 551.737
67.64000 556.360
67.65000 562.257
67.66000 566.596
67.67000 564.836
67.68000 562.458
67.69000 561.685
67.70000 565.180
67.71000 568.906
67.72000 571.328
67.73000 588.104
67.74000 600.616
67.75000 603.471
67.76000 594.536
67.77000 585.602
67.78000 585.514
67.79000 592.451
67.80000 599.286
67.81000 607.224
67.82000 615.500
67.83000 623.060
67.84000 618.051
67.85000 608.449
67.86000 600.205
67.87000 604.848
67.88000 612.686
67.89000 619.519
67.90000 622.177
67.91000 623.870
67.92000 625.133
67.93000 624.738
67.94000 624.178
67.95000 625.510
67.96000 631.798
67.97000 638.345
67.98000 642.577
67.99000 643.043
68.00000 643.329
68.01000 640.860
68.02000 635.082
68.03000 629.315
68.04000 628.457
68.05000 631.436
68.06000 634.369
68.07000 645.177
68.08000 659.671
68.09000 673.670
68.10000 679.213
68.11000 681.709
68.12000 683.854
68.13000 682.733
68.14000 680.813
68.15000 679.144
68.16000 690.770
68.17000 702.502
68.18000 710.402
68.19000 703.745
68.20000 695.675
68.21000 693.637
68.22000 707.183
68.23000 721.523
68.24000 730.739
68.25000 735.370
68.26000 738.685
68.27000 738.875
68.28000 735.370
68.29000 731.889
68.30000 735.529
68.31000 744.649
68.32000 753.622
68.33000 766.335
68.34000 780.522
68.35000 794.491
68.36000 804.836
68.37000 813.895
68.38000 822.357
68.39000 825.373
68.40000 827.081
68.41000 828.562
68.42000 834.664
68.43000 840.478
68.44000 847.787
68.45000 860.684
68.46000 874.113
68.47000 889.354
68.48000 909.208
68.49000 929.290
68.50000 942.125
68.51000 946.339
68.52000 949.293
68.53000 960.296
68.54000 980.661
68.55000 1001.068
68.56000 1027.526
68.57000 1058.568
68.58000 1089.083
68.59000 1129.780
68.60000 1174.159
68.61000 1218.850
68.62000 1268.564
68.63000 1320.037
68.64000 1373.229
68.65000 1441.773
68.66000 1513.951
68.67000 1576.405
68.68000 1668.014
68.69000 1749.717
68.70000 1826.804
68.71000 1886.876
68.72000 1945.365
68.73000 2015.851
68.74000 2116.447
68.75000 2218.489
68.76000 2283.335
68.77000 2376.924
68.78000 2445.248
68.79000 2526.891
68.80000 2623.779
68.81000 2720.811
68.82000 2842.355
68.83000 2982.183
68.84000 3119.525
68.85000 3307.267
68.86000 3513.069
68.87000 3729.452
68.88000 4112.614
68.89000 4553.294
68.90000 5036.687
68.91000 5894.056
68.92000 6838.603
68.93000 7653.803
68.94000 10247.941
68.95000 12678.066
68.96000 15534.370
68.97000 19937.973
68.98000 24482.482
68.99000 29452.162
69.00000 35473.555
69.01000 41543.973
69.02000 45379.516
69.03000 52905.621
69.04000 58402.301
69.05000 62948.820
69.06000 66425.391
69.07000 69894.719
69.08000 72266.563
69.09000 73832.367
69.10000 75369.063
69.11000 76641.883
69.12000 77742.797
69.13000 78842.727
69.14000 79927.500
69.15000 81007.125
69.16000 82045.719
69.17000 82732.094
69.18000 83337.625
69.19000 83858.875
69.20000 81882.398
69.21000 79893.234
69.22000 77342.563
69.23000 72783.523
69.24000 68045.547
69.25000 63438.645
69.26000 59151.309
69.27000 54878.418
69.28000 52194.270
69.29000 47898.227
69.30000 44774.523
69.31000 42521.617
69.32000 41233.367
69.33000 39947.672
69.34000 38967.066
69.35000 38207.094
69.36000 37461.883
69.37000 36376.641
69.38000 35171.238
69.39000 33902.809
69.40000 31690.607
69.41000 29162.275
69.42000 26568.105
69.43000 23419.547
69.44000 20145.709
69.45000 17334.895
69.46000 14370.897
69.47000 11846.069
69.48000 9523.931
69.49000 7916.022
69.50000 6370.359
69.51000 5050.863
69.52000 4274.888
69.53000 3522.725
69.54000 3052.998
69.55000 2586.498
69.56000 2250.038
69.57000 2012.370
69.58000 1882.359
69.59000 1752.555
69.60000 1645.633
69.61000 1555.007
69.62000 1466.219
69.63000 1388.275
69.64000 1318.351
69.65000 1250.276
69.66000 1209.215
69.67000 1177.071
69.68000 1143.978
69.69000 1103.040
69.70000 1060.357
69.71000 1023.809
69.72000 996.857
69.73000 975.278
69.74000 953.161
69.75000 929.180
69.76000 905.041
69.77000 880.828
69.78000 856.442
69.79000 832.048
69.80000 816.904
69.81000 792.476
69.82000 774.805
69.83000 757.750
69.84000 741.355
69.85000 725.030
69.86000 717.995
69.87000 717.476
69.88000 716.968
69.89000 709.564
69.90000 699.303
69.91000 689.161
69.92000 680.712
69.93000 672.815
69.94000 664.363
69.95000 651.421
69.96000 637.494
69.97000 625.601
69.98000 617.854
69.99000 611.821
70.00000 607.128
