20.00000 477.615
20.01000 481.693
20.02000 486.353
20.03000 490.104
20.04000 490.270
20.05000 490.070
20.06000 489.922
20.07000 484.482
20.08000 480.040
20.09000 478.788
20.10000 483.377
20.11000 488.090
20.12000 488.928
20.13000 485.000
20.14000 481.066
20.15000 478.338
20.16000 476.581
20.17000 474.900
20.18000 476.552
20.19000 479.997
20.20000 483.331
20.21000 484.690
20.22000 485.321
20.23000 485.904
20.24000 487.098
20.25000 488.305
20.26000 490.103
20.27000 495.385
20.28000 501.238
20.29000 504.633
20.30000 498.474
20.31000 491.358
20.32000 486.125
20.33000 485.270
20.34000 484.790
20.35000 483.781
20.36000 481.820
20.37000 479.839
20.38000 479.953
20.39000 482.601
20.40000 485.251
20.41000 494.263
20.42000 508.216
20.43000 521.689
20.44000 514.660
20.45000 496.756
20.46000 480.030
20.47000 483.669
20.48000 494.695
20.49000 504.854
20.50000 502.140
20.51000 496.878
20.52000 492.759
20.53000 495.262
20.54000 498.831
20.55000 500.049
20.56000 492.268
20.57000 483.604
20.58000 477.259
20.59000 479.311
20.60000 481.230
20.61000 482.395
20.62000 482.217
20.63000 482.014
20.64000 482.622
20.65000 484.197
20.66000 485.771
20.67000 487.278
20.68000 488.725
20.69000 490.043
20.70000 486.098
20.71000 479.403
20.72000 473.234
20.73000 475.924
20.74000 481.782
20.75000 487.168
20.76000 485.309
20.77000 482.081
20.78000 479.287
20.79000 478.972
20.80000 479.050
20.81000 479.306
20.82000 480.238
20.83000 481.234
20.84000 481.961
20.85000 484.468
20.86000 486.469
20.87000 486.396
20.88000 482.692
20.89000 478.920
20.90000 482.934
20.91000 496.075
20.92000 509.198
20.93000 509.166
20.94000 499.156
20.95000 489.372
20.96000 488.448
20.97000 492.087
20.98000 495.734
20.99000 499.526
21.00000 503.368
21.01000 506.895
21.02000 500.821
21.03000 493.363
21.04000 488.122
21.05000 495.310
21.06000 504.432
21.07000 509.460
21.08000 499.288
21.09000 487.688
21.10000 479.265
21.11000 491.965
21.12000 502.522
21.13000 504.921
21.14000 493.237
21.15000 481.306
21.16000 479.277
21.17000 488.671
21.18000 498.053
21.19000 500.362
21.20000 497.377
21.21000 494.385
21.22000 491.082
21.23000 487.622
21.24000 483.817
21.25000 474.507
21.26000 463.285
21.27000 453.005
21.28000 462.035
21.29000 474.111
21.30000 484.702
21.31000 487.098
21.32000 488.241
21.33000 488.225
21.34000 483.966
21.35000 479.317
21.36000 475.957
21.37000 477.977
21.38000 479.722
21.39000 481.911
21.40000 484.856
21.41000 487.814
21.42000 488.479
21.43000 486.542
21.44000 484.609
21.45000 483.012
21.46000 481.675
21.47000 480.455
21.48000 483.434
21.49000 488.515
21.50000 493.296
21.51000 493.429
21.52000 491.970
21.53000 490.637
21.54000 490.382
21.55000 490.378
21.56000 490.335
21.57000 490.085
21.58000 489.803
21.59000 491.436
21.60000 499.966
21.61000 509.118
21.62000 515.704
21.63000 516.170
21.64000 516.311
21.65000 520.820
21.66000 532.648
21.67000 544.590
21.68000 548.951
21.69000 544.845
21.70000 540.748
21.71000 544.267
21.72000 553.258
21.73000 562.173
21.74000 568.440
21.75000 573.403
21.76000 578.896
21.77000 592.429
21.78000 608.674
21.79000 623.498
21.80000 626.621
21.81000 627.028
21.82000 627.976
21.83000 631.807
21.84000 636.065
21.85000 643.350
21.86000 661.379
21.87000 680.355
21.88000 693.951
21.89000 690.921
21.90000 688.041
21.91000 694.731
21.92000 717.225
21.93000 739.953
21.94000 751.270
21.95000 750.053
21.96000 748.834
21.97000 752.348
21.98000 759.193
21.99000 765.898
22.00000 767.951
22.01000 767.744
22.02000 767.055
22.03000 759.246
22.04000 749.069
22.05000 739.800
22.06000 725.321
22.07000 711.466
22.08000 699.951
22.09000 700.734
22.10000 703.300
22.11000 702.650
22.12000 690.755
22.13000 677.892
22.14000 668.717
22.15000 664.024
22.16000 660.592
22.17000 656.459
22.18000 651.185
22.19000 645.894
22.20000 638.519
22.21000 628.891
22.22000 619.304
22.23000 605.767
22.24000 589.606
22.25000 573.867
22.26000 571.618
22.27000 575.832
22.28000 579.412
22.29000 573.859
22.30000 565.312
22.31000 557.544
22.32000 547.215
22.33000 537.585
22.34000 529.309
22.35000 528.028
22.36000 527.743
22.37000 524.649
22.38000 511.879
22.39000 498.294
22.40000 488.648
22.41000 493.507
22.42000 497.665
22.43000 500.933
22.44000 502.773
22.45000 504.595
22.46000 503.251
22.47000 498.544
22.48000 493.858
22.49000 492.514
22.50000 493.484
22.51000 494.470
22.52000 495.953
22.53000 497.671
22.54000 498.856
22.55000 492.542
22.56000 483.808
22.57000 475.886
22.58000 480.809
22.59000 487.616
22.60000 491.588
22.61000 481.152
22.62000 468.701
22.63000 460.219
22.64000 465.210
22.65000 471.310
22.66000 475.622
22.67000 476.465
22.68000 476.999
22.69000 473.051
22.70000 462.025
22.71000 450.912
22.72000 446.434
22.73000 448.889
22.74000 451.332
22.75000 450.885
22.76000 448.485
22.77000 446.248
22.78000 448.849
22.79000 453.701
22.80000 458.171
22.81000 457.393
22.82000 454.945
22.83000 452.729
22.84000 448.886
22.85000 445.194
22.86000 442.330
22.87000 443.601
22.88000 445.441
22.89000 446.575
22.90000 445.353
22.91000 443.941
22.92000 442.947
22.93000 437.011
22.94000 432.366
22.95000 431.231
22.96000 435.557
22.97000 439.946
22.98000 446.861
22.99000 456.372
23.00000 465.831
23.01000 465.714
23.02000 459.217
23.03000 452.909
23.04000 451.995
23.05000 453.554
23.06000 454.800
23.07000 451.854
23.08000 447.594
23.09000 443.746
23.10000 446.957
23.11000 451.087
23.12000 454.816
23.13000 456.577
23.14000 458.071
23.15000 455.467
23.16000 439.353
23.17000 422.176
23.18000 410.148
23.19000 426.851
23.20000 440.303
23.21000 448.487
23.22000 448.600
23.23000 448.625
23.24000 444.193
23.25000 435.258
23.26000 426.376
23.27000 428.881
23.28000 438.819
23.29000 448.560
23.30000 452.871
23.31000 454.726
23.32000 455.992
23.33000 449.559
23.34000 440.747
23.35000 432.802
23.36000 422.726
23.37000 413.495
23.38000 407.702
23.39000 418.566
23.40000 431.636
23.41000 440.554
23.42000 435.992
23.43000 430.394
23.44000 426.493
23.45000 421.656
23.46000 417.981
23.47000 417.812
23.48000 422.934
23.49000 428.111
23.50000 433.599
23.51000 439.399
23.52000 445.161
23.53000 446.000
23.54000 443.650
23.55000 441.229
23.56000 436.901
23.57000 431.723
23.58000 427.000
23.59000 428.102
23.60000 430.977
23.61000 433.563
23.62000 440.633
23.63000 447.628
23.64000 453.143
23.65000 451.595
23.66000 449.129
23.67000 445.352
23.68000 437.376
23.69000 429.085
23.70000 423.334
23.71000 433.344
23.72000 441.300
23.73000 444.749
23.74000 441.501
23.75000 438.190
23.76000 438.325
23.77000 441.823
23.78000 445.298
23.79000 443.272
23.80000 437.785
23.81000 432.503
23.82000 432.521
23.83000 434.866
23.84000 437.301
23.85000 440.859
23.86000 444.753
23.87000 448.248
23.88000 435.897
23.89000 422.314
23.90000 412.781
23.91000 422.253
23.92000 434.150
23.93000 443.286
23.94000 443.722
23.95000 443.520
23.96000 443.381
23.97000 437.771
23.98000 433.415
23.99000 433.413
24.00000 439.785
24.01000 446.211
24.02000 447.383
24.03000 443.509
24.04000 439.663
24.05000 436.650
24.06000 434.206
24.07000 431.961
24.08000 434.670
24.09000 439.523
24.10000 443.385
24.11000 435.157
24.12000 423.355
24.13000 412.782
24.14000 417.311
24.15000 423.867
24.16000 428.445
24.17000 423.886
24.18000 418.183
24.19000 416.094
24.20000 425.234
24.21000 435.176
24.22000 442.006
24.23000 432.703
24.24000 425.331
24.25000 423.506
24.26000 429.682
24.27000 435.921
24.28000 437.059
24.29000 433.381
24.30000 429.733
24.31000 429.411
24.32000 431.141
24.33000 432.706
24.34000 430.279
24.35000 426.149
24.36000 422.790
24.37000 428.630
24.38000 437.148
24.39000 444.763
24.40000 438.079
24.41000 429.833
24.42000 421.201
24.43000 410.816
24.44000 400.216
24.45000 395.767
24.46000 410.155
24.47000 425.856
24.48000 436.589
24.49000 428.914
24.50000 422.737
24.51000 422.104
24.52000 429.345
24.53000 436.642
24.54000 439.236
24.55000 437.462
24.56000 435.703
24.57000 431.942
24.58000 427.039
24.59000 422.484
24.60000 426.079
24.61000 433.102
24.62000 439.239
24.63000 435.056
24.64000 427.912
24.65000 421.541
24.66000 429.122
24.67000 438.037
24.68000 443.141
24.69000 431.189
24.70000 417.183
24.71000 408.835
24.72000 417.561
24.73000 427.449
24.74000 434.174
24.75000 434.415
24.76000 434.447
24.77000 430.930
24.78000 422.449
24.79000 413.937
24.80000 410.767
24.81000 412.476
24.82000 414.170
24.83000 416.675
24.84000 419.615
24.85000 422.506
24.86000 424.297
24.87000 425.632
24.88000 427.052
24.89000 429.451
24.90000 432.127
24.91000 434.508
24.92000 432.884
24.93000 430.820
24.94000 428.330
24.95000 423.968
24.96000 419.385
24.97000 417.138
24.98000 421.839
24.99000 427.000
25.00000 430.493
25.01000 436.418
25.02000 440.885
25.03000 441.155
25.04000 435.644
25.05000 430.100
25.06000 428.741
25.07000 431.142
25.08000 433.521
25.09000 429.827
25.10000 422.650
25.11000 415.825
25.12000 416.715
25.13000 420.757
25.14000 424.330
25.15000 422.671
25.16000 419.555
25.17000 416.788
25.18000 414.368
25.19000 412.325
25.20000 410.777
25.21000 411.372
25.22000 412.216
25.23000 413.722
25.24000 417.169
25.25000 420.741
25.26000 423.146
25.27000 417.793
25.28000 413.651
25.29000 408.811
25.30000 403.025
25.31000 397.236
25.32000 395.344
25.33000 396.897
25.34000 398.434
25.35000 406.244
25.36000 417.503
25.37000 428.023
25.38000 422.832
25.39000 411.313
25.40000 401.538
25.41000 410.803
25.42000 425.290
25.43000 438.124
25.44000 428.839
25.45000 417.324
25.46000 406.488
25.47000 398.561
25.48000 390.964
25.49000 387.532
25.50000 396.131
25.51000 405.487
25.52000 411.755
25.53000 409.792
25.54000 408.171
25.55000 409.419
25.56000 414.495
25.57000 419.589
25.58000 423.280
25.59000 425.750
25.60000 428.193
25.61000 429.154
25.62000 429.251
25.63000 429.129
25.64000 424.492
25.65000 418.062
25.66000 411.960
25.67000 409.365
25.68000 407.718
25.69000 406.263
25.70000 412.550
25.71000 419.178
25.72000 424.940
25.73000 427.060
25.74000 428.774
25.75000 428.017
25.76000 420.225
25.77000 412.001
25.78000 406.520
25.79000 406.386
25.80000 406.390
25.81000 405.480
25.82000 403.370
25.83000 401.258
25.84000 401.284
25.85000 403.141
25.86000 404.976
25.87000 405.474
25.88000 405.212
25.89000 404.897
25.90000 403.522
25.91000 401.734
25.92000 400.034
25.93000 399.266
25.94000 398.744
25.95000 398.285
25.96000 405.521
25.97000 412.927
25.98000 417.455
25.99000 410.065
26.00000 401.374
26.01000 395.800
26.02000 398.974
26.03000 402.670
26.04000 405.121
26.05000 397.008
26.06000 390.822
26.07000 388.758
26.08000 392.029
26.09000 395.312
26.10000 393.951
26.11000 388.678
26.12000 383.469
26.13000 386.935
26.14000 395.084
26.15000 402.916
26.16000 404.572
26.17000 403.847
26.18000 402.880
26.19000 399.441
26.20000 395.354
26.21000 391.758
26.22000 393.758
26.23000 396.312
26.24000 398.661
26.25000 400.171
26.26000 401.591
26.27000 401.046
26.28000 395.067
26.29000 388.772
26.30000 384.620
26.31000 404.360
26.32000 419.327
26.33000 423.480
26.34000 413.855
26.35000 404.193
26.36000 399.577
26.37000 399.145
26.38000 398.718
26.39000 391.959
26.40000 381.950
26.41000 372.746
26.42000 378.762
26.43000 390.565
26.44000 401.230
26.45000 400.495
26.46000 396.815
26.47000 393.586
26.48000 401.080
26.49000 409.086
26.50000 414.979
26.51000 412.387
26.52000 408.906
26.53000 404.735
26.54000 398.684
26.55000 392.527
26.56000 388.488
26.57000 391.064
26.58000 393.068
26.59000 394.943
26.60000 396.657
26.61000 398.366
26.62000 398.076
26.63000 396.157
26.64000 394.264
26.65000 397.892
26.66000 404.364
26.67000 410.541
26.68000 411.308
26.69000 410.049
26.70000 408.647
26.71000 405.840
26.72000 402.676
26.73000 399.905
26.74000 396.724
26.75000 393.937
26.76000 392.613
26.77000 397.077
26.78000 402.136
26.79000 404.753
26.80000 400.813
26.81000 396.512
26.82000 393.706
26.83000 400.243
26.84000 405.189
26.85000 404.755
26.86000 397.679
26.87000 390.597
26.88000 387.440
26.89000 387.433
26.90000 387.427
26.91000 388.803
26.92000 390.866
26.93000 392.804
26.94000 392.522
26.95000 391.421
26.96000 390.444
26.97000 390.667
26.98000 391.191
26.99000 391.649
27.00000 393.419
27.01000 395.118
27.02000 395.231
27.03000 389.162
27.04000 382.471
27.05000 379.481
27.06000 386.287
27.07000 393.617
27.08000 398.374
27.09000 393.172
27.10000 389.214
27.11000 389.566
27.12000 395.156
27.13000 400.733
27.14000 398.925
27.15000 391.280
27.16000 383.749
27.17000 380.936
27.18000 380.642
27.19000 380.577
27.20000 384.480
27.21000 389.828
27.22000 395.174
27.23000 400.502
27.24000 405.826
27.25000 410.464
27.26000 403.932
27.27000 396.809
27.28000 391.388
27.29000 392.497
27.30000 394.249
27.31000 393.034
27.32000 384.073
27.33000 374.709
27.34000 368.668
27.35000 373.217
27.36000 376.693
27.37000 380.641
27.38000 385.153
27.39000 389.650
27.40000 389.711
27.41000 386.320
27.42000 382.982
27.43000 379.090
27.44000 375.036
27.45000 371.449
27.46000 375.766
27.47000 382.917
27.48000 389.049
27.49000 385.773
27.50000 380.210
27.51000 375.376
27.52000 382.302
27.53000 389.801
27.54000 394.872
27.55000 390.760
27.56000 385.762
27.57000 382.106
27.58000 381.899
27.59000 381.867
27.60000 381.846
27.61000 369.847
27.62000 360.937
27.63000 359.815
27.64000 367.857
27.65000 375.899
27.66000 380.449
27.67000 382.324
27.68000 384.169
27.69000 388.199
27.70000 393.193
27.71000 397.762
27.72000 395.332
27.73000 390.429
27.74000 385.797
27.75000 383.619
27.76000 382.029
27.77000 380.650
27.78000 381.847
27.79000 383.208
27.80000 383.203
27.81000 378.109
27.82000 372.535
27.83000 370.536
27.84000 377.599
27.85000 385.107
27.86000 389.897
27.87000 388.542
27.88000 387.477
27.89000 385.933
27.90000 383.834
27.91000 381.738
27.92000 380.374
27.93000 379.562
27.94000 378.764
27.95000 374.439
27.96000 368.523
27.97000 363.292
27.98000 369.044
27.99000 378.622
28.00000 387.557
28.01000 390.768
28.02000 392.630
28.03000 394.240
28.04000 392.283
28.05000 390.155
28.06000 388.416
28.07000 388.103
28.08000 387.922
28.09000 389.116
28.10000 393.745
28.11000 398.539
28.12000 401.579
28.13000 396.427
28.14000 392.587
28.15000 391.336
28.16000 393.034
28.17000 394.734
28.18000 396.457
28.19000 398.195
28.20000 399.903
28.21000 395.020
28.22000 387.115
28.23000 379.837
28.24000 382.371
28.25000 388.274
28.26000 393.724
28.27000 395.223
28.28000 395.805
28.29000 396.308
28.30000 396.237
28.31000 396.103
28.32000 395.305
28.33000 392.105
28.34000 388.689
28.35000 386.076
28.36000 385.445
28.37000 384.904
28.38000 384.563
28.39000 382.463
28.40000 380.922
28.41000 379.561
28.42000 378.401
28.43000 377.257
28.44000 378.776
28.45000 382.242
28.46000 385.643
28.47000 385.982
28.48000 384.849
28.49000 383.944
28.50000 386.517
28.51000 390.266
28.52000 393.276
28.53000 389.989
28.54000 385.262
28.55000 381.196
28.56000 381.268
28.57000 381.847
28.58000 381.804
28.59000 379.541
28.60000 377.083
28.61000 374.375
28.62000 371.063
28.63000 367.723
28.64000 365.629
28.65000 381.737
28.66000 393.573
28.67000 398.477
28.68000 395.740
28.69000 392.979
28.70000 387.124
28.71000 379.044
28.72000 371.122
28.73000 370.723
28.74000 373.870
28.75000 376.967
28.76000 379.315
28.77000 381.413
28.78000 382.876
28.79000 379.014
28.80000 373.955
28.81000 369.615
28.82000 373.026
28.83000 376.861
28.84000 378.102
28.85000 370.247
28.86000 361.605
28.87000 357.727
28.88000 365.249
28.89000 373.266
28.90000 378.263
28.91000 379.040
28.92000 379.557
28.93000 375.403
28.94000 366.185
28.95000 356.999
28.96000 352.557
28.97000 351.478
28.98000 350.421
28.99000 359.330
29.00000 372.497
29.01000 384.530
29.02000 380.107
29.03000 370.277
29.04000 362.116
29.05000 367.663
29.06000 376.246
29.07000 383.590
29.08000 379.985
29.09000 375.625
29.10000 372.258
29.11000 372.323
29.12000 372.678
29.13000 372.996
29.14000 373.227
29.15000 373.454
29.16000 373.595
29.17000 372.520
29.18000 371.736
29.19000 374.673
29.20000 381.580
29.21000 388.408
29.22000 385.019
29.23000 374.496
29.24000 364.199
29.25000 362.464
29.26000 364.691
29.27000 366.949
29.28000 369.638
29.29000 372.466
29.30000 374.916
29.31000 374.320
29.32000 373.061
29.33000 371.986
29.34000 369.057
29.35000 366.373
29.36000 364.407
29.37000 364.888
29.38000 365.572
29.39000 368.162
29.40000 375.186
29.41000 382.390
29.42000 386.828
29.43000 381.250
29.44000 377.157
29.45000 379.312
29.46000 388.020
29.47000 396.658
29.48000 396.781
29.49000 391.049
29.50000 385.446
29.51000 384.812
29.52000 386.429
29.53000 388.109
29.54000 390.673
29.55000 393.519
29.56000 395.408
29.57000 389.735
29.58000 382.439
29.59000 376.230
29.60000 380.483
29.61000 385.268
29.62000 388.110
29.63000 384.431
29.64000 380.225
29.65000 378.683
29.66000 383.245
29.67000 388.048
29.68000 390.988
29.69000 393.449
29.70000 395.207
29.71000 401.384
29.72000 412.118
29.73000 422.856
29.74000 433.934
29.75000 445.242
29.76000 456.288
29.77000 465.770
29.78000 474.159
29.79000 482.659
29.80000 492.658
29.81000 503.128
29.82000 513.518
29.83000 523.279
29.84000 532.907
29.85000 541.079
29.86000 571.627
29.87000 599.789
29.88000 624.584
29.89000 638.248
29.90000 651.033
29.91000 660.702
29.92000 663.335
29.93000 665.700
29.94000 667.139
29.95000 665.292
29.96000 663.947
29.97000 664.785
29.98000 667.836
29.99000 670.813
30.00000 666.156
30.01000 656.409
30.02000 646.896
30.03000 629.040
30.04000 608.352
30.05000 588.498
30.06000 579.607
30.07000 574.114
30.08000 568.892
30.09000 565.735
30.10000 563.006
30.11000 560.697
30.12000 561.108
30.13000 561.755
30.14000 558.853
30.15000 544.385
30.16000 529.025
30.17000 517.757
30.18000 515.597
30.19000 513.772
30.20000 512.668
30.21000 504.531
30.22000 498.681
30.23000 491.161
30.24000 481.975
30.25000 472.878
30.26000 472.326
30.27000 477.385
30.28000 482.318
30.29000 481.611
30.30000 478.530
30.31000 475.195
30.32000 468.607
30.33000 461.024
30.34000 454.752
30.35000 458.270
30.36000 463.791
30.37000 468.451
30.38000 463.941
30.39000 459.174
30.40000 453.486
30.41000 444.839
30.42000 435.970
30.43000 432.038
30.44000 438.936
30.45000 446.218
30.46000 450.594
30.47000 448.730
30.48000 447.363
30.49000 445.335
30.50000 442.657
30.51000 440.001
30.52000 439.204
30.53000 439.611
30.54000 440.007
30.55000 444.546
30.56000 450.613
30.57000 456.085
30.58000 454.088
30.59000 449.843
30.60000 445.695
30.61000 442.254
30.62000 438.956
30.63000 436.179
30.64000 445.627
30.65000 454.812
30.66000 461.337
30.67000 459.449
30.68000 456.941
30.69000 458.883
30.70000 470.447
30.71000 482.340
30.72000 489.441
30.73000 485.539
30.74000 482.703
30.75000 483.691
30.76000 488.366
30.77000 493.012
30.78000 495.317
30.79000 496.129
30.80000 496.919
30.81000 500.603
30.82000 505.307
30.83000 509.983
30.84000 514.335
30.85000 518.590
30.86000 523.391
30.87000 532.124
30.88000 541.636
30.89000 549.619
30.90000 553.100
30.91000 555.527
30.92000 566.087
30.93000 601.999
30.94000 639.732
30.95000 671.751
30.96000 691.591
30.97000 711.029
30.98000 722.561
30.99000 796.984
31.00000 850.007
31.01000 923.863
31.02000 1017.465
31.03000 1111.277
31.04000 1221.446
31.05000 1341.886
31.06000 1458.953
31.07000 1626.032
31.08000 1805.202
31.09000 1988.675
31.10000 2223.724
31.11000 2473.842
31.12000 2730.564
31.13000 3034.036
31.14000 3346.621
31.15000 3608.170
31.16000 4043.078
31.17000 4422.197
31.18000 4801.345
31.19000 5180.579
31.20000 5559.819
31.21000 5929.243
31.22000 6278.047
31.23000 6626.196
31.24000 6831.399
31.25000 7250.037
31.26000 7546.634
31.27000 7761.163
31.28000 7899.185
31.29000 8036.816
31.30000 8145.866
31.31000 8237.234
31.32000 8325.950
31.33000 8284.549
31.34000 8193.146
31.35000 8094.922
31.36000 7916.755
31.37000 7715.577
31.38000 7498.820
31.39000 7173.762
31.40000 6827.934
31.41000 6539.412
31.42000 6081.236
31.43000 5684.240
31.44000 5295.633
31.45000 4932.417
31.46000 4570.937
31.47000 4212.943
31.48000 3862.165
31.49000 3511.608
31.50000 3306.341
31.51000 2918.600
31.52000 2644.710
31.53000 2414.774
31.54000 2225.139
31.55000 2035.696
31.56000 1859.480
31.57000 1691.325
31.58000 1528.226
31.59000 1407.043
31.60000 1308.704
31.61000 1211.908
31.62000 1132.787
31.63000 1058.679
31.64000 986.138
31.65000 924.304
31.66000 864.491
31.67000 814.736
31.68000 770.342
31.69000 734.121
31.70000 701.829
31.71000 681.257
31.72000 661.467
31.73000 640.518
31.74000 617.206
31.75000 593.824
31.76000 580.223
31.77000 561.631
31.78000 548.551
31.79000 536.888
31.80000 526.505
31.81000 516.094
31.82000 503.813
31.83000 490.409
31.84000 477.423
31.85000 472.404
31.86000 470.745
31.87000 468.442
31.88000 458.928
31.89000 447.399
31.90000 437.507
31.91000 438.597
31.92000 441.726
31.93000 444.321
31.94000 427.917
31.95000 412.537
31.96000 401.239
31.97000 401.942
31.98000 403.424
31.99000 404.458
32.00000 404.587
32.01000 404.692
32.02000 404.752
32.03000 393.220
32.04000 385.098
32.05000 383.032
32.06000 386.340
32.07000 389.555
32.08000 387.054
32.09000 381.173
32.10000 375.480
32.11000 377.082
32.12000 381.381
32.13000 384.931
32.14000 380.257
32.15000 373.319
32.16000 366.467
32.17000 360.181
32.18000 353.999
32.19000 348.887
32.20000 353.764
32.21000 358.727
32.22000 363.660
32.23000 368.508
32.24000 373.351
32.25000 373.531
32.26000 364.470
32.27000 355.157
32.28000 349.813
32.29000 361.634
32.30000 369.953
32.31000 372.427
32.32000 369.798
32.33000 367.150
32.34000 363.393
32.35000 358.989
32.36000 354.732
32.37000 357.367
32.38000 362.444
32.39000 366.856
32.40000 364.128
32.41000 359.466
32.42000 355.021
32.43000 351.994
32.44000 349.221
32.45000 346.935
32.46000 348.833
32.47000 350.780
32.48000 353.584
32.49000 358.836
32.50000 364.240
32.51000 367.031
32.52000 364.722
32.53000 362.279
32.54000 360.887
32.55000 353.376
32.56000 348.132
32.57000 351.952
32.58000 363.557
32.59000 374.858
32.60000 369.236
32.61000 353.894
32.62000 339.080
32.63000 339.686
32.64000 345.960
32.65000 351.375
32.66000 347.768
32.67000 341.750
32.68000 336.938
32.69000 339.797
32.70000 344.011
32.71000 347.474
32.72000 347.233
32.73000 346.702
32.74000 344.646
32.75000 338.300
32.76000 331.696
32.77000 329.496
32.78000 335.773
32.79000 342.262
32.80000 345.934
32.81000 341.211
32.82000 337.902
32.83000 334.842
32.84000 331.990
32.85000 329.256
32.86000 332.669
32.87000 339.562
32.88000 346.210
32.89000 344.438
32.90000 339.705
32.91000 335.032
32.92000 330.974
32.93000 327.078
32.94000 324.203
32.95000 327.714
32.96000 332.334
32.97000 336.119
32.98000 325.946
32.99000 316.374
33.00000 309.647
33.01000 310.812
33.02000 312.438
33.03000 314.020
33.04000 315.517
33.05000 317.012
33.06000 317.852
33.07000 323.557
33.08000 327.520
33.09000 327.595
33.10000 324.436
33.11000 321.353
33.12000 322.030
33.13000 324.806
33.14000 327.479
33.15000 326.634
33.16000 324.579
33.17000 322.341
33.18000 318.257
33.19000 313.694
33.20000 309.912
33.21000 310.932
33.22000 312.773
33.23000 314.277
33.24000 317.710
33.25000 320.686
33.26000 321.672
33.27000 317.217
33.28000 312.452
33.29000 307.600
33.30000 302.583
33.31000 297.563
33.32000 294.762
33.33000 305.045
33.34000 312.180
33.35000 315.226
33.36000 314.925
33.37000 314.605
33.38000 313.385
33.39000 311.671
33.40000 310.022
33.41000 309.035
33.42000 308.342
33.43000 307.997
33.44000 311.085
33.45000 315.049
33.46000 318.330
33.47000 317.485
33.48000 315.947
33.49000 314.695
33.50000 313.777
33.51000 313.055
33.52000 313.839
33.53000 318.682
33.54000 323.749
33.55000 325.392
33.56000 320.723
33.57000 315.917
33.58000 313.255
33.59000 311.997
33.60000 311.128
33.61000 309.343
33.62000 306.818
33.63000 304.376
33.64000 305.662
33.65000 308.968
33.66000 312.144
33.67000 312.306
33.68000 311.410
33.69000 310.699
33.70000 311.756
33.71000 313.259
33.72000 314.441
33.73000 313.723
33.74000 312.691
33.75000 311.853
33.76000 314.582
33.77000 317.100
33.78000 316.918
33.79000 309.564
33.80000 301.824
33.81000 297.912
33.82000 300.954
33.83000 304.140
33.84000 305.892
33.85000 307.191
33.86000 308.088
33.87000 310.053
33.88000 312.864
33.89000 315.565
33.90000 313.508
33.91000 308.913
33.92000 304.502
33.93000 302.450
33.94000 301.337
33.95000 300.527
33.96000 302.586
33.97000 305.357
33.98000 307.476
33.99000 305.792
34.00000 303.491
34.01000 301.630
34.02000 302.771
34.03000 303.942
34.04000 305.860
34.05000 309.734
34.06000 313.711
34.07000 314.182
34.08000 308.380
34.09000 302.453
34.10000 299.218
34.11000 302.933
34.12000 305.487
34.13000 305.917
34.14000 304.689
34.15000 303.471
34.16000 302.640
34.17000 302.014
34.18000 301.413
34.19000 297.516
34.20000 292.772
34.21000 288.171
34.22000 284.907
34.23000 281.970
34.24000 279.753
34.25000 281.676
34.26000 284.259
34.27000 286.341
34.28000 285.823
34.29000 285.198
34.30000 286.524
34.31000 292.886
34.32000 299.504
34.33000 300.568
34.34000 291.840
34.35000 282.927
34.36000 278.098
34.37000 283.120
34.38000 286.567
34.39000 289.088
34.40000 290.897
34.41000 292.651
34.42000 292.234
34.43000 290.691
34.44000 289.213
34.45000 292.860
34.46000 297.953
34.47000 302.602
34.48000 303.214
34.49000 302.857
34.50000 302.906
34.51000 305.242
34.52000 307.937
34.53000 310.102
34.54000 299.270
34.55000 289.489
34.56000 283.661
34.57000 287.882
34.58000 292.600
34.59000 294.454
34.60000 291.332
34.61000 288.120
34.62000 286.393
34.63000 291.322
34.64000 294.691
34.65000 296.926
34.66000 298.302
34.67000 299.713
34.68000 302.426
34.69000 305.804
34.70000 309.033
34.71000 301.445
34.72000 290.864
34.73000 282.115
34.74000 289.696
34.75000 301.138
34.76000 309.915
34.77000 303.888
34.78000 295.579
34.79000 288.925
34.80000 288.937
34.81000 289.448
34.82000 289.843
34.83000 289.948
34.84000 290.040
34.85000 290.184
34.86000 290.418
34.87000 290.653
34.88000 290.779
34.89000 294.482
34.90000 297.006
34.91000 299.064
34.92000 300.776
34.93000 302.472
34.94000 303.587
34.95000 304.408
34.96000 305.193
34.97000 303.358
34.98000 300.816
34.99000 298.414
35.00000 297.245
35.01000 296.362
35.02000 295.313
35.03000 293.358
35.04000 291.265
35.05000 289.595
35.06000 292.696
35.07000 295.550
35.08000 295.258
35.09000 287.190
35.10000 278.761
35.11000 275.587
35.12000 281.278
35.13000 287.112
35.14000 290.201
35.15000 291.221
35.16000 291.903
35.17000 290.686
35.18000 288.078
35.19000 285.502
35.20000 284.048
35.21000 283.151
35.22000 282.296
35.23000 277.955
35.24000 272.830
35.25000 268.772
35.26000 273.859
35.27000 281.043
35.28000 286.590
35.29000 283.341
35.30000 278.784
35.31000 275.158
35.32000 274.820
35.33000 274.783
35.34000 275.404
35.35000 277.628
35.36000 279.925
35.37000 279.523
35.38000 274.636
35.39000 269.681
35.40000 267.078
35.41000 270.103
35.42000 272.163
35.43000 275.193
35.44000 278.926
35.45000 282.541
35.46000 282.221
35.47000 279.975
35.48000 277.836
35.49000 278.656
35.50000 280.333
35.51000 281.402
35.52000 277.365
35.53000 272.175
35.54000 267.777
35.55000 267.560
35.56000 267.955
35.57000 268.268
35.58000 269.493
35.59000 270.541
35.60000 270.533
35.61000 267.987
35.62000 265.331
35.63000 265.347
35.64000 269.741
35.65000 274.199
35.66000 276.522
35.67000 277.712
35.68000 278.529
35.69000 281.048
35.70000 284.779
35.71000 288.260
35.72000 283.600
35.73000 275.016
35.74000 266.854
35.75000 269.337
35.76000 274.878
35.77000 279.196
35.78000 273.425
35.79000 265.413
35.80000 259.842
35.81000 266.977
35.82000 275.935
35.83000 283.011
35.84000 286.967
35.85000 289.930
35.86000 290.083
35.87000 283.587
35.88000 276.809
35.89000 271.871
35.90000 269.901
35.91000 267.971
35.92000 266.973
35.93000 266.523
35.94000 266.245
35.95000 269.380
35.96000 274.904
35.97000 280.262
35.98000 280.400
35.99000 278.058
36.00000 275.835
36.01000 275.231
36.02000 275.159
36.03000 275.417
36.04000 278.342
36.05000 281.851
36.06000 284.812
36.07000 284.967
36.08000 284.727
36.09000 284.538
36.10000 282.824
36.11000 281.349
36.12000 280.980
36.13000 283.190
36.14000 285.506
36.15000 284.267
36.16000 277.379
36.17000 270.419
36.18000 266.850
36.19000 272.297
36.20000 275.945
36.21000 277.721
36.22000 278.205
36.23000 278.587
36.24000 275.859
36.25000 271.676
36.26000 267.710
36.27000 273.617
36.28000 281.975
36.29000 288.965
36.30000 285.093
36.31000 278.883
36.32000 273.931
36.33000 275.319
36.34000 277.584
36.35000 279.361
36.36000 279.384
36.37000 279.288
36.38000 277.787
36.39000 273.059
36.40000 268.203
36.41000 268.763
36.42000 277.802
36.43000 286.943
36.44000 291.593
36.45000 277.870
36.46000 268.727
36.47000 266.203
36.48000 268.175
36.49000 270.042
36.50000 268.814
36.51000 266.159
36.52000 263.645
36.53000 269.454
36.54000 277.217
36.55000 283.632
36.56000 279.554
36.57000 273.252
36.58000 267.798
36.59000 266.552
36.60000 265.877
36.61000 265.350
36.62000 268.130
36.63000 270.558
36.64000 272.695
36.65000 274.175
36.66000 275.630
36.67000 277.963
36.68000 281.649
36.69000 285.351
36.70000 287.219
36.71000 282.909
36.72000 280.066
36.73000 281.265
36.74000 285.168
36.75000 288.844
36.76000 286.133
36.77000 280.516
36.78000 275.206
36.79000 280.561
36.80000 288.527
36.81000 294.784
36.82000 287.963
36.83000 278.415
36.84000 271.048
36.85000 274.325
36.86000 279.022
36.87000 282.680
36.88000 282.412
36.89000 281.955
36.90000 282.680
36.91000 286.043
36.92000 289.505
36.93000 291.013
36.94000 289.556
36.95000 288.067
36.96000 287.323
36.97000 289.661
36.98000 291.222
36.99000 292.984
37.00000 294.878
37.01000 296.478
37.02000 290.131
37.03000 280.220
37.04000 270.864
37.05000 277.151
37.06000 287.314
37.07000 295.530
37.08000 289.140
37.09000 279.751
37.10000 272.473
37.11000 275.326
37.12000 279.506
37.13000 282.750
37.14000 282.624
37.15000 282.322
37.16000 283.645
37.17000 288.546
37.18000 293.575
37.19000 291.006
37.20000 277.066
37.21000 263.017
37.22000 259.525
37.23000 266.419
37.24000 273.260
37.25000 275.314
37.26000 274.261
37.27000 273.231
37.28000 272.793
37.29000 272.618
37.30000 272.453
37.31000 273.524
37.32000 274.847
37.33000 276.005
37.34000 275.947
37.35000 275.643
37.36000 275.318
37.37000 274.893
37.38000 274.456
37.39000 274.118
37.40000 267.791
37.41000 262.419
37.42000 260.048
37.43000 264.186
37.44000 268.549
37.45000 270.041
37.46000 267.302
37.47000 264.526
37.48000 264.529
37.49000 267.220
37.50000 269.870
37.51000 268.973
37.52000 265.807
37.53000 262.766
37.54000 262.888
37.55000 264.388
37.56000 265.800
37.57000 267.867
37.58000 269.936
37.59000 271.021
37.60000 264.990
37.61000 257.544
37.62000 251.911
37.63000 254.703
37.64000 258.558
37.65000 261.527
37.66000 261.357
37.67000 261.044
37.68000 260.288
37.69000 258.588
37.70000 256.856
37.71000 255.584
37.72000 254.981
37.73000 254.383
37.74000 258.744
37.75000 267.821
37.76000 276.717
37.77000 271.329
37.78000 256.942
37.79000 243.290
37.80000 247.622
37.81000 259.675
37.82000 271.001
37.83000 269.869
37.84000 265.505
37.85000 262.188
37.86000 266.321
37.87000 271.910
37.88000 276.777
37.89000 278.336
37.90000 279.485
37.91000 280.367
37.92000 276.864
37.93000 273.852
37.94000 270.540
37.95000 266.598
37.96000 262.635
37.97000 261.894
37.98000 265.758
37.99000 269.657
38.00000 274.951
38.01000 281.549
38.02000 288.088
38.03000 290.288
38.04000 289.795
38.05000 289.226
38.06000 286.874
38.07000 283.768
38.08000 280.854
38.09000 279.869
38.10000 279.479
38.11000 279.082
38.12000 278.640
38.13000 278.189
38.14000 278.282
38.15000 280.827
38.16000 283.670
38.17000 285.843
38.18000 286.910
38.19000 287.692
38.20000 289.241
38.21000 292.383
38.22000 295.575
38.23000 300.438
38.24000 307.654
38.25000 314.884
38.26000 317.037
38.27000 314.517
38.28000 312.060
38.29000 313.912
38.30000 318.399
38.31000 322.778
38.32000 324.678
38.33000 325.543
38.34000 326.353
38.35000 334.256
38.36000 343.280
38.37000 351.741
38.38000 356.336
38.39000 360.200
38.40000 365.528
38.41000 377.356
38.42000 389.958
38.43000 399.555
38.44000 396.186
38.45000 392.851
38.46000 398.985
38.47000 424.504
38.48000 450.600
38.49000 464.206
38.50000 460.498
38.51000 456.679
38.52000 457.847
38.53000 463.522
38.54000 469.101
38.55000 468.272
38.56000 463.583
38.57000 459.240
38.58000 462.589
38.59000 469.101
38.60000 475.190
38.61000 475.210
38.62000 473.682
38.63000 471.812
38.64000 467.637
38.65000 463.032
38.66000 459.325
38.67000 459.539
38.68000 460.211
38.69000 460.720
38.70000 458.272
38.71000 456.198
38.72000 452.410
38.73000 445.169
38.74000 437.828
38.75000 429.202
38.76000 418.822
38.77000 408.436
38.78000 397.210
38.79000 385.249
38.80000 373.314
38.81000 362.918
38.82000 353.436
38.83000 344.200
38.84000 340.264
38.85000 338.476
38.86000 336.807
38.87000 333.969
38.88000 331.104
38.89000 327.290
38.90000 317.205
38.91000 305.970
38.92000 297.138
38.93000 298.639
38.94000 301.325
38.95000 303.354
38.96000 297.046
38.97000 291.684
38.98000 288.225
38.99000 288.551
39.00000 288.981
39.01000 286.855
39.02000 281.296
39.03000 275.721
39.04000 276.817
39.05000 283.745
39.06000 290.496
39.07000 286.764
39.08000 276.900
39.09000 267.345
39.10000 264.243
39.11000 263.718
39.12000 263.229
39.13000 268.269
39.14000 274.193
39.15000 279.088
39.16000 277.300
39.17000 274.307
39.18000 270.093
39.19000 260.705
39.20000 250.736
39.21000 243.233
39.22000 248.011
39.23000 252.347
39.24000 254.387
39.25000 251.930
39.26000 249.354
39.27000 250.053
39.28000 255.087
39.29000 260.139
39.30000 261.651
39.31000 260.117
39.32000 258.513
39.33000 252.966
39.34000 245.148
39.35000 237.798
39.36000 239.953
39.37000 245.850
39.38000 251.337
39.39000 248.402
39.40000 243.711
39.41000 239.356
39.42000 237.150
39.43000 235.324
39.44000 234.885
39.45000 240.226
39.46000 246.204
39.47000 250.685
39.48000 248.052
39.49000 245.661
39.50000 242.625
39.51000 238.345
39.52000 234.033
39.53000 233.433
39.54000 237.670
39.55000 241.923
39.56000 245.153
39.57000 247.509
39.58000 249.797
39.59000 248.462
39.60000 245.068
39.61000 241.897
39.62000 243.123
39.63000 246.056
39.64000 248.779
39.65000 245.164
39.66000 240.393
39.67000 236.422
39.68000 237.467
39.69000 239.386
39.70000 240.297
39.71000 237.071
39.72000 233.398
39.73000 230.656
39.74000 234.836
39.75000 238.411
39.76000 242.032
39.77000 245.742
39.78000 249.454
39.79000 248.517
39.80000 241.619
39.81000 234.706
39.82000 235.056
39.83000 241.452
39.84000 247.680
39.85000 245.466
39.86000 238.529
39.87000 231.857
39.88000 230.243
39.89000 230.565
39.90000 230.864
39.91000 229.333
39.92000 227.526
39.93000 226.039
39.94000 226.522
39.95000 227.342
39.96000 228.385
39.97000 230.332
39.98000 232.375
39.99000 233.893
40.00000 235.246
40.01000 236.291
40.02000 235.948
40.03000 233.002
40.04000 229.995
40.05000 228.470
40.06000 228.816
40.07000 229.168
40.08000 233.094
40.09000 239.932
40.10000 246.631
40.11000 246.667
40.12000 243.027
40.13000 239.656
40.14000 241.267
40.15000 244.756
40.16000 247.986
40.17000 245.842
40.18000 242.678
40.19000 239.681
40.20000 237.702
40.21000 235.894
40.22000 234.572
40.23000 235.184
40.24000 235.997
40.25000 236.599
40.26000 231.373
40.27000 227.065
40.28000 224.591
40.29000 225.510
40.30000 226.503
40.31000 228.226
40.32000 230.859
40.33000 233.490
40.34000 233.128
40.35000 230.358
40.36000 227.621
40.37000 226.425
40.38000 226.068
40.39000 225.851
40.40000 228.179
40.41000 231.454
40.42000 234.479
40.43000 235.526
40.44000 236.018
40.45000 236.132
40.46000 233.998
40.47000 231.492
40.48000 230.122
40.49000 233.213
40.50000 236.757
40.51000 239.371
40.52000 236.360
40.53000 233.791
40.54000 232.558
40.55000 233.758
40.56000 235.008
40.57000 235.193
40.58000 234.073
40.59000 232.952
40.60000 229.693
40.61000 224.756
40.62000 219.891
40.63000 218.213
40.64000 218.240
40.65000 218.509
40.66000 223.019
40.67000 229.083
40.68000 234.676
40.69000 236.968
40.70000 238.288
40.71000 238.920
40.72000 235.526
40.73000 231.476
40.74000 226.943
40.75000 220.542
40.76000 213.955
40.77000 209.119
40.78000 221.055
40.79000 230.964
40.80000 234.379
40.81000 226.135
40.82000 217.656
40.83000 219.612
40.84000 234.130
40.85000 248.645
40.86000 249.022
40.87000 238.380
40.88000 227.900
40.89000 224.216
40.90000 224.117
40.91000 224.154
40.92000 226.500
40.93000 229.681
40.94000 232.610
40.95000 227.954
40.96000 222.131
40.97000 217.464
40.98000 219.464
40.99000 222.532
41.00000 224.659
41.01000 223.208
41.02000 221.408
41.03000 220.092
41.04000 218.352
41.05000 216.993
41.06000 216.717
41.07000 218.354
41.08000 220.028
41.09000 219.522
41.10000 216.434
41.11000 213.349
41.12000 212.848
41.13000 214.331
41.14000 215.864
41.15000 219.406
41.16000 223.994
41.17000 228.269
41.18000 227.345
41.19000 224.572
41.20000 222.023
41.21000 224.816
41.22000 228.458
41.23000 231.319
41.24000 229.755
41.25000 227.494
41.26000 224.542
41.27000 219.002
41.28000 213.214
41.29000 209.000
41.30000 207.089
41.31000 205.706
41.32000 206.609
41.33000 211.495
41.34000 216.454
41.35000 219.326
41.36000 219.764
41.37000 220.198
41.38000 216.718
41.39000 210.308
41.40000 204.012
41.41000 202.099
41.42000 202.433
41.43000 203.092
41.44000 209.019
41.45000 216.794
41.46000 223.926
41.47000 220.250
41.48000 214.690
41.49000 209.829
41.50000 208.869
41.51000 208.512
41.52000 208.680
41.53000 210.789
41.54000 213.079
41.55000 214.739
41.56000 216.090
41.57000 217.116
41.58000 219.345
41.59000 223.641
41.60000 227.971
41.61000 227.473
41.62000 221.436
41.63000 215.410
41.64000 216.002
41.65000 221.500
41.66000 226.807
41.67000 225.056
41.68000 219.740
41.69000 214.886
41.70000 217.330
41.71000 222.297
41.72000 226.844
41.73000 222.197
41.74000 216.152
41.75000 211.134
41.76000 211.752
41.77000 213.226
41.78000 213.922
41.79000 211.791
41.80000 209.402
41.81000 207.678
41.82000 205.339
41.83000 203.523
41.84000 204.005
41.85000 208.376
41.86000 212.811
41.87000 215.538
41.88000 216.339
41.89000 217.134
41.90000 214.558
41.91000 209.541
41.92000 204.719
41.93000 206.813
41.94000 212.350
41.95000 217.424
41.96000 215.372
41.97000 210.893
41.98000 206.800
41.99000 209.333
42.00000 212.937
42.01000 216.065
42.02000 216.631
42.03000 216.814
42.04000 217.400
42.05000 219.432
42.06000 221.593
42.07000 223.146
42.08000 215.902
42.09000 210.053
42.10000 208.106
42.11000 212.662
42.12000 217.319
42.13000 218.898
42.14000 217.062
42.15000 215.229
42.16000 213.985
42.17000 213.175
42.18000 212.303
42.19000 209.373
42.20000 205.433
42.21000 201.706
42.22000 201.193
42.23000 201.759
42.24000 202.275
42.25000 203.246
42.26000 204.198
42.27000 205.487
42.28000 208.566
42.29000 211.907
42.30000 214.540
42.31000 214.673
42.32000 214.588
42.33000 214.527
42.34000 211.773
42.35000 209.581
42.36000 207.004
42.37000 203.797
42.38000 200.580
42.39000 201.322
42.40000 206.385
42.41000 211.431
42.42000 211.359
42.43000 207.670
42.44000 204.091
42.45000 204.122
42.46000 205.898
42.47000 207.595
42.48000 208.123
42.49000 208.264
42.50000 208.392
42.51000 206.664
42.52000 204.768
42.53000 203.480
42.54000 205.371
42.55000 207.719
42.56000 210.179
42.57000 213.026
42.58000 215.907
42.59000 217.959
42.60000 204.227
42.61000 193.250
42.62000 191.789
42.63000 205.725
42.64000 219.873
42.65000 225.428
42.66000 221.753
42.67000 218.092
42.68000 217.226
42.69000 218.314
42.70000 219.416
42.71000 220.953
42.72000 222.698
42.73000 224.043
42.74000 219.685
42.75000 213.467
42.76000 207.820
42.77000 206.901
42.78000 207.006
42.79000 207.317
42.80000 208.689
42.81000 210.212
42.82000 211.886
42.83000 214.079
42.84000 216.315
42.85000 217.901
42.86000 207.181
42.87000 198.644
42.88000 195.852
42.89000 202.222
42.90000 208.711
42.91000 210.947
42.92000 208.692
42.93000 206.447
42.94000 206.633
42.95000 208.480
42.96000 210.350
42.97000 212.936
42.98000 215.858
42.99000 218.516
43.00000 217.492
43.01000 215.285
43.02000 213.284
43.03000 212.421
43.04000 211.877
43.05000 210.829
43.06000 207.231
43.07000 203.278
43.08000 201.372
43.09000 206.373
43.10000 211.939
43.11000 215.867
43.12000 209.814
43.13000 204.918
43.14000 203.319
43.15000 206.898
43.16000 210.540
43.17000 213.015
43.18000 214.275
43.19000 215.530
43.20000 214.516
43.21000 211.987
43.22000 209.560
43.23000 210.115
43.24000 212.051
43.25000 213.805
43.26000 213.084
43.27000 211.580
43.28000 210.219
43.29000 207.830
43.30000 205.534
43.31000 204.218
43.32000 207.775
43.33000 211.996
43.34000 214.091
43.35000 209.111
43.36000 203.565
43.37000 199.670
43.38000 198.363
43.39000 197.449
43.40000 198.939
43.41000 204.150
43.42000 209.402
43.43000 210.631
43.44000 207.751
43.45000 204.886
43.46000 205.759
43.47000 209.096
43.48000 212.375
43.49000 214.008
43.50000 214.889
43.51000 215.464
43.52000 211.956
43.53000 207.175
43.54000 202.859
43.55000 200.338
43.56000 198.452
43.57000 197.559
43.58000 201.524
43.59000 206.139
43.60000 210.645
43.61000 214.788
43.62000 218.903
43.63000 221.779
43.64000 212.982
43.65000 206.004
43.66000 204.877
43.67000 212.667
43.68000 220.550
43.69000 219.733
43.70000 210.176
43.71000 200.678
43.72000 197.672
43.73000 198.941
43.74000 200.154
43.75000 199.851
43.76000 198.866
43.77000 198.088
43.78000 200.003
43.79000 202.746
43.80000 205.216
43.81000 208.603
43.82000 211.739
43.83000 213.636
43.84000 209.565
43.85000 204.710
43.86000 202.240
43.87000 207.476
43.88000 213.300
43.89000 217.352
43.90000 207.167
43.91000 199.100
43.92000 196.104
43.93000 200.719
43.94000 205.410
43.95000 208.819
43.96000 210.962
43.97000 213.091
43.98000 208.156
43.99000 198.764
44.00000 189.812
44.01000 192.486
44.02000 200.313
44.03000 207.765
44.04000 210.452
44.05000 211.696
44.06000 212.815
44.07000 210.913
44.08000 208.710
44.09000 206.131
44.10000 201.765
44.11000 197.168
44.12000 196.106
44.13000 206.298
44.14000 217.327
44.15000 224.964
44.16000 218.690
44.17000 213.604
44.18000 209.891
44.19000 208.207
44.20000 206.542
44.21000 206.075
44.22000 206.770
44.23000 207.460
44.24000 208.533
44.25000 209.832
44.26000 211.162
44.27000 213.328
44.28000 215.859
44.29000 218.235
44.30000 218.698
44.31000 218.589
44.32000 218.492
44.33000 214.451
44.34000 210.231
44.35000 207.460
44.36000 211.453
44.37000 216.303
44.38000 220.654
44.39000 223.443
44.40000 226.119
44.41000 227.963
44.42000 228.950
44.43000 229.669
44.44000 230.086
44.45000 230.063
44.46000 230.036
44.47000 232.076
44.48000 236.089
44.49000 240.072
44.50000 245.798
44.51000 252.510
44.52000 258.958
44.53000 258.879
44.54000 255.990
44.55000 253.764
44.56000 259.576
44.57000 267.752
44.58000 275.070
44.59000 289.082
44.60000 302.455
44.61000 313.974
44.62000 316.978
44.63000 318.923
44.64000 322.554
44.65000 331.397
44.66000 340.609
44.67000 346.927
44.68000 348.130
44.69000 348.907
44.70000 355.880
44.71000 371.742
44.72000 387.671
44.73000 396.922
44.74000 399.900
44.75000 402.854
44.76000 408.667
44.77000 416.124
44.78000 423.798
44.79000 436.674
44.80000 451.757
44.81000 465.603
44.82000 464.813
44.83000 459.784
44.84000 455.291
44.85000 459.563
44.86000 464.759
44.87000 469.343
44.88000 471.166
44.89000 472.651
44.90000 473.291
44.91000 471.353
44.92000 469.237
44.93000 467.793
44.94000 470.112
44.95000 471.934
44.96000 467.813
44.97000 455.296
44.98000 442.723
44.99000 439.685
45.00000 445.453
45.01000 451.172
45.02000 451.773
45.03000 449.282
45.04000 446.501
45.05000 436.977
45.06000 424.632
45.07000 413.345
45.08000 414.298
45.09000 418.745
45.10000 422.708
45.11000 417.013
45.12000 410.465
45.13000 402.748
45.14000 389.825
45.15000 376.280
45.16000 365.102
45.17000 361.031
45.18000 357.439
45.19000 355.000
45.20000 351.164
45.21000 348.270
45.22000 342.453
45.23000 332.570
45.24000 322.663
45.25000 316.987
45.26000 315.154
45.27000 313.339
45.28000 315.304
45.29000 319.470
45.30000 323.260
45.31000 318.645
45.32000 310.563
45.33000 302.890
45.34000 299.849
45.35000 298.109
45.36000 296.563
45.37000 290.410
45.38000 284.323
45.39000 279.764
45.40000 281.898
45.41000 284.817
45.42000 285.607
45.43000 280.099
45.44000 274.178
45.45000 270.177
45.46000 265.027
45.47000 261.169
45.48000 258.534
45.49000 257.574
45.50000 256.624
45.51000 255.049
45.52000 252.914
45.53000 250.801
45.54000 245.175
45.55000 237.619
45.56000 230.466
45.57000 232.057
45.58000 237.202
45.59000 242.041
45.60000 243.486
45.61000 243.992
45.62000 244.441
45.63000 241.359
45.64000 238.126
45.65000 235.594
45.66000 236.083
45.67000 236.920
45.68000 235.771
45.69000 228.833
45.70000 221.525
45.71000 216.612
45.72000 215.432
45.73000 214.631
45.74000 213.016
45.75000 210.302
45.76000 207.580
45.77000 203.095
45.78000 197.062
45.79000 191.091
45.80000 195.099
45.81000 204.744
45.82000 214.025
45.83000 215.656
45.84000 214.221
45.85000 212.323
45.86000 205.412
45.87000 197.132
45.88000 189.804
45.89000 195.543
45.90000 202.549
45.91000 208.347
45.92000 209.009
45.93000 209.092
45.94000 208.671
45.95000 206.807
45.96000 204.852
45.97000 203.545
45.98000 204.662
45.99000 205.539
46.00000 205.727
46.01000 205.001
46.02000 204.270
46.03000 203.163
46.04000 201.730
46.05000 200.313
46.06000 197.799
46.07000 194.724
46.08000 191.745
46.09000 190.732
46.10000 190.497
46.11000 190.236
46.12000 189.714
46.13000 189.121
46.14000 188.598
46.15000 189.867
46.16000 191.237
46.17000 192.206
46.18000 191.495
46.19000 190.598
46.20000 189.288
46.21000 186.806
46.22000 184.253
46.23000 182.555
46.24000 187.299
46.25000 190.929
46.26000 191.939
46.27000 189.522
46.28000 187.089
46.29000 184.408
46.30000 181.514
46.31000 178.653
46.32000 178.999
46.33000 181.116
46.34000 183.025
46.35000 180.779
46.36000 176.915
46.37000 173.410
46.38000 173.632
46.39000 174.841
46.40000 175.906
46.41000 177.755
46.42000 179.466
46.43000 180.892
46.44000 181.138
46.45000 181.257
46.46000 180.703
46.47000 178.269
46.48000 175.724
46.49000 174.039
46.50000 174.242
46.51000 174.426
46.52000 176.905
46.53000 182.339
46.54000 187.769
46.55000 185.173
46.56000 175.856
46.57000 166.654
46.58000 165.231
46.59000 168.099
46.60000 170.740
46.61000 169.009
46.62000 165.602
46.63000 163.032
46.64000 168.966
46.65000 177.119
46.66000 184.284
46.67000 178.144
46.68000 170.895
46.69000 165.672
46.70000 168.670
46.71000 172.541
46.72000 175.952
46.73000 178.093
46.74000 180.162
46.75000 181.523
46.76000 183.305
46.77000 184.625
46.78000 183.619
46.79000 179.665
46.80000 175.705
46.81000 173.413
46.82000 172.497
46.83000 171.593
46.84000 170.830
46.85000 170.164
46.86000 169.502
46.87000 168.912
46.88000 168.349
46.89000 168.053
46.90000 170.412
46.91000 173.454
46.92000 176.121
46.93000 177.989
46.94000 179.476
46.95000 180.790
46.96000 181.414
46.97000 181.966
46.98000 181.162
46.99000 176.682
47.00000 171.995
47.01000 168.927
47.02000 170.424
47.03000 171.599
47.04000 172.919
47.05000 174.421
47.06000 175.917
47.07000 175.226
47.08000 172.761
47.09000 170.330
47.10000 169.983
47.11000 170.748
47.12000 171.483
47.13000 171.645
47.14000 171.594
47.15000 171.480
47.16000 170.759
47.17000 169.883
47.18000 169.117
47.19000 175.202
47.20000 181.393
47.21000 185.540
47.22000 181.643
47.23000 176.925
47.24000 172.983
47.25000 171.117
47.26000 169.363
47.27000 168.221
47.28000 169.620
47.29000 170.686
47.30000 169.719
47.31000 166.256
47.32000 162.790
47.33000 160.424
47.34000 158.935
47.35000 157.467
47.36000 163.504
47.37000 173.278
47.38000 182.462
47.39000 181.184
47.40000 176.062
47.41000 171.526
47.42000 172.583
47.43000 175.034
47.44000 177.172
47.45000 178.134
47.46000 178.791
47.47000 179.201
47.48000 178.647
47.49000 177.997
47.50000 176.846
47.51000 174.375
47.52000 171.834
47.53000 170.189
47.54000 164.457
47.55000 160.203
47.56000 159.487
47.57000 163.046
47.58000 166.612
47.59000 169.459
47.60000 171.741
47.61000 173.989
47.62000 172.751
47.63000 169.763
47.64000 166.893
47.65000 166.059
47.66000 165.963
47.67000 165.941
47.68000 166.613
47.69000 167.456
47.70000 168.189
47.71000 170.965
47.72000 173.614
47.73000 176.240
47.74000 178.775
47.75000 181.301
47.76000 181.249
47.77000 174.505
47.78000 167.415
47.79000 162.850
47.80000 163.908
47.81000 164.760
47.82000 165.002
47.83000 164.518
47.84000 164.039
47.85000 165.058
47.86000 167.238
47.87000 169.382
47.88000 170.808
47.89000 171.826
47.90000 172.903
47.91000 174.959
47.92000 177.364
47.93000 179.355
47.94000 177.548
47.95000 174.823
47.96000 172.457
47.97000 167.927
47.98000 163.775
47.99000 161.050
48.00000 163.693
48.01000 166.851
48.02000 170.029
48.03000 173.262
48.04000 176.497
48.05000 178.568
48.06000 176.647
48.07000 175.194
48.08000 174.052
48.09000 173.274
48.10000 172.495
48.11000 171.407
48.12000 170.085
48.13000 168.784
48.14000 165.457
48.15000 161.232
48.16000 157.415
48.17000 160.283
48.18000 165.502
48.19000 170.692
48.20000 175.620
48.21000 180.485
48.22000 184.698
48.23000 181.373
48.24000 177.548
48.25000 173.784
48.26000 170.242
48.27000 166.722
48.28000 163.550
48.29000 161.258
48.30000 159.008
48.31000 157.576
48.32000 162.252
48.33000 165.728
48.34000 167.415
48.35000 167.041
48.36000 166.656
48.37000 164.455
48.38000 160.891
48.39000 157.390
48.40000 161.420
48.41000 169.000
48.42000 176.193
48.43000 177.228
48.44000 176.129
48.45000 174.821
48.46000 171.662
48.47000 168.070
48.48000 164.967
48.49000 166.880
48.50000 169.154
48.51000 171.002
48.52000 171.290
48.53000 171.436
48.54000 169.570
48.55000 162.705
48.56000 155.605
48.57000 151.110
48.58000 160.425
48.59000 167.345
48.60000 170.479
48.61000 169.325
48.62000 168.152
48.63000 164.447
48.64000 158.872
48.65000 153.398
48.66000 158.179
48.67000 167.730
48.68000 176.617
48.69000 175.211
48.70000 170.289
48.71000 165.458
48.72000 161.414
48.73000 157.552
48.74000 154.225
48.75000 161.425
48.76000 168.865
48.77000 173.477
48.78000 167.922
48.79000 161.454
48.80000 158.485
48.81000 164.088
48.82000 170.083
48.83000 173.857
48.84000 167.629
48.85000 163.010
48.86000 160.005
48.87000 158.797
48.88000 157.618
48.89000 161.004
48.90000 167.708
48.91000 174.284
48.92000 176.339
48.93000 176.176
48.94000 175.875
48.95000 173.494
48.96000 170.413
48.97000 167.691
48.98000 168.006
48.99000 169.012
49.00000 169.876
49.01000 171.225
49.02000 172.427
49.03000 173.466
49.04000 173.929
49.05000 174.341
49.06000 174.131
49.07000 172.417
49.08000 170.637
49.09000 169.522
49.10000 171.214
49.11000 172.464
49.12000 169.808
49.13000 162.871
49.14000 155.978
49.15000 156.051
49.16000 161.112
49.17000 166.071
49.18000 169.022
49.19000 170.923
49.20000 172.577
49.21000 170.583
49.22000 167.379
49.23000 164.306
49.24000 162.324
49.25000 160.588
49.26000 159.099
49.27000 163.130
49.28000 167.208
49.29000 170.628
49.30000 171.753
49.31000 172.681
49.32000 174.298
49.33000 177.559
49.34000 180.890
49.35000 182.963
49.36000 170.308
49.37000 161.045
49.38000 161.006
49.39000 170.910
49.40000 180.758
49.41000 182.664
49.42000 178.970
49.43000 175.353
49.44000 173.003
49.45000 171.328
49.46000 169.676
49.47000 168.355
49.48000 167.143
49.49000 165.926
49.50000 164.671
49.51000 163.407
49.52000 162.327
49.53000 161.889
49.54000 161.596
49.55000 160.851
49.56000 158.556
49.57000 156.131
49.58000 155.781
49.59000 160.299
49.60000 165.020
49.61000 167.940
49.62000 166.592
49.63000 165.583
49.64000 161.302
49.65000 153.551
49.66000 145.849
49.67000 144.412
49.68000 147.324
49.69000 150.173
49.70000 156.700
49.71000 164.626
49.72000 171.893
49.73000 169.913
49.74000 164.953
49.75000 160.825
49.76000 163.351
49.77000 167.319
49.78000 170.702
49.79000 169.750
49.80000 168.441
49.81000 166.723
49.82000 163.622
49.83000 160.409
49.84000 157.578
49.85000 155.632
49.86000 153.723
49.87000 152.549
49.88000 156.116
49.89000 158.715
49.90000 162.393
49.91000 167.195
49.92000 171.993
49.93000 176.200
49.94000 180.003
49.95000 183.721
49.96000 184.389
49.97000 183.673
49.98000 182.959
49.99000 182.283
50.00000 181.621
50.01000 180.417
50.02000 174.966
50.03000 168.609
50.04000 163.204
50.05000 166.415
50.06000 170.102
50.07000 173.632
50.08000 176.639
50.09000 179.603
50.10000 180.431
50.11000 176.390
50.12000 172.160
50.13000 169.576
50.14000 169.934
50.15000 170.215
50.16000 173.085
50.17000 178.612
50.18000 184.084
50.19000 183.742
50.20000 179.484
50.21000 175.326
50.22000 177.931
50.23000 183.385
50.24000 188.679
50.25000 191.840
50.26000 194.334
50.27000 196.923
50.28000 200.252
50.29000 203.737
50.30000 206.691
50.31000 202.036
50.32000 197.278
50.33000 194.382
50.34000 197.615
50.35000 201.328
50.36000 204.516
50.37000 206.525
50.38000 208.489
50.39000 209.681
50.40000 226.714
50.41000 238.990
50.42000 243.240
50.43000 239.399
50.44000 235.606
50.45000 236.663
50.46000 240.936
50.47000 245.104
50.48000 247.758
50.49000 249.641
50.50000 251.736
50.51000 256.605
50.52000 262.328
50.53000 267.368
50.54000 267.238
50.55000 266.039
50.56000 265.025
50.57000 268.443
50.58000 271.792
50.59000 273.174
50.60000 268.177
50.61000 262.692
50.62000 256.552
50.63000 248.964
50.64000 241.323
50.65000 236.712
50.66000 238.997
50.67000 240.672
50.68000 241.857
50.69000 242.555
50.70000 243.210
50.71000 239.855
50.72000 233.880
50.73000 228.056
50.74000 226.923
50.75000 227.832
50.76000 228.416
50.77000 224.853
50.78000 220.030
50.79000 215.478
50.80000 212.930
50.81000 210.791
50.82000 208.987
50.83000 208.811
50.84000 208.840
50.85000 208.283
50.86000 205.853
50.87000 203.283
50.88000 200.416
50.89000 196.901
50.90000 193.363
50.91000 191.242
50.92000 194.226
50.93000 196.379
50.94000 193.111
50.95000 184.562
50.96000 176.079
50.97000 173.364
50.98000 174.362
50.99000 175.334
51.00000 173.297
51.01000 170.099
51.02000 167.344
51.03000 170.094
51.04000 174.493
51.05000 178.186
51.06000 176.727
51.07000 174.238
51.08000 172.144
51.09000 167.499
51.10000 163.356
51.11000 162.268
51.12000 170.792
51.13000 180.018
51.14000 184.104
51.15000 177.132
51.16000 169.786
51.17000 165.410
51.18000 159.901
51.19000 155.991
51.20000 157.014
51.21000 162.764
51.22000 168.430
51.23000 167.266
51.24000 161.770
51.25000 156.425
51.26000 154.590
51.27000 154.287
51.28000 153.891
51.29000 152.365
51.30000 150.506
51.31000 149.315
51.32000 152.915
51.33000 157.459
51.34000 161.269
51.35000 157.849
51.36000 154.253
51.37000 152.454
51.38000 156.225
51.39000 160.392
51.40000 162.805
51.41000 161.495
51.42000 160.064
51.43000 159.217
51.44000 154.157
51.45000 150.558
51.46000 150.271
51.47000 153.106
51.48000 155.948
51.49000 159.294
51.50000 162.957
51.51000 166.515
51.52000 162.090
51.53000 154.655
51.54000 147.583
51.55000 144.822
51.56000 143.315
51.57000 142.511
51.58000 146.657
51.59000 151.763
51.60000 156.031
51.61000 154.433
51.62000 152.509
51.63000 151.363
51.64000 152.593
51.65000 153.989
51.66000 155.013
51.67000 155.261
51.68000 155.484
51.69000 155.615
51.70000 156.114
51.71000 156.468
51.72000 156.807
51.73000 157.133
51.74000 157.469
51.75000 158.477
51.76000 159.900
51.77000 161.281
51.78000 158.242
51.79000 153.599
51.80000 149.519
51.81000 151.978
51.82000 156.309
51.83000 159.470
51.84000 154.541
51.85000 148.069
51.86000 142.676
51.87000 148.111
51.88000 153.693
51.89000 156.982
51.90000 153.367
51.91000 149.284
51.92000 147.008
51.93000 148.452
51.94000 150.009
51.95000 150.919
51.96000 147.476
51.97000 145.035
51.98000 144.896
51.99000 146.854
52.00000 148.787
52.01000 148.963
52.02000 148.074
52.03000 147.211
52.04000 147.974
52.05000 149.333
52.06000 150.375
52.07000 147.810
52.08000 144.228
52.09000 141.381
52.10000 143.532
52.11000 146.621
52.12000 149.187
52.13000 151.700
52.14000 153.774
52.15000 154.155
52.16000 149.514
52.17000 144.540
52.18000 140.681
52.19000 139.088
52.20000 137.560
52.21000 136.674
52.22000 141.095
52.23000 144.220
52.24000 146.629
52.25000 148.396
52.26000 150.104
52.27000 148.028
52.28000 143.693
52.29000 139.494
52.30000 136.607
52.31000 134.382
52.32000 132.377
52.33000 132.808
52.34000 133.916
52.35000 135.045
52.36000 136.306
52.37000 137.592
52.38000 138.657
52.39000 140.135
52.40000 141.395
52.41000 142.579
52.42000 143.543
52.43000 144.493
52.44000 145.569
52.45000 146.895
52.46000 148.228
52.47000 148.997
52.48000 145.699
52.49000 143.376
52.50000 143.044
52.51000 144.470
52.52000 145.896
52.53000 147.415
52.54000 148.989
52.55000 150.511
52.56000 149.775
52.57000 148.223
52.58000 146.554
52.59000 143.612
52.60000 140.321
52.61000 137.571
52.62000 138.357
52.63000 139.785
52.64000 140.965
52.65000 145.176
52.66000 148.929
52.67000 151.975
52.68000 152.987
52.69000 153.871
52.70000 153.566
52.71000 150.917
52.72000 148.205
52.73000 146.653
52.74000 147.301
52.75000 147.758
52.76000 144.671
52.77000 138.510
52.78000 132.472
52.79000 133.534
52.80000 138.713
52.81000 143.717
52.82000 144.577
52.83000 143.840
52.84000 143.194
52.85000 143.524
52.86000 144.117
52.87000 144.798
52.88000 146.040
52.89000 147.383
52.90000 148.488
52.91000 145.887
52.92000 143.409
52.93000 143.675
52.94000 151.736
52.95000 160.274
52.96000 164.969
52.97000 162.196
52.98000 159.231
52.99000 157.545
53.00000 150.665
53.01000 145.859
53.02000 143.202
53.03000 142.379
53.04000 141.583
53.05000 142.182
53.06000 143.579
53.07000 144.927
53.08000 149.414
53.09000 154.795
53.10000 159.615
53.11000 158.599
53.12000 156.033
53.13000 154.004
53.14000 155.377
53.15000 157.347
53.16000 158.965
53.17000 157.949
53.18000 156.880
53.19000 155.151
53.20000 151.571
53.21000 147.881
53.22000 144.427
53.23000 141.422
53.24000 138.428
53.25000 136.738
53.26000 140.111
53.27000 142.470
53.28000 145.740
53.29000 149.774
53.30000 153.743
53.31000 154.349
53.32000 153.063
53.33000 151.823
53.34000 148.299
53.35000 144.158
53.36000 140.763
53.37000 144.981
53.38000 151.191
53.39000 156.174
53.40000 153.533
53.41000 149.576
53.42000 146.337
53.43000 146.548
53.44000 147.023
53.45000 147.329
53.46000 147.169
53.47000 146.982
53.48000 146.440
53.49000 145.228
53.50000 143.999
53.51000 143.311
53.52000 143.303
53.53000 143.298
53.54000 142.776
53.55000 141.826
53.56000 140.866
53.57000 139.453
53.58000 137.789
53.59000 136.186
53.60000 136.112
53.61000 136.586
53.62000 137.267
53.63000 140.017
53.64000 143.300
53.65000 146.586
53.66000 149.896
53.67000 153.209
53.68000 155.912
53.69000 151.509
53.70000 147.300
53.71000 145.050
53.72000 148.125
53.73000 151.501
53.74000 152.747
53.75000 150.030
53.76000 147.224
53.77000 145.662
53.78000 147.252
53.79000 148.354
53.80000 147.794
53.81000 145.882
53.82000 144.003
53.83000 143.645
53.84000 144.120
53.85000 144.577
53.86000 142.834
53.87000 140.430
53.88000 138.179
53.89000 137.433
53.90000 137.068
53.91000 136.895
53.92000 137.870
53.93000 139.036
53.94000 139.984
53.95000 141.238
53.96000 142.287
53.97000 143.917
53.98000 147.107
53.99000 150.383
54.00000 149.362
54.01000 140.465
54.02000 131.399
54.03000 126.389
54.04000 133.810
54.05000 138.949
54.06000 143.252
54.07000 146.884
54.08000 150.496
54.09000 153.162
54.10000 155.318
54.11000 157.390
54.12000 153.135
54.13000 146.970
54.14000 141.480
54.15000 142.468
54.16000 145.076
54.17000 147.004
54.18000 144.911
54.19000 142.158
54.20000 139.927
54.21000 139.384
54.22000 139.080
54.23000 139.317
54.24000 140.985
54.25000 142.729
54.26000 145.452
54.27000 149.943
54.28000 154.470
54.29000 156.953
54.30000 153.695
54.31000 151.439
54.32000 147.615
54.33000 142.554
54.34000 137.642
54.35000 139.090
54.36000 143.914
54.37000 148.542
54.38000 148.014
54.39000 145.770
54.40000 143.746
54.41000 143.782
54.42000 144.327
54.43000 145.042
54.44000 146.746
54.45000 148.611
54.46000 150.117
54.47000 146.381
54.48000 142.924
54.49000 139.057
54.50000 134.124
54.51000 129.135
54.52000 127.841
54.53000 133.126
54.54000 138.538
54.55000 141.485
54.56000 143.192
54.57000 144.356
54.58000 143.857
54.59000 142.068
54.60000 140.385
54.61000 143.025
54.62000 147.927
54.63000 152.625
54.64000 151.462
54.65000 148.420
54.66000 145.848
54.67000 147.606
54.68000 150.413
54.69000 152.463
54.70000 150.181
54.71000 147.213
54.72000 144.822
54.73000 143.853
54.74000 143.177
54.75000 142.637
54.76000 142.446
54.77000 142.273
54.78000 142.378
54.79000 142.970
54.80000 143.571
54.81000 143.896
54.82000 148.707
54.83000 151.985
54.84000 150.964
54.85000 146.656
54.86000 142.464
54.87000 142.844
54.88000 145.583
54.89000 148.203
54.90000 148.708
54.91000 148.483
54.92000 148.455
54.93000 150.204
54.94000 152.377
54.95000 153.020
54.96000 145.062
54.97000 135.765
54.98000 128.303
54.99000 135.297
55.00000 142.066
55.01000 146.523
55.02000 145.133
55.03000 143.457
55.04000 143.830
55.05000 147.747
55.06000 151.726
55.07000 153.860
55.08000 151.193
55.09000 149.361
55.10000 146.334
55.11000 142.406
55.12000 138.792
55.13000 146.940
55.14000 161.067
55.15000 174.567
55.16000 170.717
55.17000 161.524
55.18000 153.400
55.19000 154.739
55.20000 158.305
55.21000 161.749
55.22000 164.524
55.23000 167.196
55.24000 169.334
55.25000 166.991
55.26000 164.763
55.27000 165.951
55.28000 175.658
55.29000 185.770
55.30000 191.762
55.31000 190.737
55.32000 189.595
55.33000 188.987
55.34000 197.083
55.35000 202.580
55.36000 204.208
55.37000 202.969
55.38000 201.789
55.39000 202.723
55.40000 204.716
55.41000 206.618
55.42000 218.171
55.43000 231.972
55.44000 244.997
55.45000 251.294
55.46000 256.033
55.47000 262.687
55.48000 279.749
55.49000 298.377
55.50000 313.229
55.51000 315.995
55.52000 317.347
55.53000 323.428
55.54000 341.135
55.55000 359.376
55.56000 375.653
55.57000 388.634
55.58000 401.563
55.59000 408.391
55.60000 426.675
55.61000 439.110
55.62000 453.690
55.63000 469.835
55.64000 485.823
55.65000 496.349
55.66000 504.178
55.67000 511.640
55.68000 512.907
55.69000 512.143
55.70000 511.781
55.71000 514.843
55.72000 518.686
55.73000 521.101
55.74000 515.888
55.75000 509.547
55.76000 504.510
55.77000 500.561
55.78000 497.459
55.79000 495.275
55.80000 495.313
55.81000 495.450
55.82000 490.893
55.83000 478.576
55.84000 466.142
55.85000 459.628
55.86000 439.674
55.87000 426.184
55.88000 416.974
55.89000 410.837
55.90000 404.670
55.91000 397.512
55.92000 389.872
55.93000 382.600
55.94000 375.142
55.95000 368.183
55.96000 361.310
55.97000 355.163
55.98000 349.180
55.99000 341.622
56.00000 325.785
56.01000 308.747
56.02000 295.255
56.03000 288.976
56.04000 284.428
56.05000 277.806
56.06000 266.231
56.07000 254.441
56.08000 247.759
56.09000 249.396
56.10000 251.151
56.11000 252.063
56.12000 243.927
56.13000 238.419
56.14000 231.447
56.15000 223.439
56.16000 215.589
56.17000 212.778
56.18000 212.383
56.19000 212.008
56.20000 212.138
56.21000 212.412
56.22000 211.830
56.23000 204.238
56.24000 195.097
56.25000 187.151
56.26000 185.388
56.27000 184.506
56.28000 183.810
56.29000 183.940
56.30000 184.099
56.31000 183.425
56.32000 180.787
56.33000 178.067
56.34000 177.926
56.35000 181.922
56.36000 185.973
56.37000 188.062
56.38000 178.891
56.39000 172.721
56.40000 167.725
56.41000 163.546
56.42000 159.499
56.43000 159.489
56.44000 161.389
56.45000 163.193
56.46000 161.010
56.47000 157.808
56.48000 154.829
56.49000 153.642
56.50000 152.844
56.51000 152.509
56.52000 154.526
56.53000 156.872
56.54000 158.717
56.55000 158.299
56.56000 157.814
56.57000 157.834
56.58000 159.023
56.59000 160.260
56.60000 158.882
56.61000 153.369
56.62000 147.805
56.63000 144.960
56.64000 140.552
56.65000 137.633
56.66000 139.579
56.67000 144.863
56.68000 149.942
56.69000 148.888
56.70000 144.976
56.71000 141.270
56.72000 139.427
56.73000 138.277
56.74000 137.367
56.75000 138.347
56.76000 139.732
56.77000 141.183
56.78000 142.961
56.79000 144.785
56.80000 146.214
56.81000 140.226
56.82000 134.963
56.83000 131.583
56.84000 132.506
56.85000 133.598
56.86000 134.183
56.87000 133.981
56.88000 133.770
56.89000 133.662
56.90000 135.372
56.91000 136.508
56.92000 136.638
56.93000 136.088
56.94000 135.519
56.95000 134.387
56.96000 132.997
56.97000 131.682
56.98000 133.990
56.99000 137.159
57.00000 140.176
57.01000 142.022
57.02000 143.622
57.03000 144.090
57.04000 138.982
57.05000 133.121
57.06000 128.546
57.07000 133.011
57.08000 137.140
57.09000 139.692
57.10000 138.687
57.11000 137.548
57.12000 135.787
57.13000 133.074
57.14000 130.350
57.15000 128.980
57.16000 124.721
57.17000 121.902
57.18000 121.740
57.19000 123.347
57.20000 124.952
57.21000 126.527
57.22000 128.088
57.23000 129.564
57.24000 128.966
57.25000 127.828
57.26000 127.038
57.27000 128.892
57.28000 131.295
57.29000 132.998
57.30000 131.305
57.31000 129.161
57.32000 127.494
57.33000 121.772
57.34000 116.970
57.35000 115.745
57.36000 122.467
57.37000 129.480
57.38000 131.721
57.39000 126.750
57.40000 121.706
57.41000 118.664
57.42000 117.614
57.43000 116.601
57.44000 118.964
57.45000 123.543
57.46000 127.982
57.47000 128.694
57.48000 127.742
57.49000 126.844
57.50000 124.516
57.51000 121.983
57.52000 120.141
57.53000 123.454
57.54000 127.819
57.55000 131.376
57.56000 131.078
57.57000 130.278
57.58000 129.658
57.59000 126.623
57.60000 124.067
57.61000 122.251
57.62000 122.056
57.63000 121.919
57.64000 122.969
57.65000 125.789
57.66000 128.625
57.67000 128.903
57.68000 126.679
57.69000 124.453
57.70000 122.091
57.71000 119.640
57.72000 117.355
57.73000 119.365
57.74000 123.265
57.75000 126.938
57.76000 126.551
57.77000 125.080
57.78000 123.905
57.79000 124.898
57.80000 126.328
57.81000 128.127
57.82000 131.661
57.83000 135.418
57.84000 138.319
57.85000 133.698
57.86000 129.596
57.87000 127.212
57.88000 128.533
57.89000 129.980
57.90000 130.076
57.91000 128.192
57.92000 126.290
57.93000 127.779
57.94000 132.530
57.95000 137.212
57.96000 136.256
57.97000 131.713
57.98000 127.291
57.99000 125.890
58.00000 125.797
58.01000 125.709
58.02000 124.525
58.03000 123.145
58.04000 121.780
58.05000 120.517
58.06000 119.274
58.07000 117.982
58.08000 116.466
58.09000 114.921
58.10000 113.733
58.11000 119.965
58.12000 125.317
58.13000 127.568
58.14000 123.224
58.15000 118.663
58.16000 118.086
58.17000 123.261
58.18000 128.482
58.19000 128.979
58.20000 125.009
58.21000 121.094
58.22000 121.380
58.23000 124.300
58.24000 127.142
58.25000 128.120
58.26000 128.301
58.27000 128.470
58.28000 130.432
58.29000 132.698
58.30000 134.166
58.31000 130.010
58.32000 124.758
58.33000 120.595
58.34000 121.383
58.35000 122.780
58.36000 123.851
58.37000 121.466
58.38000 119.393
58.39000 119.714
58.40000 125.055
58.41000 130.556
58.42000 133.176
58.43000 131.701
58.44000 130.196
58.45000 128.895
58.46000 127.785
58.47000 126.700
58.48000 127.383
58.49000 129.159
58.50000 130.819
58.51000 129.751
58.52000 127.536
58.53000 125.458
58.54000 123.875
58.55000 122.563
58.56000 121.253
58.57000 119.962
58.58000 118.674
58.59000 117.811
58.60000 118.847
58.61000 120.112
58.62000 121.078
58.63000 118.981
58.64000 117.164
58.65000 116.987
58.66000 120.202
58.67000 123.521
58.68000 125.960
58.69000 127.167
58.70000 128.365
58.71000 128.779
58.72000 128.475
58.73000 128.159
58.74000 127.047
58.75000 125.452
58.76000 123.863
58.77000 122.408
58.78000 121.009
58.79000 119.699
58.80000 121.853
58.81000 124.702
58.82000 127.248
58.83000 127.729
58.84000 127.822
58.85000 127.549
58.86000 125.667
58.87000 123.594
58.88000 122.018
58.89000 119.974
58.90000 118.341
58.91000 118.467
58.92000 122.175
58.93000 125.988
58.94000 126.388
58.95000 122.081
58.96000 117.747
58.97000 114.548
58.98000 112.372
58.99000 110.271
59.00000 112.963
59.01000 118.528
59.02000 123.923
59.03000 125.596
59.04000 125.746
59.05000 125.886
59.06000 126.192
59.07000 126.512
59.08000 126.610
59.09000 125.227
59.10000 123.570
59.11000 122.153
59.12000 121.786
59.13000 121.540
59.14000 121.354
59.15000 122.157
59.16000 122.838
59.17000 122.340
59.18000 119.478
59.19000 116.549
59.20000 117.029
59.21000 122.138
59.22000 127.270
59.23000 128.893
59.24000 127.412
59.25000 125.943
59.26000 125.270
59.27000 125.067
59.28000 124.716
59.29000 121.226
59.30000 116.469
59.31000 112.030
59.32000 112.355
59.33000 113.835
59.34000 115.189
59.35000 115.715
59.36000 116.090
59.37000 116.276
59.38000 115.650
59.39000 114.932
59.40000 114.390
59.41000 116.272
59.42000 117.867
59.43000 120.412
59.44000 124.838
59.45000 129.314
59.46000 131.214
59.47000 129.670
59.48000 128.109
59.49000 126.157
59.50000 123.867
59.51000 121.645
59.52000 123.341
59.53000 127.317
59.54000 130.997
59.55000 128.549
59.56000 123.667
59.57000 119.119
59.58000 117.118
59.59000 115.932
59.60000 115.190
59.61000 117.319
59.62000 119.962
59.63000 121.954
59.64000 121.204
59.65000 120.148
59.66000 119.355
59.67000 117.119
59.68000 115.301
59.69000 115.050
59.70000 117.853
59.71000 120.736
59.72000 123.369
59.73000 125.676
59.74000 127.979
59.75000 127.389
59.76000 124.328
59.77000 121.299
59.78000 120.104
59.79000 119.960
59.80000 119.837
59.81000 120.144
59.82000 120.620
59.83000 121.063
59.84000 122.145
59.85000 123.276
59.86000 124.417
59.87000 125.620
59.88000 126.834
59.89000 127.719
59.90000 127.241
59.91000 126.614
59.92000 126.145
59.93000 126.130
59.94000 126.139
59.95000 125.945
59.96000 125.359
59.97000 124.764
59.98000 123.108
59.99000 120.076
60.00000 117.041
60.01000 114.124
60.02000 111.312
60.03000 108.575
60.04000 109.699
60.05000 113.004
60.06000 116.196
60.07000 117.163
60.08000 117.271
60.09000 117.371
60.10000 117.488
60.11000 117.597
60.12000 117.376
60.13000 115.087
60.14000 112.441
60.15000 110.559
60.16000 111.800
60.17000 113.375
60.18000 114.550
60.19000 115.658
60.20000 116.519
60.21000 117.176
60.22000 117.447
60.23000 117.709
60.24000 116.733
60.25000 114.177
60.26000 111.619
60.27000 111.913
60.28000 114.567
60.29000 117.200
60.30000 118.825
60.31000 119.887
60.32000 120.875
60.33000 120.433
60.34000 119.447
60.35000 118.533
60.36000 117.470
60.37000 116.478
60.38000 115.754
60.39000 116.672
60.40000 117.870
60.41000 119.458
60.42000 122.612
60.43000 125.930
60.44000 128.394
60.45000 127.518
60.46000 126.689
60.47000 124.830
60.48000 121.046
60.49000 117.219
60.50000 116.296
60.51000 119.019
60.52000 121.751
60.53000 123.884
60.54000 125.523
60.55000 127.079
60.56000 124.700
60.57000 120.162
60.58000 115.790
60.59000 114.470
60.60000 114.293
60.61000 114.130
60.62000 116.727
60.63000 119.693
60.64000 122.328
60.65000 122.975
60.66000 123.288
60.67000 123.044
60.68000 120.594
60.69000 117.917
60.70000 115.938
60.71000 114.795
60.72000 113.944
60.73000 113.645
60.74000 114.360
60.75000 115.096
60.76000 115.891
60.77000 116.757
60.78000 117.622
60.79000 120.185
60.80000 124.098
60.81000 127.962
60.82000 129.665
60.83000 130.199
60.84000 130.664
60.85000 129.866
60.86000 128.602
60.87000 127.435
60.88000 124.347
60.89000 121.145
60.90000 118.932
60.91000 122.581
60.92000 127.196
60.93000 130.826
60.94000 130.612
60.95000 130.011
60.96000 129.569
60.97000 125.824
60.98000 122.789
60.99000 121.920
61.00000 124.977
61.01000 128.115
61.02000 129.852
61.03000 129.884
61.04000 129.913
61.05000 128.875
61.06000 127.001
61.07000 125.209
61.08000 126.946
61.09000 130.563
61.10000 133.888
61.11000 132.145
61.12000 128.555
61.13000 125.246
61.14000 123.901
61.15000 123.133
61.16000 122.241
61.17000 120.628
61.18000 118.900
61.19000 118.773
61.20000 124.806
61.21000 131.446
61.22000 136.316
61.23000 128.822
61.24000 122.536
61.25000 120.070
61.26000 124.424
61.27000 128.913
61.28000 130.309
61.29000 128.002
61.30000 125.692
61.31000 124.935
61.32000 125.387
61.33000 125.894
61.34000 128.715
61.35000 132.751
61.36000 136.510
61.37000 135.578
61.38000 132.961
61.39000 130.554
61.40000 130.529
61.41000 131.025
61.42000 131.521
61.43000 132.016
61.44000 132.511
61.45000 133.158
61.46000 134.384
61.47000 135.667
61.48000 136.603
61.49000 151.543
61.50000 163.607
61.51000 176.490
61.52000 190.814
61.53000 205.165
61.54000 221.734
61.55000 240.915
61.56000 260.054
61.57000 283.205
61.58000 309.273
61.59000 335.120
61.60000 352.194
61.61000 364.730
61.62000 377.332
61.63000 391.029
61.64000 405.114
61.65000 418.049
61.66000 424.283
61.67000 428.414
61.68000 432.582
61.69000 436.969
61.70000 441.391
61.71000 444.245
61.72000 441.260
61.73000 437.721
61.74000 435.149
61.75000 425.323
61.76000 417.490
61.77000 403.746
61.78000 379.751
61.79000 355.574
61.80000 329.399
61.81000 300.908
61.82000 272.491
61.83000 247.113
61.84000 224.184
61.85000 201.607
61.86000 192.373
61.87000 189.943
61.88000 187.313
61.89000 181.469
61.90000 174.504
61.91000 168.120
61.92000 165.157
61.93000 163.237
61.94000 161.110
61.95000 157.829
61.96000 154.371
61.97000 150.425
61.98000 144.687
61.99000 138.782
62.00000 134.507
62.01000 141.321
62.02000 146.959
62.03000 149.919
62.04000 148.303
62.05000 146.611
62.06000 146.581
62.07000 148.450
62.08000 150.315
62.09000 153.063
62.10000 156.443
62.11000 159.727
62.12000 159.510
62.13000 157.534
62.14000 155.381
62.15000 150.460
62.16000 144.588
62.17000 139.216
62.18000 143.775
62.19000 149.881
62.20000 154.573
62.21000 151.563
62.22000 147.389
62.23000 145.271
62.24000 150.594
62.25000 156.591
62.26000 160.913
62.27000 158.485
62.28000 156.386
62.29000 155.291
62.30000 155.886
62.31000 156.508
62.32000 155.151
62.33000 151.574
62.34000 148.007
62.35000 147.390
62.36000 148.921
62.37000 150.409
62.38000 150.421
62.39000 149.703
62.40000 149.061
62.41000 149.584
62.42000 150.501
62.43000 151.338
62.44000 150.082
62.45000 148.543
62.46000 147.163
62.47000 146.639
62.48000 146.242
62.49000 145.574
62.50000 143.938
62.51000 142.216
62.52000 140.981
62.53000 139.429
62.54000 138.231
62.55000 138.187
62.56000 140.055
62.57000 141.953
62.58000 142.142
62.59000 140.447
62.60000 138.756
62.61000 136.329
62.62000 133.397
62.63000 130.607
62.64000 132.600
62.65000 136.926
62.66000 141.089
62.67000 142.813
62.68000 143.722
62.69000 144.550
62.70000 146.036
62.71000 147.483
62.72000 148.092
62.73000 144.271
62.74000 139.804
62.75000 136.710
62.76000 138.433
62.77000 140.574
62.78000 142.103
62.79000 136.109
62.80000 131.285
62.81000 130.714
62.82000 137.091
62.83000 143.568
62.84000 145.638
62.85000 142.926
62.86000 140.222
62.87000 139.669
62.88000 140.633
62.89000 141.616
62.90000 143.226
62.91000 145.138
62.92000 146.944
62.93000 147.219
62.94000 146.989
62.95000 146.780
62.96000 145.751
62.97000 144.681
62.98000 143.884
62.99000 144.509
63.00000 145.336
63.01000 146.153
63.02000 146.929
63.03000 147.702
63.04000 148.251
63.05000 147.728
63.06000 147.296
63.07000 145.868
63.08000 142.838
63.09000 139.786
63.10000 138.303
63.11000 138.493
63.12000 138.684
63.13000 138.607
63.14000 138.346
63.15000 138.123
63.16000 139.102
63.17000 140.652
63.18000 142.201
63.19000 143.752
63.20000 145.303
63.21000 146.711
63.22000 147.458
63.23000 147.990
63.24000 147.879
63.25000 144.476
63.26000 140.611
63.27000 138.700
63.28000 143.456
63.29000 148.764
63.30000 152.521
63.31000 151.259
63.32000 150.145
63.33000 149.048
63.34000 147.979
63.35000 146.911
63.36000 147.580
63.37000 150.072
63.38000 152.553
63.39000 153.151
63.40000 152.462
63.41000 151.743
63.42000 150.130
63.43000 148.099
63.44000 146.164
63.45000 145.553
63.46000 145.366
63.47000 145.196
63.48000 145.960
63.49000 146.809
63.50000 147.962
63.51000 150.635
63.52000 153.518
63.53000 155.022
63.54000 151.893
63.55000 148.388
63.56000 145.919
63.57000 146.323
63.58000 146.716
63.59000 146.912
63.60000 146.799
63.61000 146.683
63.62000 147.260
63.63000 148.552
63.64000 149.837
63.65000 149.832
63.66000 148.962
63.67000 148.142
63.68000 148.755
63.69000 150.027
63.70000 151.120
63.71000 149.793
63.72000 147.703
63.73000 145.814
63.74000 150.326
63.75000 155.486
63.76000 160.233
63.77000 162.933
63.78000 165.356
63.79000 166.198
63.80000 161.804
63.81000 156.996
63.82000 153.625
63.83000 152.047
63.84000 150.906
63.85000 148.945
63.86000 145.724
63.87000 142.489
63.88000 144.222
63.89000 151.001
63.90000 157.741
63.91000 159.012
63.92000 156.664
63.93000 154.265
63.94000 150.469
63.95000 146.039
63.96000 142.293
63.97000 147.563
63.98000 155.632
63.99000 162.911
64.00000 161.289
64.01000 158.238
64.02000 155.865
64.03000 156.799
64.04000 158.173
64.05000 159.220
64.06000 159.202
64.07000 159.102
64.08000 159.032
64.09000 153.081
64.10000 148.423
64.11000 147.105
64.12000 150.849
64.13000 154.645
64.14000 156.383
64.15000 156.066
64.16000 155.750
64.17000 157.091
64.18000 159.486
64.19000 161.977
64.20000 167.048
64.21000 173.274
64.22000 178.940
64.23000 177.402
64.24000 173.660
64.25000 170.292
64.26000 169.894
64.27000 170.078
64.28000 169.574
64.29000 165.772
64.30000 161.540
64.31000 158.932
64.32000 161.543
64.33000 164.549
64.34000 166.637
64.35000 168.517
64.36000 169.928
64.37000 169.283
64.38000 165.568
64.39000 161.824
64.40000 163.091
64.41000 169.278
64.42000 175.423
64.43000 178.360
64.44000 179.207
64.45000 179.985
64.46000 178.969
64.47000 177.162
64.48000 175.453
64.49000 174.968
64.50000 174.851
64.51000 174.747
64.52000 174.726
64.53000 174.722
64.54000 176.101
64.55000 183.999
64.56000 192.732
64.57000 197.191
64.58000 188.111
64.59000 178.032
64.60000 171.065
64.61000 179.770
64.62000 186.721
64.63000 191.163
64.64000 191.917
64.65000 192.637
64.66000 192.436
64.67000 191.347
64.68000 190.265
64.69000 190.422
64.70000 191.354
64.71000 192.337
64.72000 194.576
64.73000 197.360
64.74000 199.773
64.75000 197.606
64.76000 194.080
64.77000 190.919
64.78000 198.351
64.79000 206.678
64.80000 212.976
64.81000 209.859
64.82000 205.558
64.83000 203.960
64.84000 210.802
64.85000 218.251
64.86000 223.376
64.87000 224.271
64.88000 224.837
64.89000 225.468
64.90000 226.192
64.91000 226.918
64.92000 231.734
64.93000 240.433
64.94000 249.064
64.95000 253.061
64.96000 254.126
64.97000 255.337
64.98000 260.091
64.99000 266.364
65.00000 272.956
65.01000 283.373
65.02000 294.908
65.03000 305.227
65.04000 317.705
65.05000 328.954
65.06000 340.422
65.07000 352.891
65.08000 365.483
65.09000 378.088
65.10000 390.733
65.11000 403.382
65.12000 412.041
65.13000 440.421
65.14000 462.142
65.15000 483.629
65.16000 504.783
65.17000 525.934
65.18000 541.273
65.19000 551.188
65.20000 561.021
65.21000 579.338
65.22000 602.479
65.23000 625.370
65.24000 642.347
65.25000 656.826
65.26000 671.764
65.27000 692.098
65.28000 713.987
65.29000 733.522
65.30000 744.159
65.31000 751.931
65.32000 761.516
65.33000 779.259
65.34000 797.989
65.35000 811.196
65.36000 807.665
65.37000 802.986
65.38000 799.799
65.39000 787.728
65.40000 778.506
65.41000 776.081
65.42000 783.208
65.43000 790.395
65.44000 784.557
65.45000 766.760
65.46000 749.121
65.47000 746.925
65.48000 754.016
65.49000 760.732
65.50000 758.906
65.51000 753.525
65.52000 746.655
65.53000 722.701
65.54000 693.895
65.55000 668.245
65.56000 670.895
65.57000 677.844
65.58000 684.506
65.59000 689.904
65.60000 695.151
65.61000 703.401
65.62000 720.618
65.63000 738.435
65.64000 750.511
65.65000 807.240
65.66000 850.519
65.67000 902.399
65.68000 966.179
65.69000 1030.063
65.70000 1139.393
65.71000 1289.768
65.72000 1438.722
65.73000 1634.913
65.74000 1854.923
65.75000 2073.212
65.76000 2253.365
65.77000 2417.870
65.78000 2581.736
65.79000 2738.426
65.80000 2893.108
65.81000 3030.540
65.82000 3104.608
65.83000 3158.635
65.84000 3208.555
65.85000 3240.572
65.86000 3270.503
65.87000 3292.794
65.88000 3292.596
65.89000 3290.933
65.90000 3289.811
65.91000 3197.766
65.92000 3127.366
65.93000 3032.069
65.94000 2902.855
65.95000 2773.412
65.96000 2604.480
65.97000 2400.462
65.98000 2198.494
65.99000 1990.041
66.00000 1782.307
66.01000 1575.932
66.02000 1398.748
66.03000 1233.370
66.04000 1072.746
66.05000 964.357
66.06000 870.363
66.07000 787.041
66.08000 723.979
66.09000 672.589
66.10000 627.071
66.11000 606.758
66.12000 589.326
66.13000 571.625
66.14000 553.143
66.15000 534.611
66.16000 522.178
66.17000 510.302
66.18000 501.497
66.19000 498.302
66.20000 502.633
66.21000 507.004
66.22000 512.889
66.23000 520.097
66.24000 527.228
66.25000 545.466
66.26000 569.628
66.27000 594.146
66.28000 626.086
66.29000 660.984
66.30000 695.570
66.31000 726.813
66.32000 757.148
66.33000 783.978
66.34000 819.617
66.35000 851.786
66.36000 881.281
66.37000 899.476
66.38000 916.405
66.39000 929.987
66.40000 934.000
66.41000 937.421
66.42000 939.704
66.43000 938.733
66.44000 937.951
66.45000 933.719
66.46000 924.930
66.47000 916.107
66.48000 897.827
66.49000 871.413
66.50000 845.297
66.51000 813.448
66.52000 779.135
66.53000 744.896
66.54000 712.161
66.55000 680.015
66.56000 647.802
66.57000 614.880
66.58000 581.768
66.59000 552.550
66.60000 536.870
66.61000 525.409
66.62000 513.374
66.63000 498.947
66.64000 484.258
66.65000 473.389
66.66000 473.284
66.67000 473.828
66.68000 474.189
66.69000 464.278
66.70000 456.762
66.71000 451.042
66.72000 447.657
66.73000 444.292
66.74000 446.863
66.75000 454.457
66.76000 461.961
66.77000 463.726
66.78000 462.274
66.79000 460.737
66.80000 457.512
66.81000 453.633
66.82000 450.073
66.83000 449.808
66.84000 450.410
66.85000 450.940
66.86000 453.056
66.87000 455.115
66.88000 456.166
66.89000 453.087
66.90000 449.563
66.91000 449.292
66.92000 458.054
66.93000 467.347
66.94000 473.484
66.95000 473.315
66.96000 473.079
66.97000 471.673
66.98000 468.771
66.99000 465.857
67.00000 460.048
67.01000 451.828
67.02000 443.712
67.03000 450.889
67.04000 466.199
67.05000 480.736
67.06000 480.540
67.07000 474.720
67.08000 469.618
67.09000 471.757
67.10000 475.776
67.11000 479.305
67.12000 479.872
67.13000 479.923
67.14000 481.259
67.15000 487.782
67.16000 494.851
67.17000 500.717
67.18000 503.288
67.19000 505.671
67.20000 507.236
67.21000 499.870
67.22000 494.298
67.23000 492.878
67.24000 496.690
67.25000 500.516
67.26000 502.782
67.27000 503.771
67.28000 504.746
67.29000 510.390
67.30000 518.380
67.31000 526.093
67.32000 528.660
67.33000 529.292
67.34000 529.500
67.35000 525.531
67.36000 520.495
67.37000 516.083
67.38000 519.803
67.39000 524.167
67.40000 527.281
67.41000 525.423
67.42000 523.052
67.43000 522.752
67.44000 528.041
67.45000 533.641
67.46000 537.301
67.47000 537.135
67.48000 536.952
67.49000 537.380
67.50000 538.565
67.51000 539.753
67.52000 541.079
67.53000 542.517
67.54000 543.936
67.55000 551.275
67.56000 561.525
67.57000 570.971
67.58000 565.902
67.59000 555.450
67.60000 546.466
67.61000 551.685
67.62000 560.478
67.63000 568.163
67.64000 570.350
67.65000 571.444
67.66000 573.030
67.67000 576.544
67.68000 580.253
67.69000 583.533
67.70000 585.674
67.71000 587.752
67.72000 589.103
67.73000 582.906
67.74000 578.250
67.75000 574.957
67.76000 573.329
67.77000 571.718
67.78000 574.427
67.79000 580.566
67.80000 586.616
67.81000 583.490
67.82000 575.699
67.83000 568.894
67.84000 579.381
67.85000 596.188
67.86000 611.621
67.87000 614.019
67.88000 613.184
67.89000 612.456
67.90000 620.835
67.91000 629.261
67.92000 635.917
67.93000 635.744
67.94000 634.893
67.95000 633.549
67.96000 630.910
67.97000 628.204
67.98000 626.454
67.99000 625.934
68.00000 625.572
68.01000 631.761
68.02000 645.822
68.03000 659.842
68.04000 658.508
68.05000 645.172
68.06000 632.043
68.07000 635.586
68.08000 647.531
68.09000 658.865
68.10000 659.773
68.11000 656.924
68.12000 655.356
68.13000 665.686
68.14000 678.920
68.15000 690.430
68.16000 686.173
68.17000 680.393
68.18000 677.690
68.19000 686.680
68.20000 696.806
68.21000 705.082
68.22000 708.580
68.23000 711.835
68.24000 713.927
68.25000 723.301
68.26000 730.239
68.27000 736.401
68.28000 741.645
68.29000 746.891
68.30000 753.154
68.31000 760.199
68.32000 767.130
68.33000 762.931
68.34000 753.273
68.35000 744.660
68.36000 753.404
68.37000 768.310
68.38000 782.360
68.39000 788.620
68.40000 793.006
68.41000 796.811
68.42000 815.639
68.43000 833.683
68.44000 848.004
68.45000 848.397
68.46000 847.465
68.47000 850.655
68.48000 864.339
68.49000 878.542
68.50000 887.619
68.51000 903.175
68.52000 914.582
68.53000 933.511
68.54000 961.190
68.55000 988.866
68.56000 1013.320
68.57000 1035.331
68.58000 1056.969
68.59000 1082.454
68.60000 1108.995
68.61000 1137.314
68.62000 1194.413
68.63000 1261.583
68.64000 1328.850
68.65000 1396.994
68.66000 1465.346
68.67000 1524.489
68.68000 1618.127
68.69000 1702.256
68.70000 1783.431
68.71000 1853.718
68.72000 1922.991
68.73000 1986.938
68.74000 2037.517
68.75000 2087.453
68.76000 2119.186
68.77000 2250.619
68.78000 2347.306
68.79000 2438.776
68.80000 2524.274
68.81000 2609.909
68.82000 2723.424
68.83000 2857.735
68.84000 2989.657
68.85000 3157.056
68.86000 3335.950
68.87000 3523.717
68.88000 3851.333
68.89000 4227.181
68.90000 4647.110
68.91000 5453.005
68.92000 6348.873
68.93000 7122.060
68.94000 9556.010
68.95000 11835.003
68.96000 14567.667
68.97000 18947.445
68.98000 23477.219
68.99000 28486.613
69.00000 34682.402
69.01000 40933.500
69.02000 44883.207
69.03000 52632.141
69.04000 58291.559
69.05000 62927.793
69.06000 66411.836
69.07000 69888.414
69.08000 72238.914
69.09000 73762.398
69.10000 75257.555
69.11000 76521.844
69.12000 77630.344
69.13000 78743.391
69.14000 79926.250
69.15000 81132.844
69.16000 82254.906
69.17000 82651.242
69.18000 82881.008
69.19000 83078.797
69.20000 81349.656
69.21000 79642.000
69.22000 77528.172
69.23000 73961.594
69.24000 70265.570
69.25000 66221.195
69.26000 61327.477
69.27000 56395.367
69.28000 53297.109
69.29000 48575.531
69.30000 45144.059
69.31000 42680.758
69.32000 41289.988
69.33000 39902.488
69.34000 38922.492
69.35000 38237.195
69.36000 37565.207
69.37000 36427.758
69.38000 35112.930
69.39000 33750.938
69.40000 31682.662
69.41000 29377.811
69.42000 27006.793
69.43000 24078.598
69.44000 21024.492
69.45000 18402.334
69.46000 15215.246
69.47000 12450.878
69.48000 9901.542
69.49000 8109.926
69.50000 6384.346
69.51000 4934.995
69.52000 4149.472
69.53000 3393.032
69.54000 2920.634
69.55000 2541.018
69.56000 2268.162
69.57000 2051.521
69.58000 1896.138
69.59000 1741.065
69.60000 1626.633
69.61000 1541.145
69.62000 1457.389
69.63000 1388.535
69.64000 1329.235
69.65000 1270.700
69.66000 1223.348
69.67000 1179.686
69.68000 1136.608
69.69000 1098.349
69.70000 1061.161
69.71000 1029.318
69.72000 1000.195
69.73000 975.949
69.74000 952.220
69.75000 930.283
69.76000 908.499
69.77000 885.664
69.78000 860.340
69.79000 834.910
69.80000 819.123
69.81000 795.660
69.82000 778.699
69.83000 766.719
69.84000 760.076
69.85000 753.385
69.86000 739.980
69.87000 721.866
69.88000 704.136
69.89000 696.408
69.90000 693.555
69.91000 690.005
69.92000 676.519
69.93000 659.801
69.94000 643.424
69.95000 629.806
69.96000 616.792
69.97000 605.678
69.98000 596.100
69.99000 588.216
70.00000 580.161
