20.00000 503.451
20.01000 495.194
20.02000 485.758
20.03000 478.007
20.04000 476.904
20.05000 476.480
20.06000 476.167
20.07000 475.653
20.08000 475.245
20.09000 476.219
20.10000 479.722
20.11000 483.278
20.12000 484.215
20.13000 481.929
20.14000 479.638
20.15000 482.396
20.16000 489.164
20.17000 495.701
20.18000 491.887
20.19000 482.503
20.20000 473.498
20.21000 471.217
20.22000 471.412
20.23000 471.592
20.24000 475.583
20.25000 480.014
20.26000 484.166
20.27000 486.676
20.28000 488.917
20.29000 490.525
20.30000 489.675
20.31000 488.579
20.32000 487.773
20.33000 491.263
20.34000 494.139
20.35000 494.039
20.36000 488.571
20.37000 482.993
20.38000 478.616
20.39000 475.694
20.40000 472.780
20.41000 473.464
20.42000 476.964
20.43000 480.576
20.44000 488.990
20.45000 499.950
20.46000 510.096
20.47000 506.145
20.48000 497.080
20.49000 488.730
20.50000 485.364
20.51000 483.449
20.52000 481.509
20.53000 479.425
20.54000 477.317
20.55000 475.980
20.56000 477.589
20.57000 479.487
20.58000 480.877
20.59000 483.258
20.60000 485.136
20.61000 486.113
20.62000 485.488
20.63000 484.831
20.64000 483.505
20.65000 481.380
20.66000 479.258
20.67000 480.873
20.68000 485.359
20.69000 489.692
20.70000 487.776
20.71000 482.593
20.72000 477.721
20.73000 478.066
20.74000 480.277
20.75000 482.311
20.76000 483.064
20.77000 483.459
20.78000 484.739
20.79000 491.058
20.80000 498.175
20.81000 503.378
20.82000 501.364
20.83000 498.658
20.84000 496.684
20.85000 495.623
20.86000 494.840
20.87000 492.111
20.88000 485.969
20.89000 479.764
20.90000 476.803
20.91000 477.645
20.92000 478.491
20.93000 485.402
20.94000 496.872
20.95000 507.899
20.96000 501.653
20.97000 486.508
20.98000 472.263
20.99000 472.749
21.00000 478.425
21.01000 483.636
21.02000 485.770
21.03000 487.019
21.04000 487.943
21.05000 487.040
21.06000 485.853
21.07000 484.349
21.08000 481.668
21.09000 478.876
21.10000 476.850
21.11000 490.398
21.12000 501.398
21.13000 506.851
21.14000 502.727
21.15000 498.435
21.16000 493.234
21.17000 486.985
21.18000 480.753
21.19000 480.386
21.20000 484.401
21.21000 488.430
21.22000 493.034
21.23000 497.929
21.24000 502.017
21.25000 493.223
21.26000 479.955
21.27000 467.801
21.28000 472.065
21.29000 479.293
21.30000 486.173
21.31000 491.134
21.32000 495.801
21.33000 498.046
21.34000 491.432
21.35000 484.002
21.36000 478.631
21.37000 472.483
21.38000 467.737
21.39000 464.565
21.40000 464.070
21.41000 463.619
21.42000 468.319
21.43000 478.865
21.44000 489.383
21.45000 487.530
21.46000 476.608
21.47000 465.983
21.48000 466.031
21.49000 471.419
21.50000 476.606
21.51000 478.662
21.52000 479.647
21.53000 480.547
21.54000 480.390
21.55000 480.032
21.56000 480.487
21.57000 485.356
21.58000 490.887
21.59000 495.008
21.60000 494.047
21.61000 492.629
21.62000 491.608
21.63000 487.354
21.64000 483.984
21.65000 484.141
21.66000 490.210
21.67000 496.372
21.68000 498.543
21.69000 496.256
21.70000 493.974
21.71000 495.897
21.72000 500.841
21.73000 505.903
21.74000 515.020
21.75000 526.136
21.76000 536.490
21.77000 535.303
21.78000 530.222
21.79000 525.585
21.80000 527.062
21.81000 529.608
21.82000 531.542
21.83000 530.209
21.84000 528.395
21.85000 531.613
21.86000 552.694
21.87000 575.348
21.88000 591.580
21.89000 598.018
21.90000 602.604
21.91000 605.945
21.92000 607.229
21.93000 608.483
21.94000 610.288
21.95000 612.698
21.96000 615.099
21.97000 624.276
21.98000 638.186
21.99000 651.902
22.00000 659.206
22.01000 663.393
22.02000 667.612
22.03000 672.296
22.04000 677.133
22.05000 681.539
22.06000 688.589
22.07000 695.357
22.08000 700.404
22.09000 696.415
22.10000 691.117
22.11000 684.342
22.12000 672.406
22.13000 660.024
22.14000 651.193
22.15000 658.327
22.16000 664.293
22.17000 662.328
22.18000 647.464
22.19000 632.418
22.20000 623.204
22.21000 620.289
22.22000 617.390
22.23000 609.679
22.24000 598.682
22.25000 587.678
22.26000 576.472
22.27000 565.169
22.28000 554.978
22.29000 560.800
22.30000 571.869
22.31000 581.930
22.32000 568.008
22.33000 551.022
22.34000 536.323
22.35000 533.440
22.36000 532.238
22.37000 530.768
22.38000 528.373
22.39000 525.899
22.40000 524.143
22.41000 516.448
22.42000 510.403
22.43000 504.117
22.44000 497.443
22.45000 490.764
22.46000 488.979
22.47000 492.395
22.48000 495.796
22.49000 492.139
22.50000 483.665
22.51000 475.331
22.52000 471.291
22.53000 469.278
22.54000 467.622
22.55000 470.984
22.56000 475.967
22.57000 480.487
22.58000 476.319
22.59000 470.975
22.60000 467.093
22.61000 470.641
22.62000 475.227
22.63000 476.868
22.64000 468.512
22.65000 459.332
22.66000 452.844
22.67000 465.426
22.68000 475.566
22.69000 478.103
22.70000 468.637
22.71000 459.023
22.72000 453.655
22.73000 452.725
22.74000 451.800
22.75000 447.475
22.76000 440.898
22.77000 434.615
22.78000 437.034
22.79000 443.504
22.80000 449.659
22.81000 451.500
22.82000 451.969
22.83000 452.393
22.84000 449.972
22.85000 447.304
22.86000 445.468
22.87000 447.796
22.88000 450.696
22.89000 452.978
22.90000 453.192
22.91000 453.240
22.92000 453.274
22.93000 443.890
22.94000 436.500
22.95000 435.706
22.96000 445.171
22.97000 454.755
22.98000 458.871
22.99000 457.367
23.00000 455.871
23.01000 453.064
23.02000 449.420
23.03000 445.796
23.04000 442.755
23.05000 439.981
23.06000 437.152
23.07000 433.584
23.08000 429.784
23.09000 426.351
23.10000 435.125
23.11000 445.101
23.12000 453.398
23.13000 453.435
23.14000 452.359
23.15000 450.333
23.16000 445.175
23.17000 439.771
23.18000 435.987
23.19000 441.246
23.20000 445.482
23.21000 446.524
23.22000 442.673
23.23000 438.770
23.24000 439.524
23.25000 444.986
23.26000 450.415
23.27000 452.070
23.28000 451.227
23.29000 450.271
23.30000 446.203
23.31000 440.729
23.32000 435.673
23.33000 436.090
23.34000 438.199
23.35000 440.099
23.36000 443.233
23.37000 446.207
23.38000 448.444
23.39000 447.110
23.40000 445.303
23.41000 443.402
23.42000 441.197
23.43000 438.968
23.44000 437.415
23.45000 439.709
23.46000 441.547
23.47000 442.617
23.48000 442.529
23.49000 442.429
23.50000 443.988
23.51000 447.196
23.52000 450.383
23.53000 449.946
23.54000 447.175
23.55000 444.474
23.56000 443.617
23.57000 443.582
23.58000 443.214
23.59000 438.591
23.60000 432.673
23.61000 427.349
23.62000 434.424
23.63000 442.839
23.64000 449.065
23.65000 444.864
23.66000 439.307
23.67000 434.052
23.68000 429.765
23.69000 425.551
23.70000 422.627
23.71000 425.880
23.72000 428.492
23.73000 430.910
23.74000 433.039
23.75000 435.165
23.76000 437.908
23.77000 441.254
23.78000 444.578
23.79000 443.439
23.80000 439.485
23.81000 435.412
23.82000 428.256
23.83000 419.746
23.84000 412.180
23.85000 416.396
23.86000 424.147
23.87000 431.105
23.88000 425.235
23.89000 417.850
23.90000 413.592
23.91000 424.008
23.92000 436.295
23.93000 444.620
23.94000 440.451
23.95000 435.366
23.96000 431.857
23.97000 438.905
23.98000 444.472
23.99000 445.788
24.00000 440.880
24.01000 435.919
24.02000 437.144
24.03000 444.311
24.04000 451.424
24.05000 448.922
24.06000 440.453
24.07000 432.082
24.08000 426.168
24.09000 421.317
24.10000 417.075
24.11000 420.281
24.12000 425.688
24.13000 430.532
24.14000 430.512
24.15000 429.657
24.16000 428.703
24.17000 427.288
24.18000 425.816
24.19000 423.600
24.20000 419.070
24.21000 414.375
24.22000 411.150
24.23000 418.165
24.24000 423.676
24.25000 425.755
24.26000 422.884
24.27000 419.974
24.28000 423.511
24.29000 433.138
24.30000 442.688
24.31000 443.600
24.32000 439.184
24.33000 434.876
24.34000 433.188
24.35000 432.619
24.36000 432.369
24.37000 435.922
24.38000 440.583
24.39000 444.750
24.40000 441.786
24.41000 437.996
24.42000 434.369
24.43000 431.480
24.44000 428.682
24.45000 425.260
24.46000 419.927
24.47000 414.461
24.48000 410.724
24.49000 422.272
24.50000 431.274
24.51000 435.585
24.52000 433.234
24.53000 430.835
24.54000 427.526
24.55000 423.373
24.56000 419.255
24.57000 417.802
24.58000 417.988
24.59000 418.009
24.60000 414.167
24.61000 408.701
24.62000 403.891
24.63000 406.735
24.64000 411.774
24.65000 416.268
24.66000 416.738
24.67000 416.478
24.68000 416.750
24.69000 419.398
24.70000 422.332
24.71000 426.344
24.72000 433.611
24.73000 441.098
24.74000 446.191
24.75000 431.772
24.76000 420.563
24.77000 413.872
24.78000 413.498
24.79000 413.169
24.80000 415.272
24.81000 419.597
24.82000 423.883
24.83000 425.004
24.84000 424.218
24.85000 423.364
24.86000 420.982
24.87000 417.966
24.88000 415.389
24.89000 417.827
24.90000 421.681
24.91000 425.111
24.92000 418.017
24.93000 410.137
24.94000 404.158
24.95000 406.557
24.96000 409.946
24.97000 411.967
24.98000 409.922
24.99000 407.607
25.00000 406.040
25.01000 412.053
25.02000 416.699
25.03000 421.723
25.04000 427.268
25.05000 432.812
25.06000 430.348
25.07000 420.689
25.08000 411.123
25.09000 405.439
25.10000 402.148
25.11000 398.974
25.12000 398.368
25.13000 398.811
25.14000 399.278
25.15000 400.018
25.16000 400.835
25.17000 401.559
25.18000 398.444
25.19000 395.129
25.20000 392.177
25.21000 390.805
25.22000 389.615
25.23000 389.396
25.24000 392.018
25.25000 394.825
25.26000 396.714
25.27000 400.897
25.28000 404.054
25.29000 406.470
25.30000 407.879
25.31000 409.282
25.32000 409.630
25.33000 409.045
25.34000 408.465
25.35000 406.028
25.36000 402.572
25.37000 399.480
25.38000 404.105
25.39000 411.838
25.40000 418.955
25.41000 419.338
25.42000 417.874
25.43000 416.576
25.44000 415.759
25.45000 415.126
25.46000 414.170
25.47000 411.830
25.48000 409.332
25.49000 408.403
25.50000 412.006
25.51000 415.894
25.52000 418.498
25.53000 404.913
25.54000 394.510
25.55000 392.183
25.56000 400.636
25.57000 409.132
25.58000 407.896
25.59000 398.195
25.60000 388.599
25.61000 391.417
25.62000 401.220
25.63000 410.749
25.64000 414.634
25.65000 416.279
25.66000 416.957
25.67000 407.294
25.68000 394.836
25.69000 383.826
25.70000 383.991
25.71000 385.861
25.72000 388.487
25.73000 394.291
25.74000 400.450
25.75000 404.073
25.76000 400.479
25.77000 396.443
25.78000 393.753
25.79000 393.900
25.80000 394.063
25.81000 394.862
25.82000 396.497
25.83000 398.134
25.84000 398.981
25.85000 399.152
25.86000 399.322
25.87000 397.359
25.88000 394.250
25.89000 391.303
25.90000 391.577
25.91000 393.112
25.92000 394.882
25.93000 399.113
25.94000 403.998
25.95000 408.306
25.96000 405.708
25.97000 402.420
25.98000 399.761
25.99000 399.707
26.00000 399.937
26.01000 398.837
26.02000 394.004
26.03000 388.949
26.04000 385.598
26.05000 392.078
26.06000 397.044
26.07000 398.552
26.08000 395.583
26.09000 392.602
26.10000 392.604
26.11000 395.116
26.12000 397.599
26.13000 395.162
26.14000 390.081
26.15000 385.334
26.16000 387.075
26.17000 391.318
26.18000 394.967
26.19000 392.532
26.20000 388.501
26.21000 384.956
26.22000 396.843
26.23000 409.371
26.24000 418.506
26.25000 413.795
26.26000 407.602
26.27000 402.219
26.28000 399.073
26.29000 396.058
26.30000 394.069
26.31000 394.264
26.32000 394.446
26.33000 395.875
26.34000 398.894
26.35000 401.909
26.36000 400.456
26.37000 395.298
26.38000 390.206
26.39000 385.647
26.40000 381.495
26.41000 377.717
26.42000 380.987
26.43000 386.937
26.44000 392.722
26.45000 396.855
26.46000 400.561
26.47000 403.814
26.48000 401.470
26.49000 398.639
26.50000 396.427
26.51000 396.699
26.52000 397.232
26.53000 396.307
26.54000 391.407
26.55000 386.281
26.56000 382.920
26.57000 383.647
26.58000 384.250
26.59000 386.843
26.60000 391.932
26.61000 397.012
26.62000 395.248
26.63000 387.902
26.64000 380.654
26.65000 380.044
26.66000 382.986
26.67000 385.863
26.68000 387.533
26.69000 388.751
26.70000 389.354
26.71000 383.918
26.72000 376.946
26.73000 370.842
26.74000 368.896
26.75000 367.823
26.76000 368.027
26.77000 373.284
26.78000 379.060
26.79000 383.962
26.80000 386.515
26.81000 388.940
26.82000 390.521
26.83000 392.985
26.84000 394.807
26.85000 394.532
26.86000 391.667
26.87000 388.802
26.88000 388.520
26.89000 390.311
26.90000 392.077
26.91000 393.006
26.92000 393.471
26.93000 393.859
26.94000 392.882
26.95000 391.400
26.96000 389.808
26.97000 387.150
26.98000 384.225
26.99000 381.671
27.00000 385.980
27.01000 390.634
27.02000 393.985
27.03000 392.254
27.04000 390.012
27.05000 386.905
27.06000 381.507
27.07000 375.987
27.08000 372.406
27.09000 372.749
27.10000 373.060
27.11000 375.984
27.12000 382.081
27.13000 388.176
27.14000 391.118
27.15000 391.568
27.16000 392.012
27.17000 395.429
27.18000 400.279
27.19000 404.820
27.20000 403.999
27.21000 401.227
27.22000 398.502
27.23000 396.220
27.24000 394.048
27.25000 392.156
27.26000 390.850
27.27000 389.816
27.28000 389.539
27.29000 392.171
27.30000 395.090
27.31000 394.753
27.32000 385.916
27.33000 376.638
27.34000 370.651
27.35000 366.464
27.36000 363.430
27.37000 363.302
27.38000 366.647
27.39000 370.001
27.40000 373.673
27.41000 377.594
27.42000 381.453
27.43000 380.863
27.44000 378.030
27.45000 375.323
27.46000 374.744
27.47000 374.930
27.48000 375.246
27.49000 376.768
27.50000 378.584
27.51000 380.162
27.52000 379.710
27.53000 379.049
27.54000 377.836
27.55000 374.532
27.56000 371.027
27.57000 371.856
27.58000 383.833
27.59000 396.373
27.60000 404.419
27.61000 390.101
27.62000 379.359
27.63000 376.651
27.64000 383.393
27.65000 390.117
27.66000 388.998
27.67000 381.871
27.68000 374.862
27.69000 375.010
27.70000 378.732
27.71000 382.412
27.72000 385.407
27.73000 388.161
27.74000 390.644
27.75000 390.676
27.76000 390.122
27.77000 389.641
27.78000 383.736
27.79000 377.988
27.80000 373.215
27.81000 372.077
27.82000 371.283
27.83000 369.064
27.84000 363.237
27.85000 357.233
27.86000 353.402
27.87000 372.600
27.88000 386.861
27.89000 389.893
27.90000 379.925
27.91000 369.973
27.92000 366.652
27.93000 368.333
27.94000 369.984
27.95000 372.666
27.96000 375.767
27.97000 378.694
27.98000 378.852
27.99000 378.045
28.00000 377.072
28.01000 374.627
28.02000 371.835
28.03000 369.422
28.04000 365.785
28.05000 362.536
28.06000 363.032
28.07000 377.268
28.08000 392.774
28.09000 403.544
28.10000 402.479
28.11000 400.851
28.12000 399.818
28.13000 387.562
28.14000 378.530
28.15000 371.677
28.16000 367.306
28.17000 362.959
28.18000 362.526
28.19000 364.998
28.20000 367.426
28.21000 375.497
28.22000 386.019
28.23000 395.958
28.24000 396.782
28.25000 394.476
28.26000 392.154
28.27000 389.689
28.28000 387.191
28.29000 385.036
28.30000 385.718
28.31000 386.659
28.32000 387.068
28.33000 385.555
28.34000 383.869
28.35000 381.942
28.36000 379.423
28.37000 376.877
28.38000 375.271
28.39000 380.491
28.40000 384.350
28.41000 382.660
28.42000 374.750
28.43000 366.874
28.44000 365.560
28.45000 369.042
28.46000 372.458
28.47000 371.531
28.48000 368.566
28.49000 365.650
28.50000 363.475
28.51000 361.551
28.52000 360.603
28.53000 367.986
28.54000 377.273
28.55000 385.262
28.56000 382.407
28.57000 378.632
28.58000 373.493
28.59000 363.502
28.60000 353.082
28.61000 347.965
28.62000 355.725
28.63000 364.061
28.64000 369.288
28.65000 372.618
28.66000 375.004
28.67000 375.569
28.68000 374.127
28.69000 372.679
28.70000 370.254
28.71000 367.127
28.72000 364.062
28.73000 364.755
28.74000 367.185
28.75000 369.425
28.76000 368.833
28.77000 367.295
28.78000 365.302
28.79000 359.499
28.80000 352.838
28.81000 347.124
28.82000 347.060
28.83000 347.701
28.84000 350.408
28.85000 360.360
28.86000 370.939
28.87000 379.213
28.88000 381.969
28.89000 384.486
28.90000 386.055
28.91000 374.168
28.92000 365.462
28.93000 364.708
28.94000 372.577
28.95000 380.395
28.96000 380.501
28.97000 375.140
28.98000 369.890
28.99000 364.537
29.00000 359.344
29.01000 354.622
29.02000 356.719
29.03000 361.057
29.04000 364.999
29.05000 365.684
29.06000 365.648
29.07000 365.618
29.08000 369.182
29.09000 372.621
29.10000 374.528
29.11000 371.142
29.12000 367.307
29.13000 365.172
29.14000 367.045
29.15000 369.087
29.16000 370.353
29.17000 364.574
29.18000 360.350
29.19000 360.862
29.20000 366.425
29.21000 371.961
29.22000 373.947
29.23000 373.454
29.24000 372.971
29.25000 370.153
29.26000 366.386
29.27000 363.070
29.28000 366.129
29.29000 371.253
29.30000 374.958
29.31000 367.236
29.32000 357.023
29.33000 348.308
29.34000 355.905
29.35000 364.230
29.36000 370.878
29.37000 371.820
29.38000 372.289
29.39000 373.051
29.40000 374.493
29.41000 375.963
29.42000 376.868
29.43000 358.863
29.44000 345.773
29.45000 346.397
29.46000 361.404
29.47000 376.293
29.48000 376.841
29.49000 367.529
29.50000 358.425
29.51000 356.978
29.52000 359.018
29.53000 361.255
29.54000 366.217
29.55000 372.049
29.56000 376.562
29.57000 370.650
29.58000 362.500
29.59000 355.564
29.60000 360.509
29.61000 366.039
29.62000 370.971
29.63000 373.892
29.64000 376.651
29.65000 379.518
29.66000 382.631
29.67000 385.754
29.68000 387.666
29.69000 385.237
29.70000 383.461
29.71000 381.275
29.72000 378.665
29.73000 376.054
29.74000 373.260
29.75000 370.342
29.76000 367.492
29.77000 366.865
29.78000 367.244
29.79000 367.920
29.80000 372.594
29.81000 378.526
29.82000 384.727
29.83000 393.017
29.84000 401.749
29.85000 409.159
29.86000 404.752
29.87000 399.714
29.88000 398.543
29.89000 410.157
29.90000 422.781
29.91000 431.150
29.92000 429.906
29.93000 428.296
29.94000 427.317
29.95000 432.104
29.96000 435.568
29.97000 439.421
29.98000 443.669
29.99000 447.898
30.00000 450.190
30.01000 451.190
30.02000 452.166
30.03000 452.301
30.04000 452.066
30.05000 451.961
30.06000 453.575
30.07000 455.722
30.08000 457.364
30.09000 455.159
30.10000 452.155
30.11000 449.613
30.12000 447.782
30.13000 446.329
30.14000 443.376
30.15000 435.539
30.16000 427.325
30.17000 423.299
30.18000 428.598
30.19000 434.240
30.20000 437.651
30.21000 431.257
30.22000 426.629
30.23000 421.919
30.24000 417.127
30.25000 412.409
30.26000 414.773
30.27000 421.789
30.28000 428.629
30.29000 422.428
30.30000 410.942
30.31000 400.943
30.32000 410.047
30.33000 424.986
30.34000 437.305
30.35000 430.038
30.36000 418.764
30.37000 409.250
30.38000 402.193
30.39000 396.564
30.40000 393.974
30.41000 401.138
30.42000 409.037
30.43000 411.028
30.44000 400.058
30.45000 388.628
30.46000 381.760
30.47000 389.212
30.48000 394.606
30.49000 400.370
30.50000 406.497
30.51000 412.568
30.52000 413.615
30.53000 411.411
30.54000 409.265
30.55000 408.371
30.56000 408.044
30.57000 407.799
30.58000 408.569
30.59000 409.645
30.60000 409.792
30.61000 403.121
30.62000 395.078
30.63000 388.309
30.64000 397.135
30.65000 406.161
30.66000 414.799
30.67000 422.208
30.68000 429.527
30.69000 431.778
30.70000 423.070
30.71000 413.987
30.72000 408.564
30.73000 409.630
30.74000 410.427
30.75000 411.594
30.76000 413.119
30.77000 414.676
30.78000 418.888
30.79000 424.793
30.80000 430.537
30.81000 437.398
30.82000 444.390
30.83000 450.221
30.84000 441.812
30.85000 429.181
30.86000 418.712
30.87000 423.823
30.88000 432.021
30.89000 438.900
30.90000 447.162
30.91000 454.185
30.92000 460.915
30.93000 466.735
30.94000 472.490
30.95000 479.650
30.96000 489.805
30.97000 500.060
30.98000 506.143
30.99000 526.200
31.00000 540.472
31.01000 559.975
31.02000 584.436
31.03000 608.805
31.04000 626.034
31.05000 638.778
31.06000 651.165
31.07000 667.285
31.08000 684.126
31.09000 702.656
31.10000 741.430
31.11000 786.119
31.12000 832.061
31.13000 886.865
31.14000 943.398
31.15000 990.701
31.16000 1077.156
31.17000 1153.001
31.18000 1228.907
31.19000 1305.004
31.20000 1381.113
31.21000 1465.139
31.22000 1565.796
31.23000 1666.983
31.24000 1726.623
31.25000 1878.019
31.26000 1985.370
31.27000 2105.662
31.28000 2238.019
31.29000 2369.967
31.30000 2472.037
31.31000 2555.622
31.32000 2636.780
31.33000 2708.877
31.34000 2773.683
31.35000 2838.255
31.36000 2900.080
31.37000 2961.115
31.38000 3017.615
31.39000 3042.587
31.40000 3061.513
31.41000 3077.302
31.42000 3057.930
31.43000 3038.336
31.44000 3006.574
31.45000 2937.975
31.46000 2866.855
31.47000 2795.789
31.48000 2724.830
31.49000 2653.875
31.50000 2612.327
31.51000 2468.486
31.52000 2366.703
31.53000 2261.804
31.54000 2154.048
31.55000 2046.298
31.56000 1939.039
31.57000 1832.077
31.58000 1728.331
31.59000 1627.343
31.60000 1532.712
31.61000 1438.346
31.62000 1347.023
31.63000 1256.563
31.64000 1168.768
31.65000 1099.180
31.66000 1033.027
31.67000 977.998
31.68000 922.911
31.69000 877.305
31.70000 836.185
31.71000 808.444
31.72000 781.596
31.73000 752.621
31.74000 719.308
31.75000 685.866
31.76000 666.414
31.77000 629.597
31.78000 603.664
31.79000 588.108
31.80000 581.911
31.81000 575.489
31.82000 554.366
31.83000 524.415
31.84000 495.396
31.85000 484.046
31.86000 480.158
31.87000 476.073
31.88000 469.783
31.89000 462.877
31.90000 455.201
31.91000 442.355
31.92000 428.551
31.93000 417.102
31.94000 413.981
31.95000 412.203
31.96000 411.220
31.97000 412.574
31.98000 414.080
31.99000 411.719
32.00000 401.580
32.01000 391.221
32.02000 385.236
32.03000 383.224
32.04000 381.830
32.05000 380.807
32.06000 380.112
32.07000 379.423
32.08000 379.137
32.09000 379.089
32.10000 379.042
32.11000 377.870
32.12000 376.333
32.13000 374.619
32.14000 370.972
32.15000 366.794
32.16000 362.882
32.17000 360.729
32.18000 358.898
32.19000 357.384
32.20000 350.592
32.21000 344.494
32.22000 341.456
32.23000 347.282
32.24000 353.669
32.25000 357.244
32.26000 355.242
32.27000 353.089
32.28000 351.854
32.29000 352.630
32.30000 353.177
32.31000 351.281
32.32000 347.254
32.33000 343.288
32.34000 342.909
32.35000 344.622
32.36000 346.278
32.37000 346.113
32.38000 345.273
32.39000 344.363
32.40000 342.705
32.41000 340.844
32.42000 338.682
32.43000 334.562
32.44000 330.091
32.45000 326.405
32.46000 328.835
32.47000 331.397
32.48000 333.892
32.49000 336.195
32.50000 338.487
32.51000 339.071
32.52000 336.322
32.53000 333.486
32.54000 331.870
32.55000 338.947
32.56000 343.902
32.57000 342.613
32.58000 335.963
32.59000 329.357
32.60000 325.206
32.61000 322.466
32.62000 319.820
32.63000 329.126
32.64000 342.313
32.65000 353.801
32.66000 347.431
32.67000 336.291
32.68000 326.771
32.69000 327.554
32.70000 330.157
32.71000 332.297
32.72000 331.415
32.73000 330.418
32.74000 328.332
32.75000 323.181
32.76000 317.846
32.77000 317.610
32.78000 327.192
32.79000 337.020
32.80000 342.581
32.81000 329.336
32.82000 320.080
32.83000 316.922
32.84000 318.919
32.85000 320.924
32.86000 323.367
32.87000 326.058
32.88000 328.654
32.89000 327.899
32.90000 325.970
32.91000 324.512
32.92000 327.899
32.93000 332.561
32.94000 335.985
32.95000 331.665
32.96000 326.000
32.97000 321.359
32.98000 325.668
32.99000 329.989
33.00000 330.301
33.01000 319.492
33.02000 308.033
33.03000 300.462
33.04000 300.269
33.05000 300.253
33.06000 300.243
33.07000 310.848
33.08000 318.212
33.09000 315.397
33.10000 304.115
33.11000 293.152
33.12000 298.145
33.13000 312.037
33.14000 325.420
33.15000 322.673
33.16000 314.315
33.17000 306.805
33.18000 307.830
33.19000 311.067
33.20000 313.387
33.21000 310.066
33.22000 305.783
33.23000 302.285
33.24000 301.172
33.25000 300.466
33.26000 300.711
33.27000 303.550
33.28000 306.537
33.29000 309.219
33.30000 311.333
33.31000 313.433
33.32000 314.605
33.33000 312.236
33.34000 310.588
33.35000 308.646
33.36000 306.464
33.37000 304.200
33.38000 298.052
33.39000 289.769
33.40000 281.799
33.41000 288.247
33.42000 299.376
33.43000 309.672
33.44000 311.742
33.45000 311.712
33.46000 310.872
33.47000 305.133
33.48000 298.573
33.49000 293.232
33.50000 301.651
33.51000 309.688
33.52000 315.472
33.53000 315.187
33.54000 314.567
33.55000 313.168
33.56000 310.334
33.57000 307.470
33.58000 305.883
33.59000 295.998
33.60000 289.182
33.61000 290.848
33.62000 299.348
33.63000 307.574
33.64000 303.338
33.65000 292.352
33.66000 281.795
33.67000 282.009
33.68000 285.945
33.69000 289.825
33.70000 293.161
33.71000 296.361
33.72000 299.564
33.73000 302.795
33.74000 306.030
33.75000 308.655
33.76000 303.108
33.77000 297.913
33.78000 292.650
33.79000 287.209
33.80000 281.758
33.81000 280.590
33.82000 287.199
33.83000 293.970
33.84000 297.694
33.85000 295.281
33.86000 293.607
33.87000 291.060
33.88000 287.821
33.89000 284.714
33.90000 287.317
33.91000 292.970
33.92000 298.395
33.93000 297.214
33.94000 293.855
33.95000 290.531
33.96000 287.533
33.97000 284.616
33.98000 282.330
33.99000 283.733
34.00000 285.734
34.01000 287.353
34.02000 289.904
34.03000 292.055
34.04000 293.832
34.05000 294.633
34.06000 295.382
34.07000 296.243
34.08000 297.303
34.09000 298.367
34.10000 298.948
34.11000 292.794
34.12000 288.564
34.13000 285.768
34.14000 284.093
34.15000 282.512
34.16000 284.909
34.17000 289.398
34.18000 293.701
34.19000 289.336
34.20000 282.351
34.21000 275.839
34.22000 273.723
34.23000 272.680
34.24000 272.593
34.25000 278.003
34.26000 284.289
34.27000 289.357
34.28000 289.868
34.29000 289.924
34.30000 289.913
34.31000 289.732
34.32000 289.542
34.33000 290.005
34.34000 291.620
34.35000 293.257
34.36000 294.144
34.37000 296.394
34.38000 297.935
34.39000 298.901
34.40000 299.426
34.41000 300.033
34.42000 303.893
34.43000 309.439
34.44000 314.749
34.45000 313.609
34.46000 310.414
34.47000 306.859
34.48000 300.026
34.49000 292.406
34.50000 286.110
34.51000 287.289
34.52000 289.640
34.53000 291.529
34.54000 292.639
34.55000 293.480
34.56000 292.171
34.57000 285.396
34.58000 278.351
34.59000 274.253
34.60000 275.274
34.61000 276.388
34.62000 276.987
34.63000 283.377
34.64000 287.748
34.65000 291.800
34.66000 295.612
34.67000 299.206
34.68000 294.503
34.69000 285.561
34.70000 277.012
34.71000 273.705
34.72000 272.333
34.73000 271.573
34.74000 276.264
34.75000 282.244
34.76000 287.623
34.77000 289.662
34.78000 291.186
34.79000 292.408
34.80000 289.135
34.81000 286.149
34.82000 284.103
34.83000 284.411
34.84000 284.832
34.85000 284.425
34.86000 282.599
34.87000 280.749
34.88000 279.762
34.89000 282.190
34.90000 283.833
34.91000 282.688
34.92000 279.465
34.93000 276.307
34.94000 275.494
34.95000 275.862
34.96000 276.213
34.97000 283.589
34.98000 292.692
34.99000 300.362
35.00000 295.522
35.01000 287.769
35.02000 280.457
35.03000 275.562
35.04000 271.032
35.05000 267.416
35.06000 265.518
35.07000 264.112
35.08000 262.214
35.09000 259.102
35.10000 255.935
35.11000 256.972
35.12000 265.104
35.13000 273.349
35.14000 277.716
35.15000 273.453
35.16000 270.578
35.17000 272.343
35.18000 277.511
35.19000 282.514
35.20000 281.689
35.21000 277.971
35.22000 274.426
35.23000 278.760
35.24000 285.261
35.25000 290.433
35.26000 284.218
35.27000 275.393
35.28000 268.922
35.29000 275.100
35.30000 283.159
35.31000 289.571
35.32000 281.814
35.33000 274.549
35.34000 269.750
35.35000 270.959
35.36000 272.438
35.37000 271.841
35.38000 267.790
35.39000 263.687
35.40000 261.531
35.41000 266.277
35.42000 269.486
35.43000 270.977
35.44000 271.227
35.45000 271.559
35.46000 274.688
35.47000 279.184
35.48000 283.466
35.49000 283.230
35.50000 281.612
35.51000 280.725
35.52000 285.984
35.53000 292.629
35.54000 297.766
35.55000 294.924
35.56000 290.916
35.57000 287.739
35.58000 278.436
35.59000 270.525
35.60000 266.432
35.61000 271.504
35.62000 276.975
35.63000 278.754
35.64000 274.485
35.65000 270.130
35.66000 267.860
35.67000 265.440
35.68000 263.810
35.69000 262.903
35.70000 262.512
35.71000 262.244
35.72000 265.983
35.73000 271.653
35.74000 277.044
35.75000 274.083
35.76000 268.799
35.77000 264.343
35.78000 266.712
35.79000 270.597
35.80000 273.839
35.81000 273.730
35.82000 273.140
35.83000 272.674
35.84000 270.265
35.85000 268.198
35.86000 267.147
35.87000 268.499
35.88000 269.952
35.89000 266.373
35.90000 254.678
35.91000 242.872
35.92000 236.768
35.93000 253.733
35.94000 265.111
35.95000 267.967
35.96000 264.854
35.97000 261.856
35.98000 262.444
35.99000 264.735
36.00000 266.912
36.01000 270.865
36.02000 275.049
36.03000 278.758
36.04000 278.638
36.05000 277.681
36.06000 276.849
36.07000 276.661
36.08000 276.565
36.09000 276.488
36.10000 270.375
36.11000 265.075
36.12000 262.370
36.13000 265.717
36.14000 269.312
36.15000 270.767
36.16000 268.822
36.17000 266.833
36.18000 265.813
36.19000 274.377
36.20000 280.070
36.21000 277.634
36.22000 269.591
36.23000 261.788
36.24000 261.199
36.25000 263.988
36.26000 266.633
36.27000 266.610
36.28000 265.801
36.29000 265.220
36.30000 266.441
36.31000 268.050
36.32000 268.886
36.33000 265.832
36.34000 262.239
36.35000 259.420
36.36000 264.093
36.37000 268.316
36.38000 269.742
36.39000 264.738
36.40000 259.480
36.41000 258.183
36.42000 263.088
36.43000 268.068
36.44000 270.600
36.45000 264.695
36.46000 260.777
36.47000 261.539
36.48000 265.480
36.49000 269.275
36.50000 268.826
36.51000 266.416
36.52000 264.136
36.53000 263.730
36.54000 263.900
36.55000 263.965
36.56000 263.204
36.57000 262.267
36.58000 261.359
36.59000 260.591
36.60000 259.843
36.61000 259.258
36.62000 262.470
36.63000 265.275
36.64000 268.221
36.65000 271.488
36.66000 274.767
36.67000 274.899
36.68000 270.176
36.69000 265.399
36.70000 262.989
36.71000 266.989
36.72000 269.657
36.73000 271.650
36.74000 273.193
36.75000 274.628
36.76000 273.056
36.77000 270.116
36.78000 267.336
36.79000 268.184
36.80000 269.998
36.81000 271.269
36.82000 268.380
36.83000 264.624
36.84000 261.741
36.85000 263.121
36.86000 265.070
36.87000 266.588
36.88000 272.705
36.89000 277.862
36.90000 281.890
36.91000 283.397
36.92000 284.810
36.93000 284.735
36.94000 282.399
36.95000 280.040
36.96000 278.860
36.97000 281.716
36.98000 283.598
36.99000 283.260
37.00000 281.459
37.01000 279.695
37.02000 278.904
37.03000 278.551
37.04000 278.217
37.05000 278.711
37.06000 279.396
37.07000 280.143
37.08000 281.351
37.09000 282.654
37.10000 283.847
37.11000 284.514
37.12000 285.112
37.13000 285.576
37.14000 281.205
37.15000 277.439
37.16000 275.712
37.17000 278.472
37.18000 281.392
37.19000 281.315
37.20000 276.755
37.21000 272.151
37.22000 268.372
37.23000 265.404
37.24000 262.482
37.25000 263.654
37.26000 267.483
37.27000 271.317
37.28000 275.270
37.29000 279.275
37.30000 283.050
37.31000 279.951
37.32000 275.212
37.33000 270.804
37.34000 268.832
37.35000 267.351
37.36000 266.844
37.37000 270.938
37.38000 275.623
37.39000 279.246
37.40000 278.857
37.41000 278.313
37.42000 276.364
37.43000 271.367
37.44000 266.265
37.45000 261.641
37.46000 257.721
37.47000 253.807
37.48000 253.246
37.49000 255.929
37.50000 258.580
37.51000 258.498
37.52000 256.669
37.53000 254.851
37.54000 253.325
37.55000 251.927
37.56000 250.610
37.57000 251.160
37.58000 252.169
37.59000 252.690
37.60000 249.675
37.61000 245.956
37.62000 244.187
37.63000 251.487
37.64000 259.931
37.65000 266.436
37.66000 272.308
37.67000 276.921
37.68000 278.749
37.69000 274.621
37.70000 270.295
37.71000 265.076
37.72000 258.563
37.73000 252.040
37.74000 251.685
37.75000 257.197
37.76000 262.661
37.77000 264.393
37.78000 263.773
37.79000 263.106
37.80000 261.290
37.81000 258.981
37.82000 256.811
37.83000 257.540
37.84000 258.981
37.85000 260.933
37.86000 266.523
37.87000 272.824
37.88000 277.558
37.89000 275.116
37.90000 271.786
37.91000 269.230
37.92000 266.847
37.93000 264.974
37.94000 262.722
37.95000 259.671
37.96000 256.595
37.97000 257.967
37.98000 265.698
37.99000 273.477
38.00000 272.289
38.01000 262.715
38.02000 253.267
38.03000 253.205
38.04000 258.967
38.05000 264.552
38.06000 265.946
38.07000 265.568
38.08000 265.213
38.09000 264.351
38.10000 263.432
38.11000 262.944
38.12000 265.460
38.13000 268.555
38.14000 270.908
38.15000 269.924
38.16000 268.535
38.17000 267.473
38.18000 276.306
38.19000 283.809
38.20000 289.212
38.21000 290.252
38.22000 291.158
38.23000 291.686
38.24000 291.683
38.25000 291.676
38.26000 291.010
38.27000 289.737
38.28000 288.507
38.29000 290.194
38.30000 293.666
38.31000 297.239
38.32000 303.113
38.33000 309.947
38.34000 316.349
38.35000 319.082
38.36000 320.618
38.37000 323.291
38.38000 333.757
38.39000 345.698
38.40000 357.887
38.41000 371.175
38.42000 384.593
38.43000 394.812
38.44000 406.136
38.45000 415.108
38.46000 425.249
38.47000 437.783
38.48000 450.388
38.49000 468.911
38.50000 495.639
38.51000 522.411
38.52000 545.266
38.53000 564.557
38.54000 583.916
38.55000 607.715
38.56000 634.189
38.57000 660.924
38.58000 693.466
38.59000 728.395
38.60000 761.060
38.61000 792.227
38.62000 820.149
38.63000 847.138
38.64000 867.840
38.65000 887.372
38.66000 906.419
38.67000 923.354
38.68000 940.041
38.69000 952.700
38.70000 969.392
38.71000 982.712
38.72000 990.935
38.73000 988.876
38.74000 986.523
38.75000 980.189
38.76000 968.419
38.77000 956.624
38.78000 931.282
38.79000 893.924
38.80000 856.663
38.81000 825.411
38.82000 797.726
38.83000 770.295
38.84000 748.330
38.85000 728.579
38.86000 710.140
38.87000 672.438
38.88000 633.437
38.89000 597.168
38.90000 578.977
38.91000 564.098
38.92000 546.038
38.93000 514.294
38.94000 480.981
38.95000 455.810
38.96000 433.823
38.97000 416.744
38.98000 401.599
38.99000 390.300
39.00000 379.107
39.01000 370.313
39.02000 364.746
39.03000 359.198
39.04000 348.442
39.05000 333.145
39.06000 317.956
39.07000 309.032
39.08000 303.773
39.09000 298.899
39.10000 302.061
39.11000 308.434
39.12000 314.374
39.13000 304.466
39.14000 291.597
39.15000 280.122
39.16000 277.714
39.17000 276.941
39.18000 277.387
39.19000 282.998
39.20000 289.189
39.21000 293.849
39.22000 278.150
39.23000 264.878
39.24000 257.374
39.25000 261.174
39.26000 265.271
39.27000 269.118
39.28000 272.633
39.29000 276.144
39.30000 275.684
39.31000 271.809
39.32000 267.874
39.33000 260.600
39.34000 251.403
39.35000 242.721
39.36000 244.517
39.37000 250.437
39.38000 255.946
39.39000 248.438
39.40000 238.503
39.41000 230.669
39.42000 236.258
39.43000 244.228
39.44000 250.862
39.45000 251.933
39.46000 252.391
39.47000 252.734
39.48000 251.221
39.49000 249.951
39.50000 249.941
39.51000 252.363
39.52000 254.847
39.53000 255.047
39.54000 252.271
39.55000 249.485
39.56000 248.757
39.57000 249.772
39.58000 250.793
39.59000 252.129
39.60000 253.644
39.61000 254.954
39.62000 252.240
39.63000 247.965
39.64000 243.994
39.65000 242.354
39.66000 241.428
39.67000 240.754
39.68000 241.660
39.69000 242.840
39.70000 243.152
39.71000 239.895
39.72000 236.253
39.73000 233.534
39.74000 239.737
39.75000 244.979
39.76000 248.392
39.77000 248.321
39.78000 248.167
39.79000 247.233
39.80000 245.300
39.81000 243.366
39.82000 241.682
39.83000 240.212
39.84000 238.664
39.85000 233.235
39.86000 225.633
39.87000 218.542
39.88000 221.245
39.89000 227.694
39.90000 233.674
39.91000 231.265
39.92000 227.130
39.93000 224.348
39.94000 229.907
39.95000 236.897
39.96000 242.348
39.97000 241.578
39.98000 240.151
39.99000 239.089
40.00000 233.610
40.01000 229.151
40.02000 226.117
40.03000 225.756
40.04000 225.456
40.05000 229.099
40.06000 237.719
40.07000 246.345
40.08000 248.986
40.09000 246.716
40.10000 244.464
40.11000 243.029
40.12000 242.044
40.13000 240.774
40.14000 234.203
40.15000 225.633
40.16000 217.700
40.17000 224.809
40.18000 234.661
40.19000 242.379
40.20000 237.144
40.21000 229.727
40.22000 223.503
40.23000 222.032
40.24000 221.053
40.25000 220.328
40.26000 233.149
40.27000 243.686
40.28000 246.477
40.29000 234.949
40.30000 223.105
40.31000 218.974
40.32000 224.430
40.33000 229.906
40.34000 232.204
40.35000 231.933
40.36000 231.635
40.37000 230.054
40.38000 227.776
40.39000 225.669
40.40000 226.642
40.41000 228.759
40.42000 230.715
40.43000 228.451
40.44000 225.464
40.45000 223.130
40.46000 224.694
40.47000 226.903
40.48000 228.543
40.49000 227.952
40.50000 227.134
40.51000 226.531
40.52000 228.500
40.53000 230.133
40.54000 230.720
40.55000 229.404
40.56000 228.047
40.57000 226.567
40.58000 224.937
40.59000 223.310
40.60000 223.452
40.61000 224.996
40.62000 226.500
40.63000 226.235
40.64000 225.022
40.65000 223.804
40.66000 222.488
40.67000 221.135
40.68000 219.888
40.69000 222.686
40.70000 226.092
40.71000 228.755
40.72000 227.052
40.73000 224.638
40.74000 222.708
40.75000 222.650
40.76000 222.778
40.77000 222.871
40.78000 219.903
40.79000 217.483
40.80000 217.693
40.81000 222.625
40.82000 227.652
40.83000 231.063
40.84000 232.531
40.85000 233.992
40.86000 235.236
40.87000 236.304
40.88000 237.206
40.89000 231.146
40.90000 221.413
40.91000 212.063
40.92000 209.291
40.93000 208.892
40.94000 208.525
40.95000 211.477
40.96000 214.844
40.97000 217.466
40.98000 215.792
40.99000 213.431
41.00000 212.480
41.01000 216.896
41.02000 221.835
41.03000 225.447
41.04000 222.718
41.05000 220.362
41.06000 218.048
41.07000 215.808
41.08000 213.569
41.09000 212.559
41.10000 213.004
41.11000 213.451
41.12000 219.646
41.13000 230.212
41.14000 240.419
41.15000 236.186
41.16000 224.445
41.17000 213.167
41.18000 209.622
41.19000 208.827
41.20000 208.096
41.21000 210.027
41.22000 212.323
41.23000 214.322
41.24000 214.636
41.25000 214.684
41.26000 216.137
41.27000 222.855
41.28000 230.075
41.29000 235.332
41.30000 228.632
41.31000 223.016
41.32000 218.512
41.33000 215.949
41.34000 213.420
41.35000 211.091
41.36000 208.996
41.37000 206.907
41.38000 206.971
41.39000 208.659
41.40000 210.364
41.41000 212.718
41.42000 215.404
41.43000 218.176
41.44000 222.334
41.45000 226.977
41.46000 231.236
41.47000 227.074
41.48000 221.585
41.49000 216.485
41.50000 213.559
41.51000 210.968
41.52000 207.999
41.53000 203.630
41.54000 199.130
41.55000 195.867
41.56000 204.047
41.57000 210.756
41.58000 213.402
41.59000 209.073
41.60000 204.624
41.61000 203.444
41.62000 206.013
41.63000 208.580
41.64000 212.798
41.65000 218.211
41.66000 223.501
41.67000 224.260
41.68000 222.729
41.69000 221.235
41.70000 220.336
41.71000 219.642
41.72000 219.007
41.73000 214.424
41.74000 209.527
41.75000 205.807
41.76000 208.548
41.77000 212.271
41.78000 215.165
41.79000 215.042
41.80000 214.644
41.81000 214.356
41.82000 212.114
41.83000 210.325
41.84000 208.760
41.85000 207.572
41.86000 206.391
41.87000 207.469
41.88000 211.096
41.89000 214.714
41.90000 211.011
41.91000 201.993
41.92000 193.365
41.93000 198.596
41.94000 210.726
41.95000 222.149
41.96000 222.684
41.97000 219.511
41.98000 216.612
41.99000 210.740
42.00000 204.919
42.01000 200.160
42.02000 201.136
42.03000 202.969
42.04000 204.839
42.05000 206.844
42.06000 208.862
42.07000 210.312
42.08000 213.966
42.09000 216.838
42.10000 217.523
42.11000 214.560
42.12000 211.542
42.13000 209.825
42.14000 209.552
42.15000 209.282
42.16000 209.227
42.17000 209.328
42.18000 209.447
42.19000 210.218
42.20000 211.310
42.21000 212.395
42.22000 213.389
42.23000 214.352
42.24000 215.231
42.25000 210.152
42.26000 204.453
42.27000 200.364
42.28000 204.821
42.29000 210.531
42.30000 215.180
42.31000 216.082
42.32000 216.656
42.33000 217.068
42.34000 212.254
42.35000 208.403
42.36000 206.795
42.37000 208.871
42.38000 211.001
42.39000 212.880
42.40000 214.488
42.41000 216.088
42.42000 215.610
42.43000 213.668
42.44000 211.707
42.45000 209.098
42.46000 206.176
42.47000 203.630
42.48000 206.598
42.49000 211.389
42.50000 215.750
42.51000 210.460
42.52000 203.874
42.53000 199.154
42.54000 204.168
42.55000 210.586
42.56000 215.663
42.57000 216.082
42.58000 216.102
42.59000 216.116
42.60000 214.632
42.61000 213.452
42.62000 212.666
42.63000 212.518
42.64000 212.378
42.65000 211.785
42.66000 210.705
42.67000 209.629
42.68000 207.849
42.69000 205.597
42.70000 203.421
42.71000 203.624
42.72000 204.959
42.73000 206.273
42.74000 207.278
42.75000 208.182
42.76000 209.003
42.77000 206.566
42.78000 203.782
42.79000 201.354
42.80000 200.750
42.81000 200.404
42.82000 200.830
42.83000 203.902
42.84000 207.195
42.85000 209.529
42.86000 210.056
42.87000 210.400
42.88000 210.032
42.89000 208.530
42.90000 207.013
42.91000 205.568
42.92000 204.199
42.93000 202.836
42.94000 200.580
42.95000 197.738
42.96000 195.098
42.97000 198.602
42.98000 204.993
42.99000 210.841
43.00000 209.109
43.01000 204.943
43.02000 201.166
43.03000 201.777
43.04000 203.151
43.05000 205.317
43.06000 211.479
43.07000 218.196
43.08000 223.282
43.09000 222.859
43.10000 221.985
43.11000 221.369
43.12000 212.571
43.13000 205.646
43.14000 200.456
43.15000 197.990
43.16000 195.556
43.17000 199.329
43.18000 209.550
43.19000 219.718
43.20000 222.234
43.21000 219.566
43.22000 216.875
43.23000 213.497
43.24000 209.799
43.25000 206.294
43.26000 205.408
43.27000 205.351
43.28000 205.300
43.29000 208.239
43.30000 211.387
43.31000 213.161
43.32000 208.102
43.33000 202.110
43.34000 197.593
43.35000 197.981
43.36000 198.762
43.37000 199.310
43.38000 202.025
43.39000 204.145
43.40000 204.799
43.41000 203.187
43.42000 201.549
43.43000 199.605
43.44000 197.350
43.45000 195.107
43.46000 197.915
43.47000 204.033
43.48000 209.920
43.49000 209.266
43.50000 205.629
43.51000 201.996
43.52000 198.424
43.53000 194.872
43.54000 191.665
43.55000 198.191
43.56000 205.715
43.57000 211.419
43.58000 208.209
43.59000 203.806
43.60000 200.414
43.61000 200.336
43.62000 200.517
43.63000 200.644
43.64000 197.805
43.65000 195.576
43.66000 194.758
43.67000 196.089
43.68000 197.444
43.69000 199.471
43.70000 202.172
43.71000 204.858
43.72000 207.577
43.73000 210.282
43.74000 212.763
43.75000 209.180
43.76000 202.868
43.77000 197.158
43.78000 199.243
43.79000 203.725
43.80000 207.763
43.81000 207.817
43.82000 207.145
43.83000 204.987
43.84000 195.675
43.85000 185.422
43.86000 179.062
43.87000 185.280
43.88000 192.455
43.89000 197.448
43.90000 197.838
43.91000 198.007
43.92000 199.106
43.93000 201.601
43.94000 204.110
43.95000 203.829
43.96000 200.794
43.97000 197.778
43.98000 196.244
43.99000 195.682
44.00000 195.174
44.01000 196.064
44.02000 197.575
44.03000 198.970
44.04000 198.907
44.05000 198.403
44.06000 197.949
44.07000 200.225
44.08000 202.703
44.09000 204.747
44.10000 204.734
44.11000 204.455
44.12000 204.445
44.13000 205.292
44.14000 206.202
44.15000 206.833
44.16000 201.478
44.17000 197.291
44.18000 196.425
44.19000 200.467
44.20000 204.554
44.21000 206.266
44.22000 205.672
44.23000 205.082
44.24000 205.125
44.25000 205.566
44.26000 206.071
44.27000 208.224
44.28000 211.095
44.29000 213.685
44.30000 212.782
44.31000 210.835
44.32000 209.090
44.33000 206.089
44.34000 203.248
44.35000 200.745
44.36000 199.820
44.37000 199.095
44.38000 198.919
44.39000 200.466
44.40000 202.139
44.41000 203.291
44.42000 203.058
44.43000 202.849
44.44000 204.475
44.45000 208.775
44.46000 213.097
44.47000 214.286
44.48000 212.484
44.49000 210.696
44.50000 210.541
44.51000 211.404
44.52000 212.192
44.53000 211.155
44.54000 209.331
44.55000 207.894
44.56000 211.141
44.57000 215.764
44.58000 219.903
44.59000 217.855
44.60000 215.008
44.61000 213.945
44.62000 221.074
44.63000 229.222
44.64000 235.468
44.65000 235.836
44.66000 235.787
44.67000 235.753
44.68000 238.329
44.69000 240.322
44.70000 240.816
44.71000 239.162
44.72000 237.492
44.73000 240.687
44.74000 248.451
44.75000 256.152
44.76000 261.293
44.77000 264.775
44.78000 268.189
44.79000 269.973
44.80000 271.066
44.81000 272.407
44.82000 276.695
44.83000 281.837
44.84000 286.430
44.85000 294.594
44.86000 302.307
44.87000 308.619
44.88000 308.598
44.89000 307.806
44.90000 307.620
44.91000 309.285
44.92000 311.078
44.93000 312.301
44.94000 320.667
44.95000 327.088
44.96000 338.496
44.97000 356.945
44.98000 375.440
44.99000 382.425
45.00000 378.781
45.01000 375.169
45.02000 374.249
45.03000 374.967
45.04000 375.703
45.05000 376.852
45.06000 378.173
45.07000 379.681
45.08000 383.349
45.09000 387.634
45.10000 391.452
45.11000 389.660
45.12000 387.176
45.13000 384.309
45.14000 379.744
45.15000 374.976
45.16000 371.280
45.17000 370.804
45.18000 370.545
45.19000 370.370
45.20000 358.920
45.21000 350.125
45.22000 343.861
45.23000 341.116
45.24000 338.395
45.25000 335.568
45.26000 332.645
45.27000 329.749
45.28000 327.763
45.29000 326.357
45.30000 324.644
45.31000 316.065
45.32000 304.654
45.33000 293.803
45.34000 289.298
45.35000 286.577
45.36000 284.157
45.37000 280.315
45.38000 276.750
45.39000 272.987
45.40000 268.357
45.41000 263.624
45.42000 259.960
45.43000 259.457
45.44000 259.161
45.45000 258.961
45.46000 261.515
45.47000 263.475
45.48000 262.925
45.49000 258.935
45.50000 254.927
45.51000 253.060
45.52000 253.105
45.53000 253.150
45.54000 251.780
45.55000 249.614
45.56000 247.314
45.57000 242.108
45.58000 235.719
45.59000 229.791
45.60000 228.970
45.61000 229.563
45.62000 230.089
45.63000 227.201
45.64000 224.155
45.65000 220.922
45.66000 216.883
45.67000 212.752
45.68000 211.060
45.69000 216.484
45.70000 222.364
45.71000 226.316
45.72000 212.046
45.73000 201.069
45.74000 193.428
45.75000 190.288
45.76000 187.179
45.77000 191.867
45.78000 203.408
45.79000 214.830
45.80000 219.521
45.81000 220.246
45.82000 220.874
45.83000 219.445
45.84000 217.191
45.85000 214.729
45.86000 210.016
45.87000 204.690
45.88000 199.975
45.89000 193.563
45.90000 187.752
45.91000 183.140
45.92000 183.619
45.93000 184.672
45.94000 186.937
45.95000 192.685
45.96000 198.651
45.97000 202.640
45.98000 197.013
45.99000 192.651
46.00000 192.630
46.01000 198.372
46.02000 204.132
46.03000 202.662
46.04000 194.937
46.05000 187.297
46.06000 185.522
46.07000 187.101
46.08000 188.389
46.09000 183.753
46.10000 176.778
46.11000 171.114
46.12000 179.345
46.13000 191.313
46.14000 201.881
46.15000 195.986
46.16000 188.369
46.17000 182.700
46.18000 185.177
46.19000 188.554
46.20000 189.260
46.21000 182.396
46.22000 175.071
46.23000 170.199
46.24000 171.975
46.25000 173.414
46.26000 175.163
46.27000 177.318
46.28000 179.474
46.29000 181.628
46.30000 183.779
46.31000 185.905
46.32000 185.532
46.33000 183.780
46.34000 182.183
46.35000 183.664
46.36000 186.344
46.37000 188.588
46.38000 186.312
46.39000 182.840
46.40000 179.781
46.41000 175.629
46.42000 171.888
46.43000 168.675
46.44000 167.639
46.45000 166.840
46.46000 167.007
46.47000 169.871
46.48000 172.896
46.49000 174.897
46.50000 173.885
46.51000 173.083
46.52000 173.597
46.53000 175.805
46.54000 178.017
46.55000 179.108
46.56000 179.260
46.57000 179.410
46.58000 180.404
46.59000 181.834
46.60000 183.061
46.61000 180.383
46.62000 176.207
46.63000 172.110
46.64000 168.822
46.65000 165.745
46.66000 163.040
46.67000 170.220
46.68000 177.858
46.69000 183.250
46.70000 179.527
46.71000 174.836
46.72000 172.022
46.73000 174.370
46.74000 177.016
46.75000 178.758
46.76000 176.473
46.77000 174.721
46.78000 173.378
46.79000 172.556
46.80000 171.740
46.81000 173.165
46.82000 176.437
46.83000 179.666
46.84000 178.761
46.85000 175.653
46.86000 172.790
46.87000 174.508
46.88000 177.958
46.89000 181.359
46.90000 184.274
46.91000 187.064
46.92000 189.510
46.93000 181.833
46.94000 173.771
46.95000 167.397
46.96000 167.766
46.97000 168.837
46.98000 170.602
46.99000 174.249
47.00000 178.001
47.01000 180.458
47.02000 177.433
47.03000 175.121
47.04000 173.311
47.05000 172.128
47.06000 170.945
47.07000 169.037
47.08000 166.543
47.09000 164.083
47.10000 162.854
47.11000 162.311
47.12000 161.996
47.13000 165.817
47.14000 171.179
47.15000 175.667
47.16000 171.641
47.17000 165.459
47.18000 160.052
47.19000 161.942
47.20000 164.600
47.21000 167.470
47.22000 171.168
47.23000 174.951
47.24000 177.197
47.25000 175.336
47.26000 173.251
47.27000 171.893
47.28000 172.004
47.29000 172.108
47.30000 172.575
47.31000 173.487
47.32000 174.393
47.33000 172.761
47.34000 169.101
47.35000 165.495
47.36000 165.119
47.37000 166.438
47.38000 167.706
47.39000 168.049
47.40000 168.054
47.41000 168.127
47.42000 168.852
47.43000 169.741
47.44000 170.516
47.45000 169.864
47.46000 169.107
47.47000 168.006
47.48000 165.575
47.49000 163.011
47.50000 161.002
47.51000 160.456
47.52000 159.988
47.53000 159.685
47.54000 157.697
47.55000 156.218
47.56000 159.176
47.57000 167.496
47.58000 175.802
47.59000 177.044
47.60000 172.734
47.61000 168.489
47.62000 167.680
47.63000 168.659
47.64000 169.605
47.65000 169.998
47.66000 170.190
47.67000 170.120
47.68000 167.607
47.69000 164.495
47.70000 161.785
47.71000 161.079
47.72000 160.751
47.73000 160.187
47.74000 158.721
47.75000 157.167
47.76000 155.657
47.77000 154.264
47.78000 152.876
47.79000 151.983
47.80000 158.974
47.81000 164.189
47.82000 166.633
47.83000 165.781
47.84000 164.923
47.85000 164.328
47.86000 163.935
47.87000 163.548
47.88000 161.414
47.89000 158.464
47.90000 155.728
47.91000 156.588
47.92000 158.731
47.93000 160.849
47.94000 162.744
47.95000 164.586
47.96000 166.185
47.97000 167.467
47.98000 168.518
47.99000 169.863
48.00000 172.316
48.01000 174.875
48.02000 176.866
48.03000 177.401
48.04000 177.865
48.05000 178.161
48.06000 169.165
48.07000 162.488
48.08000 160.635
48.09000 164.427
48.10000 168.202
48.11000 166.272
48.12000 159.995
48.13000 153.823
48.14000 156.223
48.15000 162.807
48.16000 169.154
48.17000 171.637
48.18000 172.761
48.19000 173.465
48.20000 170.403
48.21000 166.444
48.22000 163.016
48.23000 160.314
48.24000 158.111
48.25000 156.773
48.26000 158.641
48.27000 160.809
48.28000 162.631
48.29000 163.583
48.30000 164.492
48.31000 165.071
48.32000 165.111
48.33000 165.133
48.34000 164.689
48.35000 163.706
48.36000 162.741
48.37000 165.230
48.38000 170.309
48.39000 175.300
48.40000 174.183
48.41000 170.115
48.42000 166.445
48.43000 169.097
48.44000 173.940
48.45000 177.839
48.46000 173.404
48.47000 167.016
48.48000 161.498
48.49000 162.985
48.50000 165.154
48.51000 166.939
48.52000 167.325
48.53000 167.582
48.54000 167.760
48.55000 167.741
48.56000 167.713
48.57000 167.695
48.58000 163.167
48.59000 159.829
48.60000 158.108
48.61000 158.217
48.62000 158.336
48.63000 159.956
48.64000 162.684
48.65000 165.362
48.66000 163.988
48.67000 160.712
48.68000 157.704
48.69000 158.867
48.70000 161.453
48.71000 163.755
48.72000 163.597
48.73000 162.870
48.74000 162.244
48.75000 160.834
48.76000 159.540
48.77000 159.057
48.78000 161.491
48.79000 164.186
48.80000 166.939
48.81000 169.832
48.82000 172.731
48.83000 174.556
48.84000 171.462
48.85000 169.167
48.86000 166.056
48.87000 162.035
48.88000 158.019
48.89000 154.806
48.90000 152.177
48.91000 149.599
48.92000 148.622
48.93000 148.441
48.94000 148.654
48.95000 154.830
48.96000 163.013
48.97000 170.094
48.98000 167.822
48.99000 163.425
49.00000 159.647
49.01000 162.277
49.02000 165.301
49.03000 166.941
49.04000 163.679
49.05000 159.987
49.06000 157.458
49.07000 157.739
49.08000 158.146
49.09000 158.400
49.10000 161.231
49.11000 163.303
49.12000 165.148
49.13000 166.747
49.14000 168.304
49.15000 163.641
49.16000 154.526
49.17000 145.593
49.18000 146.989
49.19000 153.152
49.20000 159.140
49.21000 162.559
49.22000 165.125
49.23000 167.146
49.24000 164.640
49.25000 161.120
49.26000 158.103
49.27000 163.260
49.28000 168.612
49.29000 171.444
49.30000 165.478
49.31000 158.757
49.32000 155.069
49.33000 158.601
49.34000 162.442
49.35000 164.832
49.36000 157.401
49.37000 151.950
49.38000 148.867
49.39000 148.338
49.40000 147.828
49.41000 150.009
49.42000 154.085
49.43000 158.076
49.44000 158.369
49.45000 156.952
49.46000 155.835
49.47000 159.044
49.48000 163.667
49.49000 167.778
49.50000 167.720
49.51000 166.743
49.52000 165.909
49.53000 162.702
49.54000 159.715
49.55000 156.675
49.56000 153.455
49.57000 150.219
49.58000 147.982
49.59000 148.089
49.60000 148.293
49.61000 148.419
49.62000 147.177
49.63000 146.271
49.64000 148.331
49.65000 153.536
49.66000 158.707
49.67000 159.588
49.68000 157.490
49.69000 155.437
49.70000 153.374
49.71000 151.390
49.72000 149.753
49.73000 152.997
49.74000 157.813
49.75000 162.223
49.76000 163.388
49.77000 163.850
49.78000 164.243
49.79000 165.311
49.80000 166.290
49.81000 166.087
49.82000 161.887
49.83000 157.359
49.84000 154.283
49.85000 154.568
49.86000 154.988
49.87000 155.246
49.88000 158.766
49.89000 161.318
49.90000 163.023
49.91000 163.846
49.92000 164.662
49.93000 164.805
49.94000 164.488
49.95000 164.177
49.96000 163.803
49.97000 163.415
49.98000 163.019
49.99000 162.502
50.00000 161.948
50.01000 161.269
50.02000 159.617
50.03000 157.758
50.04000 156.178
50.05000 157.714
50.06000 159.363
50.07000 160.616
50.08000 160.548
50.09000 160.375
50.10000 159.415
50.11000 156.662
50.12000 153.840
50.13000 152.115
50.14000 154.029
50.15000 155.429
50.16000 156.621
50.17000 157.601
50.18000 158.572
50.19000 158.675
50.20000 158.193
50.21000 157.722
50.22000 155.233
50.23000 151.966
50.24000 149.089
50.25000 151.403
50.26000 155.341
50.27000 159.228
50.28000 162.718
50.29000 166.125
50.30000 169.014
50.31000 173.888
50.32000 178.197
50.33000 180.479
50.34000 176.093
50.35000 171.184
50.36000 168.395
50.37000 170.370
50.38000 172.525
50.39000 173.833
50.40000 171.925
50.41000 170.539
50.42000 173.440
50.43000 180.665
50.44000 187.855
50.45000 191.612
50.46000 193.092
50.47000 194.536
50.48000 194.964
50.49000 194.935
50.50000 195.241
50.51000 199.929
50.52000 205.967
50.53000 211.615
50.54000 214.316
50.55000 216.408
50.56000 218.176
50.57000 216.308
50.58000 214.345
50.59000 214.038
50.60000 219.104
50.61000 224.582
50.62000 227.337
50.63000 224.061
50.64000 220.567
50.65000 218.458
50.66000 230.583
50.67000 239.316
50.68000 243.533
50.69000 243.275
50.70000 243.049
50.71000 245.869
50.72000 250.681
50.73000 255.370
50.74000 256.582
50.75000 256.261
50.76000 255.545
50.77000 249.772
50.78000 242.464
50.79000 236.372
50.80000 239.316
50.81000 244.098
50.82000 248.129
50.83000 239.292
50.84000 230.519
50.85000 223.116
50.86000 220.085
50.87000 217.381
50.88000 216.301
50.89000 218.765
50.90000 221.353
50.91000 222.904
50.92000 217.087
50.93000 212.906
50.94000 208.161
50.95000 202.868
50.96000 197.619
50.97000 196.268
50.98000 197.427
50.99000 198.555
51.00000 197.476
51.01000 195.526
51.02000 193.513
51.03000 190.712
51.04000 187.677
51.05000 184.327
51.06000 178.691
51.07000 172.597
51.08000 167.473
51.09000 168.831
51.10000 170.650
51.11000 171.548
51.12000 169.551
51.13000 167.342
51.14000 166.561
51.15000 168.852
51.16000 171.247
51.17000 172.674
51.18000 166.674
51.19000 162.377
51.20000 159.896
51.21000 159.157
51.22000 158.450
51.23000 160.413
51.24000 164.068
51.25000 167.624
51.26000 168.509
51.27000 168.254
51.28000 167.649
51.29000 162.779
51.30000 156.652
51.31000 151.751
51.32000 155.639
51.33000 161.258
51.34000 165.969
51.35000 159.501
51.36000 152.959
51.37000 148.451
51.38000 150.247
51.39000 152.492
51.40000 154.274
51.41000 155.074
51.42000 155.842
51.43000 156.296
51.44000 158.815
51.45000 160.606
51.46000 160.240
51.47000 157.841
51.48000 155.447
51.49000 153.457
51.50000 151.720
51.51000 150.032
51.52000 152.140
51.53000 155.679
51.54000 158.993
51.55000 159.632
51.56000 159.493
51.57000 159.258
51.58000 158.350
51.59000 157.313
51.60000 156.445
51.61000 161.003
51.62000 165.339
51.63000 166.733
51.64000 159.135
51.65000 150.912
51.66000 144.825
51.67000 143.201
51.68000 141.718
51.69000 140.845
51.70000 145.832
51.71000 149.377
51.72000 150.605
51.73000 149.683
51.74000 148.766
51.75000 148.161
51.76000 147.746
51.77000 147.344
51.78000 147.521
51.79000 147.919
51.80000 148.306
51.81000 148.553
51.82000 148.760
51.83000 148.655
51.84000 146.397
51.85000 143.727
51.86000 141.502
51.87000 143.155
51.88000 144.911
51.89000 146.849
51.90000 149.332
51.91000 151.852
51.92000 152.422
51.93000 148.977
51.94000 145.410
51.95000 143.327
51.96000 136.958
51.97000 132.460
51.98000 132.837
51.99000 137.660
52.00000 142.402
52.01000 141.699
52.02000 137.695
52.03000 133.811
52.04000 133.893
52.05000 135.523
52.06000 137.321
52.07000 141.015
52.08000 145.244
52.09000 148.941
52.10000 149.024
52.11000 148.429
52.12000 147.935
52.13000 145.127
52.14000 142.578
52.15000 140.952
52.16000 142.066
52.17000 143.361
52.18000 145.047
52.19000 147.525
52.20000 150.027
52.21000 151.479
52.22000 144.190
52.23000 139.041
52.24000 139.075
52.25000 143.755
52.26000 148.380
52.27000 149.440
52.28000 148.371
52.29000 147.335
52.30000 143.166
52.31000 138.015
52.32000 133.429
52.33000 135.129
52.34000 138.577
52.35000 141.875
52.36000 144.168
52.37000 146.277
52.38000 148.023
52.39000 144.361
52.40000 140.822
52.41000 139.973
52.42000 146.992
52.43000 154.519
52.44000 157.681
52.45000 152.108
52.46000 146.292
52.47000 142.940
52.48000 141.725
52.49000 140.884
52.50000 140.815
52.51000 141.428
52.52000 141.997
52.53000 139.952
52.54000 136.367
52.55000 132.900
52.56000 132.945
52.57000 134.321
52.58000 135.777
52.59000 138.110
52.60000 140.683
52.61000 142.663
52.62000 140.763
52.63000 138.159
52.64000 136.008
52.65000 141.154
52.66000 146.077
52.67000 149.805
52.68000 150.088
52.69000 150.155
52.70000 147.942
52.71000 141.232
52.72000 134.402
52.73000 130.492
52.74000 139.512
52.75000 145.849
52.76000 145.993
52.77000 140.761
52.78000 135.607
52.79000 134.889
52.80000 136.744
52.81000 138.537
52.82000 140.602
52.83000 142.651
52.84000 144.303
52.85000 141.724
52.86000 138.004
52.87000 134.944
52.88000 136.136
52.89000 138.087
52.90000 139.694
52.91000 137.748
52.92000 135.824
52.93000 134.986
52.94000 137.235
52.95000 139.673
52.96000 140.189
52.97000 136.969
52.98000 133.654
52.99000 131.769
53.00000 138.671
53.01000 143.500
53.02000 143.193
53.03000 138.498
53.04000 133.899
53.05000 134.526
53.06000 138.138
53.07000 141.625
53.08000 144.615
53.09000 147.247
53.10000 149.083
53.11000 142.613
53.12000 133.935
53.13000 127.602
53.14000 136.108
53.15000 147.219
53.16000 156.340
53.17000 155.030
53.18000 153.023
53.19000 151.546
53.20000 151.558
53.21000 151.657
53.22000 152.537
53.23000 154.911
53.24000 157.322
53.25000 158.683
53.26000 154.288
53.27000 151.223
53.28000 150.471
53.29000 151.662
53.30000 152.862
53.31000 154.462
53.32000 156.287
53.33000 158.047
53.34000 159.163
53.35000 159.981
53.36000 160.807
53.37000 161.727
53.38000 162.671
53.39000 162.837
53.40000 158.171
53.41000 152.670
53.42000 148.168
53.43000 147.943
53.44000 148.132
53.45000 149.554
53.46000 154.374
53.47000 159.391
53.48000 161.936
53.49000 159.812
53.50000 157.579
53.51000 156.327
53.52000 157.780
53.53000 158.788
53.54000 156.944
53.55000 152.741
53.56000 148.600
53.57000 147.504
53.58000 148.098
53.59000 148.669
53.60000 150.936
53.61000 153.667
53.62000 156.426
53.63000 159.452
53.64000 162.547
53.65000 163.929
53.66000 154.839
53.67000 143.973
53.68000 135.107
53.69000 134.135
53.70000 134.016
53.71000 135.761
53.72000 142.578
53.73000 149.682
53.74000 153.378
53.75000 150.736
53.76000 147.951
53.77000 146.401
53.78000 141.609
53.79000 138.291
53.80000 136.209
53.81000 135.132
53.82000 134.102
53.83000 135.300
53.84000 137.716
53.85000 140.040
53.86000 142.864
53.87000 145.686
53.88000 148.346
53.89000 149.418
53.90000 150.086
53.91000 149.766
53.92000 143.506
53.93000 136.254
53.94000 130.357
53.95000 134.346
53.96000 138.430
53.97000 141.421
53.98000 141.485
53.99000 141.388
54.00000 141.410
54.01000 141.648
54.02000 141.891
54.03000 142.026
54.04000 145.090
54.05000 147.207
54.06000 148.362
54.07000 148.748
54.08000 149.080
54.09000 147.023
54.10000 143.679
54.11000 140.467
54.12000 142.302
54.13000 145.762
54.14000 149.065
54.15000 150.876
54.16000 152.313
54.17000 153.083
54.18000 149.910
54.19000 146.090
54.20000 142.994
54.21000 140.249
54.22000 138.041
54.23000 136.235
54.24000 135.491
54.25000 134.803
54.26000 136.179
54.27000 141.284
54.28000 146.466
54.29000 149.308
54.30000 146.342
54.31000 144.295
54.32000 142.911
54.33000 142.050
54.34000 141.170
54.35000 139.468
54.36000 137.329
54.37000 135.277
54.38000 137.469
54.39000 140.957
54.40000 144.018
54.41000 143.061
54.42000 141.113
54.43000 139.375
54.44000 138.848
54.45000 138.517
54.46000 138.250
54.47000 144.305
54.48000 149.733
54.49000 152.262
54.50000 147.239
54.51000 141.825
54.52000 139.357
54.53000 142.136
54.54000 145.016
54.55000 146.585
54.56000 138.040
54.57000 132.185
54.58000 131.709
54.59000 135.409
54.60000 139.106
54.61000 142.667
54.62000 146.157
54.63000 149.502
54.64000 147.930
54.65000 144.822
54.66000 141.603
54.67000 137.363
54.68000 132.875
54.69000 129.505
54.70000 132.520
54.71000 136.546
54.72000 139.789
54.73000 140.598
54.74000 141.065
54.75000 141.544
54.76000 142.053
54.77000 142.564
54.78000 142.839
54.79000 142.702
54.80000 142.558
54.81000 142.480
54.82000 143.098
54.83000 143.520
54.84000 143.549
54.85000 143.276
54.86000 142.963
54.87000 141.058
54.88000 138.332
54.89000 135.724
54.90000 139.589
54.91000 145.317
54.92000 150.619
54.93000 152.070
54.94000 152.602
54.95000 152.948
54.96000 152.255
54.97000 151.399
54.98000 150.713
54.99000 145.735
55.00000 141.375
55.01000 139.566
55.02000 144.211
55.03000 149.171
55.04000 152.276
55.05000 152.173
55.06000 152.013
55.07000 151.928
55.08000 150.735
55.09000 149.920
55.10000 149.103
55.11000 148.284
55.12000 147.488
55.13000 147.529
55.14000 147.995
55.15000 148.441
55.16000 147.199
55.17000 145.498
55.18000 143.934
55.19000 143.585
55.20000 143.521
55.21000 144.223
55.22000 149.160
55.23000 154.746
55.24000 159.214
55.25000 157.170
55.26000 155.032
55.27000 153.259
55.28000 152.398
55.29000 151.579
55.30000 152.346
55.31000 155.812
55.32000 159.323
55.33000 161.192
55.34000 164.331
55.35000 166.460
55.36000 167.135
55.37000 166.733
55.38000 166.380
55.39000 167.833
55.40000 170.189
55.41000 172.438
55.42000 169.326
55.43000 164.729
55.44000 161.347
55.45000 168.509
55.46000 178.112
55.47000 185.514
55.48000 180.953
55.49000 174.592
55.50000 169.520
55.51000 179.137
55.52000 187.965
55.53000 195.944
55.54000 201.833
55.55000 207.627
55.56000 213.506
55.57000 219.528
55.58000 225.553
55.59000 228.734
55.60000 220.903
55.61000 215.656
55.62000 222.995
55.63000 239.516
55.64000 255.660
55.65000 258.710
55.66000 255.296
55.67000 252.041
55.68000 262.901
55.69000 277.390
55.70000 291.769
55.71000 305.215
55.72000 318.449
55.73000 332.144
55.74000 348.299
55.75000 364.819
55.76000 377.944
55.77000 389.347
55.78000 398.408
55.79000 410.306
55.80000 429.079
55.81000 448.159
55.82000 464.286
55.83000 475.530
55.84000 486.701
55.85000 492.553
55.86000 501.124
55.87000 506.989
55.88000 521.827
55.89000 543.111
55.90000 563.906
55.91000 568.410
55.92000 564.986
55.93000 561.727
55.94000 576.033
55.95000 594.687
55.96000 611.058
55.97000 608.373
55.98000 601.409
55.99000 594.554
56.00000 588.264
56.01000 582.057
56.02000 577.142
56.03000 564.084
56.04000 553.023
56.05000 541.458
56.06000 528.690
56.07000 515.870
56.08000 508.765
56.09000 510.967
56.10000 513.300
56.11000 514.513
56.12000 479.331
56.13000 455.614
56.14000 439.307
56.15000 428.244
56.16000 417.190
56.17000 406.424
56.18000 395.795
56.19000 385.693
56.20000 372.250
56.21000 358.813
56.22000 345.697
56.23000 335.216
56.24000 325.317
56.25000 315.333
56.26000 304.910
56.27000 294.423
56.28000 286.149
56.29000 269.318
56.30000 255.237
56.31000 243.826
56.32000 238.702
56.33000 233.840
56.34000 231.731
56.35000 234.040
56.36000 236.407
56.37000 237.627
56.38000 227.157
56.39000 220.115
56.40000 214.744
56.41000 210.535
56.42000 206.338
56.43000 202.518
56.44000 198.874
56.45000 195.416
56.46000 190.098
56.47000 184.636
56.48000 179.540
56.49000 177.388
56.50000 175.877
56.51000 173.894
56.52000 169.506
56.53000 164.780
56.54000 161.065
56.55000 159.809
56.56000 158.966
56.57000 159.049
56.58000 161.278
56.59000 163.595
56.60000 163.586
56.61000 159.898
56.62000 156.165
56.63000 154.255
56.64000 154.664
56.65000 154.938
56.66000 155.043
56.67000 155.032
56.68000 155.081
56.69000 156.912
56.70000 159.573
56.71000 162.095
56.72000 157.625
56.73000 151.455
56.74000 145.652
56.75000 142.738
56.76000 140.444
56.77000 139.425
56.78000 144.800
56.79000 151.053
56.80000 155.953
56.81000 147.092
56.82000 139.125
56.83000 133.926
56.84000 135.055
56.85000 136.432
56.86000 137.307
56.87000 137.400
56.88000 137.485
56.89000 137.527
56.90000 138.948
56.91000 139.910
56.92000 142.067
56.93000 145.031
56.94000 147.882
56.95000 147.457
56.96000 145.529
56.97000 143.704
56.98000 141.774
56.99000 139.968
57.00000 138.477
57.01000 139.423
57.02000 140.882
57.03000 141.804
57.04000 140.083
57.05000 138.005
57.06000 136.383
57.07000 136.941
57.08000 137.524
57.09000 136.798
57.10000 133.124
57.11000 129.338
57.12000 129.124
57.13000 134.391
57.14000 139.718
57.15000 142.397
57.16000 137.806
57.17000 134.737
57.18000 131.478
57.19000 128.093
57.20000 124.794
57.21000 123.867
57.22000 124.015
57.23000 124.154
57.24000 132.618
57.25000 142.754
57.26000 151.150
57.27000 146.338
57.28000 138.785
57.29000 133.109
57.30000 136.540
57.31000 141.179
57.32000 144.787
57.33000 141.623
57.34000 138.691
57.35000 136.014
57.36000 133.908
57.37000 131.822
57.38000 129.362
57.39000 126.335
57.40000 123.303
57.41000 122.615
57.42000 124.257
57.43000 125.901
57.44000 127.679
57.45000 129.545
57.46000 131.371
57.47000 132.139
57.48000 132.435
57.49000 132.714
57.50000 129.887
57.51000 126.429
57.52000 123.193
57.53000 121.620
57.54000 120.386
57.55000 120.026
57.56000 123.836
57.57000 128.189
57.58000 131.562
57.59000 128.568
57.60000 125.810
57.61000 125.104
57.62000 128.892
57.63000 132.840
57.64000 133.735
57.65000 130.087
57.66000 126.396
57.67000 124.127
57.68000 123.247
57.69000 122.381
57.70000 122.613
57.71000 123.556
57.72000 124.529
57.73000 126.306
57.74000 128.437
57.75000 130.444
57.76000 128.627
57.77000 125.913
57.78000 123.280
57.79000 121.244
57.80000 119.328
57.81000 118.874
57.82000 125.291
57.83000 132.586
57.84000 138.219
57.85000 133.436
57.86000 129.039
57.87000 124.708
57.88000 120.521
57.89000 116.339
57.90000 115.523
57.91000 119.642
57.92000 123.803
57.93000 126.493
57.94000 127.768
57.95000 129.035
57.96000 129.659
57.97000 129.875
57.98000 130.096
57.99000 130.466
58.00000 130.901
58.01000 131.309
58.02000 131.848
58.03000 132.376
58.04000 132.272
58.05000 127.624
58.06000 122.078
58.07000 118.332
58.08000 122.914
58.09000 128.539
58.10000 132.867
58.11000 128.373
58.12000 124.318
58.13000 122.748
58.14000 126.466
58.15000 130.358
58.16000 131.340
58.17000 128.122
58.18000 124.870
58.19000 123.284
58.20000 123.271
58.21000 123.320
58.22000 128.095
58.23000 135.831
58.24000 143.061
58.25000 138.064
58.26000 127.842
58.27000 118.243
58.28000 117.194
58.29000 118.512
58.30000 119.906
58.31000 121.833
58.32000 123.864
58.33000 125.090
58.34000 122.650
58.35000 119.758
58.36000 117.542
58.37000 118.769
58.38000 119.929
58.39000 121.417
58.40000 123.594
58.41000 125.793
58.42000 126.159
58.43000 123.918
58.44000 121.658
58.45000 119.938
58.46000 118.720
58.47000 117.549
58.48000 119.816
58.49000 124.206
58.50000 128.495
58.51000 130.427
58.52000 131.368
58.53000 132.249
58.54000 130.642
58.55000 128.527
58.56000 126.671
58.57000 126.613
58.58000 126.899
58.59000 127.203
58.60000 127.585
58.61000 127.977
58.62000 128.276
58.63000 124.085
58.64000 120.541
58.65000 117.126
58.66000 113.976
58.67000 110.834
58.68000 110.990
58.69000 115.764
58.70000 120.569
58.71000 124.004
58.72000 126.184
58.73000 128.305
58.74000 126.358
58.75000 121.936
58.76000 117.700
58.77000 117.690
58.78000 119.433
58.79000 121.065
58.80000 122.666
58.81000 124.113
58.82000 125.009
58.83000 122.154
58.84000 118.592
58.85000 115.687
58.86000 115.683
58.87000 116.022
58.88000 116.280
58.89000 121.611
58.90000 126.070
58.91000 128.466
58.92000 126.660
58.93000 124.730
58.94000 122.838
58.95000 120.996
58.96000 119.156
58.97000 118.547
58.98000 119.046
58.99000 119.509
59.00000 117.636
59.01000 114.365
59.02000 111.404
59.03000 115.282
59.04000 121.958
59.05000 128.197
59.06000 129.480
59.07000 129.390
59.08000 129.155
59.09000 127.955
59.10000 126.575
59.11000 125.489
59.12000 125.673
59.13000 126.005
59.14000 126.257
59.15000 127.243
59.16000 128.054
59.17000 128.349
59.18000 127.607
59.19000 126.835
59.20000 125.998
59.21000 125.072
59.22000 124.146
59.23000 120.011
59.24000 113.045
59.25000 106.204
59.26000 107.038
59.27000 112.403
59.28000 117.656
59.29000 120.501
59.30000 122.375
59.31000 124.124
59.32000 124.024
59.33000 123.473
59.34000 122.906
59.35000 122.231
59.36000 121.537
59.37000 120.712
59.38000 119.324
59.39000 117.873
59.40000 116.778
59.41000 120.006
59.42000 122.749
59.43000 124.611
59.44000 124.727
59.45000 124.796
59.46000 122.396
59.47000 116.694
59.48000 110.979
59.49000 110.639
59.50000 114.973
59.51000 119.296
59.52000 123.013
59.53000 126.376
59.54000 129.553
59.55000 128.861
59.56000 126.633
59.57000 124.557
59.58000 125.694
59.59000 127.508
59.60000 129.003
59.61000 128.432
59.62000 127.492
59.63000 126.340
59.64000 124.293
59.65000 122.148
59.66000 120.535
59.67000 119.269
59.68000 118.296
59.69000 118.349
59.70000 120.399
59.71000 122.502
59.72000 123.299
59.73000 122.379
59.74000 121.452
59.75000 121.090
59.76000 121.212
59.77000 121.307
59.78000 119.949
59.79000 117.760
59.80000 115.586
59.81000 113.744
59.82000 112.031
59.83000 110.439
59.84000 112.791
59.85000 115.865
59.86000 118.689
59.87000 119.929
59.88000 120.890
59.89000 120.540
59.90000 114.750
59.91000 108.365
59.92000 103.586
59.93000 111.920
59.94000 119.035
59.95000 123.103
59.96000 121.311
59.97000 119.375
59.98000 117.451
59.99000 115.545
60.00000 113.640
60.01000 115.530
60.02000 120.608
60.03000 125.558
60.04000 123.863
60.05000 118.414
60.06000 113.302
60.07000 114.775
60.08000 118.791
60.09000 122.519
60.10000 122.853
60.11000 122.351
60.12000 121.796
60.13000 120.909
60.14000 119.964
60.15000 119.387
60.16000 120.312
60.17000 121.397
60.18000 122.206
60.19000 117.669
60.20000 113.892
60.21000 113.452
60.22000 119.329
60.23000 125.357
60.24000 127.990
60.25000 126.294
60.26000 124.584
60.27000 122.835
60.28000 121.060
60.29000 119.299
60.30000 118.269
60.31000 117.644
60.32000 116.907
60.33000 114.035
60.34000 110.351
60.35000 106.937
60.36000 108.839
60.37000 111.787
60.38000 114.839
60.39000 118.531
60.40000 122.331
60.41000 124.984
60.42000 123.026
60.43000 120.584
60.44000 118.771
60.45000 124.686
60.46000 129.623
60.47000 130.473
60.48000 123.693
60.49000 116.739
60.50000 113.833
60.51000 116.008
60.52000 118.197
60.53000 118.761
60.54000 118.000
60.55000 117.272
60.56000 118.031
60.57000 119.608
60.58000 121.106
60.59000 121.174
60.60000 120.705
60.61000 120.271
60.62000 119.817
60.63000 119.404
60.64000 118.923
60.65000 118.035
60.66000 117.078
60.67000 116.291
60.68000 116.177
60.69000 116.133
60.70000 116.100
60.71000 119.120
60.72000 121.593
60.73000 122.332
60.74000 119.884
60.75000 117.367
60.76000 115.547
60.77000 114.589
60.78000 113.635
60.79000 113.940
60.80000 115.252
60.81000 116.549
60.82000 117.165
60.83000 117.413
60.84000 117.829
60.85000 121.259
60.86000 125.802
60.87000 129.998
60.88000 130.385
60.89000 129.876
60.90000 128.805
60.91000 124.404
60.92000 119.454
60.93000 115.616
60.94000 116.117
60.95000 117.055
60.96000 117.745
60.97000 115.932
60.98000 114.424
60.99000 115.462
61.00000 121.112
61.01000 126.857
61.02000 130.303
61.03000 130.953
61.04000 131.595
61.05000 128.761
61.06000 123.203
61.07000 117.782
61.08000 118.257
61.09000 121.873
61.10000 125.306
61.11000 125.523
61.12000 124.569
61.13000 123.689
61.14000 125.519
61.15000 127.757
61.16000 129.806
61.17000 130.756
61.18000 131.527
61.19000 131.678
61.20000 129.444
61.21000 126.975
61.22000 125.164
61.23000 129.919
61.24000 133.857
61.25000 134.901
61.26000 130.777
61.27000 126.551
61.28000 124.959
61.29000 126.521
61.30000 128.085
61.31000 127.788
61.32000 126.051
61.33000 124.395
61.34000 126.105
61.35000 129.582
61.36000 132.803
61.37000 131.678
61.38000 128.992
61.39000 126.521
61.40000 126.562
61.41000 127.143
61.42000 128.425
61.43000 133.719
61.44000 139.651
61.45000 143.714
61.46000 140.700
61.47000 137.001
61.48000 134.301
61.49000 148.927
61.50000 160.879
61.51000 174.773
61.52000 192.083
61.53000 209.458
61.54000 225.492
61.55000 239.946
61.56000 254.362
61.57000 274.845
61.58000 299.828
61.59000 324.730
61.60000 346.402
61.61000 366.403
61.62000 385.461
61.63000 388.944
61.64000 386.914
61.65000 385.051
61.66000 394.839
61.67000 406.063
61.68000 417.086
61.69000 426.973
61.70000 436.682
61.71000 442.297
61.72000 432.641
61.73000 421.540
61.74000 413.469
61.75000 397.204
61.76000 384.380
61.77000 368.658
61.78000 347.911
61.79000 327.074
61.80000 300.932
61.81000 268.641
61.82000 236.430
61.83000 216.250
61.84000 205.230
61.85000 194.251
61.86000 184.855
61.87000 176.267
61.88000 167.888
61.89000 162.880
61.90000 159.049
61.91000 155.537
61.92000 149.088
61.93000 142.727
61.94000 137.834
61.95000 141.079
61.96000 145.574
61.97000 147.769
61.98000 141.515
61.99000 134.479
62.00000 129.385
62.01000 132.448
62.02000 135.099
62.03000 136.384
62.04000 135.337
62.05000 134.251
62.06000 135.464
62.07000 139.297
62.08000 143.122
62.09000 142.337
62.10000 138.155
62.11000 134.095
62.12000 134.479
62.13000 137.096
62.14000 139.593
62.15000 140.200
62.16000 140.157
62.17000 140.119
62.18000 137.042
62.19000 133.680
62.20000 131.436
62.21000 135.292
62.22000 140.068
62.23000 143.793
62.24000 143.710
62.25000 143.282
62.26000 142.973
62.27000 132.615
62.28000 124.322
62.29000 120.579
62.30000 124.496
62.31000 128.535
62.32000 130.551
62.33000 130.296
62.34000 130.040
62.35000 131.322
62.36000 133.711
62.37000 136.036
62.38000 136.143
62.39000 135.152
62.40000 134.304
62.41000 135.660
62.42000 137.761
62.43000 139.680
62.44000 142.132
62.45000 144.417
62.46000 146.148
62.47000 144.909
62.48000 143.230
62.49000 141.676
62.50000 140.567
62.51000 139.497
62.52000 138.730
62.53000 147.313
62.54000 154.197
62.55000 156.647
62.56000 151.746
62.57000 146.733
62.58000 142.824
62.59000 140.131
62.60000 137.449
62.61000 135.458
62.62000 133.978
62.63000 132.580
62.64000 133.941
62.65000 136.649
62.66000 139.162
62.67000 138.766
62.68000 137.399
62.69000 136.154
62.70000 136.798
62.71000 137.745
62.72000 138.183
62.73000 135.932
62.74000 133.290
62.75000 132.208
62.76000 136.606
62.77000 141.481
62.78000 144.962
62.79000 139.001
62.80000 134.138
62.81000 131.389
62.82000 132.092
62.83000 132.844
62.84000 132.975
62.85000 132.434
62.86000 131.894
62.87000 134.558
62.88000 139.448
62.89000 144.158
62.90000 143.092
62.91000 139.247
62.92000 135.734
62.93000 137.047
62.94000 139.949
62.95000 142.588
62.96000 144.606
62.97000 146.269
62.98000 147.228
62.99000 144.525
63.00000 141.298
63.01000 138.601
63.02000 137.739
63.03000 137.032
63.04000 136.530
63.05000 143.562
63.06000 149.158
63.07000 149.810
63.08000 142.501
63.09000 135.085
63.10000 133.121
63.11000 136.981
63.12000 140.824
63.13000 144.131
63.14000 147.031
63.15000 149.848
63.16000 150.083
63.17000 149.095
63.18000 147.980
63.19000 145.083
63.20000 141.607
63.21000 138.452
63.22000 140.315
63.23000 142.927
63.24000 145.015
63.25000 144.427
63.26000 143.463
63.27000 142.924
63.28000 143.832
63.29000 144.859
63.30000 145.587
63.31000 144.800
63.32000 144.156
63.33000 143.472
63.34000 142.727
63.35000 141.980
63.36000 142.198
63.37000 143.428
63.38000 144.651
63.39000 145.248
63.40000 145.411
63.41000 145.495
63.42000 143.186
63.43000 139.760
63.44000 136.804
63.45000 140.360
63.46000 145.997
63.47000 151.103
63.48000 147.377
63.49000 142.422
63.50000 138.325
63.51000 138.545
63.52000 139.361
63.53000 140.831
63.54000 144.502
63.55000 148.352
63.56000 151.064
63.57000 151.555
63.58000 151.861
63.59000 152.608
63.60000 154.046
63.61000 155.491
63.62000 153.629
63.63000 148.350
63.64000 143.099
63.65000 141.955
63.66000 143.575
63.67000 145.165
63.68000 145.865
63.69000 146.155
63.70000 146.534
63.71000 148.105
63.72000 150.051
63.73000 151.811
63.74000 149.760
63.75000 147.246
63.76000 145.011
63.77000 144.151
63.78000 143.478
63.79000 143.846
63.80000 147.662
63.81000 151.752
63.82000 154.620
63.83000 146.607
63.84000 140.231
63.85000 138.276
63.86000 143.128
63.87000 148.055
63.88000 151.744
63.89000 154.174
63.90000 156.589
63.91000 157.541
63.92000 157.515
63.93000 157.508
63.94000 158.064
63.95000 158.875
63.96000 159.608
63.97000 159.305
63.98000 158.680
63.99000 158.117
64.00000 154.229
64.01000 150.206
64.02000 147.349
64.03000 150.170
64.04000 153.746
64.05000 156.203
64.06000 155.010
64.07000 153.534
64.08000 152.504
64.09000 153.280
64.10000 153.916
64.11000 155.238
64.12000 157.600
64.13000 159.973
64.14000 160.533
64.15000 159.283
64.16000 158.041
64.17000 158.011
64.18000 158.767
64.19000 159.574
64.20000 161.767
64.21000 164.580
64.22000 167.168
64.23000 166.860
64.24000 165.667
64.25000 164.594
64.26000 163.292
64.27000 162.110
64.28000 161.764
64.29000 165.419
64.30000 169.598
64.31000 172.528
64.32000 171.444
64.33000 170.057
64.34000 169.093
64.35000 167.529
64.36000 166.334
64.37000 165.568
64.38000 165.441
64.39000 165.320
64.40000 168.210
64.41000 174.055
64.42000 179.861
64.43000 179.796
64.44000 175.987
64.45000 172.356
64.46000 173.369
64.47000 176.431
64.48000 179.158
64.49000 177.687
64.50000 174.950
64.51000 172.492
64.52000 174.398
64.53000 176.837
64.54000 178.126
64.55000 174.000
64.56000 169.179
64.57000 165.715
64.58000 166.546
64.59000 167.694
64.60000 168.488
64.61000 167.966
64.62000 167.539
64.63000 169.030
64.64000 173.343
64.65000 177.681
64.66000 179.730
64.67000 179.570
64.68000 179.411
64.69000 180.139
64.70000 181.411
64.71000 182.693
64.72000 184.210
64.73000 185.828
64.74000 187.249
64.75000 186.229
64.76000 184.485
64.77000 182.922
64.78000 183.836
64.79000 185.064
64.80000 186.664
64.81000 189.989
64.82000 193.531
64.83000 196.201
64.84000 196.152
64.85000 195.907
64.86000 195.738
64.87000 201.161
64.88000 205.369
64.89000 207.270
64.90000 205.829
64.91000 204.361
64.92000 204.604
64.93000 206.470
64.94000 208.321
64.95000 207.964
64.96000 206.249
64.97000 204.858
64.98000 211.395
64.99000 221.330
65.00000 230.256
65.01000 227.063
65.02000 220.326
65.03000 214.300
65.04000 211.846
65.05000 210.314
65.06000 210.400
65.07000 217.880
65.08000 226.273
65.09000 233.249
65.10000 235.864
65.11000 238.173
65.12000 239.754
65.13000 233.141
65.14000 227.993
65.15000 228.546
65.16000 237.231
65.17000 245.976
65.18000 251.420
65.19000 253.781
65.20000 256.122
65.21000 259.534
65.22000 263.534
65.23000 267.461
65.24000 269.666
65.25000 271.143
65.26000 272.997
65.27000 279.278
65.28000 286.835
65.29000 293.579
65.30000 300.883
65.31000 307.334
65.32000 313.385
65.33000 317.632
65.34000 321.661
65.35000 325.981
65.36000 331.184
65.37000 336.447
65.38000 340.032
65.39000 344.091
65.40000 347.134
65.41000 355.174
65.42000 370.235
65.43000 385.345
65.44000 401.048
65.45000 417.296
65.46000 433.399
65.47000 441.194
65.48000 443.865
65.49000 446.712
65.50000 453.592
65.51000 462.152
65.52000 470.723
65.53000 479.431
65.54000 488.177
65.55000 495.966
65.56000 514.788
65.57000 532.954
65.58000 551.322
65.59000 570.587
65.60000 589.959
65.61000 612.621
65.62000 645.110
65.63000 678.255
65.64000 700.721
65.65000 767.654
65.66000 818.536
65.67000 891.477
65.68000 994.936
65.69000 1098.602
65.70000 1225.084
65.71000 1372.173
65.72000 1517.872
65.73000 1695.807
65.74000 1889.101
65.75000 2081.768
65.76000 2260.572
65.77000 2433.688
65.78000 2604.204
65.79000 2745.508
65.80000 2878.641
65.81000 2996.927
65.82000 3062.085
65.83000 3110.033
65.84000 3154.571
65.85000 3184.243
65.86000 3212.183
65.87000 3233.453
65.88000 3235.086
65.89000 3235.440
65.90000 3235.679
65.91000 3108.065
65.92000 3010.422
65.93000 2895.918
65.94000 2758.443
65.95000 2620.803
65.96000 2444.182
65.97000 2232.924
65.98000 2023.789
65.99000 1816.265
66.00000 1614.132
66.01000 1413.776
66.02000 1251.546
66.03000 1104.738
66.04000 962.866
66.05000 875.237
66.06000 802.557
66.07000 738.128
66.08000 687.813
66.09000 646.485
66.10000 607.259
66.11000 577.048
66.12000 547.868
66.13000 524.995
66.14000 520.420
66.15000 517.007
66.16000 514.717
66.17000 510.373
66.18000 507.107
66.19000 506.406
66.20000 509.147
66.21000 511.912
66.22000 520.351
66.23000 533.749
66.24000 547.004
66.25000 562.483
66.26000 578.882
66.27000 595.975
66.28000 627.519
66.29000 664.824
66.30000 701.392
66.31000 730.029
66.32000 756.514
66.33000 779.938
66.34000 824.163
66.35000 865.615
66.36000 900.913
66.37000 910.203
66.38000 916.578
66.39000 921.387
66.40000 921.716
66.41000 921.767
66.42000 921.802
66.43000 907.593
66.44000 896.791
66.45000 888.070
66.46000 882.098
66.47000 876.132
66.48000 865.256
66.49000 850.157
66.50000 835.228
66.51000 797.153
66.52000 746.984
66.53000 697.643
66.54000 665.056
66.55000 639.052
66.56000 612.829
66.57000 584.310
66.58000 555.177
66.59000 529.471
66.60000 515.628
66.61000 505.495
66.62000 493.760
66.63000 475.353
66.64000 456.214
66.65000 443.064
66.66000 446.791
66.67000 451.535
66.68000 454.684
66.69000 445.237
66.70000 438.020
66.71000 436.242
66.72000 441.536
66.73000 446.855
66.74000 450.305
66.75000 452.173
66.76000 454.018
66.77000 450.697
66.78000 444.605
66.79000 438.716
66.80000 436.837
66.81000 436.510
66.82000 436.801
66.83000 443.460
66.84000 451.796
66.85000 459.134
66.86000 459.385
66.87000 458.539
66.88000 456.769
66.89000 451.212
66.90000 445.247
66.91000 443.017
66.92000 451.162
66.93000 459.915
66.94000 465.697
66.95000 465.224
66.96000 464.765
66.97000 466.777
66.98000 471.953
66.99000 477.134
67.00000 479.292
67.01000 478.932
67.02000 478.576
67.03000 482.621
67.04000 488.953
67.05000 494.621
67.06000 487.607
67.07000 475.753
67.08000 465.397
67.09000 470.156
67.10000 478.837
67.11000 486.460
67.12000 492.729
67.13000 497.917
67.14000 501.256
67.15000 497.131
67.16000 492.219
67.17000 488.280
67.18000 487.008
67.19000 485.889
67.20000 485.153
67.21000 494.596
67.22000 501.718
67.23000 506.292
67.24000 507.656
67.25000 509.007
67.26000 509.098
67.27000 508.155
67.28000 507.225
67.29000 507.845
67.30000 509.277
67.31000 510.668
67.32000 511.270
67.33000 511.576
67.34000 512.511
67.35000 519.667
67.36000 528.413
67.37000 536.075
67.38000 532.581
67.39000 527.974
67.40000 523.097
67.41000 517.145
67.42000 511.082
67.43000 507.492
67.44000 510.574
67.45000 514.027
67.46000 516.283
67.47000 520.011
67.48000 522.772
67.49000 525.898
67.50000 529.475
67.51000 533.054
67.52000 536.583
67.53000 540.072
67.54000 543.511
67.55000 549.065
67.56000 555.575
67.57000 561.998
67.58000 566.845
67.59000 571.107
67.60000 574.212
67.61000 566.120
67.62000 555.209
67.63000 545.673
67.64000 556.535
67.65000 568.725
67.66000 577.070
67.67000 570.365
67.68000 562.135
67.69000 558.112
67.70000 565.275
67.71000 573.041
67.72000 578.088
67.73000 585.459
67.74000 590.894
67.75000 594.573
67.76000 596.105
67.77000 597.610
67.78000 592.077
67.79000 580.955
67.80000 569.997
67.81000 574.955
67.82000 588.022
67.83000 600.750
67.84000 607.556
67.85000 612.197
67.86000 616.170
67.87000 613.804
67.88000 609.867
67.89000 606.434
67.90000 612.320
67.91000 618.647
67.92000 623.147
67.93000 620.606
67.94000 617.367
67.95000 616.412
67.96000 621.441
67.97000 626.784
67.98000 630.238
67.99000 629.664
68.00000 629.186
68.01000 626.438
68.02000 620.961
68.03000 615.521
68.04000 621.422
68.05000 636.190
68.06000 650.729
68.07000 658.691
68.08000 663.050
68.09000 667.096
68.10000 665.799
68.11000 662.577
68.12000 659.731
68.13000 660.378
68.14000 661.877
68.15000 663.181
68.16000 670.852
68.17000 678.265
68.18000 685.231
68.19000 690.502
68.20000 695.607
68.21000 698.006
68.22000 693.412
68.23000 688.462
68.24000 685.280
68.25000 693.053
68.26000 698.874
68.27000 709.504
68.28000 725.818
68.29000 742.082
68.30000 744.137
68.31000 735.256
68.32000 726.520
68.33000 732.831
68.34000 746.500
68.35000 760.046
68.36000 771.530
68.37000 782.283
68.38000 793.680
68.39000 810.939
68.40000 829.609
68.41000 845.804
68.42000 841.939
68.43000 835.966
68.44000 833.950
68.45000 846.742
68.46000 860.942
68.47000 874.704
68.48000 887.348
68.49000 899.937
68.50000 907.983
68.51000 934.336
68.52000 953.757
68.53000 966.380
68.54000 971.095
68.55000 975.867
68.56000 995.449
68.57000 1026.249
68.58000 1056.526
68.59000 1108.945
68.60000 1170.572
68.61000 1231.768
68.62000 1286.003
68.63000 1337.801
68.64000 1389.204
68.65000 1437.073
68.66000 1484.105
68.67000 1524.801
68.68000 1606.338
68.69000 1681.012
68.70000 1761.289
68.71000 1862.220
68.72000 1965.072
68.73000 2053.510
68.74000 2105.771
68.75000 2156.294
68.76000 2188.401
68.77000 2321.863
68.78000 2420.045
68.79000 2522.833
68.80000 2630.891
68.81000 2738.985
68.82000 2852.804
68.83000 2970.893
68.84000 3086.882
68.85000 3283.605
68.86000 3512.841
68.87000 3750.681
68.88000 4124.152
68.89000 4544.398
68.90000 5024.294
68.91000 6026.459
68.92000 7150.372
68.93000 8120.375
68.94000 11041.063
68.95000 13770.377
68.96000 16927.211
68.97000 21636.207
68.98000 26486.551
68.99000 31666.914
69.00000 37663.617
69.01000 43698.379
69.02000 47511.395
69.03000 54337.473
69.04000 59318.969
69.05000 63299.637
69.06000 66153.297
69.07000 69001.172
69.08000 71012.859
69.09000 72410.438
69.10000 73782.023
69.11000 74892.711
69.12000 75838.711
69.13000 76797.125
69.14000 77946.297
69.15000 79160.313
69.16000 80273.242
69.17000 80518.250
69.18000 80564.055
69.19000 80603.484
69.20000 78140.406
69.21000 75738.484
69.22000 72842.070
69.23000 68176.977
69.24000 63354.293
69.25000 58758.859
69.26000 54717.496
69.27000 50701.180
69.28000 48178.207
69.29000 44640.555
69.30000 42071.750
69.31000 40171.598
69.32000 39012.172
69.33000 37855.031
69.34000 36982.980
69.35000 36317.105
69.36000 35664.168
69.37000 34535.309
69.38000 33223.824
69.39000 31847.172
69.40000 29494.660
69.41000 26815.271
69.42000 24091.803
69.43000 20997.133
69.44000 17818.580
69.45000 15089.576
69.46000 12453.050
69.47000 10235.464
69.48000 8193.798
69.49000 6772.027
69.50000 5404.281
69.51000 4250.508
69.52000 3610.952
69.53000 2993.923
69.54000 2608.588
69.55000 2297.435
69.56000 2073.769
69.57000 1893.614
69.58000 1760.875
69.59000 1628.421
69.60000 1534.165
69.61000 1467.110
69.62000 1401.415
69.63000 1332.843
69.64000 1265.564
69.65000 1200.158
69.66000 1162.114
69.67000 1133.103
69.68000 1104.168
69.69000 1075.869
69.70000 1047.712
69.71000 1023.601
69.72000 990.111
69.73000 960.713
69.74000 931.813
69.75000 904.646
69.76000 877.626
69.77000 852.779
69.78000 833.077
69.79000 813.594
69.80000 801.499
69.81000 774.366
69.82000 754.693
69.83000 742.445
69.84000 738.158
69.85000 733.814
69.86000 721.496
69.87000 703.586
69.88000 686.055
69.89000 684.422
69.90000 690.116
69.91000 694.815
69.92000 685.338
69.93000 671.249
69.94000 657.813
69.95000 649.664
69.96000 642.673
69.97000 636.703
69.98000 628.720
69.99000 621.756
70.00000 614.181
