20.00000 484.674
20.01000 480.768
20.02000 476.305
20.03000 472.480
20.04000 471.174
20.05000 470.125
20.06000 469.351
20.07000 468.829
20.08000 468.435
20.09000 471.968
20.10000 482.689
20.11000 493.564
20.12000 493.681
20.13000 480.567
20.14000 467.440
20.15000 465.721
20.16000 473.097
20.17000 480.427
20.18000 485.637
20.19000 489.706
20.20000 493.778
20.21000 497.893
20.22000 502.023
20.23000 505.835
20.24000 504.994
20.25000 503.198
20.26000 500.380
20.27000 491.529
20.28000 481.690
20.29000 473.933
20.30000 474.270
20.31000 475.416
20.32000 476.260
20.33000 471.309
20.34000 467.240
20.35000 464.973
20.36000 465.956
20.37000 467.006
20.38000 472.679
20.39000 483.951
20.40000 495.213
20.41000 494.561
20.42000 484.574
20.43000 474.704
20.44000 469.847
20.45000 467.648
20.46000 465.806
20.47000 470.114
20.48000 476.654
20.49000 482.679
20.50000 487.367
20.51000 491.268
20.52000 495.011
20.53000 497.844
20.54000 500.530
20.55000 501.487
20.56000 495.830
20.57000 489.524
20.58000 484.906
20.59000 473.230
20.60000 463.935
20.61000 461.922
20.62000 472.859
20.63000 484.048
20.64000 493.098
20.65000 499.598
20.66000 506.080
20.67000 499.661
20.68000 483.330
20.69000 467.213
20.70000 459.765
20.71000 456.850
20.72000 454.449
20.73000 460.706
20.74000 470.058
20.75000 478.658
20.76000 482.865
20.77000 485.672
20.78000 488.061
20.79000 488.061
20.80000 487.684
20.81000 486.719
20.82000 483.539
20.83000 480.147
20.84000 477.674
20.85000 475.330
20.86000 473.529
20.87000 473.534
20.88000 476.703
20.89000 479.931
20.90000 482.537
20.91000 484.414
20.92000 486.285
20.93000 485.939
20.94000 483.913
20.95000 481.911
20.96000 480.843
20.97000 480.256
20.98000 479.624
20.99000 478.269
21.00000 476.659
21.01000 475.181
21.02000 477.445
21.03000 480.260
21.04000 482.732
21.05000 483.286
21.06000 483.542
21.07000 483.070
21.08000 479.895
21.09000 476.467
21.10000 473.978
21.11000 473.145
21.12000 472.567
21.13000 473.961
21.14000 478.759
21.15000 483.617
21.16000 487.298
21.17000 489.621
21.18000 491.937
21.19000 495.194
21.20000 499.131
21.21000 502.875
21.22000 499.384
21.23000 492.221
21.24000 485.262
21.25000 481.569
21.26000 479.011
21.27000 476.667
21.28000 478.512
21.29000 481.030
21.30000 483.264
21.31000 483.926
21.32000 484.348
21.33000 484.172
21.34000 481.813
21.35000 479.253
21.36000 477.403
21.37000 471.064
21.38000 466.038
21.39000 466.528
21.40000 476.400
21.41000 486.428
21.42000 488.500
21.43000 481.542
21.44000 474.596
21.45000 473.977
21.46000 478.008
21.47000 481.977
21.48000 483.728
21.49000 484.369
21.50000 484.772
21.51000 481.462
21.52000 476.881
21.53000 472.693
21.54000 476.382
21.55000 481.280
21.56000 485.779
21.57000 488.116
21.58000 490.128
21.59000 490.799
21.60000 486.636
21.61000 482.038
21.62000 478.728
21.63000 485.412
21.64000 490.881
21.65000 492.671
21.66000 488.294
21.67000 483.821
21.68000 481.190
21.69000 480.615
21.70000 480.044
21.71000 482.335
21.72000 486.674
21.73000 490.820
21.74000 488.303
21.75000 482.501
21.76000 477.155
21.77000 478.710
21.78000 482.594
21.79000 486.138
21.80000 497.368
21.81000 508.882
21.82000 517.200
21.83000 508.458
21.84000 497.198
21.85000 489.550
21.86000 494.723
21.87000 501.025
21.88000 505.541
21.89000 511.503
21.90000 516.107
21.91000 521.408
21.92000 527.859
21.93000 534.327
21.94000 537.173
21.95000 536.041
21.96000 534.911
21.97000 537.368
21.98000 542.353
21.99000 547.433
22.00000 555.693
22.01000 565.497
22.02000 575.242
22.03000 584.109
22.04000 592.683
22.05000 600.492
22.06000 603.371
22.07000 604.942
22.08000 604.095
22.09000 590.552
22.10000 575.169
22.11000 565.662
22.12000 576.704
22.13000 589.516
22.14000 598.655
22.15000 591.487
22.16000 585.485
22.17000 583.517
22.18000 588.110
22.19000 592.795
22.20000 595.577
22.21000 596.304
22.22000 597.028
22.23000 594.338
22.24000 589.287
22.25000 584.073
22.26000 573.620
22.27000 560.657
22.28000 548.607
22.29000 549.724
22.30000 555.154
22.31000 560.090
22.32000 556.613
22.33000 551.897
22.34000 546.426
22.35000 537.052
22.36000 527.122
22.37000 519.609
22.38000 520.422
22.39000 521.936
22.40000 523.012
22.41000 518.688
22.42000 515.226
22.43000 512.319
22.44000 510.302
22.45000 508.297
22.46000 507.116
22.47000 506.809
22.48000 506.505
22.49000 506.749
22.50000 507.369
22.51000 507.790
22.52000 502.068
22.53000 493.446
22.54000 485.339
22.55000 484.483
22.56000 485.967
22.57000 487.313
22.58000 485.686
22.59000 483.680
22.60000 480.756
22.61000 473.162
22.62000 464.916
22.63000 459.507
22.64000 463.730
22.65000 468.747
22.66000 472.292
22.67000 476.905
22.68000 480.441
22.69000 479.727
22.70000 472.303
22.71000 464.796
22.72000 458.165
22.73000 452.449
22.74000 446.761
22.75000 446.831
22.76000 450.799
22.77000 454.603
22.78000 453.564
22.79000 450.270
22.80000 447.669
22.81000 454.576
22.82000 464.508
22.83000 473.499
22.84000 465.377
22.85000 454.999
22.86000 445.813
22.87000 442.593
22.88000 440.192
22.89000 439.032
22.90000 442.024
22.91000 445.351
22.92000 447.691
22.93000 445.667
22.94000 444.003
22.95000 442.850
22.96000 442.490
22.97000 442.139
22.98000 444.816
22.99000 450.604
23.00000 456.361
23.01000 453.684
23.02000 445.423
23.03000 437.491
23.04000 438.998
23.05000 444.835
23.06000 450.240
23.07000 449.864
23.08000 447.676
23.09000 445.699
23.10000 443.780
23.11000 442.104
23.12000 440.919
23.13000 442.149
23.14000 443.704
23.15000 444.491
23.16000 442.743
23.17000 440.795
23.18000 439.431
23.19000 440.388
23.20000 441.178
23.21000 442.032
23.22000 442.985
23.23000 443.939
23.24000 446.060
23.25000 449.362
23.26000 452.645
23.27000 455.298
23.28000 457.501
23.29000 459.297
23.30000 449.842
23.31000 435.300
23.32000 421.982
23.33000 424.668
23.34000 432.299
23.35000 439.179
23.36000 439.151
23.37000 437.871
23.38000 436.461
23.39000 434.424
23.40000 432.304
23.41000 430.493
23.42000 429.685
23.43000 428.953
23.44000 428.444
23.45000 434.104
23.46000 438.545
23.47000 441.761
23.48000 443.131
23.49000 444.481
23.50000 440.788
23.51000 432.084
23.52000 423.436
23.53000 418.826
23.54000 416.889
23.55000 415.243
23.56000 421.333
23.57000 430.871
23.58000 439.661
23.59000 438.902
23.60000 435.236
23.61000 431.938
23.62000 430.895
23.63000 430.384
23.64000 429.673
23.65000 428.011
23.66000 426.226
23.67000 423.765
23.68000 419.142
23.69000 414.357
23.70000 411.038
23.71000 419.778
23.72000 426.680
23.73000 430.452
23.74000 429.570
23.75000 428.646
23.76000 432.972
23.77000 442.426
23.78000 451.815
23.79000 447.092
23.80000 433.482
23.81000 420.327
23.82000 418.882
23.83000 422.581
23.84000 425.911
23.85000 424.646
23.86000 422.003
23.87000 419.630
23.88000 417.598
23.89000 415.879
23.90000 414.463
23.91000 414.464
23.92000 414.645
23.93000 415.241
23.94000 417.142
23.95000 419.138
23.96000 420.516
23.97000 424.362
23.98000 427.315
23.99000 427.285
24.00000 422.888
24.01000 418.453
24.02000 416.817
24.03000 417.868
24.04000 418.911
24.05000 426.499
24.06000 438.052
24.07000 449.022
24.08000 445.467
24.09000 435.626
24.10000 426.845
24.11000 431.005
24.12000 438.991
24.13000 446.145
24.14000 446.240
24.15000 445.105
24.16000 443.928
24.17000 442.550
24.18000 441.147
24.19000 439.053
24.20000 434.815
24.21000 430.424
24.22000 427.407
24.23000 432.699
24.24000 436.872
24.25000 439.723
24.26000 440.671
24.27000 441.602
24.28000 438.928
24.29000 432.849
24.30000 426.817
24.31000 418.528
24.32000 408.994
24.33000 399.934
24.34000 402.291
24.35000 409.520
24.36000 416.153
24.37000 415.678
24.38000 413.133
24.39000 410.857
24.40000 409.421
24.41000 408.312
24.42000 408.241
24.43000 412.895
24.44000 418.129
24.45000 420.956
24.46000 416.416
24.47000 411.361
24.48000 407.906
24.49000 412.903
24.50000 416.841
24.51000 420.800
24.52000 424.789
24.53000 428.779
24.54000 432.673
24.55000 436.479
24.56000 440.254
24.57000 434.445
24.58000 422.945
24.59000 411.784
24.60000 408.531
24.61000 408.605
24.62000 408.937
24.63000 412.284
24.64000 416.497
24.65000 420.254
24.66000 417.653
24.67000 414.334
24.68000 412.373
24.69000 416.494
24.70000 421.349
24.71000 422.541
24.72000 412.684
24.73000 402.074
24.74000 394.858
24.75000 404.228
24.76000 411.601
24.77000 413.479
24.78000 407.674
24.79000 401.819
24.80000 398.233
24.81000 396.723
24.82000 395.226
24.83000 402.087
24.84000 413.791
24.85000 424.988
24.86000 424.720
24.87000 419.698
24.88000 415.283
24.89000 417.800
24.90000 422.275
24.91000 426.257
24.92000 416.984
24.93000 406.766
24.94000 399.447
24.95000 404.903
24.96000 411.869
24.97000 416.642
24.98000 414.892
24.99000 412.709
25.00000 411.231
25.01000 416.740
25.02000 420.997
25.03000 422.912
25.04000 421.602
25.05000 420.273
25.06000 419.485
25.07000 419.183
25.08000 418.884
25.09000 420.095
25.10000 422.167
25.11000 423.863
25.12000 417.320
25.13000 407.410
25.14000 398.443
25.15000 399.993
25.16000 404.472
25.17000 408.449
25.18000 409.794
25.19000 410.539
25.20000 411.031
25.21000 410.431
25.22000 409.704
25.23000 410.082
25.24000 413.700
25.25000 417.527
25.26000 420.103
25.27000 408.614
25.28000 399.778
25.29000 398.614
25.30000 407.852
25.31000 417.144
25.32000 421.338
25.33000 421.024
25.34000 420.713
25.35000 418.653
25.36000 415.628
25.37000 412.536
25.38000 408.010
25.39000 402.906
25.40000 398.257
25.41000 398.573
25.42000 400.253
25.43000 401.740
25.44000 407.550
25.45000 413.258
25.46000 416.780
25.47000 410.963
25.48000 404.084
25.49000 398.700
25.50000 397.630
25.51000 396.831
25.52000 396.297
25.53000 396.691
25.54000 397.002
25.55000 394.966
25.56000 389.796
25.57000 384.621
25.58000 388.431
25.59000 400.056
25.60000 411.555
25.61000 412.853
25.62000 408.331
25.63000 403.905
25.64000 401.458
25.65000 399.798
25.66000 397.697
25.67000 390.890
25.68000 382.810
25.69000 375.670
25.70000 383.966
25.71000 393.517
25.72000 401.546
25.73000 403.169
25.74000 404.079
25.75000 405.817
25.76000 409.913
25.77000 414.154
25.78000 416.980
25.79000 403.707
25.80000 393.572
25.81000 388.610
25.82000 390.446
25.83000 392.311
25.84000 393.064
25.85000 392.863
25.86000 392.664
25.87000 396.403
25.88000 402.252
25.89000 407.451
25.90000 399.630
25.91000 386.716
25.92000 375.743
25.93000 385.081
25.94000 399.827
25.95000 412.829
25.96000 410.073
25.97000 405.306
25.98000 402.015
25.99000 404.835
26.00000 408.322
26.01000 409.612
26.02000 404.741
26.03000 399.501
26.04000 396.028
26.05000 389.579
26.06000 384.760
26.07000 385.777
26.08000 394.344
26.09000 402.925
26.10000 402.105
26.11000 393.365
26.12000 384.732
26.13000 382.752
26.14000 384.482
26.15000 386.274
26.16000 389.280
26.17000 392.755
26.18000 396.417
26.19000 401.986
26.20000 408.056
26.21000 413.395
26.22000 411.362
26.23000 408.514
26.24000 405.469
26.25000 401.616
26.26000 397.678
26.27000 393.091
26.28000 386.713
26.29000 380.230
26.30000 375.955
26.31000 388.850
26.32000 398.654
26.33000 403.917
26.34000 403.394
26.35000 402.852
26.36000 402.865
26.37000 403.337
26.38000 403.804
26.39000 397.626
26.40000 388.016
26.41000 378.839
26.42000 377.868
26.43000 380.016
26.44000 382.428
26.45000 387.490
26.46000 393.236
26.47000 398.278
26.48000 392.484
26.49000 385.924
26.50000 381.786
26.51000 387.382
26.52000 393.999
26.53000 398.800
26.54000 398.655
26.55000 398.231
26.56000 397.952
26.57000 396.950
26.58000 396.201
26.59000 398.678
26.60000 405.200
26.61000 411.708
26.62000 407.786
26.63000 395.355
26.64000 383.092
26.65000 383.062
26.66000 389.551
26.67000 395.587
26.68000 393.291
26.69000 387.875
26.70000 382.441
26.71000 376.826
26.72000 371.166
26.73000 366.211
26.74000 371.582
26.75000 377.668
26.76000 383.847
26.77000 390.397
26.78000 396.985
26.79000 399.604
26.80000 391.563
26.81000 382.935
26.82000 377.306
26.83000 383.956
26.84000 389.030
26.85000 389.360
26.86000 383.834
26.87000 378.306
26.88000 377.565
26.89000 380.669
26.90000 383.729
26.91000 385.941
26.92000 387.645
26.93000 389.295
26.94000 389.986
26.95000 390.322
26.96000 390.781
26.97000 392.426
26.98000 394.369
26.99000 396.065
27.00000 394.392
27.01000 392.486
27.02000 389.470
27.03000 382.132
27.04000 374.359
27.05000 370.239
27.06000 375.795
27.07000 381.868
27.08000 385.808
27.09000 389.633
27.10000 392.431
27.11000 391.440
27.12000 385.843
27.13000 380.243
27.14000 376.909
27.15000 375.365
27.16000 373.845
27.17000 373.478
27.18000 373.719
27.19000 373.923
27.20000 373.495
27.21000 372.837
27.22000 372.764
27.23000 378.205
27.24000 385.008
27.25000 390.934
27.26000 380.082
27.27000 368.494
27.28000 361.358
27.29000 371.310
27.30000 382.947
27.31000 389.261
27.32000 381.684
27.33000 373.384
27.34000 368.029
27.35000 372.133
27.36000 375.268
27.37000 377.998
27.38000 380.246
27.39000 382.484
27.40000 382.472
27.41000 380.710
27.42000 378.975
27.43000 383.040
27.44000 389.925
27.45000 396.122
27.46000 390.686
27.47000 381.078
27.48000 372.748
27.49000 376.222
27.50000 382.565
27.51000 388.077
27.52000 381.126
27.53000 373.510
27.54000 370.032
27.55000 382.199
27.56000 395.876
27.57000 403.338
27.58000 394.816
27.59000 385.486
27.60000 379.499
27.61000 377.890
27.62000 376.777
27.63000 377.972
27.64000 381.882
27.65000 385.781
27.66000 386.061
27.67000 383.570
27.68000 381.119
27.69000 382.187
27.70000 384.979
27.71000 387.493
27.72000 385.412
27.73000 381.707
27.74000 378.250
27.75000 377.045
27.76000 376.378
27.77000 375.800
27.78000 370.962
27.79000 366.279
27.80000 363.027
27.81000 365.107
27.82000 367.692
27.83000 369.636
27.84000 369.959
27.85000 370.202
27.86000 370.357
27.87000 376.044
27.88000 380.252
27.89000 381.230
27.90000 378.468
27.91000 375.713
27.92000 375.432
27.93000 377.016
27.94000 378.573
27.95000 381.431
27.96000 384.833
27.97000 388.080
27.98000 388.854
27.99000 388.765
28.00000 387.959
28.01000 380.791
28.02000 372.123
28.03000 364.629
28.04000 364.092
28.05000 364.544
28.06000 364.584
28.07000 363.120
28.08000 361.516
28.09000 361.903
28.10000 367.265
28.11000 372.864
28.12000 376.415
28.13000 376.077
28.14000 375.783
28.15000 376.760
28.16000 379.182
28.17000 381.568
28.18000 376.734
28.19000 366.540
28.20000 356.530
28.21000 357.201
28.22000 363.024
28.23000 368.682
28.24000 371.781
28.25000 374.001
28.26000 376.101
28.27000 377.164
28.28000 377.985
28.29000 378.694
28.30000 376.595
28.31000 374.457
28.32000 372.605
28.33000 371.792
28.34000 371.072
28.35000 370.558
28.36000 370.548
28.37000 370.562
28.38000 370.570
28.39000 366.094
28.40000 362.801
28.41000 363.594
28.42000 368.966
28.43000 374.327
28.44000 377.112
28.45000 378.013
28.46000 378.897
28.47000 375.263
28.48000 369.606
28.49000 364.249
28.50000 363.470
28.51000 364.240
28.52000 364.838
28.53000 363.967
28.54000 362.760
28.55000 361.722
28.56000 361.705
28.57000 361.820
28.58000 362.801
28.59000 366.870
28.60000 371.211
28.61000 372.939
28.62000 368.319
28.63000 363.415
28.64000 360.340
28.65000 365.894
28.66000 370.001
28.67000 370.316
28.68000 366.449
28.69000 362.602
28.70000 362.026
28.71000 363.806
28.72000 365.551
28.73000 360.941
28.74000 353.522
28.75000 346.808
28.76000 350.576
28.77000 357.841
28.78000 364.669
28.79000 367.842
28.80000 370.193
28.81000 372.210
28.82000 371.806
28.83000 371.166
28.84000 369.820
28.85000 365.995
28.86000 361.955
28.87000 361.213
28.88000 368.365
28.89000 375.859
28.90000 380.531
28.91000 369.105
28.92000 360.705
28.93000 359.225
28.94000 365.248
28.95000 371.218
28.96000 369.348
28.97000 361.919
28.98000 354.643
28.99000 353.101
29.00000 354.268
29.01000 355.363
29.02000 355.416
29.03000 355.127
29.04000 354.760
29.05000 353.758
29.06000 352.614
29.07000 351.636
29.08000 358.237
29.09000 364.718
29.10000 368.063
29.11000 360.574
29.12000 352.167
29.13000 348.620
29.14000 356.534
29.15000 364.930
29.16000 370.133
29.17000 366.107
29.18000 363.123
29.19000 361.619
29.20000 361.694
29.21000 361.766
29.22000 361.518
29.23000 361.046
29.24000 360.584
29.25000 356.696
29.26000 351.406
29.27000 346.872
29.28000 353.013
29.29000 362.612
29.30000 370.743
29.31000 367.054
29.32000 360.788
29.33000 355.440
29.34000 356.736
29.35000 358.611
29.36000 358.427
29.37000 351.230
29.38000 343.452
29.39000 339.771
29.40000 345.615
29.41000 351.847
29.42000 355.685
29.43000 358.376
29.44000 360.296
29.45000 358.334
29.46000 352.301
29.47000 346.307
29.48000 345.051
29.49000 347.053
29.50000 349.010
29.51000 359.022
29.52000 372.226
29.53000 384.146
29.54000 378.343
29.55000 366.883
29.56000 356.457
29.57000 354.202
29.58000 353.700
29.59000 353.273
29.60000 358.187
29.61000 362.935
29.62000 366.355
29.63000 365.317
29.64000 363.918
29.65000 365.974
29.66000 375.946
29.67000 386.231
29.68000 392.527
29.69000 385.815
29.70000 380.900
29.71000 374.685
29.72000 367.126
29.73000 359.629
29.74000 358.816
29.75000 362.530
29.76000 366.158
29.77000 367.859
29.78000 368.641
29.79000 369.781
29.80000 375.762
29.81000 383.266
29.82000 390.034
29.83000 391.100
29.84000 390.961
29.85000 390.843
29.86000 383.437
29.87000 376.398
29.88000 374.247
29.89000 388.255
29.90000 403.541
29.91000 412.109
29.92000 405.506
29.93000 398.325
29.94000 393.956
29.95000 409.921
29.96000 421.484
29.97000 431.650
29.98000 440.401
29.99000 449.089
30.00000 451.265
30.01000 449.099
30.02000 446.986
30.03000 449.990
30.04000 455.082
30.05000 459.972
30.06000 462.222
30.07000 463.653
30.08000 463.570
30.09000 451.957
30.10000 437.946
30.11000 426.089
30.12000 421.136
30.13000 417.758
30.14000 415.993
30.15000 419.485
30.16000 423.382
30.17000 428.201
30.18000 435.069
30.19000 442.013
30.20000 446.211
30.21000 427.401
30.22000 413.830
30.23000 410.808
30.24000 418.304
30.25000 425.757
30.26000 429.038
30.27000 429.579
30.28000 430.107
30.29000 429.238
30.30000 427.812
30.31000 425.718
30.32000 415.023
30.33000 401.702
30.34000 389.541
30.35000 386.053
30.36000 384.338
30.37000 382.891
30.38000 385.812
30.39000 388.728
30.40000 390.762
30.41000 389.968
30.42000 388.959
30.43000 387.949
30.44000 386.934
30.45000 385.919
30.46000 385.309
30.47000 396.365
30.48000 404.304
30.49000 405.785
30.50000 400.936
30.51000 396.125
30.52000 394.696
30.53000 395.457
30.54000 396.197
30.55000 396.641
30.56000 396.940
30.57000 396.859
30.58000 392.031
30.59000 385.773
30.60000 381.086
30.61000 387.929
30.62000 397.093
30.63000 404.805
30.64000 410.217
30.65000 414.485
30.66000 414.966
30.67000 403.467
30.68000 391.086
30.69000 384.288
30.70000 389.566
30.71000 395.257
30.72000 398.655
30.73000 400.419
30.74000 401.660
30.75000 405.955
30.76000 413.193
30.77000 420.416
30.78000 426.303
30.79000 431.338
30.80000 436.237
30.81000 435.703
30.82000 432.949
30.83000 430.238
30.84000 428.052
30.85000 426.023
30.86000 424.672
30.87000 428.202
30.88000 432.699
30.89000 436.473
30.90000 437.925
30.91000 438.891
30.92000 440.173
30.93000 442.438
30.94000 444.775
30.95000 450.659
30.96000 464.106
30.97000 477.803
30.98000 485.928
30.99000 515.948
31.00000 537.311
31.01000 543.285
31.02000 534.672
31.03000 526.372
31.04000 542.407
31.05000 573.725
31.06000 604.165
31.07000 617.203
31.08000 622.516
31.09000 629.833
31.10000 661.176
31.11000 699.538
31.12000 736.935
31.13000 767.510
31.14000 796.755
31.15000 821.226
31.16000 894.768
31.17000 960.901
31.18000 1027.490
31.19000 1095.484
31.20000 1163.577
31.21000 1238.149
31.22000 1326.332
31.23000 1414.949
31.24000 1467.181
31.25000 1616.533
31.26000 1722.464
31.27000 1816.733
31.28000 1900.133
31.29000 1983.735
31.30000 2082.166
31.31000 2189.772
31.32000 2294.255
31.33000 2380.915
31.34000 2456.037
31.35000 2531.465
31.36000 2610.490
31.37000 2690.551
31.38000 2763.716
31.39000 2788.939
31.40000 2804.969
31.41000 2818.342
31.42000 2804.196
31.43000 2789.704
31.44000 2767.766
31.45000 2723.292
31.46000 2677.275
31.47000 2634.257
31.48000 2597.447
31.49000 2560.826
31.50000 2539.384
31.51000 2399.032
31.52000 2299.628
31.53000 2202.658
31.54000 2107.919
31.55000 2012.848
31.56000 1894.782
31.57000 1762.702
31.58000 1634.591
31.59000 1546.703
31.60000 1479.254
31.61000 1411.359
31.62000 1338.354
31.63000 1263.901
31.64000 1189.743
31.65000 1117.606
31.66000 1045.850
31.67000 986.161
31.68000 927.333
31.69000 878.723
31.70000 832.257
31.71000 792.188
31.72000 752.545
31.73000 720.029
31.74000 702.054
31.75000 684.507
31.76000 674.301
31.77000 630.120
31.78000 598.942
31.79000 577.871
31.80000 565.915
31.81000 553.967
31.82000 542.500
31.83000 531.323
31.84000 520.492
31.85000 511.091
31.86000 502.746
31.87000 494.176
31.88000 483.075
31.89000 471.267
31.90000 460.458
31.91000 456.351
31.92000 453.489
31.93000 451.115
31.94000 438.190
31.95000 426.498
31.96000 414.299
31.97000 400.611
31.98000 386.826
31.99000 378.093
32.00000 379.521
32.01000 381.237
32.02000 382.229
32.03000 379.136
32.04000 376.954
32.05000 376.352
32.06000 377.153
32.07000 377.908
32.08000 375.824
32.09000 372.059
32.10000 368.416
32.11000 370.502
32.12000 374.661
32.13000 377.971
32.14000 371.973
32.15000 363.412
32.16000 355.960
32.17000 355.822
32.18000 357.020
32.19000 358.010
32.20000 355.506
32.21000 353.113
32.22000 351.503
32.23000 352.164
32.24000 352.970
32.25000 353.452
32.26000 353.296
32.27000 353.122
32.28000 353.022
32.29000 358.156
32.30000 361.761
32.31000 363.147
32.32000 362.596
32.33000 361.980
32.34000 357.626
32.35000 351.093
32.36000 344.776
32.37000 339.501
32.38000 334.915
32.39000 331.007
32.40000 334.382
32.41000 339.731
32.42000 344.275
32.43000 343.606
32.44000 342.001
32.45000 340.678
32.46000 338.625
32.47000 336.867
32.48000 336.006
32.49000 337.704
32.50000 339.560
32.51000 337.767
32.52000 328.848
32.53000 319.743
32.54000 314.554
32.55000 328.733
32.56000 338.671
32.57000 340.115
32.58000 334.264
32.59000 328.519
32.60000 328.576
32.61000 331.966
32.62000 335.240
32.63000 339.950
32.64000 344.917
32.65000 348.909
32.66000 342.645
32.67000 333.642
32.68000 325.793
32.69000 325.296
32.70000 326.096
32.71000 326.753
32.72000 327.986
32.73000 329.051
32.74000 329.263
32.75000 327.078
32.76000 324.748
32.77000 322.575
32.78000 320.705
32.79000 318.843
32.80000 317.789
32.81000 315.038
32.82000 313.124
32.83000 313.652
32.84000 316.245
32.85000 318.827
32.86000 320.901
32.87000 322.687
32.88000 324.409
32.89000 323.489
32.90000 321.662
32.91000 320.103
32.92000 321.303
32.93000 323.228
32.94000 325.012
32.95000 325.913
32.96000 326.660
32.97000 327.272
32.98000 328.679
32.99000 329.902
33.00000 328.118
33.01000 317.995
33.02000 307.383
33.03000 302.041
33.04000 306.698
33.05000 311.593
33.06000 314.344
33.07000 315.786
33.08000 316.782
33.09000 317.099
33.10000 316.853
33.11000 316.566
33.12000 314.218
33.13000 310.721
33.14000 307.353
33.15000 307.491
33.16000 308.877
33.17000 310.180
33.18000 310.648
33.19000 310.900
33.20000 310.321
33.21000 304.634
33.22000 298.075
33.23000 292.717
33.24000 300.622
33.25000 308.234
33.26000 313.299
33.27000 311.402
33.28000 309.108
33.29000 308.344
33.30000 310.439
33.31000 312.600
33.32000 313.805
33.33000 312.303
33.34000 311.255
33.35000 309.364
33.36000 306.781
33.37000 304.285
33.38000 305.928
33.39000 309.847
33.40000 313.618
33.41000 310.021
33.42000 304.051
33.43000 298.982
33.44000 302.804
33.45000 308.895
33.46000 313.849
33.47000 311.928
33.48000 308.853
33.49000 306.350
33.50000 308.400
33.51000 310.458
33.52000 310.283
33.53000 304.094
33.54000 297.572
33.55000 292.177
33.56000 288.860
33.57000 285.589
33.58000 283.776
33.59000 288.276
33.60000 291.401
33.61000 296.756
33.62000 303.908
33.63000 310.918
33.64000 311.463
33.65000 308.506
33.66000 305.664
33.67000 301.619
33.68000 297.415
33.69000 293.722
33.70000 294.972
33.71000 297.464
33.72000 299.457
33.73000 298.478
33.74000 297.009
33.75000 295.816
33.76000 288.269
33.77000 281.592
33.78000 277.642
33.79000 280.934
33.80000 284.615
33.81000 286.263
33.82000 284.219
33.83000 282.097
33.84000 280.930
33.85000 283.768
33.86000 285.724
33.87000 286.403
33.88000 286.068
33.89000 285.763
33.90000 286.752
33.91000 288.431
33.92000 290.043
33.93000 291.946
33.94000 293.825
33.95000 295.640
33.96000 296.848
33.97000 297.905
33.98000 298.842
33.99000 299.067
34.00000 299.178
34.01000 299.267
34.02000 295.278
34.03000 291.704
34.04000 289.058
34.05000 288.840
34.06000 288.750
34.07000 288.702
34.08000 288.728
34.09000 288.757
34.10000 288.772
34.11000 293.157
34.12000 296.162
34.13000 295.845
34.14000 292.934
34.15000 290.061
34.16000 288.754
34.17000 288.271
34.18000 287.808
34.19000 286.444
34.20000 284.869
34.21000 283.753
34.22000 286.906
34.23000 291.099
34.24000 294.564
34.25000 293.845
34.26000 292.459
34.27000 291.342
34.28000 295.902
34.29000 300.052
34.30000 301.477
34.31000 295.874
34.32000 289.913
34.33000 287.281
34.34000 290.521
34.35000 293.871
34.36000 295.686
34.37000 288.983
34.38000 284.388
34.39000 281.482
34.40000 279.873
34.41000 278.374
34.42000 281.227
34.43000 286.337
34.44000 291.230
34.45000 289.096
34.46000 284.786
34.47000 280.859
34.48000 280.424
34.49000 280.828
34.50000 281.558
34.51000 284.126
34.52000 286.982
34.53000 289.277
34.54000 290.586
34.55000 291.572
34.56000 291.193
34.57000 287.342
34.58000 283.321
34.59000 281.386
34.60000 283.078
34.61000 284.836
34.62000 285.781
34.63000 281.753
34.64000 279.016
34.65000 280.500
34.66000 285.180
34.67000 289.627
34.68000 285.250
34.69000 276.364
34.70000 267.869
34.71000 271.992
34.72000 279.934
34.73000 286.791
34.74000 283.976
34.75000 278.876
34.76000 275.066
34.77000 278.433
34.78000 282.905
34.79000 286.486
34.80000 287.176
34.81000 287.517
34.82000 286.673
34.83000 282.857
34.84000 278.899
34.85000 277.562
34.86000 280.712
34.87000 283.938
34.88000 285.659
34.89000 285.169
34.90000 284.833
34.91000 284.338
34.92000 283.726
34.93000 283.112
34.94000 282.462
34.95000 281.793
34.96000 281.154
34.97000 277.149
34.98000 272.351
34.99000 267.869
35.00000 266.157
35.01000 265.091
35.02000 265.215
35.03000 271.851
35.04000 279.472
35.05000 285.556
35.06000 281.836
35.07000 278.114
35.08000 276.674
35.09000 280.875
35.10000 285.338
35.11000 284.598
35.12000 275.081
35.13000 265.422
35.14000 260.308
35.15000 271.391
35.16000 278.894
35.17000 279.590
35.18000 275.293
35.19000 271.087
35.20000 270.080
35.21000 270.660
35.22000 271.213
35.23000 270.564
35.24000 269.582
35.25000 268.720
35.26000 268.890
35.27000 269.295
35.28000 269.617
35.29000 269.489
35.30000 269.293
35.31000 269.138
35.32000 268.325
35.33000 267.623
35.34000 268.042
35.35000 271.190
35.36000 274.461
35.37000 274.059
35.38000 267.550
35.39000 260.949
35.40000 257.480
35.41000 261.825
35.42000 264.777
35.43000 268.442
35.44000 272.622
35.45000 276.573
35.46000 272.809
35.47000 265.272
35.48000 258.095
35.49000 260.303
35.50000 265.256
35.51000 269.533
35.52000 268.130
35.53000 265.445
35.54000 264.365
35.55000 271.774
35.56000 280.424
35.57000 287.281
35.58000 285.263
35.59000 283.019
35.60000 281.238
35.61000 280.569
35.62000 279.948
35.63000 279.156
35.64000 278.087
35.65000 277.013
35.66000 276.454
35.67000 280.519
35.68000 283.237
35.69000 281.365
35.70000 276.228
35.71000 271.272
35.72000 272.153
35.73000 275.849
35.74000 279.364
35.75000 275.627
35.76000 269.960
35.77000 265.101
35.78000 266.908
35.79000 270.195
35.80000 272.014
35.81000 266.195
35.82000 259.280
35.83000 253.817
35.84000 248.814
35.85000 244.829
35.86000 245.285
35.87000 256.248
35.88000 267.656
35.89000 273.182
35.90000 269.218
35.91000 265.126
35.92000 263.010
35.93000 262.789
35.94000 262.633
35.95000 261.369
35.96000 259.329
35.97000 257.403
35.98000 259.031
35.99000 262.348
36.00000 265.497
36.01000 265.223
36.02000 263.942
36.03000 263.180
36.04000 266.613
36.05000 270.963
36.06000 274.170
36.07000 271.521
36.08000 268.048
36.09000 265.313
36.10000 266.345
36.11000 267.422
36.12000 267.254
36.13000 264.181
36.14000 260.990
36.15000 256.437
36.16000 249.721
36.17000 242.976
36.18000 239.517
36.19000 249.311
36.20000 255.869
36.21000 258.937
36.22000 259.599
36.23000 260.267
36.24000 261.106
36.25000 262.025
36.26000 262.896
36.27000 267.580
36.28000 273.021
36.29000 277.493
36.30000 274.266
36.31000 269.382
36.32000 264.516
36.33000 259.738
36.34000 254.972
36.35000 251.233
36.36000 253.106
36.37000 254.968
36.38000 257.370
36.39000 261.015
36.40000 264.709
36.41000 267.171
36.42000 267.704
36.43000 268.215
36.44000 268.474
36.45000 269.083
36.46000 269.481
36.47000 268.714
36.48000 267.156
36.49000 265.534
36.50000 262.052
36.51000 257.713
36.52000 253.603
36.53000 251.525
36.54000 250.201
36.55000 249.739
36.56000 255.993
36.57000 263.671
36.58000 269.698
36.59000 267.549
36.60000 264.288
36.61000 261.739
36.62000 256.236
36.63000 251.657
36.64000 250.287
36.65000 256.185
36.66000 262.362
36.67000 265.445
36.68000 263.757
36.69000 262.015
36.70000 261.137
36.71000 259.886
36.72000 259.082
36.73000 261.554
36.74000 266.219
36.75000 270.699
36.76000 269.997
36.77000 266.939
36.78000 264.047
36.79000 263.859
36.80000 264.459
36.81000 265.910
36.82000 273.873
36.83000 283.194
36.84000 290.213
36.85000 286.006
36.86000 280.300
36.87000 275.856
36.88000 270.137
36.89000 265.504
36.90000 265.415
36.91000 275.476
36.92000 285.912
36.93000 288.574
36.94000 279.424
36.95000 270.152
36.96000 265.514
36.97000 265.558
36.98000 265.626
36.99000 269.488
37.00000 275.850
37.01000 282.025
37.02000 283.131
37.03000 281.965
37.04000 280.863
37.05000 285.125
37.06000 290.540
37.07000 294.897
37.08000 291.303
37.09000 286.076
37.10000 281.428
37.11000 279.556
37.12000 278.046
37.13000 276.875
37.14000 276.754
37.15000 276.722
37.16000 274.901
37.17000 269.146
37.18000 263.250
37.19000 261.734
37.20000 266.770
37.21000 271.871
37.22000 272.547
37.23000 268.870
37.24000 265.231
37.25000 264.990
37.26000 266.955
37.27000 268.884
37.28000 269.844
37.29000 270.376
37.30000 270.877
37.31000 265.660
37.32000 259.303
37.33000 254.494
37.34000 261.098
37.35000 270.009
37.36000 276.986
37.37000 274.826
37.38000 271.492
37.39000 268.914
37.40000 263.444
37.41000 258.935
37.42000 255.367
37.43000 253.839
37.44000 252.382
37.45000 250.577
37.46000 248.261
37.47000 245.941
37.48000 245.842
37.49000 247.892
37.50000 249.921
37.51000 250.200
37.52000 249.360
37.53000 248.682
37.54000 252.079
37.55000 257.253
37.56000 262.122
37.57000 262.107
37.58000 260.765
37.59000 260.175
37.60000 265.023
37.61000 270.953
37.62000 274.728
37.63000 268.482
37.64000 260.972
37.65000 255.187
37.66000 254.797
37.67000 254.796
37.68000 257.325
37.69000 265.262
37.70000 273.378
37.71000 276.307
37.72000 271.707
37.73000 267.045
37.74000 261.892
37.75000 256.274
37.76000 250.753
37.77000 252.973
37.78000 260.071
37.79000 267.194
37.80000 274.961
37.81000 283.003
37.82000 290.560
37.83000 284.186
37.84000 274.642
37.85000 266.181
37.86000 265.407
37.87000 266.138
37.88000 267.135
37.89000 269.351
37.90000 271.718
37.91000 273.534
37.92000 269.237
37.93000 265.500
37.94000 262.570
37.95000 261.341
37.96000 260.166
37.97000 258.835
37.98000 257.283
37.99000 255.729
38.00000 258.028
38.01000 263.929
38.02000 269.785
38.03000 272.248
38.04000 272.606
38.05000 272.886
38.06000 271.314
38.07000 268.957
38.08000 266.747
38.09000 270.591
38.10000 275.687
38.11000 280.341
38.12000 281.918
38.13000 282.902
38.14000 284.157
38.15000 286.631
38.16000 289.253
38.17000 291.258
38.18000 285.366
38.19000 280.291
38.20000 276.237
38.21000 274.304
38.22000 272.438
38.23000 271.248
38.24000 271.012
38.25000 270.783
38.26000 271.810
38.27000 273.990
38.28000 276.248
38.29000 283.965
38.30000 295.019
38.31000 305.452
38.32000 301.616
38.33000 291.828
38.34000 282.661
38.35000 285.162
38.36000 290.456
38.37000 296.254
38.38000 305.508
38.39000 315.416
38.40000 323.753
38.41000 325.123
38.42000 325.664
38.43000 326.075
38.44000 343.588
38.45000 358.275
38.46000 369.046
38.47000 371.797
38.48000 374.310
38.49000 388.945
38.50000 420.386
38.51000 451.925
38.52000 478.048
38.53000 499.251
38.54000 520.415
38.55000 538.989
38.56000 556.002
38.57000 573.977
38.58000 613.319
38.59000 661.447
38.60000 706.455
38.61000 745.291
38.62000 778.988
38.63000 812.834
38.64000 847.688
38.65000 882.730
38.66000 914.742
38.67000 933.515
38.68000 950.742
38.69000 963.810
38.70000 1011.648
38.71000 1051.013
38.72000 1078.019
38.73000 1080.089
38.74000 1081.447
38.75000 1078.359
38.76000 1069.199
38.77000 1060.009
38.78000 1056.082
38.79000 1056.842
38.80000 1057.286
38.81000 1038.140
38.82000 1007.365
38.83000 976.759
38.84000 949.797
38.85000 924.313
38.86000 900.520
38.87000 867.557
38.88000 835.378
38.89000 803.017
38.90000 769.457
38.91000 735.676
38.92000 700.542
38.93000 659.585
38.94000 617.961
38.95000 586.510
38.96000 545.185
38.97000 512.294
38.98000 485.147
38.99000 469.423
39.00000 454.012
39.01000 434.253
39.02000 408.650
39.03000 383.031
39.04000 364.663
39.05000 352.666
39.06000 340.740
39.07000 332.984
39.08000 327.666
39.09000 322.174
39.10000 313.020
39.11000 302.403
39.12000 292.507
39.13000 292.006
39.14000 293.865
39.15000 294.707
39.16000 288.931
39.17000 281.962
39.18000 275.559
39.19000 271.548
39.20000 267.807
39.21000 264.991
39.22000 264.104
39.23000 263.504
39.24000 265.189
39.25000 271.354
39.26000 277.637
39.27000 279.111
39.28000 274.221
39.29000 269.305
39.30000 263.626
39.31000 257.303
39.32000 251.053
39.33000 248.933
39.34000 249.193
39.35000 249.514
39.36000 251.100
39.37000 253.183
39.38000 255.121
39.39000 258.864
39.40000 262.683
39.41000 265.313
39.42000 260.347
39.43000 254.034
39.44000 249.279
39.45000 251.018
39.46000 253.471
39.47000 255.310
39.48000 249.431
39.49000 244.476
39.50000 242.948
39.51000 248.042
39.52000 253.303
39.53000 252.387
39.54000 243.423
39.55000 234.432
39.56000 231.352
39.57000 233.280
39.58000 235.150
39.59000 233.949
39.60000 231.005
39.61000 228.226
39.62000 228.701
39.63000 230.439
39.64000 232.054
39.65000 231.919
39.66000 231.380
39.67000 230.655
39.68000 228.756
39.69000 226.651
39.70000 225.189
39.71000 226.366
39.72000 227.826
39.73000 228.917
39.74000 225.758
39.75000 223.102
39.76000 223.032
39.77000 227.886
39.78000 232.859
39.79000 234.139
39.80000 230.680
39.81000 227.208
39.82000 226.649
39.83000 228.515
39.84000 230.354
39.85000 230.824
39.86000 230.528
39.87000 230.285
39.88000 231.044
39.89000 232.187
39.90000 233.246
39.91000 234.318
39.92000 235.285
39.93000 235.986
39.94000 235.039
39.95000 233.809
39.96000 233.116
39.97000 234.596
39.98000 236.306
39.99000 237.577
40.00000 229.846
40.01000 223.432
40.02000 222.755
40.03000 232.840
40.04000 243.173
40.05000 246.843
40.06000 242.101
40.07000 237.338
40.08000 233.838
40.09000 231.384
40.10000 229.002
40.11000 230.022
40.12000 232.918
40.13000 235.547
40.14000 233.210
40.15000 229.001
40.16000 225.104
40.17000 223.805
40.18000 223.235
40.19000 222.290
40.20000 219.066
40.21000 215.458
40.22000 213.391
40.23000 217.462
40.24000 222.170
40.25000 225.657
40.26000 233.908
40.27000 240.518
40.28000 242.868
40.29000 237.342
40.30000 231.643
40.31000 228.250
40.32000 227.726
40.33000 227.210
40.34000 227.620
40.35000 228.772
40.36000 229.881
40.37000 228.998
40.38000 227.032
40.39000 225.133
40.40000 224.462
40.41000 224.246
40.42000 224.046
40.43000 228.557
40.44000 233.671
40.45000 236.835
40.46000 228.369
40.47000 217.975
40.48000 211.181
40.49000 218.504
40.50000 227.260
40.51000 233.717
40.52000 230.979
40.53000 228.471
40.54000 226.233
40.55000 224.486
40.56000 222.750
40.57000 220.433
40.58000 217.406
40.59000 214.383
40.60000 213.540
40.61000 214.427
40.62000 215.421
40.63000 221.107
40.64000 229.305
40.65000 236.952
40.66000 234.878
40.67000 229.246
40.68000 224.050
40.69000 221.960
40.70000 220.778
40.71000 220.155
40.72000 222.808
40.73000 225.995
40.74000 228.691
40.75000 229.494
40.76000 230.109
40.77000 230.561
40.78000 223.949
40.79000 218.551
40.80000 216.433
40.81000 220.205
40.82000 224.095
40.83000 224.860
40.84000 221.863
40.85000 218.865
40.86000 217.363
40.87000 217.035
40.88000 216.790
40.89000 219.973
40.90000 224.966
40.91000 229.490
40.92000 225.988
40.93000 219.589
40.94000 213.699
40.95000 215.064
40.96000 217.873
40.97000 220.762
40.98000 224.118
40.99000 227.549
41.00000 228.592
41.01000 220.546
41.02000 211.615
41.03000 205.084
41.04000 208.202
41.05000 210.988
41.06000 213.515
41.07000 215.583
41.08000 217.642
41.09000 217.501
41.10000 214.754
41.11000 212.009
41.12000 208.741
41.13000 205.091
41.14000 201.619
41.15000 205.250
41.16000 212.575
41.17000 219.304
41.18000 216.084
41.19000 209.325
41.20000 203.114
41.21000 210.517
41.22000 220.053
41.23000 227.543
41.24000 223.425
41.25000 217.482
41.26000 213.869
41.27000 218.993
41.28000 224.950
41.29000 229.287
41.30000 226.445
41.31000 223.982
41.32000 221.993
41.33000 220.831
41.34000 219.683
41.35000 218.077
41.36000 215.937
41.37000 213.801
41.38000 211.679
41.39000 209.579
41.40000 207.536
41.41000 207.675
41.42000 208.933
41.43000 210.195
41.44000 211.550
41.45000 212.938
41.46000 214.210
41.47000 210.266
41.48000 205.648
41.49000 201.881
41.50000 202.862
41.51000 204.577
41.52000 206.181
41.53000 207.374
41.54000 208.529
41.55000 209.366
41.56000 215.552
41.57000 220.503
41.58000 222.068
41.59000 217.819
41.60000 213.470
41.61000 210.989
41.62000 210.651
41.63000 210.316
41.64000 211.961
41.65000 215.064
41.66000 218.127
41.67000 219.768
41.68000 220.691
41.69000 221.325
41.70000 217.396
41.71000 211.891
41.72000 206.851
41.73000 212.427
41.74000 219.593
41.75000 225.459
41.76000 224.193
41.77000 221.843
41.78000 219.426
41.79000 216.762
41.80000 214.076
41.81000 212.137
41.82000 205.153
41.83000 199.617
41.84000 199.089
41.85000 207.033
41.86000 215.116
41.87000 215.791
41.88000 208.106
41.89000 200.438
41.90000 201.219
41.91000 208.160
41.92000 214.920
41.93000 215.234
41.94000 212.340
41.95000 209.568
41.96000 208.674
41.97000 208.419
41.98000 208.186
41.99000 207.461
42.00000 206.717
42.01000 206.185
42.02000 206.799
42.03000 207.585
42.04000 208.700
42.05000 210.996
42.06000 213.398
42.07000 215.124
42.08000 219.374
42.09000 222.713
42.10000 221.432
42.11000 212.446
42.12000 203.342
42.13000 200.283
42.14000 203.937
42.15000 207.581
42.16000 208.155
42.17000 206.518
42.18000 204.893
42.19000 203.691
42.20000 202.695
42.21000 201.738
42.22000 201.363
42.23000 201.184
42.24000 201.020
42.25000 200.411
42.26000 199.782
42.27000 199.413
42.28000 200.424
42.29000 201.637
42.30000 203.471
42.31000 207.496
42.32000 211.712
42.33000 214.729
42.34000 207.549
42.35000 201.725
42.36000 199.975
42.37000 204.917
42.38000 209.957
42.39000 211.534
42.40000 209.328
42.41000 207.129
42.42000 208.547
42.43000 212.508
42.44000 216.254
42.45000 212.956
42.46000 206.253
42.47000 200.023
42.48000 200.731
42.49000 203.735
42.50000 206.469
42.51000 204.887
42.52000 202.637
42.53000 200.466
42.54000 198.708
42.55000 197.009
42.56000 197.081
42.57000 203.312
42.58000 210.070
42.59000 214.882
42.60000 204.549
42.61000 196.183
42.62000 192.352
42.63000 195.858
42.64000 199.466
42.65000 202.240
42.66000 204.118
42.67000 205.988
42.68000 206.042
42.69000 204.834
42.70000 203.635
42.71000 202.746
42.72000 202.005
42.73000 201.308
42.74000 201.256
42.75000 201.414
42.76000 201.557
42.77000 200.062
42.78000 198.424
42.79000 197.282
42.80000 198.696
42.81000 200.472
42.82000 201.415
42.83000 199.503
42.84000 197.353
42.85000 195.828
42.86000 199.685
42.87000 202.787
42.88000 203.463
42.89000 200.271
42.90000 197.028
42.91000 194.397
42.92000 192.412
42.93000 190.436
42.94000 191.439
42.95000 194.469
42.96000 197.320
42.97000 194.755
42.98000 189.646
42.99000 185.456
43.00000 194.078
43.01000 206.816
43.02000 218.363
43.03000 214.699
43.04000 208.570
43.05000 203.468
43.06000 203.558
43.07000 204.370
43.08000 205.425
43.09000 207.301
43.10000 209.245
43.11000 210.617
43.12000 200.145
43.13000 191.840
43.14000 190.907
43.15000 201.552
43.16000 212.337
43.17000 218.265
43.18000 219.148
43.19000 220.025
43.20000 215.968
43.21000 208.636
43.22000 201.465
43.23000 199.031
43.24000 198.788
43.25000 198.842
43.26000 202.931
43.27000 208.298
43.28000 213.153
43.29000 204.447
43.30000 194.244
43.31000 185.988
43.32000 187.414
43.33000 190.161
43.34000 192.521
43.35000 193.595
43.36000 194.566
43.37000 195.249
43.38000 198.077
43.39000 200.282
43.40000 200.308
43.41000 196.966
43.42000 193.585
43.43000 192.051
43.44000 192.405
43.45000 192.756
43.46000 195.617
43.47000 200.104
43.48000 204.422
43.49000 203.977
43.50000 201.358
43.51000 198.994
43.52000 200.013
43.53000 202.088
43.54000 203.962
43.55000 198.320
43.56000 191.979
43.57000 186.555
43.58000 185.617
43.59000 185.279
43.60000 187.123
43.61000 196.123
43.62000 205.682
43.63000 212.364
43.64000 212.567
43.65000 212.537
43.66000 212.135
43.67000 211.163
43.68000 210.186
43.69000 207.124
43.70000 201.969
43.71000 196.846
43.72000 194.952
43.73000 195.191
43.74000 195.421
43.75000 195.446
43.76000 195.378
43.77000 195.120
43.78000 192.411
43.79000 188.948
43.80000 185.828
43.81000 189.953
43.82000 194.880
43.83000 198.564
43.84000 196.260
43.85000 193.168
43.86000 192.441
43.87000 199.353
43.88000 206.847
43.89000 212.061
43.90000 201.652
43.91000 193.378
43.92000 191.123
43.93000 197.905
43.94000 204.776
43.95000 206.878
43.96000 204.271
43.97000 201.682
43.98000 199.043
43.99000 196.412
44.00000 193.840
44.01000 192.834
44.02000 192.521
44.03000 192.066
44.04000 189.813
44.05000 187.015
44.06000 184.499
44.07000 186.139
44.08000 188.313
44.09000 189.893
44.10000 188.654
44.11000 187.051
44.12000 186.534
44.13000 189.472
44.14000 192.668
44.15000 194.880
44.16000 195.195
44.17000 195.381
44.18000 195.034
44.19000 193.897
44.20000 192.752
44.21000 192.401
44.22000 192.819
44.23000 193.234
44.24000 192.138
44.25000 190.104
44.26000 188.235
44.27000 190.531
44.28000 194.647
44.29000 198.588
44.30000 200.362
44.31000 201.489
44.32000 202.500
44.33000 204.192
44.34000 205.789
44.35000 206.071
44.36000 200.211
44.37000 193.574
44.38000 188.418
44.39000 187.910
44.40000 187.740
44.41000 187.622
44.42000 188.620
44.43000 189.398
44.44000 189.206
44.45000 187.603
44.46000 185.988
44.47000 188.389
44.48000 194.625
44.49000 200.814
44.50000 203.158
44.51000 203.073
44.52000 203.010
44.53000 203.485
44.54000 204.192
44.55000 204.598
44.56000 201.374
44.57000 197.081
44.58000 193.238
44.59000 199.117
44.60000 205.912
44.61000 210.147
44.62000 202.624
44.63000 193.640
44.64000 187.335
44.65000 189.317
44.66000 191.885
44.67000 193.647
44.68000 196.846
44.69000 199.279
44.70000 202.324
44.71000 206.248
44.72000 210.179
44.73000 213.078
44.74000 215.008
44.75000 216.923
44.76000 215.801
44.77000 212.841
44.78000 209.975
44.79000 209.358
44.80000 209.695
44.81000 210.240
44.82000 213.244
44.83000 216.960
44.84000 220.279
44.85000 217.907
44.86000 214.882
44.87000 213.522
44.88000 219.688
44.89000 226.771
44.90000 232.189
44.91000 232.533
44.92000 232.527
44.93000 232.523
44.94000 235.201
44.95000 237.265
44.96000 242.347
44.97000 251.689
44.98000 261.059
44.99000 264.875
45.00000 263.560
45.01000 262.257
45.02000 264.587
45.03000 269.059
45.04000 273.604
45.05000 279.811
45.06000 286.713
45.07000 292.854
45.08000 290.184
45.09000 285.001
45.10000 280.381
45.11000 279.518
45.12000 279.389
45.13000 280.512
45.14000 287.211
45.15000 294.578
45.16000 297.930
45.17000 289.229
45.18000 279.716
45.19000 273.257
45.20000 277.770
45.21000 281.382
45.22000 282.796
45.23000 281.149
45.24000 279.486
45.25000 282.385
45.26000 289.431
45.27000 296.411
45.28000 294.185
45.29000 286.551
45.30000 279.033
45.31000 274.122
45.32000 270.286
45.33000 267.262
45.34000 273.421
45.35000 282.162
45.36000 289.935
45.37000 291.997
45.38000 292.860
45.39000 292.629
45.40000 287.604
45.41000 282.017
45.42000 278.042
45.43000 278.836
45.44000 279.944
45.45000 280.692
45.46000 273.844
45.47000 268.583
45.48000 263.482
45.49000 258.601
45.50000 253.725
45.51000 252.972
45.52000 255.904
45.53000 258.808
45.54000 255.090
45.55000 247.590
45.56000 240.233
45.57000 235.957
45.58000 232.934
45.59000 229.868
45.60000 226.337
45.61000 222.677
45.62000 219.429
45.63000 223.649
45.64000 228.494
45.65000 231.810
45.66000 228.532
45.67000 224.496
45.68000 221.212
45.69000 220.124
45.70000 219.177
45.71000 218.540
45.72000 219.315
45.73000 219.921
45.74000 219.921
45.75000 219.105
45.76000 218.288
45.77000 220.567
45.78000 225.569
45.79000 230.518
45.80000 225.504
45.81000 214.887
45.82000 204.731
45.83000 204.289
45.84000 207.740
45.85000 210.655
45.86000 207.775
45.87000 203.314
45.88000 199.365
45.89000 198.996
45.90000 199.236
45.91000 199.081
45.92000 197.242
45.93000 195.214
45.94000 194.707
45.95000 198.574
45.96000 202.715
45.97000 205.483
45.98000 197.668
45.99000 191.666
46.00000 189.755
46.01000 193.276
46.02000 196.820
46.03000 197.356
46.04000 195.289
46.05000 193.244
46.06000 192.803
46.07000 193.277
46.08000 193.611
46.09000 191.075
46.10000 187.406
46.11000 184.293
46.12000 187.082
46.13000 191.458
46.14000 195.323
46.15000 194.371
46.16000 192.809
46.17000 191.553
46.18000 191.573
46.19000 191.734
46.20000 191.722
46.21000 191.217
46.22000 190.681
46.23000 190.325
46.24000 190.899
46.25000 191.341
46.26000 188.309
46.27000 180.734
46.28000 173.146
46.29000 170.453
46.30000 171.926
46.31000 173.381
46.32000 177.850
46.33000 183.884
46.34000 189.651
46.35000 190.109
46.36000 188.500
46.37000 186.764
46.38000 183.714
46.39000 180.315
46.40000 177.321
46.41000 179.104
46.42000 181.359
46.43000 182.815
46.44000 180.975
46.45000 178.778
46.46000 177.965
46.47000 181.020
46.48000 184.303
46.49000 186.476
46.50000 185.104
46.51000 184.028
46.52000 181.173
46.53000 176.028
46.54000 170.877
46.55000 166.962
46.56000 164.084
46.57000 161.241
46.58000 165.135
46.59000 172.614
46.60000 179.933
46.61000 184.159
46.62000 187.198
46.63000 189.905
46.64000 189.230
46.65000 187.672
46.66000 186.302
46.67000 182.203
46.68000 178.274
46.69000 175.471
46.70000 177.234
46.71000 179.484
46.72000 180.073
46.73000 176.096
46.74000 171.856
46.75000 169.065
46.76000 171.424
46.77000 173.249
46.78000 173.160
46.79000 170.647
46.80000 168.131
46.81000 168.090
46.82000 170.091
46.83000 172.065
46.84000 174.055
46.85000 176.001
46.86000 177.606
46.87000 172.827
46.88000 165.634
46.89000 159.356
46.90000 162.190
46.91000 167.365
46.92000 171.903
46.93000 174.077
46.94000 175.599
46.95000 176.384
46.96000 174.222
46.97000 171.754
46.98000 169.589
46.99000 168.248
47.00000 166.953
47.01000 166.105
47.02000 167.202
47.03000 168.039
47.04000 168.936
47.05000 169.905
47.06000 170.875
47.07000 171.814
47.08000 172.729
47.09000 173.632
47.10000 171.895
47.11000 168.807
47.12000 165.986
47.13000 168.023
47.14000 171.871
47.15000 175.275
47.16000 174.358
47.17000 172.347
47.18000 170.588
47.19000 169.485
47.20000 168.634
47.21000 167.966
47.22000 168.016
47.23000 168.141
47.24000 168.613
47.25000 170.018
47.26000 171.472
47.27000 172.420
47.28000 170.163
47.29000 168.458
47.30000 167.943
47.31000 168.889
47.32000 169.841
47.33000 171.823
47.34000 174.628
47.35000 177.392
47.36000 177.844
47.37000 177.078
47.38000 176.252
47.39000 174.350
47.40000 172.054
47.41000 170.129
47.42000 171.759
47.43000 174.274
47.44000 176.469
47.45000 178.571
47.46000 180.356
47.47000 180.957
47.48000 176.970
47.49000 172.525
47.50000 170.136
47.51000 173.166
47.52000 176.483
47.53000 178.631
47.54000 174.995
47.55000 172.249
47.56000 169.328
47.57000 166.194
47.58000 163.062
47.59000 160.384
47.60000 158.063
47.61000 155.777
47.62000 159.552
47.63000 166.325
47.64000 172.595
47.65000 170.204
47.66000 164.677
47.67000 159.971
47.68000 162.944
47.69000 167.802
47.70000 172.031
47.71000 168.441
47.72000 164.304
47.73000 160.989
47.74000 160.814
47.75000 160.946
47.76000 161.005
47.77000 160.874
47.78000 160.734
47.79000 160.644
47.80000 164.302
47.81000 167.025
47.82000 167.644
47.83000 165.764
47.84000 163.883
47.85000 162.906
47.86000 162.629
47.87000 162.357
47.88000 164.358
47.89000 167.445
47.90000 170.355
47.91000 170.299
47.92000 169.184
47.93000 167.744
47.94000 163.317
47.95000 158.167
47.96000 153.697
47.97000 159.546
47.98000 165.920
47.99000 169.658
48.00000 163.485
48.01000 156.362
48.02000 151.299
48.03000 151.507
48.04000 151.979
48.05000 152.282
48.06000 156.565
48.07000 159.738
48.08000 163.056
48.09000 166.543
48.10000 170.016
48.11000 170.404
48.12000 168.442
48.13000 166.513
48.14000 165.540
48.15000 165.074
48.16000 164.515
48.17000 162.450
48.18000 159.855
48.19000 157.463
48.20000 156.904
48.21000 156.780
48.22000 156.673
48.23000 154.849
48.24000 153.071
48.25000 151.936
48.26000 153.180
48.27000 154.647
48.28000 157.173
48.29000 162.368
48.30000 167.694
48.31000 171.084
48.32000 168.072
48.33000 165.801
48.34000 164.019
48.35000 162.799
48.36000 161.585
48.37000 161.134
48.38000 161.258
48.39000 161.379
48.40000 160.953
48.41000 160.275
48.42000 159.429
48.43000 155.926
48.44000 151.502
48.45000 148.009
48.46000 152.716
48.47000 159.346
48.48000 165.073
48.49000 164.115
48.50000 162.435
48.51000 161.794
48.52000 164.947
48.53000 168.448
48.54000 169.182
48.55000 163.038
48.56000 156.569
48.57000 152.473
48.58000 153.802
48.59000 154.830
48.60000 154.715
48.61000 153.305
48.62000 151.915
48.63000 154.283
48.64000 159.427
48.65000 164.477
48.66000 163.442
48.67000 159.512
48.68000 155.730
48.69000 154.236
48.70000 153.522
48.71000 153.058
48.72000 154.753
48.73000 156.946
48.74000 158.836
48.75000 160.189
48.76000 161.269
48.77000 162.010
48.78000 161.538
48.79000 160.957
48.80000 161.931
48.81000 166.715
48.82000 171.673
48.83000 174.794
48.84000 172.022
48.85000 169.950
48.86000 166.055
48.87000 160.129
48.88000 154.243
48.89000 155.359
48.90000 161.565
48.91000 167.653
48.92000 165.592
48.93000 159.743
48.94000 154.153
48.95000 152.474
48.96000 152.113
48.97000 152.167
48.98000 155.738
48.99000 160.107
49.00000 163.863
49.01000 161.467
49.02000 158.674
49.03000 156.392
49.04000 155.918
49.05000 155.603
49.06000 155.562
49.07000 156.181
49.08000 156.830
49.09000 157.236
49.10000 149.020
49.11000 142.997
49.12000 142.212
49.13000 147.166
49.14000 152.105
49.15000 154.316
49.16000 154.574
49.17000 154.827
49.18000 157.619
49.19000 161.490
49.20000 165.013
49.21000 163.421
49.22000 160.131
49.23000 156.912
49.24000 154.283
49.25000 151.785
49.26000 149.644
49.27000 155.309
49.28000 161.046
49.29000 164.679
49.30000 160.971
49.31000 156.632
49.32000 153.994
49.33000 155.405
49.34000 156.991
49.35000 157.978
49.36000 156.343
49.37000 155.139
49.38000 155.895
49.39000 158.763
49.40000 161.608
49.41000 161.193
49.42000 158.480
49.43000 155.824
49.44000 160.617
49.45000 168.645
49.46000 175.887
49.47000 171.837
49.48000 164.095
49.49000 157.227
49.50000 157.490
49.51000 159.324
49.52000 160.892
49.53000 156.732
49.54000 152.540
49.55000 149.643
49.56000 151.197
49.57000 153.126
49.58000 153.667
49.59000 150.954
49.60000 148.106
49.61000 146.345
49.62000 147.017
49.63000 147.524
49.64000 148.032
49.65000 148.544
49.66000 149.060
49.67000 150.193
49.68000 151.756
49.69000 153.285
49.70000 153.293
49.71000 152.614
49.72000 151.944
49.73000 151.410
49.74000 150.921
49.75000 150.384
49.76000 149.469
49.77000 148.472
49.78000 147.622
49.79000 150.165
49.80000 152.702
49.81000 154.231
49.82000 152.345
49.83000 150.178
49.84000 148.214
49.85000 146.722
49.86000 145.249
49.87000 144.343
49.88000 149.891
49.89000 153.925
49.90000 155.161
49.91000 153.479
49.92000 151.798
49.93000 150.138
49.94000 148.494
49.95000 146.887
49.96000 144.487
49.97000 141.835
49.98000 139.314
49.99000 138.599
50.00000 138.456
50.01000 139.217
50.02000 147.065
50.03000 156.426
50.04000 164.384
50.05000 163.824
50.06000 162.374
50.07000 160.757
50.08000 158.579
50.09000 156.356
50.10000 155.205
50.11000 156.496
50.12000 157.882
50.13000 158.728
50.14000 161.406
50.15000 163.337
50.16000 162.804
50.17000 159.746
50.18000 156.705
50.19000 155.519
50.20000 155.582
50.21000 155.644
50.22000 155.627
50.23000 155.577
50.24000 155.560
50.25000 156.002
50.26000 156.588
50.27000 156.695
50.28000 153.113
50.29000 148.757
50.30000 145.063
50.31000 146.334
50.32000 147.959
50.33000 150.453
50.34000 155.807
50.35000 161.386
50.36000 164.546
50.37000 162.272
50.38000 159.794
50.39000 158.290
50.40000 161.854
50.41000 164.436
50.42000 165.418
50.43000 164.787
50.44000 164.185
50.45000 166.458
50.46000 170.640
50.47000 174.719
50.48000 174.228
50.49000 171.788
50.50000 169.595
50.51000 170.624
50.52000 172.647
50.53000 174.652
50.54000 176.524
50.55000 178.368
50.56000 179.927
50.57000 184.033
50.58000 187.750
50.59000 190.837
50.60000 191.885
50.61000 192.777
50.62000 193.853
50.63000 195.335
50.64000 196.832
50.65000 197.735
50.66000 209.663
50.67000 218.233
50.68000 223.097
50.69000 224.287
50.70000 225.473
50.71000 226.299
50.72000 226.890
50.73000 227.466
50.74000 225.130
50.75000 221.663
50.76000 218.498
50.77000 219.157
50.78000 220.980
50.79000 223.005
50.80000 226.545
50.81000 230.393
50.82000 233.636
50.83000 230.072
50.84000 226.358
50.85000 222.653
50.86000 218.975
50.87000 215.300
50.88000 211.994
50.89000 209.497
50.90000 207.028
50.91000 205.547
50.92000 208.610
50.93000 210.816
50.94000 211.483
50.95000 210.653
50.96000 209.793
50.97000 206.481
50.98000 201.589
50.99000 196.826
51.00000 190.953
51.01000 184.893
51.02000 179.218
51.03000 178.331
51.04000 178.878
51.05000 179.646
51.06000 182.024
51.07000 184.725
51.08000 186.996
51.09000 181.726
51.10000 176.535
51.11000 172.445
51.12000 171.821
51.13000 171.450
51.14000 170.847
51.15000 169.743
51.16000 168.623
51.17000 167.955
51.18000 162.059
51.19000 157.849
51.20000 157.084
51.21000 159.620
51.22000 162.087
51.23000 158.950
51.24000 152.260
51.25000 145.752
51.26000 148.567
51.27000 155.079
51.28000 160.991
51.29000 159.624
51.30000 156.108
51.31000 152.776
51.32000 150.754
51.33000 148.990
51.34000 147.512
51.35000 150.576
51.36000 153.596
51.37000 155.393
51.38000 153.396
51.39000 151.129
51.40000 152.260
51.41000 160.600
51.42000 169.175
51.43000 174.251
51.44000 160.779
51.45000 151.153
51.46000 145.792
51.47000 144.452
51.48000 143.129
51.49000 143.162
51.50000 144.042
51.51000 144.897
51.52000 144.020
51.53000 142.485
51.54000 140.962
51.55000 139.579
51.56000 138.237
51.57000 137.566
51.58000 141.608
51.59000 146.565
51.60000 150.708
51.61000 147.707
51.62000 144.490
51.63000 141.843
51.64000 140.942
51.65000 140.163
51.66000 140.385
51.67000 142.700
51.68000 145.081
51.69000 146.481
51.70000 147.789
51.71000 148.711
51.72000 148.505
51.73000 147.256
51.74000 145.986
51.75000 143.261
51.76000 139.640
51.77000 136.126
51.78000 140.386
51.79000 147.523
51.80000 153.844
51.81000 150.671
51.82000 144.779
51.83000 139.851
51.84000 141.582
51.85000 144.583
51.86000 147.084
51.87000 142.176
51.88000 137.370
51.89000 135.463
51.90000 142.290
51.91000 149.709
51.92000 154.480
51.93000 153.797
51.94000 152.948
51.95000 152.452
51.96000 146.430
51.97000 142.168
51.98000 137.828
51.99000 133.419
52.00000 129.124
52.01000 132.513
52.02000 140.561
52.03000 148.365
52.04000 152.561
52.05000 155.122
52.06000 156.962
52.07000 150.602
52.08000 141.928
52.09000 135.021
52.10000 140.101
52.11000 147.430
52.12000 153.520
52.13000 144.543
52.14000 135.649
52.15000 130.229
52.16000 135.121
52.17000 140.696
52.18000 145.360
52.19000 148.175
52.20000 150.936
52.21000 152.539
52.22000 150.332
52.23000 148.768
52.24000 149.020
52.25000 150.899
52.26000 152.733
52.27000 151.646
52.28000 148.813
52.29000 146.070
52.30000 142.526
52.31000 138.864
52.32000 135.342
52.33000 133.368
52.34000 131.824
52.35000 130.613
52.36000 131.624
52.37000 133.044
52.38000 134.222
52.39000 138.296
52.40000 141.936
52.41000 142.999
52.42000 136.524
52.43000 129.563
52.44000 126.358
52.45000 130.670
52.46000 135.191
52.47000 137.798
52.48000 140.668
52.49000 142.678
52.50000 144.148
52.51000 145.140
52.52000 146.063
52.53000 142.852
52.54000 137.206
52.55000 131.744
52.56000 133.819
52.57000 138.640
52.58000 143.228
52.59000 145.286
52.60000 146.652
52.61000 147.583
52.62000 145.675
52.63000 143.250
52.64000 141.248
52.65000 141.178
52.66000 141.301
52.67000 140.633
52.68000 137.683
52.69000 134.591
52.70000 132.301
52.71000 131.595
52.72000 130.930
52.73000 130.550
52.74000 136.110
52.75000 140.012
52.76000 141.899
52.77000 142.038
52.78000 142.120
52.79000 138.875
52.80000 133.702
52.81000 128.703
52.82000 127.900
52.83000 128.710
52.84000 129.962
52.85000 135.911
52.86000 143.128
52.87000 149.308
52.88000 148.808
52.89000 147.115
52.90000 145.722
52.91000 146.321
52.92000 146.995
52.93000 147.145
52.94000 145.800
52.95000 144.365
52.96000 142.624
52.97000 140.288
52.98000 137.937
52.99000 136.601
53.00000 140.684
53.01000 143.542
53.02000 144.101
53.03000 142.696
53.04000 141.282
53.05000 139.421
53.06000 137.304
53.07000 135.261
53.08000 137.769
53.09000 141.805
53.10000 145.366
53.11000 143.981
53.12000 141.281
53.13000 138.868
53.14000 138.268
53.15000 137.986
53.16000 137.755
53.17000 140.336
53.18000 142.706
53.19000 145.280
53.20000 148.428
53.21000 151.610
53.22000 152.177
53.23000 147.735
53.24000 143.169
53.25000 140.591
53.26000 148.232
53.27000 153.561
53.28000 153.878
53.29000 149.982
53.30000 146.191
53.31000 147.755
53.32000 152.335
53.33000 156.751
53.34000 159.258
53.35000 160.925
53.36000 162.282
53.37000 160.487
53.38000 157.867
53.39000 155.311
53.40000 153.155
53.41000 151.068
53.42000 149.360
53.43000 152.117
53.44000 154.768
53.45000 157.436
53.46000 160.152
53.47000 162.872
53.48000 162.536
53.49000 156.430
53.50000 150.189
53.51000 146.691
53.52000 150.200
53.53000 152.647
53.54000 154.100
53.55000 154.730
53.56000 155.373
53.57000 156.593
53.58000 158.135
53.59000 159.619
53.60000 153.692
53.61000 145.488
53.62000 138.119
53.63000 139.096
53.64000 142.224
53.65000 144.545
53.66000 141.926
53.67000 138.469
53.68000 135.649
53.69000 140.422
53.70000 144.974
53.71000 147.500
53.72000 144.513
53.73000 141.215
53.74000 138.251
53.75000 135.908
53.76000 133.580
53.77000 132.284
53.78000 139.460
53.79000 144.433
53.80000 146.108
53.81000 145.100
53.82000 144.154
53.83000 146.081
53.84000 149.581
53.85000 152.946
53.86000 152.490
53.87000 150.723
53.88000 148.710
53.89000 144.277
53.90000 139.231
53.91000 135.133
53.92000 136.731
53.93000 139.279
53.94000 141.352
53.95000 147.774
53.96000 153.381
53.97000 155.351
53.98000 147.573
53.99000 139.259
54.00000 133.401
54.01000 132.041
54.02000 130.778
54.03000 130.080
54.04000 143.775
54.05000 153.222
54.06000 154.512
54.07000 149.266
54.08000 144.113
54.09000 143.138
54.10000 144.414
54.11000 145.640
54.12000 143.358
54.13000 140.011
54.14000 136.876
54.15000 135.769
54.16000 135.168
54.17000 134.912
54.18000 136.687
54.19000 138.795
54.20000 140.504
54.21000 134.354
54.22000 128.701
54.23000 125.128
54.24000 127.053
54.25000 129.270
54.26000 132.405
54.27000 137.197
54.28000 142.024
54.29000 144.671
54.30000 143.335
54.31000 142.410
54.32000 141.509
54.33000 140.627
54.34000 139.781
54.35000 140.457
54.36000 141.941
54.37000 143.366
54.38000 141.168
54.39000 137.885
54.40000 135.081
54.41000 136.774
54.42000 139.575
54.43000 142.136
54.44000 143.302
54.45000 144.243
54.46000 145.003
54.47000 145.091
54.48000 145.109
54.49000 145.292
54.50000 145.908
54.51000 146.547
54.52000 144.598
54.53000 138.042
54.54000 131.397
54.55000 127.779
54.56000 133.702
54.57000 137.770
54.58000 139.380
54.59000 139.080
54.60000 138.766
54.61000 137.851
54.62000 136.622
54.63000 135.445
54.64000 137.061
54.65000 139.502
54.66000 141.593
54.67000 140.456
54.68000 138.535
54.69000 137.149
54.70000 138.809
54.71000 140.952
54.72000 142.678
54.73000 139.814
54.74000 137.131
54.75000 135.129
54.76000 134.874
54.77000 134.707
54.78000 135.589
54.79000 138.310
54.80000 141.066
54.81000 142.555
54.82000 137.723
54.83000 134.426
54.84000 134.858
54.85000 138.141
54.86000 141.392
54.87000 143.382
54.88000 144.722
54.89000 146.003
54.90000 147.411
54.91000 148.763
54.92000 149.711
54.93000 147.003
54.94000 143.422
54.95000 140.257
54.96000 139.434
54.97000 138.975
54.98000 138.606
54.99000 144.183
55.00000 149.155
55.01000 152.246
55.02000 150.583
55.03000 148.687
55.04000 146.808
55.05000 144.959
55.06000 143.110
55.07000 142.119
55.08000 142.819
55.09000 143.299
55.10000 143.726
55.11000 144.114
55.12000 144.491
55.13000 144.475
55.14000 144.258
55.15000 144.052
55.16000 142.339
55.17000 140.259
55.18000 138.551
55.19000 140.132
55.20000 142.486
55.21000 144.949
55.22000 148.011
55.23000 151.164
55.24000 153.686
55.25000 151.880
55.26000 150.098
55.27000 149.923
55.28000 153.757
55.29000 157.781
55.30000 158.347
55.31000 153.024
55.32000 147.603
55.33000 144.718
55.34000 145.204
55.35000 145.534
55.36000 145.336
55.37000 144.747
55.38000 144.301
55.39000 149.014
55.40000 156.311
55.41000 163.275
55.42000 160.211
55.43000 154.175
55.44000 148.919
55.45000 150.439
55.46000 153.528
55.47000 156.303
55.48000 157.369
55.49000 158.178
55.50000 158.823
55.51000 167.360
55.52000 174.824
55.53000 180.036
55.54000 179.715
55.55000 179.139
55.56000 179.576
55.57000 181.712
55.58000 183.875
55.59000 185.017
55.60000 189.005
55.61000 191.703
55.62000 192.570
55.63000 192.103
55.64000 191.793
55.65000 196.985
55.66000 204.893
55.67000 212.429
55.68000 216.264
55.69000 218.661
55.70000 221.766
55.71000 230.909
55.72000 241.429
55.73000 251.140
55.74000 256.533
55.75000 261.288
55.76000 265.066
55.77000 277.701
55.78000 288.506
55.79000 302.480
55.80000 324.129
55.81000 346.121
55.82000 364.216
55.83000 375.865
55.84000 387.419
55.85000 393.472
55.86000 401.411
55.87000 406.815
55.88000 416.310
55.89000 428.742
55.90000 441.474
55.91000 464.156
55.92000 491.680
55.93000 517.877
55.94000 521.839
55.95000 518.657
55.96000 517.421
55.97000 532.441
55.98000 551.109
55.99000 567.065
56.00000 568.755
56.01000 568.373
56.02000 568.071
56.03000 555.732
56.04000 544.978
56.05000 534.665
56.06000 525.403
56.07000 516.186
56.08000 508.339
56.09000 502.725
56.10000 497.143
56.11000 494.241
56.12000 489.258
56.13000 485.825
56.14000 472.943
56.15000 453.378
56.16000 434.050
56.17000 422.348
56.18000 414.304
56.19000 406.659
56.20000 391.758
56.21000 375.788
56.22000 361.132
56.23000 357.241
56.24000 355.728
56.25000 352.154
56.26000 337.915
56.27000 322.156
56.28000 309.721
56.29000 295.043
56.30000 283.117
56.31000 273.388
56.32000 268.834
56.33000 264.496
56.34000 260.258
56.35000 256.177
56.36000 252.099
56.37000 249.996
56.38000 236.159
56.39000 226.867
56.40000 221.541
56.41000 218.978
56.42000 216.530
56.43000 217.643
56.44000 220.440
56.45000 223.095
56.46000 210.877
56.47000 195.167
56.48000 181.156
56.49000 180.803
56.50000 183.419
56.51000 185.095
56.52000 181.983
56.53000 178.199
56.54000 175.224
56.55000 175.494
56.56000 175.924
56.57000 176.314
56.58000 176.610
56.59000 176.903
56.60000 175.749
56.61000 172.309
56.62000 168.839
56.63000 167.065
56.64000 158.584
56.65000 152.927
56.66000 152.083
56.67000 154.542
56.68000 156.961
56.69000 158.167
56.70000 158.808
56.71000 159.416
56.72000 157.358
56.73000 154.681
56.74000 152.044
56.75000 149.721
56.76000 147.467
56.77000 145.615
56.78000 145.783
56.79000 146.228
56.80000 146.577
56.81000 147.574
56.82000 148.413
56.83000 148.316
56.84000 146.077
56.85000 143.755
56.86000 140.880
56.87000 137.145
56.88000 133.400
56.89000 131.501
56.90000 138.696
56.91000 143.472
56.92000 143.493
56.93000 140.300
56.94000 137.212
56.95000 137.152
56.96000 138.482
56.97000 139.740
56.98000 137.196
56.99000 133.759
57.00000 130.878
57.01000 132.293
57.02000 134.615
57.03000 136.219
57.04000 134.285
57.05000 131.873
57.06000 129.991
57.07000 128.050
57.08000 126.499
57.09000 126.219
57.10000 128.804
57.11000 131.497
57.12000 130.974
57.13000 125.514
57.14000 120.001
57.15000 117.228
57.16000 124.254
57.17000 128.926
57.18000 131.410
57.19000 132.438
57.20000 133.449
57.21000 133.970
57.22000 134.270
57.23000 134.554
57.24000 133.464
57.25000 132.073
57.26000 130.850
57.27000 130.901
57.28000 131.216
57.29000 131.448
57.30000 131.279
57.31000 131.056
57.32000 130.883
57.33000 131.263
57.34000 131.599
57.35000 131.992
57.36000 132.509
57.37000 133.030
57.38000 130.977
57.39000 125.032
57.40000 119.048
57.41000 119.133
57.42000 125.255
57.43000 131.324
57.44000 132.386
57.45000 130.166
57.46000 128.013
57.47000 127.642
57.48000 128.067
57.49000 128.469
57.50000 128.379
57.51000 128.159
57.52000 127.538
57.53000 123.921
57.54000 119.693
57.55000 116.265
57.56000 116.654
57.57000 117.539
57.58000 118.226
57.59000 120.612
57.60000 122.609
57.61000 124.743
57.62000 127.175
57.63000 129.618
57.64000 130.721
57.65000 129.830
57.66000 128.920
57.67000 127.536
57.68000 125.689
57.69000 123.849
57.70000 122.625
57.71000 121.798
57.72000 121.200
57.73000 126.542
57.74000 134.495
57.75000 141.987
57.76000 140.544
57.77000 136.766
57.78000 133.209
57.79000 131.258
57.80000 129.629
57.81000 128.635
57.82000 130.616
57.83000 132.978
57.84000 134.802
57.85000 132.146
57.86000 129.779
57.87000 126.965
57.88000 123.184
57.89000 119.370
57.90000 119.659
57.91000 125.963
57.92000 132.319
57.93000 133.539
57.94000 129.819
57.95000 126.132
57.96000 125.124
57.97000 125.820
57.98000 126.455
57.99000 125.560
58.00000 124.001
58.01000 122.534
58.02000 122.337
58.03000 122.501
58.04000 122.393
58.05000 120.336
58.06000 117.894
58.07000 116.828
58.08000 122.130
58.09000 128.230
58.10000 132.922
58.11000 130.486
58.12000 128.154
58.13000 127.723
58.14000 131.334
58.15000 135.078
58.16000 136.925
58.17000 136.033
58.18000 135.120
58.19000 133.080
58.20000 129.976
58.21000 126.878
58.22000 124.254
58.23000 121.926
58.24000 119.730
58.25000 120.736
58.26000 123.108
58.27000 125.337
58.28000 129.297
58.29000 133.369
58.30000 136.709
58.31000 134.869
58.32000 132.022
58.33000 129.550
58.34000 128.787
58.35000 128.234
58.36000 127.810
58.37000 128.423
58.38000 128.965
58.39000 130.047
58.40000 132.262
58.41000 134.513
58.42000 133.747
58.43000 128.689
58.44000 123.601
58.45000 120.548
58.46000 119.389
58.47000 118.240
58.48000 117.895
58.49000 118.045
58.50000 118.214
58.51000 118.805
58.52000 119.574
58.53000 120.296
58.54000 122.203
58.55000 124.251
58.56000 125.617
58.57000 122.264
58.58000 118.008
58.59000 114.712
58.60000 115.719
58.61000 117.246
58.62000 118.411
58.63000 118.655
58.64000 118.797
58.65000 118.765
58.66000 118.370
58.67000 117.965
58.68000 116.527
58.69000 113.643
58.70000 110.749
58.71000 111.263
58.72000 114.891
58.73000 118.458
58.74000 117.815
58.75000 114.612
58.76000 111.559
58.77000 111.925
58.78000 113.710
58.79000 115.381
58.80000 114.773
58.81000 113.634
58.82000 112.896
58.83000 114.884
58.84000 117.386
58.85000 119.476
58.86000 119.744
58.87000 119.796
58.88000 119.836
58.89000 118.331
58.90000 117.067
58.91000 116.582
58.92000 117.687
58.93000 118.837
58.94000 118.108
58.95000 114.786
58.96000 111.450
58.97000 109.248
58.98000 108.068
58.99000 106.948
59.00000 109.763
59.01000 114.934
59.02000 119.992
59.03000 122.547
59.04000 124.078
59.05000 125.509
59.06000 123.504
59.07000 120.816
59.08000 118.367
59.09000 117.521
59.10000 116.971
59.11000 117.242
59.12000 121.081
59.13000 125.334
59.14000 128.556
59.15000 125.763
59.16000 123.265
59.17000 122.265
59.18000 124.274
59.19000 126.368
59.20000 127.454
59.21000 127.172
59.22000 126.882
59.23000 125.310
59.24000 122.606
59.25000 119.972
59.26000 121.556
59.27000 125.631
59.28000 129.406
59.29000 126.771
59.30000 121.552
59.31000 116.683
59.32000 120.260
59.33000 125.603
59.34000 129.825
59.35000 126.671
59.36000 122.173
59.37000 118.784
59.38000 120.136
59.39000 122.027
59.40000 123.454
59.41000 118.161
59.42000 113.681
59.43000 112.352
59.44000 117.256
59.45000 122.328
59.46000 123.862
59.47000 120.667
59.48000 117.450
59.49000 113.836
59.50000 109.884
59.51000 106.051
59.52000 109.173
59.53000 116.342
59.54000 123.212
59.55000 123.905
59.56000 122.144
59.57000 120.503
59.58000 120.328
59.59000 120.529
59.60000 120.992
59.61000 123.155
59.62000 125.622
59.63000 126.517
59.64000 120.787
59.65000 114.319
59.66000 109.457
59.67000 111.582
59.68000 113.580
59.69000 114.704
59.70000 114.125
59.71000 113.502
59.72000 114.498
59.73000 117.626
59.74000 120.761
59.75000 123.930
59.76000 127.122
59.77000 130.224
59.78000 128.382
59.79000 123.706
59.80000 119.209
59.81000 118.317
59.82000 118.837
59.83000 119.321
59.84000 121.481
59.85000 123.834
59.86000 125.342
59.87000 121.488
59.88000 116.688
59.89000 113.204
59.90000 115.180
59.91000 117.752
59.92000 119.677
59.93000 117.641
59.94000 115.868
59.95000 115.658
59.96000 118.455
59.97000 121.327
59.98000 121.781
59.99000 119.101
60.00000 116.412
60.01000 116.815
60.02000 119.820
60.03000 122.721
60.04000 120.219
60.05000 114.665
60.06000 109.476
60.07000 111.409
60.08000 116.092
60.09000 120.439
60.10000 122.589
60.11000 124.006
60.12000 124.925
60.13000 122.729
60.14000 119.993
60.15000 118.286
60.16000 120.783
60.17000 123.730
60.18000 125.927
60.19000 125.797
60.20000 125.590
60.21000 125.464
60.22000 125.490
60.23000 125.520
60.24000 123.005
60.25000 117.245
60.26000 111.479
60.27000 111.210
60.28000 115.489
60.29000 119.689
60.30000 119.976
60.31000 118.086
60.32000 116.297
60.33000 116.432
60.34000 117.298
60.35000 118.101
60.36000 116.897
60.37000 115.347
60.38000 113.960
60.39000 113.574
60.40000 113.357
60.41000 113.707
60.42000 116.336
60.43000 119.203
60.44000 121.333
60.45000 119.270
60.46000 117.483
60.47000 117.502
60.48000 120.893
60.49000 124.360
60.50000 124.013
60.51000 118.876
60.52000 113.730
60.53000 112.461
60.54000 114.349
60.55000 116.249
60.56000 118.636
60.57000 121.290
60.58000 123.787
60.59000 123.370
60.60000 121.860
60.61000 120.463
60.62000 117.511
60.63000 114.503
60.64000 112.210
60.65000 114.219
60.66000 116.949
60.67000 119.541
60.68000 121.589
60.69000 123.581
60.70000 125.054
60.71000 118.387
60.72000 112.869
60.73000 110.691
60.74000 114.657
60.75000 118.756
60.76000 120.530
60.77000 119.430
60.78000 118.323
60.79000 117.251
60.80000 116.211
60.81000 115.176
60.82000 114.373
60.83000 113.696
60.84000 113.219
60.85000 116.340
60.86000 120.791
60.87000 124.900
60.88000 121.580
60.89000 116.931
60.90000 113.207
60.91000 114.973
60.92000 117.643
60.93000 120.136
60.94000 121.941
60.95000 123.676
60.96000 124.954
60.97000 121.618
60.98000 118.844
60.99000 116.707
61.00000 115.723
61.01000 114.762
61.02000 116.504
61.03000 121.531
61.04000 126.558
61.05000 128.096
61.06000 126.880
61.07000 125.655
61.08000 124.045
61.09000 122.230
61.10000 120.556
61.11000 121.350
61.12000 123.043
61.13000 124.604
61.14000 121.152
61.15000 116.953
61.16000 113.299
61.17000 112.827
61.18000 112.870
61.19000 113.572
61.20000 116.808
61.21000 120.294
61.22000 122.850
61.23000 129.097
61.24000 134.072
61.25000 135.605
61.26000 130.992
61.27000 126.258
61.28000 122.902
61.29000 121.196
61.30000 119.497
61.31000 119.696
61.32000 121.365
61.33000 123.074
61.34000 126.454
61.35000 130.712
61.36000 134.705
61.37000 134.197
61.38000 132.073
61.39000 130.119
61.40000 132.326
61.41000 135.204
61.42000 137.262
61.43000 134.622
61.44000 131.235
61.45000 129.863
61.46000 136.126
61.47000 143.126
61.48000 148.237
61.49000 149.248
61.50000 149.867
61.51000 154.498
61.52000 166.191
61.53000 178.016
61.54000 194.621
61.55000 216.856
61.56000 239.046
61.57000 253.026
61.58000 260.663
61.59000 268.373
61.60000 278.984
61.61000 291.095
61.62000 302.857
61.63000 308.852
61.64000 312.805
61.65000 316.436
61.66000 317.822
61.67000 318.579
61.68000 319.885
61.69000 324.279
61.70000 329.157
61.71000 332.037
61.72000 327.468
61.73000 322.195
61.74000 318.361
61.75000 309.245
61.76000 302.031
61.77000 292.090
61.78000 277.419
61.79000 262.664
61.80000 246.107
61.81000 227.461
61.82000 208.862
61.83000 191.346
61.84000 174.760
61.85000 158.456
61.86000 152.842
61.87000 152.679
61.88000 152.124
61.89000 145.262
61.90000 136.200
61.91000 127.894
61.92000 128.513
61.93000 130.941
61.94000 132.657
61.95000 130.428
61.96000 127.591
61.97000 126.170
61.98000 129.945
61.99000 134.202
62.00000 137.284
62.01000 131.400
62.02000 126.555
62.03000 124.316
62.04000 126.531
62.05000 128.821
62.06000 128.829
62.07000 126.234
62.08000 123.643
62.09000 124.466
62.10000 127.802
62.11000 131.112
62.12000 133.509
62.13000 135.447
62.14000 137.077
62.15000 133.870
62.16000 129.000
62.17000 124.544
62.18000 123.362
62.19000 122.986
62.20000 122.323
62.21000 120.094
62.22000 117.629
62.23000 116.917
62.24000 122.549
62.25000 128.757
62.26000 133.231
62.27000 137.376
62.28000 140.540
62.29000 141.521
62.30000 138.829
62.31000 136.077
62.32000 135.062
62.33000 135.997
62.34000 136.931
62.35000 137.630
62.36000 138.154
62.37000 138.696
62.38000 139.856
62.39000 141.322
62.40000 142.553
62.41000 140.190
62.42000 136.610
62.43000 133.341
62.44000 137.083
62.45000 141.828
62.46000 145.621
62.47000 144.306
62.48000 142.233
62.49000 140.588
62.50000 140.466
62.51000 140.479
62.52000 140.488
62.53000 142.910
62.54000 144.845
62.55000 142.917
62.56000 134.584
62.57000 126.154
62.58000 123.088
62.59000 125.944
62.60000 128.792
62.61000 131.792
62.62000 134.874
62.63000 137.814
62.64000 136.007
62.65000 131.883
62.66000 128.057
62.67000 128.674
62.68000 130.775
62.69000 132.690
62.70000 134.279
62.71000 135.623
62.72000 136.446
62.73000 134.518
62.74000 132.190
62.75000 130.391
62.76000 130.452
62.77000 130.674
62.78000 130.833
62.79000 135.362
62.80000 138.963
62.81000 141.190
62.82000 141.171
62.83000 141.119
62.84000 140.807
62.85000 140.211
62.86000 139.617
62.87000 137.796
62.88000 135.132
62.89000 132.541
62.90000 132.347
62.91000 133.305
62.92000 134.148
62.93000 133.327
62.94000 131.957
62.95000 130.712
62.96000 135.744
62.97000 141.427
62.98000 146.119
62.99000 145.674
63.00000 144.494
63.01000 143.084
63.02000 140.882
63.03000 138.612
63.04000 136.998
63.05000 136.842
63.06000 136.770
63.07000 137.576
63.08000 139.794
63.09000 142.032
63.10000 141.934
63.11000 139.343
63.12000 136.763
63.13000 134.392
63.14000 132.191
63.15000 130.109
63.16000 131.745
63.17000 135.142
63.18000 138.125
63.19000 135.226
63.20000 130.419
63.21000 126.055
63.22000 126.625
63.23000 128.078
63.24000 129.786
63.25000 132.796
63.26000 135.989
63.27000 137.959
63.28000 135.757
63.29000 133.208
63.30000 131.404
63.31000 131.085
63.32000 130.888
63.33000 131.498
63.34000 133.388
63.35000 135.294
63.36000 135.145
63.37000 132.838
63.38000 130.542
63.39000 129.907
63.40000 130.411
63.41000 131.044
63.42000 135.557
63.43000 141.882
63.44000 147.767
63.45000 147.560
63.46000 145.405
63.47000 143.454
63.48000 138.576
63.49000 133.722
63.50000 129.830
63.51000 130.767
63.52000 132.371
63.53000 134.233
63.54000 136.958
63.55000 139.754
63.56000 141.724
63.57000 142.014
63.58000 142.184
63.59000 143.307
63.60000 145.917
63.61000 148.546
63.62000 150.028
63.63000 150.327
63.64000 150.625
63.65000 149.181
63.66000 146.590
63.67000 144.190
63.68000 147.298
63.69000 152.945
63.70000 158.073
63.71000 156.204
63.72000 152.132
63.73000 148.450
63.74000 146.602
63.75000 145.318
63.76000 144.331
63.77000 144.816
63.78000 145.501
63.79000 145.888
63.80000 145.285
63.81000 144.604
63.82000 144.127
63.83000 148.317
63.84000 151.622
63.85000 153.779
63.86000 154.169
63.87000 154.540
63.88000 153.720
63.89000 151.690
63.90000 149.673
63.91000 148.016
63.92000 146.618
63.93000 145.314
63.94000 146.595
63.95000 149.051
63.96000 151.191
63.97000 149.179
63.98000 145.878
63.99000 142.901
64.00000 141.109
64.01000 139.753
64.02000 139.103
64.03000 141.898
64.04000 145.151
64.05000 147.008
64.06000 144.310
64.07000 141.261
64.08000 139.133
64.09000 143.077
64.10000 146.225
64.11000 147.721
64.12000 146.716
64.13000 145.684
64.14000 147.205
64.15000 151.276
64.16000 155.321
64.17000 158.055
64.18000 159.900
64.19000 161.698
64.20000 162.242
64.21000 162.225
64.22000 161.862
64.23000 157.038
64.24000 150.852
64.25000 145.282
64.26000 144.185
64.27000 144.027
64.28000 144.831
64.29000 150.244
64.30000 156.260
64.31000 159.836
64.32000 155.576
64.33000 150.723
64.34000 147.352
64.35000 147.787
64.36000 148.216
64.37000 151.409
64.38000 158.730
64.39000 166.090
64.40000 169.331
64.41000 168.529
64.42000 167.733
64.43000 165.419
64.44000 162.174
64.45000 158.962
64.46000 156.639
64.47000 154.707
64.48000 153.157
64.49000 156.402
64.50000 161.093
64.51000 165.306
64.52000 168.073
64.53000 170.239
64.54000 172.594
64.55000 175.838
64.56000 179.195
64.57000 180.200
64.58000 173.754
64.59000 166.758
64.60000 161.921
64.61000 166.656
64.62000 170.463
64.63000 172.818
64.64000 173.036
64.65000 173.234
64.66000 172.776
64.67000 171.684
64.68000 170.600
64.69000 172.300
64.70000 175.719
64.71000 178.966
64.72000 177.870
64.73000 174.886
64.74000 172.252
64.75000 173.928
64.76000 176.884
64.77000 179.534
64.78000 179.657
64.79000 179.326
64.80000 179.429
64.81000 181.541
64.82000 183.907
64.83000 185.565
64.84000 185.017
64.85000 184.311
64.86000 183.824
64.87000 186.015
64.88000 187.725
64.89000 188.418
64.90000 187.638
64.91000 186.847
64.92000 187.493
64.93000 189.504
64.94000 191.500
64.95000 193.320
64.96000 195.001
64.97000 196.667
64.98000 198.004
64.99000 199.199
65.00000 200.314
65.01000 200.465
65.02000 200.336
65.03000 200.219
65.04000 203.523
65.05000 206.986
65.06000 209.499
65.07000 207.678
65.08000 205.322
65.09000 204.672
65.10000 209.271
65.11000 214.239
65.12000 217.640
65.13000 219.927
65.14000 221.613
65.15000 224.352
65.16000 228.591
65.17000 232.842
65.18000 235.470
65.19000 236.582
65.20000 237.685
65.21000 235.409
65.22000 231.121
65.23000 227.223
65.24000 232.546
65.25000 241.763
65.26000 250.374
65.27000 251.856
65.28000 251.285
65.29000 250.775
65.30000 255.930
65.31000 261.365
65.32000 265.708
65.33000 265.143
65.34000 263.984
65.35000 265.312
65.36000 274.181
65.37000 283.567
65.38000 289.961
65.39000 303.334
65.40000 313.487
65.41000 322.492
65.42000 329.886
65.43000 337.270
65.44000 347.112
65.45000 359.212
65.46000 371.204
65.47000 379.290
65.48000 384.883
65.49000 390.471
65.50000 395.942
65.51000 401.363
65.52000 407.233
65.53000 418.251
65.54000 430.730
65.55000 441.843
65.56000 440.949
65.57000 438.201
65.58000 440.336
65.59000 464.088
65.60000 490.410
65.61000 515.459
65.62000 536.709
65.63000 557.704
65.64000 571.935
65.65000 630.839
65.66000 675.741
65.67000 730.183
65.68000 797.827
65.69000 865.569
65.70000 956.661
65.71000 1068.842
65.72000 1179.962
65.73000 1302.691
65.74000 1429.753
65.75000 1557.500
65.76000 1700.428
65.77000 1849.584
65.78000 1992.450
65.79000 2064.658
65.80000 2117.101
65.81000 2163.695
65.82000 2211.367
65.83000 2252.888
65.84000 2291.447
65.85000 2317.091
65.86000 2341.229
65.87000 2354.941
65.88000 2337.962
65.89000 2318.984
65.90000 2306.186
65.91000 2256.671
65.92000 2219.057
65.93000 2146.750
65.94000 2027.178
65.95000 1907.315
65.96000 1765.005
65.97000 1602.750
65.98000 1442.126
65.99000 1287.496
66.00000 1139.664
66.01000 994.002
66.02000 894.949
66.03000 814.748
66.04000 735.905
66.05000 671.979
66.06000 612.163
66.07000 559.139
66.08000 524.408
66.09000 497.234
66.10000 473.184
66.11000 462.542
66.12000 453.431
66.13000 445.454
66.14000 440.763
66.15000 436.281
66.16000 433.274
66.17000 423.370
66.18000 415.877
66.19000 412.728
66.20000 415.405
66.21000 418.114
66.22000 422.220
66.23000 427.547
66.24000 432.817
66.25000 447.962
66.26000 468.398
66.27000 489.209
66.28000 517.835
66.29000 549.576
66.30000 580.689
66.31000 605.038
66.32000 627.550
66.33000 647.462
66.34000 662.995
66.35000 675.738
66.36000 686.694
66.37000 690.095
66.38000 692.649
66.39000 693.318
66.40000 688.597
66.41000 683.543
66.42000 680.169
66.43000 687.073
66.44000 692.387
66.45000 694.147
66.46000 691.212
66.47000 688.246
66.48000 678.013
66.49000 661.532
66.50000 645.236
66.51000 625.035
66.52000 603.120
66.53000 580.513
66.54000 543.922
66.55000 501.837
66.56000 462.285
66.57000 449.392
66.58000 443.628
66.59000 438.542
66.60000 415.110
66.61000 392.099
66.62000 374.685
66.63000 380.565
66.64000 389.005
66.65000 393.130
66.66000 385.097
66.67000 376.331
66.68000 370.511
66.69000 377.132
66.70000 382.257
66.71000 385.513
66.72000 386.340
66.73000 387.152
66.74000 384.756
66.75000 379.647
66.76000 374.599
66.77000 375.096
66.78000 378.646
66.79000 382.062
66.80000 382.846
66.81000 382.609
66.82000 382.434
66.83000 382.879
66.84000 383.487
66.85000 384.023
66.86000 388.110
66.87000 392.161
66.88000 395.146
66.89000 393.767
66.90000 391.917
66.91000 391.314
66.92000 394.176
66.93000 397.242
66.94000 399.266
66.95000 399.125
66.96000 398.982
66.97000 397.589
66.98000 394.596
66.99000 391.608
67.00000 393.845
67.01000 400.434
67.02000 406.940
67.03000 402.438
67.04000 392.066
67.05000 382.286
67.06000 383.796
67.07000 389.615
67.08000 395.098
67.09000 397.179
67.10000 398.377
67.11000 399.429
67.12000 400.064
67.13000 400.548
67.14000 402.091
67.15000 407.905
67.16000 414.170
67.17000 416.883
67.18000 409.869
67.19000 402.301
67.20000 397.329
67.21000 404.377
67.22000 409.767
67.23000 414.371
67.24000 417.986
67.25000 421.594
67.26000 423.496
67.27000 424.002
67.28000 424.501
67.29000 431.953
67.30000 442.925
67.31000 453.126
67.32000 449.017
67.33000 439.524
67.34000 430.875
67.35000 430.576
67.36000 432.410
67.37000 434.017
67.38000 438.419
67.39000 442.598
67.40000 445.719
67.41000 444.638
67.42000 443.123
67.43000 441.434
67.44000 439.275
67.45000 437.089
67.46000 435.661
67.47000 434.795
67.48000 434.169
67.49000 433.162
67.50000 431.684
67.51000 430.225
67.52000 436.439
67.53000 448.843
67.54000 461.073
67.55000 461.189
67.56000 454.920
67.57000 449.322
67.58000 455.847
67.59000 466.867
67.60000 477.246
67.61000 481.425
67.62000 484.043
67.63000 486.332
67.64000 483.715
67.65000 480.781
67.66000 481.155
67.67000 494.486
67.68000 509.128
67.69000 516.786
67.70000 505.867
67.71000 493.946
67.72000 486.199
67.73000 490.311
67.74000 493.505
67.75000 497.040
67.76000 500.992
67.77000 504.928
67.78000 503.990
67.79000 499.182
67.80000 494.445
67.81000 488.094
67.82000 481.094
67.83000 474.934
67.84000 483.505
67.85000 497.459
67.86000 510.672
67.87000 516.848
67.88000 521.279
67.89000 525.143
67.90000 527.004
67.91000 528.316
67.92000 527.728
67.93000 519.808
67.94000 511.161
67.95000 506.210
67.96000 510.947
67.97000 516.193
67.98000 519.583
67.99000 525.671
68.00000 530.162
68.01000 534.766
68.02000 539.505
68.03000 544.234
68.04000 545.815
68.05000 544.935
68.06000 544.068
68.07000 546.298
68.08000 550.041
68.09000 553.868
68.10000 559.148
68.11000 564.951
68.12000 570.107
68.13000 569.250
68.14000 566.926
68.15000 564.905
68.16000 568.456
68.17000 572.245
68.18000 577.219
68.19000 586.693
68.20000 596.604
68.21000 602.825
68.22000 599.512
68.23000 595.714
68.24000 593.272
68.25000 594.236
68.26000 594.987
68.27000 596.206
68.28000 597.980
68.29000 599.796
68.30000 611.764
68.31000 631.543
68.32000 651.001
68.33000 655.183
68.34000 651.555
68.35000 648.033
68.36000 646.244
68.37000 645.071
68.38000 645.690
68.39000 662.640
68.40000 683.516
68.41000 701.626
68.42000 701.769
68.43000 699.489
68.44000 700.016
68.45000 711.045
68.46000 723.072
68.47000 736.203
68.48000 752.144
68.49000 768.224
68.50000 778.501
68.51000 798.878
68.52000 813.843
68.53000 824.172
68.54000 829.109
68.55000 834.087
68.56000 849.713
68.57000 873.403
68.58000 896.691
68.59000 939.247
68.60000 989.916
68.61000 1039.435
68.62000 1070.334
68.63000 1094.717
68.64000 1121.381
68.65000 1168.404
68.66000 1220.247
68.67000 1265.106
68.68000 1333.049
68.69000 1393.836
68.70000 1451.568
68.71000 1498.039
68.72000 1543.461
68.73000 1594.265
68.74000 1658.572
68.75000 1723.527
68.76000 1764.806
68.77000 1807.856
68.78000 1839.142
68.79000 1889.656
68.80000 1962.177
68.81000 2034.774
68.82000 2117.259
68.83000 2207.119
68.84000 2295.381
68.85000 2416.381
68.86000 2549.144
68.87000 2689.106
68.88000 2942.547
68.89000 3235.123
68.90000 3570.143
68.91000 4276.783
68.92000 5070.052
68.93000 5754.690
68.94000 7944.354
68.95000 9996.020
68.96000 12379.693
68.97000 15968.767
68.98000 19667.609
68.99000 23546.805
69.00000 27872.123
69.01000 32218.238
69.02000 34964.297
69.03000 39586.742
69.04000 42958.156
69.05000 45624.660
69.06000 47497.375
69.07000 49365.445
69.08000 50545.504
69.09000 51220.262
69.10000 51882.477
69.11000 52717.184
69.12000 53604.699
69.13000 54492.121
69.14000 55378.102
69.15000 56263.602
69.16000 57076.266
69.17000 57263.609
69.18000 57307.430
69.19000 57345.152
69.20000 55366.020
69.21000 53435.270
69.22000 51152.441
69.23000 47610.324
69.24000 43956.012
69.25000 40511.316
69.26000 37577.699
69.27000 34667.184
69.28000 32838.855
69.29000 30605.822
69.30000 28986.955
69.31000 27868.471
69.32000 27304.309
69.33000 26740.826
69.34000 26228.189
69.35000 25752.324
69.36000 25285.699
69.37000 24429.242
69.38000 23420.668
69.39000 22366.248
69.40000 20625.336
69.41000 18654.477
69.42000 16653.129
69.43000 14395.071
69.44000 12079.003
69.45000 10090.499
69.46000 8170.920
69.47000 6556.558
69.48000 5117.338
69.49000 4295.277
69.50000 3527.002
69.51000 2871.841
69.52000 2488.514
69.53000 2117.095
69.54000 1885.144
69.55000 1706.302
69.56000 1577.855
69.57000 1463.832
69.58000 1365.527
69.59000 1267.489
69.60000 1206.952
69.61000 1173.122
69.62000 1139.977
69.63000 1093.429
69.64000 1042.443
69.65000 992.751
69.66000 961.969
69.67000 937.428
69.68000 912.596
69.69000 885.355
69.70000 857.579
69.71000 833.794
69.72000 805.930
69.73000 781.922
69.74000 760.553
69.75000 748.345
69.76000 736.917
69.77000 728.235
69.78000 726.058
69.79000 724.157
69.80000 722.977
69.81000 688.225
69.82000 662.887
69.83000 645.733
69.84000 637.353
69.85000 628.955
69.86000 617.918
69.87000 605.031
69.88000 592.416
69.89000 592.573
69.90000 598.560
69.91000 603.687
69.92000 596.572
69.93000 585.475
69.94000 575.637
69.95000 576.007
69.96000 578.613
69.97000 580.839
69.98000 563.377
69.99000 546.329
70.00000 533.956
