20.00000 480.246
20.01000 488.497
20.02000 497.926
20.03000 504.737
20.04000 501.224
20.05000 496.654
20.06000 493.280
20.07000 488.439
20.08000 484.625
20.09000 482.113
20.10000 481.986
20.11000 481.909
20.12000 483.248
20.13000 486.328
20.14000 489.407
20.15000 492.719
20.16000 496.201
20.17000 499.555
20.18000 497.176
20.19000 491.711
20.20000 486.410
20.21000 484.016
20.22000 482.693
20.23000 481.472
20.24000 485.757
20.25000 490.830
20.26000 494.224
20.27000 487.713
20.28000 479.579
20.29000 473.401
20.30000 474.824
20.31000 477.008
20.32000 478.615
20.33000 483.937
20.34000 488.207
20.35000 491.732
20.36000 493.911
20.37000 496.063
20.38000 497.149
20.39000 496.945
20.40000 496.738
20.41000 495.780
20.42000 494.240
20.43000 492.786
20.44000 495.049
20.45000 499.285
20.46000 502.852
20.47000 494.863
20.48000 482.683
20.49000 471.462
20.50000 477.947
20.51000 487.647
20.52000 495.798
20.53000 494.972
20.54000 492.700
20.55000 491.036
20.56000 491.698
20.57000 492.588
20.58000 493.240
20.59000 495.901
20.60000 498.036
20.61000 498.956
20.62000 497.716
20.63000 496.435
20.64000 493.439
20.65000 488.400
20.66000 483.367
20.67000 478.793
20.68000 474.598
20.69000 470.463
20.70000 468.814
20.71000 468.464
20.72000 468.033
20.73000 466.233
20.74000 463.942
20.75000 461.836
20.76000 467.175
20.77000 473.554
20.78000 479.887
20.79000 485.949
20.80000 491.969
20.81000 497.171
20.82000 499.290
20.83000 501.113
20.84000 502.442
20.85000 498.703
20.86000 495.626
20.87000 490.448
20.88000 481.589
20.89000 472.663
20.90000 470.781
20.91000 477.160
20.92000 483.535
20.93000 483.076
20.94000 477.436
20.95000 471.949
20.96000 472.420
20.97000 475.961
20.98000 479.402
20.99000 481.208
21.00000 482.438
21.01000 483.567
21.02000 488.616
21.03000 493.953
21.04000 497.553
21.05000 491.416
21.06000 483.764
21.07000 479.533
21.08000 488.006
21.09000 497.673
21.10000 504.692
21.11000 492.954
21.12000 483.226
21.13000 476.520
21.14000 475.030
21.15000 473.631
21.16000 475.272
21.17000 480.420
21.18000 485.559
21.19000 489.674
21.20000 492.997
21.21000 496.106
21.22000 491.196
21.23000 482.215
21.24000 473.880
21.25000 475.850
21.26000 481.399
21.27000 486.483
21.28000 488.187
21.29000 488.998
21.30000 489.212
21.31000 486.134
21.32000 482.553
21.33000 479.491
21.34000 478.330
21.35000 477.343
21.36000 476.629
21.37000 474.266
21.38000 472.393
21.39000 472.720
21.40000 476.791
21.41000 480.923
21.42000 480.227
21.43000 474.050
21.44000 467.886
21.45000 468.166
21.46000 473.174
21.47000 478.168
21.48000 482.675
21.49000 486.938
21.50000 490.739
21.51000 487.349
21.52000 481.498
21.53000 476.148
21.54000 483.468
21.55000 492.576
21.56000 499.446
21.57000 494.168
21.58000 487.066
21.59000 483.041
21.60000 490.103
21.61000 498.163
21.62000 503.964
21.63000 492.934
21.64000 483.897
21.65000 479.292
21.66000 482.114
21.67000 485.053
21.68000 488.752
21.69000 493.300
21.70000 497.833
21.71000 502.480
21.72000 507.170
21.73000 511.617
21.74000 507.661
21.75000 499.562
21.76000 492.001
21.77000 492.593
21.78000 495.936
21.79000 498.985
21.80000 512.182
21.81000 525.939
21.82000 537.794
21.83000 539.501
21.84000 539.711
21.85000 542.069
21.86000 552.049
21.87000 562.701
21.88000 570.334
21.89000 573.564
21.90000 575.883
21.91000 579.966
21.92000 586.963
21.93000 594.003
21.94000 599.187
21.95000 602.334
21.96000 605.468
21.97000 618.790
21.98000 639.229
21.99000 659.123
22.00000 660.891
22.01000 653.849
22.02000 647.318
22.03000 648.324
22.04000 651.837
22.05000 655.035
22.06000 661.078
22.07000 666.994
22.08000 672.008
22.09000 672.283
22.10000 671.870
22.11000 671.188
22.12000 669.560
22.13000 667.852
22.14000 666.633
22.15000 651.687
22.16000 639.839
22.17000 631.518
22.18000 628.932
22.19000 626.428
22.20000 622.930
22.21000 618.361
22.22000 613.810
22.23000 605.432
22.24000 594.463
22.25000 583.656
22.26000 578.025
22.27000 574.874
22.28000 571.801
22.29000 569.856
22.30000 568.281
22.31000 566.849
22.32000 562.902
22.33000 558.922
22.34000 554.005
22.35000 544.245
22.36000 533.796
22.37000 525.019
22.38000 522.006
22.39000 519.479
22.40000 517.684
22.41000 514.518
22.42000 512.066
22.43000 507.652
22.44000 500.095
22.45000 492.496
22.46000 488.687
22.47000 488.906
22.48000 489.125
22.49000 488.187
22.50000 486.463
22.51000 484.799
22.52000 484.959
22.53000 485.981
22.54000 486.659
22.55000 482.495
22.56000 476.768
22.57000 471.573
22.58000 472.556
22.59000 474.608
22.60000 476.151
22.61000 475.107
22.62000 473.701
22.63000 470.556
22.64000 461.508
22.65000 451.975
22.66000 445.237
22.67000 460.679
22.68000 473.086
22.69000 476.650
22.70000 466.251
22.71000 455.679
22.72000 450.769
22.73000 451.775
22.74000 452.777
22.75000 449.932
22.76000 444.516
22.77000 439.234
22.78000 437.904
22.79000 438.413
22.80000 439.069
22.81000 441.751
22.82000 445.077
22.83000 448.087
22.84000 451.517
22.85000 454.616
22.86000 456.815
22.87000 454.509
22.88000 451.585
22.89000 450.338
22.90000 454.699
22.91000 459.513
22.92000 462.899
22.93000 457.240
22.94000 452.683
22.95000 448.187
22.96000 443.786
22.97000 439.386
22.98000 437.983
22.99000 439.660
23.00000 441.327
23.01000 441.199
23.02000 439.877
23.03000 438.807
23.04000 444.964
23.05000 454.436
23.06000 463.256
23.07000 463.352
23.08000 460.713
23.09000 458.329
23.10000 450.623
23.11000 442.861
23.12000 436.907
23.13000 439.849
23.14000 443.991
23.15000 448.488
23.16000 454.157
23.17000 459.918
23.18000 463.952
23.19000 456.141
23.20000 449.896
23.21000 443.471
23.22000 436.769
23.23000 430.065
23.24000 431.852
23.25000 442.219
23.26000 452.524
23.27000 454.506
23.28000 451.004
23.29000 447.505
23.30000 444.091
23.31000 440.714
23.32000 437.542
23.33000 437.039
23.34000 437.361
23.35000 437.651
23.36000 434.552
23.37000 431.216
23.38000 429.265
23.39000 434.018
23.40000 439.658
23.41000 442.917
23.42000 438.443
23.43000 433.375
23.44000 429.843
23.45000 426.557
23.46000 424.084
23.47000 424.122
23.48000 427.949
23.49000 431.815
23.50000 434.717
23.51000 436.662
23.52000 438.595
23.53000 438.949
23.54000 438.281
23.55000 437.460
23.56000 432.586
23.57000 425.906
23.58000 419.458
23.59000 415.979
23.60000 413.405
23.61000 411.088
23.62000 421.198
23.63000 432.276
23.64000 440.659
23.65000 436.191
23.66000 430.053
23.67000 427.268
23.68000 435.210
23.69000 443.958
23.70000 450.025
23.71000 443.350
23.72000 437.985
23.73000 437.763
23.74000 445.185
23.75000 452.678
23.76000 449.163
23.77000 434.896
23.78000 420.727
23.79000 422.391
23.80000 434.081
23.81000 445.432
23.82000 448.053
23.83000 446.839
23.84000 445.310
23.85000 439.839
23.86000 433.185
23.87000 427.212
23.88000 426.205
23.89000 426.197
23.90000 427.491
23.91000 434.898
23.92000 443.084
23.93000 448.869
23.94000 447.079
23.95000 444.735
23.96000 443.117
23.97000 443.214
23.98000 443.331
23.99000 440.122
24.00000 432.040
24.01000 423.917
24.02000 418.482
24.03000 415.630
24.04000 412.798
24.05000 415.619
24.06000 421.925
24.07000 428.093
24.08000 430.816
24.09000 432.049
24.10000 433.082
24.11000 431.689
24.12000 429.578
24.13000 427.687
24.14000 427.509
24.15000 427.648
24.16000 427.235
24.17000 424.274
24.18000 420.995
24.19000 419.252
24.20000 422.286
24.21000 425.661
24.22000 427.980
24.23000 424.545
24.24000 421.827
24.25000 420.720
24.26000 421.935
24.27000 423.167
24.28000 420.448
24.29000 413.995
24.30000 407.594
24.31000 405.578
24.32000 406.295
24.33000 407.081
24.34000 409.519
24.35000 412.663
24.36000 415.554
24.37000 415.433
24.38000 414.434
24.39000 413.541
24.40000 420.007
24.41000 426.888
24.42000 431.857
24.43000 428.131
24.44000 423.338
24.45000 419.774
24.46000 419.970
24.47000 420.429
24.48000 420.743
24.49000 413.555
24.50000 407.999
24.51000 408.137
24.52000 416.362
24.53000 424.645
24.54000 428.167
24.55000 427.268
24.56000 426.376
24.57000 423.355
24.58000 419.101
24.59000 414.777
24.60000 408.803
24.61000 402.135
24.62000 396.043
24.63000 396.664
24.64000 399.211
24.65000 401.482
24.66000 409.977
24.67000 418.402
24.68000 424.694
24.69000 421.434
24.70000 417.024
24.71000 413.728
24.72000 413.796
24.73000 414.092
24.74000 414.293
24.75000 423.314
24.76000 430.250
24.77000 430.616
24.78000 421.793
24.79000 412.912
24.80000 410.594
24.81000 414.275
24.82000 417.922
24.83000 415.190
24.84000 408.712
24.85000 402.523
24.86000 402.869
24.87000 405.924
24.88000 409.225
24.89000 415.320
24.90000 422.205
24.91000 428.333
24.92000 421.386
24.93000 413.219
24.94000 406.391
24.95000 405.461
24.96000 405.228
24.97000 407.991
24.98000 419.664
24.99000 431.928
25.00000 440.228
25.01000 434.325
25.02000 429.618
25.03000 424.633
25.04000 419.265
25.05000 413.899
25.06000 414.427
25.07000 420.253
25.08000 426.022
25.09000 424.040
25.10000 417.556
25.11000 411.147
25.12000 406.387
25.13000 402.302
25.14000 398.785
25.15000 401.601
25.16000 406.180
25.17000 410.247
25.18000 416.064
25.19000 421.387
25.20000 425.736
25.21000 425.857
25.22000 425.488
25.23000 423.035
25.24000 414.473
25.25000 405.516
25.26000 399.485
25.27000 397.410
25.28000 395.950
25.29000 395.375
25.30000 395.998
25.31000 396.629
25.32000 397.346
25.33000 398.139
25.34000 398.924
25.35000 400.443
25.36000 402.353
25.37000 404.211
25.38000 404.967
25.39000 405.280
25.40000 405.153
25.41000 400.231
25.42000 393.994
25.43000 388.468
25.44000 393.178
25.45000 398.865
25.46000 403.302
25.47000 402.400
25.48000 400.891
25.49000 399.677
25.50000 399.315
25.51000 399.008
25.52000 398.802
25.53000 402.629
25.54000 405.549
25.55000 408.362
25.56000 411.032
25.57000 413.698
25.58000 414.264
25.59000 413.003
25.60000 411.756
25.61000 408.348
25.62000 403.790
25.63000 399.464
25.64000 399.904
25.65000 402.235
25.66000 404.267
25.67000 403.109
25.68000 401.089
25.69000 399.304
25.70000 398.794
25.71000 398.551
25.72000 397.518
25.73000 393.161
25.74000 388.433
25.75000 385.588
25.76000 388.099
25.77000 390.938
25.78000 392.830
25.79000 391.167
25.80000 389.867
25.81000 391.833
25.82000 398.091
25.83000 404.364
25.84000 407.091
25.85000 406.781
25.86000 406.475
25.87000 400.843
25.88000 392.369
25.89000 384.404
25.90000 386.628
25.91000 392.838
25.92000 399.167
25.93000 406.741
25.94000 414.647
25.95000 421.618
25.96000 413.513
25.97000 404.237
25.98000 396.841
25.99000 397.229
26.00000 398.466
26.01000 398.250
26.02000 393.954
26.03000 389.413
26.04000 386.404
26.05000 399.847
26.06000 410.077
26.07000 413.236
26.08000 407.244
26.09000 401.222
26.10000 399.154
26.11000 400.417
26.12000 401.664
26.13000 395.887
26.14000 386.393
26.15000 377.575
26.16000 381.934
26.17000 391.374
26.18000 399.908
26.19000 399.167
26.20000 395.994
26.21000 393.202
26.22000 393.178
26.23000 393.570
26.24000 392.718
26.25000 386.791
26.26000 380.322
26.27000 374.609
26.28000 370.988
26.29000 367.488
26.30000 365.180
26.31000 378.486
26.32000 388.566
26.33000 396.419
26.34000 401.437
26.35000 406.431
26.36000 405.415
26.37000 399.418
26.38000 393.498
26.39000 394.451
26.40000 399.099
26.41000 403.653
26.42000 406.437
26.43000 408.549
26.44000 409.954
26.45000 404.271
26.46000 396.757
26.47000 390.163
26.48000 389.847
26.49000 390.494
26.50000 390.953
26.51000 390.662
26.52000 390.292
26.53000 387.457
26.54000 377.904
26.55000 367.971
26.56000 361.455
26.57000 377.846
26.58000 390.282
26.59000 398.178
26.60000 400.381
26.61000 402.566
26.62000 404.392
26.63000 405.926
26.64000 407.440
26.65000 404.861
26.66000 400.172
26.67000 395.427
26.68000 389.632
26.69000 383.444
26.70000 378.005
26.71000 379.920
26.72000 383.705
26.73000 387.019
26.74000 382.006
26.75000 376.514
26.76000 371.455
26.77000 368.115
26.78000 364.952
26.79000 363.678
26.80000 367.481
26.81000 371.563
26.82000 374.227
26.83000 380.939
26.84000 385.930
26.85000 391.331
26.86000 397.241
26.87000 403.129
26.88000 401.571
26.89000 394.032
26.90000 386.600
26.91000 385.152
26.92000 386.882
26.93000 388.610
26.94000 390.290
26.95000 391.953
26.96000 393.169
26.97000 390.078
26.98000 385.909
26.99000 382.268
27.00000 386.762
27.01000 391.754
27.02000 396.112
27.03000 397.998
27.04000 399.635
27.05000 400.100
27.06000 397.462
27.07000 394.658
27.08000 392.838
27.09000 397.512
27.10000 401.032
27.11000 400.421
27.12000 394.790
27.13000 389.139
27.14000 381.070
27.15000 371.090
27.16000 361.259
27.17000 362.422
27.18000 369.225
27.19000 375.998
27.20000 382.229
27.21000 388.263
27.22000 393.503
27.23000 391.253
27.24000 387.154
27.25000 383.583
27.26000 385.674
27.27000 388.242
27.28000 389.484
27.29000 385.632
27.30000 381.279
27.31000 377.427
27.32000 374.885
27.33000 372.411
27.34000 370.815
27.35000 372.559
27.36000 373.881
27.37000 375.366
27.38000 377.045
27.39000 378.726
27.40000 380.485
27.41000 382.304
27.42000 384.095
27.43000 382.225
27.44000 378.554
27.45000 375.131
27.46000 375.924
27.47000 378.229
27.48000 380.213
27.49000 379.225
27.50000 377.515
27.51000 376.028
27.52000 382.354
27.53000 388.807
27.54000 392.610
27.55000 386.393
27.56000 379.210
27.57000 374.368
27.58000 375.546
27.59000 377.027
27.60000 377.978
27.61000 377.603
27.62000 377.311
27.63000 376.443
27.64000 374.898
27.65000 373.368
27.66000 375.373
27.67000 380.087
27.68000 384.723
27.69000 385.956
27.70000 385.448
27.71000 384.979
27.72000 385.146
27.73000 385.539
27.74000 385.483
27.75000 381.361
27.76000 376.266
27.77000 371.850
27.78000 371.575
27.79000 371.892
27.80000 372.534
27.81000 374.387
27.82000 376.354
27.83000 375.927
27.84000 369.428
27.85000 362.632
27.86000 358.296
27.87000 367.774
27.88000 374.847
27.89000 378.946
27.90000 379.604
27.91000 380.253
27.92000 379.817
27.93000 378.565
27.94000 377.333
27.95000 376.702
27.96000 376.387
27.97000 376.036
27.98000 375.113
27.99000 373.990
28.00000 372.826
28.01000 371.300
28.02000 369.688
28.03000 368.295
28.04000 373.345
28.05000 378.477
28.06000 383.493
28.07000 388.087
28.08000 392.642
28.09000 396.050
28.10000 396.591
28.11000 396.996
28.12000 397.252
28.13000 392.548
28.14000 389.073
28.15000 384.734
28.16000 379.409
28.17000 374.101
28.18000 372.081
28.19000 372.503
28.20000 372.916
28.21000 376.538
28.22000 381.587
28.23000 386.312
28.24000 385.962
28.25000 383.868
28.26000 381.047
28.27000 371.883
28.28000 361.248
28.29000 352.077
28.30000 363.239
28.31000 375.305
28.32000 385.394
28.33000 388.336
28.34000 390.630
28.35000 390.185
28.36000 382.993
28.37000 375.489
28.38000 370.756
28.39000 376.843
28.40000 381.375
28.41000 381.374
28.42000 376.294
28.43000 371.247
28.44000 372.471
28.45000 378.279
28.46000 383.978
28.47000 385.525
28.48000 385.037
28.49000 384.183
28.50000 377.765
28.51000 369.462
28.52000 362.409
28.53000 366.020
28.54000 372.066
28.55000 377.267
28.56000 381.031
28.57000 384.037
28.58000 386.106
28.59000 384.843
28.60000 383.285
28.61000 379.514
28.62000 370.374
28.63000 360.994
28.64000 355.112
28.65000 354.410
28.66000 353.959
28.67000 351.621
28.68000 347.201
28.69000 342.837
28.70000 347.137
28.71000 357.675
28.72000 368.006
28.73000 370.817
28.74000 369.994
28.75000 369.307
28.76000 370.637
28.77000 372.639
28.78000 374.036
28.79000 370.373
28.80000 365.571
28.81000 361.452
28.82000 355.490
28.83000 350.226
28.84000 346.780
28.85000 349.713
28.86000 353.197
28.87000 357.125
28.88000 362.115
28.89000 367.150
28.90000 370.290
28.91000 367.464
28.92000 365.366
28.93000 364.189
28.94000 364.012
28.95000 363.871
28.96000 368.775
28.97000 377.256
28.98000 385.562
28.99000 384.730
29.00000 379.710
29.01000 374.735
29.02000 370.400
29.03000 366.276
29.04000 362.620
29.05000 362.817
29.06000 363.866
29.07000 364.763
29.08000 367.961
29.09000 370.936
29.10000 372.609
29.11000 369.783
29.12000 366.576
29.13000 363.618
29.14000 361.246
29.15000 358.900
29.16000 357.445
29.17000 353.314
29.18000 350.317
29.19000 351.364
29.20000 356.725
29.21000 362.046
29.22000 361.997
29.23000 358.199
29.24000 354.482
29.25000 356.829
29.26000 361.840
29.27000 366.425
29.28000 365.005
29.29000 361.639
29.30000 359.093
29.31000 363.153
29.32000 368.653
29.33000 373.346
29.34000 372.807
29.35000 371.734
29.36000 369.783
29.37000 364.840
29.38000 359.649
29.39000 357.717
29.40000 363.363
29.41000 369.316
29.42000 372.984
29.43000 374.509
29.44000 375.585
29.45000 374.303
29.46000 370.550
29.47000 366.800
29.48000 363.578
29.49000 360.718
29.50000 357.922
29.51000 356.687
29.52000 356.200
29.53000 355.856
29.54000 357.460
29.55000 359.687
29.56000 361.694
29.57000 361.965
29.58000 361.864
29.59000 361.777
29.60000 367.083
29.61000 372.166
29.62000 373.750
29.63000 363.595
29.64000 352.490
29.65000 350.102
29.66000 367.688
29.67000 386.059
29.68000 397.306
29.69000 393.323
29.70000 390.342
29.71000 387.496
29.72000 384.788
29.73000 382.062
29.74000 377.402
29.75000 371.432
29.76000 365.600
29.77000 367.225
29.78000 372.064
29.79000 376.934
29.80000 382.218
29.81000 387.633
29.82000 392.784
29.83000 395.894
29.84000 398.572
29.85000 400.846
29.86000 407.618
29.87000 413.809
29.88000 421.751
29.89000 435.481
29.90000 449.669
29.91000 457.178
29.92000 449.604
29.93000 441.456
29.94000 436.499
29.95000 437.399
29.96000 438.087
29.97000 442.083
29.98000 449.433
29.99000 456.743
30.00000 460.024
30.01000 460.617
30.02000 461.196
30.03000 460.028
30.04000 458.153
30.05000 456.401
30.06000 456.260
30.07000 456.618
30.08000 457.080
30.09000 458.333
30.10000 459.750
30.11000 460.950
30.12000 468.320
30.13000 475.176
30.14000 477.129
30.15000 463.109
30.16000 447.856
30.17000 436.914
30.18000 435.568
30.19000 434.574
30.20000 433.973
30.21000 427.309
30.22000 422.516
30.23000 419.588
30.24000 418.521
30.25000 417.471
30.26000 418.003
30.27000 419.575
30.28000 421.108
30.29000 421.174
30.30000 420.611
30.31000 419.982
30.32000 418.501
30.33000 416.760
30.34000 414.889
30.35000 412.049
30.36000 409.009
30.37000 406.445
30.38000 411.775
30.39000 417.089
30.40000 419.962
30.41000 414.997
30.42000 409.441
30.43000 405.045
30.44000 403.194
30.45000 401.432
30.46000 400.374
30.47000 402.583
30.48000 404.175
30.49000 403.505
30.50000 400.617
30.51000 397.785
30.52000 399.939
30.53000 405.320
30.54000 410.560
30.55000 410.433
30.56000 408.059
30.57000 405.778
30.58000 404.677
30.59000 403.931
30.60000 403.821
30.61000 408.385
30.62000 413.891
30.63000 418.524
30.64000 418.489
30.65000 417.962
30.66000 417.896
30.67000 419.287
30.68000 420.785
30.69000 423.805
30.70000 430.117
30.71000 436.541
30.72000 440.378
30.73000 431.462
30.74000 425.059
30.75000 424.070
30.76000 428.299
30.77000 432.497
30.78000 434.060
30.79000 433.944
30.80000 433.832
30.81000 435.952
30.82000 438.893
30.83000 442.047
30.84000 447.822
30.85000 454.374
30.86000 459.836
30.87000 457.445
30.88000 453.497
30.89000 450.185
30.90000 463.714
30.91000 476.738
30.92000 488.766
30.93000 497.690
30.94000 506.391
30.95000 511.010
30.96000 506.929
30.97000 502.561
30.98000 499.969
30.99000 526.137
31.00000 544.819
31.01000 566.810
31.02000 591.939
31.03000 617.040
31.04000 640.018
31.05000 661.663
31.06000 682.702
31.07000 716.225
31.08000 753.172
31.09000 789.763
31.10000 822.106
31.11000 853.209
31.12000 886.549
31.13000 935.732
31.14000 988.002
31.15000 1031.739
31.16000 1135.081
31.17000 1227.053
31.18000 1318.016
31.19000 1405.881
31.20000 1493.529
31.21000 1586.891
31.22000 1692.259
31.23000 1798.009
31.24000 1860.340
31.25000 2024.442
31.26000 2140.810
31.27000 2254.303
31.28000 2365.116
31.29000 2475.728
31.30000 2571.620
31.31000 2658.407
31.32000 2742.674
31.33000 2833.079
31.34000 2921.350
31.35000 3007.716
31.36000 3071.760
31.37000 3129.378
31.38000 3178.278
31.39000 3166.569
31.40000 3143.235
31.41000 3123.768
31.42000 3104.607
31.43000 3088.748
31.44000 3062.003
31.45000 3002.310
31.46000 2940.363
31.47000 2863.170
31.48000 2754.413
31.49000 2644.689
31.50000 2580.441
31.51000 2405.536
31.52000 2281.845
31.53000 2168.659
31.54000 2065.104
31.55000 1961.582
31.56000 1860.329
31.57000 1760.458
31.58000 1663.589
31.59000 1559.280
31.60000 1457.481
31.61000 1357.108
31.62000 1273.077
31.63000 1193.680
31.64000 1117.452
31.65000 1062.866
31.66000 1012.363
31.67000 970.353
31.68000 915.667
31.69000 869.155
31.70000 822.230
31.71000 774.076
31.72000 725.839
31.73000 685.799
31.74000 662.485
31.75000 639.664
31.76000 626.389
31.77000 609.327
31.78000 597.324
31.79000 584.393
31.80000 570.626
31.81000 556.849
31.82000 542.449
31.83000 527.676
31.84000 513.361
31.85000 493.751
31.86000 473.138
31.87000 454.337
31.88000 455.863
31.89000 463.067
31.90000 468.429
31.91000 461.439
31.92000 452.156
31.93000 444.457
31.94000 431.907
31.95000 421.072
31.96000 412.273
31.97000 409.458
31.98000 407.032
31.99000 403.129
32.00000 396.258
32.01000 389.302
32.02000 385.284
32.03000 382.474
32.04000 380.514
32.05000 381.856
32.06000 386.130
32.07000 390.338
32.08000 390.520
32.09000 388.319
32.10000 386.189
32.11000 381.673
32.12000 376.494
32.13000 371.443
32.14000 367.799
32.15000 364.541
32.16000 361.771
32.17000 362.211
32.18000 363.238
32.19000 364.087
32.20000 364.555
32.21000 364.904
32.22000 364.603
32.23000 362.415
32.24000 360.107
32.25000 356.859
32.26000 351.750
32.27000 346.589
32.28000 343.628
32.29000 358.856
32.30000 369.557
32.31000 371.801
32.32000 366.660
32.33000 361.573
32.34000 359.599
32.35000 359.440
32.36000 359.287
32.37000 356.637
32.38000 353.199
32.39000 349.883
32.40000 347.875
32.41000 346.222
32.42000 344.704
32.43000 344.062
32.44000 343.577
32.45000 343.177
32.46000 337.943
32.47000 333.190
32.48000 330.340
32.49000 332.927
32.50000 335.849
32.51000 339.182
32.52000 343.318
32.53000 347.475
32.54000 349.845
32.55000 348.327
32.56000 347.253
32.57000 344.133
32.58000 339.256
32.59000 334.460
32.60000 334.241
32.61000 336.650
32.62000 338.977
32.63000 341.002
32.64000 342.798
32.65000 343.820
32.66000 336.704
32.67000 327.413
32.68000 319.707
32.69000 322.085
32.70000 326.245
32.71000 329.663
32.72000 330.338
32.73000 330.646
32.74000 331.400
32.75000 333.411
32.76000 335.499
32.77000 333.392
32.78000 323.211
32.79000 312.829
32.80000 306.953
32.81000 317.561
32.82000 324.986
32.83000 331.326
32.84000 336.750
32.85000 341.992
32.86000 337.624
32.87000 327.817
32.88000 318.359
32.89000 322.802
32.90000 332.041
32.91000 339.966
32.92000 334.380
32.93000 325.238
32.94000 316.927
32.95000 313.813
32.96000 311.601
32.97000 309.790
32.98000 314.387
32.99000 318.722
33.00000 321.784
33.01000 321.317
33.02000 320.644
33.03000 316.824
33.04000 307.035
33.05000 297.103
33.06000 291.522
33.07000 309.433
33.08000 321.902
33.09000 325.478
33.10000 321.658
33.11000 317.874
33.12000 315.957
33.13000 315.082
33.14000 314.238
33.15000 313.020
33.16000 311.742
33.17000 310.500
33.18000 309.621
33.19000 308.835
33.20000 308.408
33.21000 310.180
33.22000 312.327
33.23000 314.081
33.24000 312.527
33.25000 310.969
33.26000 311.283
33.27000 316.714
33.28000 322.436
33.29000 325.555
33.30000 323.807
33.31000 321.949
33.32000 320.911
33.33000 310.130
33.34000 302.660
33.35000 300.567
33.36000 302.876
33.37000 305.213
33.38000 308.892
33.39000 313.310
33.40000 317.560
33.41000 319.840
33.42000 321.284
33.43000 322.358
33.44000 319.769
33.45000 316.246
33.46000 312.082
33.47000 304.044
33.48000 295.356
33.49000 288.283
33.50000 288.406
33.51000 289.113
33.52000 289.238
33.53000 287.794
33.54000 286.263
33.55000 288.317
33.56000 296.978
33.57000 305.783
33.58000 310.661
33.59000 300.685
33.60000 293.794
33.61000 295.500
33.62000 304.132
33.63000 312.596
33.64000 313.437
33.65000 310.149
33.66000 306.989
33.67000 308.263
33.68000 310.994
33.69000 312.989
33.70000 307.872
33.71000 300.968
33.72000 295.806
33.73000 300.995
33.74000 307.894
33.75000 313.492
33.76000 309.802
33.77000 306.028
33.78000 302.291
33.79000 298.654
33.80000 295.023
33.81000 293.893
33.82000 297.306
33.83000 300.814
33.84000 302.742
33.85000 294.238
33.86000 288.378
33.87000 286.562
33.88000 287.954
33.89000 289.308
33.90000 289.007
33.91000 287.822
33.92000 286.684
33.93000 290.166
33.94000 294.998
33.95000 299.472
33.96000 300.551
33.97000 300.789
33.98000 300.787
33.99000 299.385
34.00000 297.755
34.01000 296.436
34.02000 292.483
34.03000 289.053
34.04000 287.725
34.05000 291.898
34.06000 296.359
34.07000 299.154
34.08000 298.970
34.09000 298.726
34.10000 298.593
34.11000 293.907
34.12000 290.688
34.13000 288.995
34.14000 288.493
34.15000 288.056
34.16000 290.299
34.17000 293.953
34.18000 297.455
34.19000 299.128
34.20000 300.076
34.21000 300.442
34.22000 295.403
34.23000 289.045
34.24000 283.745
34.25000 284.515
34.26000 286.253
34.27000 287.654
34.28000 290.468
34.29000 292.864
34.30000 293.534
34.31000 289.751
34.32000 285.740
34.33000 282.096
34.34000 279.097
34.35000 276.110
34.36000 274.492
34.37000 274.190
34.38000 274.002
34.39000 277.993
34.40000 285.196
34.41000 292.291
34.42000 295.074
34.43000 295.622
34.44000 296.147
34.45000 295.672
34.46000 294.899
34.47000 293.707
34.48000 288.702
34.49000 282.782
34.50000 278.057
34.51000 280.091
34.52000 283.185
34.53000 285.670
34.54000 290.197
34.55000 294.024
34.56000 296.673
34.57000 296.329
34.58000 295.838
34.59000 295.536
34.60000 295.562
34.61000 295.595
34.62000 295.612
34.63000 293.882
34.64000 292.688
34.65000 289.326
34.66000 284.324
34.67000 279.457
34.68000 279.759
34.69000 282.703
34.70000 285.518
34.71000 287.711
34.72000 289.550
34.73000 291.274
34.74000 291.963
34.75000 292.408
34.76000 292.663
34.77000 291.867
34.78000 290.909
34.79000 290.142
34.80000 287.333
34.81000 284.907
34.82000 283.018
34.83000 282.479
34.84000 282.004
34.85000 281.587
34.86000 281.270
34.87000 280.954
34.88000 280.786
34.89000 273.418
34.90000 268.426
34.91000 269.764
34.92000 275.820
34.93000 281.686
34.94000 280.614
34.95000 276.049
34.96000 271.691
34.97000 274.970
34.98000 280.460
34.99000 285.219
35.00000 283.581
35.01000 280.455
35.02000 278.328
35.03000 281.664
35.04000 285.826
35.05000 289.148
35.06000 286.586
35.07000 284.085
35.08000 280.642
35.09000 274.873
35.10000 268.996
35.11000 269.121
35.12000 279.372
35.13000 289.786
35.14000 295.301
35.15000 285.066
35.16000 278.129
35.17000 276.046
35.18000 277.524
35.19000 278.989
35.20000 280.040
35.21000 280.885
35.22000 281.691
35.23000 280.040
35.24000 277.735
35.25000 275.373
35.26000 272.518
35.27000 269.549
35.28000 268.145
35.29000 275.151
35.30000 283.408
35.31000 289.975
35.32000 287.757
35.33000 285.340
35.34000 283.698
35.35000 283.945
35.36000 284.277
35.37000 281.848
35.38000 274.831
35.39000 267.743
35.40000 264.019
35.41000 272.638
35.42000 278.465
35.43000 280.906
35.44000 280.903
35.45000 280.920
35.46000 281.589
35.47000 282.578
35.48000 283.520
35.49000 285.910
35.50000 288.573
35.51000 290.505
35.52000 286.295
35.53000 280.700
35.54000 276.532
35.55000 279.910
35.56000 284.390
35.57000 287.942
35.58000 287.213
35.59000 286.327
35.60000 284.103
35.61000 278.665
35.62000 273.087
35.63000 269.374
35.64000 268.716
35.65000 268.101
35.66000 267.781
35.67000 264.167
35.68000 261.731
35.69000 260.494
35.70000 260.108
35.71000 259.892
35.72000 265.148
35.73000 273.044
35.74000 280.552
35.75000 279.957
35.76000 276.937
35.77000 274.354
35.78000 275.378
35.79000 277.203
35.80000 278.154
35.81000 274.560
35.82000 270.314
35.83000 266.959
35.84000 267.816
35.85000 268.791
35.86000 270.076
35.87000 272.094
35.88000 274.143
35.89000 275.140
35.90000 274.440
35.91000 273.717
35.92000 273.343
35.93000 264.776
35.94000 259.031
35.95000 257.590
35.96000 259.164
35.97000 260.774
35.98000 263.510
35.99000 266.781
36.00000 269.887
36.01000 272.030
36.02000 273.719
36.03000 274.640
36.04000 269.341
36.05000 262.681
36.06000 257.754
36.07000 261.690
36.08000 266.876
36.09000 270.958
36.10000 270.744
36.11000 270.287
36.12000 268.482
36.13000 263.533
36.14000 258.456
36.15000 258.400
36.16000 266.325
36.17000 274.352
36.18000 278.468
36.19000 269.436
36.20000 263.394
36.21000 261.313
36.22000 261.965
36.23000 262.560
36.24000 261.442
36.25000 259.520
36.26000 257.699
36.27000 255.461
36.28000 253.275
36.29000 251.710
36.30000 255.072
36.31000 259.494
36.32000 262.740
36.33000 260.057
36.34000 256.554
36.35000 253.805
36.36000 260.519
36.37000 266.502
36.38000 269.457
36.39000 265.454
36.40000 261.174
36.41000 259.938
36.42000 263.468
36.43000 267.055
36.44000 268.880
36.45000 261.067
36.46000 255.886
36.47000 257.187
36.48000 262.893
36.49000 268.495
36.50000 271.090
36.51000 272.298
36.52000 273.441
36.53000 269.250
36.54000 263.845
36.55000 258.628
36.56000 254.880
36.57000 251.443
36.58000 248.742
36.59000 249.692
36.60000 251.139
36.61000 252.269
36.62000 262.293
36.63000 270.857
36.64000 276.862
36.65000 277.071
36.66000 277.058
36.67000 274.552
36.68000 268.201
36.69000 261.807
36.70000 258.582
36.71000 256.177
36.72000 254.577
36.73000 253.821
36.74000 253.629
36.75000 253.622
36.76000 258.808
36.77000 266.355
36.78000 273.491
36.79000 274.110
36.80000 272.817
36.81000 272.271
36.82000 277.433
36.83000 283.787
36.84000 288.629
36.85000 286.099
36.86000 282.586
36.87000 279.849
36.88000 282.297
36.89000 284.567
36.90000 286.319
36.91000 286.912
36.92000 287.462
36.93000 285.683
36.94000 280.365
36.95000 275.011
36.96000 272.333
36.97000 281.878
36.98000 288.230
36.99000 293.402
37.00000 297.796
37.01000 301.918
37.02000 298.681
37.03000 292.144
37.04000 285.973
37.05000 282.246
37.06000 279.515
37.07000 276.783
37.08000 274.034
37.09000 271.282
37.10000 269.403
37.11000 271.710
37.12000 274.567
37.13000 276.783
37.14000 279.321
37.15000 281.358
37.16000 282.601
37.17000 282.095
37.18000 281.527
37.19000 278.695
37.20000 272.476
37.21000 266.224
37.22000 266.952
37.23000 274.549
37.24000 282.036
37.25000 279.613
37.26000 270.756
37.27000 262.148
37.28000 260.052
37.29000 260.832
37.30000 261.568
37.31000 265.444
37.32000 269.862
37.33000 273.737
37.34000 273.618
37.35000 272.692
37.36000 271.423
37.37000 268.533
37.38000 265.433
37.39000 263.037
37.40000 259.488
37.41000 256.604
37.42000 256.556
37.43000 262.658
37.44000 268.972
37.45000 269.895
37.46000 262.872
37.47000 255.777
37.48000 256.918
37.49000 266.024
37.50000 275.059
37.51000 278.137
37.52000 277.406
37.53000 276.666
37.54000 275.718
37.55000 274.679
37.56000 273.702
37.57000 269.257
37.58000 264.250
37.59000 260.140
37.60000 262.516
37.61000 266.180
37.62000 268.827
37.63000 266.741
37.64000 264.058
37.65000 261.992
37.66000 261.868
37.67000 261.881
37.68000 262.577
37.69000 264.733
37.70000 266.938
37.71000 267.468
37.72000 265.565
37.73000 263.642
37.74000 261.366
37.75000 258.756
37.76000 256.186
37.77000 256.834
37.78000 259.510
37.79000 262.200
37.80000 265.229
37.81000 268.405
37.82000 271.390
37.83000 265.383
37.84000 257.496
37.85000 250.199
37.86000 247.095
37.87000 244.813
37.88000 244.310
37.89000 251.955
37.90000 260.609
37.91000 267.250
37.92000 266.687
37.93000 265.840
37.94000 265.759
37.95000 267.289
37.96000 268.872
37.97000 270.251
37.98000 271.339
37.99000 272.425
38.00000 273.363
38.01000 274.162
38.02000 274.932
38.03000 273.488
38.04000 270.670
38.05000 268.013
38.06000 269.194
38.07000 271.999
38.08000 274.630
38.09000 271.928
38.10000 268.064
38.11000 265.127
38.12000 268.669
38.13000 273.457
38.14000 277.964
38.15000 281.205
38.16000 284.293
38.17000 286.653
38.18000 292.146
38.19000 296.648
38.20000 296.012
38.21000 284.707
38.22000 273.073
38.23000 269.919
38.24000 278.706
38.25000 287.575
38.26000 292.001
38.27000 292.339
38.28000 292.717
38.29000 295.896
38.30000 300.786
38.31000 305.791
38.32000 313.448
38.33000 322.210
38.34000 330.417
38.35000 326.901
38.36000 320.668
38.37000 317.296
38.38000 333.533
38.39000 353.483
38.40000 370.439
38.41000 374.111
38.42000 376.199
38.43000 377.790
38.44000 392.009
38.45000 403.868
38.46000 417.614
38.47000 435.224
38.48000 452.948
38.49000 474.475
38.50000 501.274
38.51000 528.098
38.52000 557.291
38.53000 588.601
38.54000 619.921
38.55000 651.876
38.56000 684.213
38.57000 716.930
38.58000 758.083
38.59000 802.704
38.60000 844.432
38.61000 864.732
38.62000 877.713
38.63000 892.718
38.64000 921.345
38.65000 952.509
38.66000 981.895
38.67000 1003.511
38.68000 1024.220
38.69000 1039.929
38.70000 1057.758
38.71000 1071.872
38.72000 1081.639
38.73000 1082.635
38.74000 1083.380
38.75000 1071.785
38.76000 1043.343
38.77000 1014.815
38.78000 985.366
38.79000 955.133
38.80000 924.891
38.81000 894.080
38.82000 862.932
38.83000 831.936
38.84000 804.225
38.85000 777.846
38.86000 753.219
38.87000 708.952
38.88000 663.904
38.89000 621.241
38.90000 594.357
38.91000 570.363
38.92000 546.866
38.93000 525.502
38.94000 504.382
38.95000 488.423
38.96000 472.460
38.97000 459.945
38.98000 442.840
38.99000 416.608
39.00000 390.126
39.01000 376.217
39.02000 379.206
39.03000 382.282
39.04000 372.661
39.05000 351.950
39.06000 331.416
39.07000 321.381
39.08000 317.487
39.09000 313.437
39.10000 306.135
39.11000 297.534
39.12000 289.517
39.13000 290.985
39.14000 294.650
39.15000 297.641
39.16000 296.262
39.17000 294.096
39.18000 289.904
39.19000 277.139
39.20000 263.410
39.21000 253.078
39.22000 252.544
39.23000 252.603
39.24000 253.921
39.25000 257.704
39.26000 261.553
39.27000 260.388
39.28000 252.587
39.29000 244.761
39.30000 243.551
39.31000 248.034
39.32000 252.420
39.33000 251.307
39.34000 247.026
39.35000 243.126
39.36000 246.962
39.37000 253.844
39.38000 260.248
39.39000 256.327
39.40000 250.285
39.41000 245.688
39.42000 250.326
39.43000 256.601
39.44000 261.220
39.45000 258.936
39.46000 255.892
39.47000 253.610
39.48000 249.731
39.49000 246.628
39.50000 246.120
39.51000 250.627
39.52000 255.260
39.53000 256.807
39.54000 254.332
39.55000 251.842
39.56000 247.245
39.57000 240.875
39.58000 234.692
39.59000 238.400
39.60000 247.724
39.61000 256.423
39.62000 252.773
39.63000 244.332
39.64000 236.491
39.65000 233.565
39.66000 232.096
39.67000 231.453
39.68000 235.996
39.69000 241.444
39.70000 245.115
39.71000 241.496
39.72000 237.090
39.73000 233.800
39.74000 233.342
39.75000 233.114
39.76000 233.606
39.77000 235.468
39.78000 237.362
39.79000 238.595
39.80000 238.980
39.81000 239.361
39.82000 237.338
39.83000 233.319
39.84000 229.386
39.85000 229.857
39.86000 232.791
39.87000 235.717
39.88000 238.492
39.89000 241.211
39.90000 243.732
39.91000 241.423
39.92000 238.213
39.93000 235.678
39.94000 237.302
39.95000 239.639
39.96000 240.854
39.97000 237.527
39.98000 233.721
39.99000 230.891
40.00000 231.051
40.01000 231.308
40.02000 231.232
40.03000 230.531
40.04000 229.815
40.05000 226.755
40.06000 220.735
40.07000 214.712
40.08000 219.871
40.09000 234.166
40.10000 248.101
40.11000 244.744
40.12000 231.852
40.13000 219.731
40.14000 221.959
40.15000 229.596
40.16000 236.666
40.17000 239.860
40.18000 241.839
40.19000 243.033
40.20000 239.464
40.21000 235.092
40.22000 231.782
40.23000 232.703
40.24000 234.063
40.25000 235.070
40.26000 230.881
40.27000 227.405
40.28000 225.888
40.29000 227.992
40.30000 230.176
40.31000 230.215
40.32000 227.588
40.33000 224.958
40.34000 223.784
40.35000 223.786
40.36000 223.822
40.37000 225.439
40.38000 227.913
40.39000 230.329
40.40000 231.679
40.41000 232.632
40.42000 233.513
40.43000 236.276
40.44000 239.181
40.45000 241.685
40.46000 241.792
40.47000 241.504
40.48000 240.354
40.49000 235.830
40.50000 230.963
40.51000 227.374
40.52000 229.865
40.53000 232.050
40.54000 230.633
40.55000 222.654
40.56000 214.537
40.57000 212.466
40.58000 217.791
40.59000 223.124
40.60000 224.539
40.61000 222.842
40.62000 221.207
40.63000 222.302
40.64000 224.857
40.65000 227.282
40.66000 227.395
40.67000 226.663
40.68000 225.987
40.69000 223.851
40.70000 221.613
40.71000 219.945
40.72000 221.628
40.73000 223.856
40.74000 225.512
40.75000 224.955
40.76000 224.179
40.77000 223.609
40.78000 220.669
40.79000 218.301
40.80000 217.079
40.81000 217.916
40.82000 218.794
40.83000 219.091
40.84000 218.689
40.85000 218.286
40.86000 219.451
40.87000 221.831
40.88000 224.181
40.89000 225.249
40.90000 225.640
40.91000 225.978
40.92000 225.413
40.93000 224.523
40.94000 223.703
40.95000 224.184
40.96000 224.899
40.97000 225.837
40.98000 228.055
40.99000 230.478
41.00000 231.048
41.01000 224.564
41.02000 217.394
41.03000 212.151
41.04000 217.986
41.05000 222.925
41.06000 226.139
41.07000 226.303
41.08000 226.409
41.09000 226.358
41.10000 226.124
41.11000 225.889
41.12000 224.375
41.13000 221.890
41.14000 219.461
41.15000 219.326
41.16000 220.383
41.17000 221.406
41.18000 221.866
41.19000 222.125
41.20000 222.363
41.21000 225.085
41.22000 228.049
41.23000 230.050
41.24000 226.587
41.25000 222.265
41.26000 218.615
41.27000 217.483
41.28000 216.591
41.29000 215.942
41.30000 217.699
41.31000 219.143
41.32000 219.272
41.33000 217.107
41.34000 214.901
41.35000 211.620
41.36000 207.088
41.37000 202.565
41.38000 205.634
41.39000 214.409
41.40000 222.973
41.41000 223.445
41.42000 219.768
41.43000 216.277
41.44000 215.807
41.45000 216.396
41.46000 216.936
41.47000 209.293
41.48000 200.751
41.49000 194.753
41.50000 202.940
41.51000 213.319
41.52000 220.442
41.53000 215.537
41.54000 209.509
41.55000 205.140
41.56000 207.564
41.57000 209.678
41.58000 211.731
41.59000 213.679
41.60000 215.626
41.61000 217.582
41.62000 219.551
41.63000 221.514
41.64000 219.313
41.65000 214.038
41.66000 208.945
41.67000 210.550
41.68000 215.538
41.69000 220.194
41.70000 219.603
41.71000 217.199
41.72000 214.998
41.73000 214.234
41.74000 213.853
41.75000 213.638
41.76000 214.326
41.77000 215.153
41.78000 216.047
41.79000 217.187
41.80000 218.349
41.81000 219.188
41.82000 216.312
41.83000 213.973
41.84000 213.182
41.85000 215.008
41.86000 216.876
41.87000 218.773
41.88000 220.701
41.89000 222.623
41.90000 220.919
41.91000 216.583
41.92000 212.337
41.93000 211.293
41.94000 211.843
41.95000 212.437
41.96000 213.716
41.97000 215.228
41.98000 216.610
41.99000 210.455
42.00000 203.450
42.01000 199.051
42.02000 208.717
42.03000 220.483
42.04000 229.077
42.05000 226.304
42.06000 222.515
42.07000 219.793
42.08000 206.672
42.09000 196.272
42.10000 191.593
42.11000 196.452
42.12000 201.459
42.13000 205.325
42.14000 207.925
42.15000 210.515
42.16000 208.443
42.17000 203.041
42.18000 197.788
42.19000 197.624
42.20000 199.957
42.21000 202.469
42.22000 207.682
42.23000 213.801
42.24000 219.381
42.25000 220.250
42.26000 220.074
42.27000 219.551
42.28000 217.183
42.29000 214.545
42.30000 211.793
42.31000 208.642
42.32000 205.455
42.33000 203.176
42.34000 200.740
42.35000 198.876
42.36000 198.693
42.37000 201.275
42.38000 203.897
42.39000 203.202
42.40000 198.886
42.41000 194.586
42.42000 195.836
42.43000 200.997
42.44000 205.982
42.45000 205.178
42.46000 201.575
42.47000 198.168
42.48000 197.628
42.49000 198.036
42.50000 198.408
42.51000 204.230
42.52000 210.457
42.53000 215.126
42.54000 211.657
42.55000 207.015
42.56000 202.422
42.57000 197.995
42.58000 193.583
42.59000 190.441
42.60000 194.518
42.61000 197.858
42.62000 202.865
42.63000 210.569
42.64000 218.310
42.65000 222.088
42.66000 221.609
42.67000 221.130
42.68000 217.703
42.69000 212.261
42.70000 206.884
42.71000 203.571
42.72000 201.242
42.73000 199.372
42.74000 204.057
42.75000 210.879
42.76000 217.075
42.77000 210.733
42.78000 202.698
42.79000 196.506
42.80000 199.781
42.81000 204.395
42.82000 207.697
42.83000 206.502
42.84000 204.931
42.85000 203.818
42.86000 209.897
42.87000 214.745
42.88000 215.107
42.89000 208.315
42.90000 201.431
42.91000 199.802
42.92000 203.726
42.93000 207.631
42.94000 208.978
42.95000 208.559
42.96000 208.071
42.97000 205.498
42.98000 201.945
42.99000 198.715
43.00000 199.989
43.01000 202.709
43.02000 205.175
43.03000 206.518
43.04000 207.489
43.05000 208.416
43.06000 209.126
43.07000 209.805
43.08000 209.535
43.09000 206.057
43.10000 202.317
43.11000 199.678
43.12000 203.212
43.13000 206.081
43.14000 208.331
43.15000 209.609
43.16000 210.876
43.17000 210.081
43.18000 207.144
43.19000 204.222
43.20000 202.537
43.21000 201.706
43.22000 200.954
43.23000 202.492
43.24000 205.090
43.25000 207.478
43.26000 206.992
43.27000 205.595
43.28000 204.332
43.29000 200.716
43.30000 197.092
43.31000 193.997
43.32000 193.532
43.33000 193.427
43.34000 194.640
43.35000 200.242
43.36000 206.194
43.37000 210.375
43.38000 206.912
43.39000 204.067
43.40000 203.840
43.41000 207.666
43.42000 211.538
43.43000 211.260
43.44000 206.743
43.45000 202.251
43.46000 200.678
43.47000 201.060
43.48000 201.452
43.49000 202.129
43.50000 202.937
43.51000 203.487
43.52000 200.598
43.53000 196.637
43.54000 193.061
43.55000 191.298
43.56000 190.083
43.57000 189.855
43.58000 194.456
43.59000 199.704
43.60000 203.232
43.61000 201.119
43.62000 198.567
43.63000 196.782
43.64000 198.758
43.65000 200.356
43.66000 201.131
43.67000 200.650
43.68000 200.156
43.69000 201.039
43.70000 203.306
43.71000 205.559
43.72000 203.314
43.73000 198.167
43.74000 193.259
43.75000 194.870
43.76000 199.413
43.77000 203.379
43.78000 199.849
43.79000 194.017
43.80000 188.762
43.81000 189.818
43.82000 191.884
43.83000 193.644
43.84000 193.926
43.85000 194.015
43.86000 194.139
43.87000 194.376
43.88000 194.621
43.89000 194.792
43.90000 198.844
43.91000 202.005
43.92000 200.685
43.93000 192.637
43.94000 184.523
43.95000 183.901
43.96000 190.679
43.97000 197.412
43.98000 200.246
43.99000 200.538
44.00000 200.874
44.01000 202.384
44.02000 204.414
44.03000 206.220
44.04000 205.189
44.05000 203.300
44.06000 201.601
44.07000 201.933
44.08000 202.584
44.09000 202.684
44.10000 200.168
44.11000 197.314
44.12000 195.217
44.13000 195.529
44.14000 196.019
44.15000 196.359
44.16000 198.349
44.17000 199.890
44.18000 201.827
44.19000 204.352
44.20000 206.881
44.21000 208.677
44.22000 209.760
44.23000 210.835
44.24000 208.211
44.25000 203.291
44.26000 198.549
44.27000 198.327
44.28000 200.081
44.29000 201.481
44.30000 198.502
44.31000 194.216
44.32000 190.371
44.33000 194.260
44.34000 199.008
44.35000 202.500
44.36000 200.137
44.37000 197.031
44.38000 194.449
44.39000 193.508
44.40000 192.687
44.41000 192.121
44.42000 203.068
44.43000 211.579
44.44000 214.520
44.45000 209.350
44.46000 204.111
44.47000 203.349
44.48000 206.863
44.49000 210.349
44.50000 212.777
44.51000 214.506
44.52000 216.157
44.53000 215.875
44.54000 214.761
44.55000 213.411
44.56000 209.199
44.57000 204.145
44.58000 199.622
44.59000 201.373
44.60000 203.976
44.61000 206.949
44.62000 211.627
44.63000 216.517
44.64000 220.264
44.65000 220.479
44.66000 220.443
44.67000 220.418
44.68000 220.380
44.69000 220.350
44.70000 221.262
44.71000 223.523
44.72000 225.794
44.73000 229.591
44.74000 234.821
44.75000 240.009
44.76000 241.325
44.77000 240.249
44.78000 239.441
44.79000 245.025
44.80000 253.322
44.81000 261.186
44.82000 263.930
44.83000 265.190
44.84000 266.315
44.85000 264.588
44.86000 262.604
44.87000 262.097
44.88000 268.272
44.89000 275.262
44.90000 281.050
44.91000 283.174
44.92000 285.045
44.93000 286.322
44.94000 287.459
44.95000 288.305
44.96000 295.667
44.97000 312.232
44.98000 328.860
44.99000 340.491
45.00000 347.505
45.01000 354.458
45.02000 354.862
45.03000 351.318
45.04000 347.910
45.05000 347.672
45.06000 348.760
45.07000 350.023
45.08000 353.311
45.09000 357.176
45.10000 360.621
45.11000 368.956
45.12000 377.010
45.13000 381.777
45.14000 371.911
45.15000 360.295
45.16000 353.070
45.17000 359.029
45.18000 365.877
45.19000 370.527
45.20000 355.977
45.21000 344.692
45.22000 339.095
45.23000 341.412
45.24000 343.780
45.25000 345.151
45.26000 345.616
45.27000 346.076
45.28000 341.348
45.29000 333.643
45.30000 326.057
45.31000 321.152
45.32000 317.353
45.33000 313.343
45.34000 306.959
45.35000 299.906
45.36000 293.635
45.37000 291.753
45.38000 290.831
45.39000 288.842
45.40000 282.175
45.41000 274.958
45.42000 269.192
45.43000 267.714
45.44000 266.518
45.45000 265.710
45.46000 270.790
45.47000 274.699
45.48000 274.316
45.49000 268.056
45.50000 261.762
45.51000 256.654
45.52000 252.607
45.53000 248.600
45.54000 245.925
45.55000 244.082
45.56000 242.326
45.57000 242.427
45.58000 243.284
45.59000 243.925
45.60000 242.178
45.61000 239.770
45.62000 237.634
45.63000 229.152
45.64000 220.794
45.65000 213.922
45.66000 213.464
45.67000 213.745
45.68000 212.573
45.69000 207.168
45.70000 201.491
45.71000 197.675
45.72000 205.463
45.73000 211.487
45.74000 214.284
45.75000 212.729
45.76000 211.149
45.77000 208.854
45.78000 205.930
45.79000 203.036
45.80000 204.251
45.81000 207.797
45.82000 211.091
45.83000 209.094
45.84000 204.978
45.85000 201.213
45.86000 201.247
45.87000 202.317
45.88000 203.265
45.89000 199.106
45.90000 194.711
45.91000 190.999
45.92000 190.184
45.93000 189.697
45.94000 189.195
45.95000 188.648
45.96000 188.098
45.97000 187.731
45.98000 181.299
45.99000 176.411
46.00000 173.259
46.01000 172.411
46.02000 171.581
46.03000 176.248
46.04000 185.672
46.05000 194.991
46.06000 195.417
46.07000 190.812
46.08000 186.414
46.09000 186.259
46.10000 187.779
46.11000 189.239
46.12000 190.071
46.13000 190.733
46.14000 191.317
46.15000 186.036
46.16000 180.577
46.17000 176.945
46.18000 180.957
46.19000 185.815
46.20000 190.738
46.21000 195.844
46.22000 200.962
46.23000 204.366
46.24000 195.200
46.25000 188.182
46.26000 182.481
46.27000 178.501
46.28000 174.535
46.29000 174.823
46.30000 178.732
46.31000 182.594
46.32000 181.757
46.33000 178.328
46.34000 174.938
46.35000 172.330
46.36000 170.026
46.37000 168.287
46.38000 172.410
46.39000 178.086
46.40000 183.086
46.41000 186.836
46.42000 189.879
46.43000 191.902
46.44000 189.725
46.45000 187.092
46.46000 184.848
46.47000 183.689
46.48000 182.595
46.49000 181.871
46.50000 177.905
46.51000 174.920
46.52000 173.208
46.53000 173.135
46.54000 173.066
46.55000 172.099
46.56000 170.380
46.57000 168.683
46.58000 171.053
46.59000 175.588
46.60000 179.711
46.61000 175.909
46.62000 169.066
46.63000 163.146
46.64000 166.613
46.65000 172.527
46.66000 177.726
46.67000 178.241
46.68000 177.990
46.69000 178.210
46.70000 180.334
46.71000 182.661
46.72000 183.164
46.73000 178.649
46.74000 173.845
46.75000 170.683
46.76000 166.506
46.77000 163.411
46.78000 163.460
46.79000 167.492
46.80000 171.535
46.81000 174.481
46.82000 176.522
46.83000 178.536
46.84000 179.706
46.85000 180.390
46.86000 181.063
46.87000 181.527
46.88000 181.914
46.89000 181.660
46.90000 175.042
46.91000 166.787
46.92000 159.550
46.93000 167.973
46.94000 177.479
46.95000 185.043
46.96000 184.849
46.97000 183.847
46.98000 182.822
46.99000 181.735
47.00000 180.644
47.01000 179.930
47.02000 173.743
47.03000 169.106
47.04000 167.894
47.05000 170.952
47.06000 174.019
47.07000 175.269
47.08000 175.047
47.09000 174.827
47.10000 173.305
47.11000 171.136
47.12000 169.186
47.13000 171.234
47.14000 174.774
47.15000 178.147
47.16000 179.903
47.17000 181.249
47.18000 182.426
47.19000 177.774
47.20000 172.956
47.21000 168.772
47.22000 167.083
47.23000 165.649
47.24000 164.682
47.25000 164.966
47.26000 165.318
47.27000 165.548
47.28000 165.593
47.29000 165.623
47.30000 166.290
47.31000 167.737
47.32000 169.181
47.33000 168.896
47.34000 167.230
47.35000 165.589
47.36000 166.100
47.37000 167.717
47.38000 169.248
47.39000 169.227
47.40000 168.637
47.41000 167.682
47.42000 163.234
47.43000 157.917
47.44000 153.276
47.45000 162.355
47.46000 172.038
47.47000 178.417
47.48000 171.988
47.49000 164.280
47.50000 159.385
47.51000 161.899
47.52000 164.806
47.53000 166.688
47.54000 160.806
47.55000 156.386
47.56000 155.433
47.57000 158.667
47.58000 161.907
47.59000 164.217
47.60000 165.797
47.61000 167.352
47.62000 164.484
47.63000 159.431
47.64000 154.824
47.65000 157.884
47.66000 163.720
47.67000 169.231
47.68000 171.693
47.69000 173.406
47.70000 174.898
47.71000 168.673
47.72000 162.300
47.73000 158.009
47.74000 161.670
47.75000 166.108
47.76000 168.856
47.77000 167.211
47.78000 165.339
47.79000 164.134
47.80000 161.930
47.81000 160.307
47.82000 160.474
47.83000 162.770
47.84000 165.072
47.85000 167.946
47.86000 171.263
47.87000 174.528
47.88000 172.865
47.89000 168.765
47.90000 164.727
47.91000 161.736
47.92000 159.119
47.93000 156.964
47.94000 159.058
47.95000 162.178
47.96000 164.888
47.97000 161.334
47.98000 157.462
47.99000 154.943
48.00000 157.514
48.01000 160.572
48.02000 162.221
48.03000 160.264
48.04000 158.127
48.05000 156.759
48.06000 158.726
48.07000 160.203
48.08000 160.873
48.09000 160.598
48.10000 160.326
48.11000 160.818
48.12000 161.893
48.13000 162.950
48.14000 165.179
48.15000 167.918
48.16000 170.429
48.17000 169.216
48.18000 166.692
48.19000 163.922
48.20000 158.939
48.21000 153.428
48.22000 148.655
48.23000 153.988
48.24000 159.858
48.25000 164.272
48.26000 163.292
48.27000 161.806
48.28000 161.374
48.29000 163.600
48.30000 165.954
48.31000 167.454
48.32000 172.277
48.33000 175.825
48.34000 176.900
48.35000 175.130
48.36000 173.353
48.37000 170.820
48.38000 167.721
48.39000 164.676
48.40000 162.422
48.41000 160.630
48.42000 159.035
48.43000 160.556
48.44000 163.157
48.45000 165.083
48.46000 161.058
48.47000 155.639
48.48000 150.957
48.49000 151.948
48.50000 153.524
48.51000 154.689
48.52000 154.354
48.53000 153.882
48.54000 154.399
48.55000 157.379
48.56000 160.475
48.57000 162.436
48.58000 164.040
48.59000 165.199
48.60000 164.095
48.61000 160.428
48.62000 156.783
48.63000 157.416
48.64000 161.206
48.65000 164.928
48.66000 165.260
48.67000 163.948
48.68000 162.943
48.69000 166.689
48.70000 172.058
48.71000 176.242
48.72000 170.184
48.73000 161.763
48.74000 154.507
48.75000 160.866
48.76000 167.984
48.77000 172.689
48.78000 168.713
48.79000 163.957
48.80000 159.534
48.81000 155.924
48.82000 152.351
48.83000 150.102
48.84000 155.446
48.85000 159.399
48.86000 161.883
48.87000 162.731
48.88000 163.586
48.89000 165.817
48.90000 169.048
48.91000 172.217
48.92000 170.215
48.93000 165.834
48.94000 161.780
48.95000 162.662
48.96000 165.206
48.97000 167.595
48.98000 168.666
48.99000 169.438
49.00000 170.101
49.01000 165.328
49.02000 160.613
49.03000 156.986
49.04000 157.207
49.05000 157.767
49.06000 157.265
49.07000 154.203
49.08000 151.026
49.09000 149.038
49.10000 151.846
49.11000 153.924
49.12000 156.973
49.13000 161.087
49.14000 165.185
49.15000 166.731
49.16000 166.450
49.17000 166.175
49.18000 162.806
49.19000 158.121
49.20000 153.871
49.21000 156.036
49.22000 160.330
49.23000 164.335
49.24000 165.941
49.25000 167.010
49.26000 167.926
49.27000 166.057
49.28000 164.139
49.29000 162.511
49.30000 161.898
49.31000 161.372
49.32000 160.971
49.33000 160.864
49.34000 160.770
49.35000 160.711
49.36000 156.825
49.37000 153.988
49.38000 151.198
49.39000 148.461
49.40000 145.757
49.41000 147.444
49.42000 152.227
49.43000 156.911
49.44000 158.302
49.45000 158.126
49.46000 157.719
49.47000 154.002
49.48000 149.202
49.49000 145.424
49.50000 149.981
49.51000 156.374
49.52000 161.838
49.53000 158.977
49.54000 155.569
49.55000 153.119
49.56000 153.961
49.57000 155.079
49.58000 156.917
49.59000 160.443
49.60000 164.039
49.61000 166.263
49.62000 163.622
49.63000 161.678
49.64000 159.012
49.65000 155.579
49.66000 152.179
49.67000 152.915
49.68000 156.523
49.69000 160.053
49.70000 158.797
49.71000 155.428
49.72000 152.317
49.73000 152.812
49.74000 154.470
49.75000 155.975
49.76000 156.250
49.77000 156.258
49.78000 156.265
49.79000 152.305
49.80000 148.508
49.81000 146.978
49.82000 153.130
49.83000 159.912
49.84000 163.146
49.85000 158.170
49.86000 152.864
49.87000 149.603
49.88000 155.896
49.89000 160.492
49.90000 161.398
49.91000 158.455
49.92000 155.553
49.93000 157.310
49.94000 162.253
49.95000 167.084
49.96000 163.334
49.97000 155.921
49.98000 149.110
49.99000 150.537
50.00000 154.578
50.01000 157.991
50.02000 156.457
50.03000 153.869
50.04000 151.668
50.05000 148.485
50.06000 145.699
50.07000 143.917
50.08000 145.487
50.09000 147.326
50.10000 149.782
50.11000 153.645
50.12000 157.564
50.13000 159.957
50.14000 158.035
50.15000 156.625
50.16000 158.582
50.17000 163.990
50.18000 169.345
50.19000 169.032
50.20000 164.901
50.21000 160.867
50.22000 160.063
50.23000 160.709
50.24000 161.322
50.25000 161.502
50.26000 161.546
50.27000 161.546
50.28000 161.212
50.29000 160.807
50.30000 160.464
50.31000 162.487
50.32000 164.450
50.33000 165.296
50.34000 162.469
50.35000 159.355
50.36000 159.130
50.37000 165.395
50.38000 171.904
50.39000 175.856
50.40000 177.360
50.41000 178.413
50.42000 177.113
50.43000 173.438
50.44000 169.823
50.45000 172.070
50.46000 178.207
50.47000 184.194
50.48000 185.940
50.49000 185.780
50.50000 185.712
50.51000 186.834
50.52000 188.323
50.53000 190.547
50.54000 198.326
50.55000 207.254
50.56000 214.802
50.57000 210.008
50.58000 204.633
50.59000 201.702
50.60000 206.692
50.61000 212.288
50.62000 217.531
50.63000 221.990
50.64000 226.421
50.65000 229.094
50.66000 231.846
50.67000 233.806
50.68000 233.500
50.69000 230.948
50.70000 228.438
50.71000 229.787
50.72000 233.656
50.73000 237.427
50.74000 239.792
50.75000 241.451
50.76000 242.745
50.77000 239.389
50.78000 234.620
50.79000 230.470
50.80000 230.921
50.81000 232.307
50.82000 233.476
50.83000 230.945
50.84000 228.431
50.85000 225.730
50.86000 222.433
50.87000 219.091
50.88000 215.399
50.89000 210.942
50.90000 206.459
50.91000 203.772
50.92000 200.304
50.93000 197.836
50.94000 198.715
50.95000 202.857
50.96000 206.897
50.97000 202.137
50.98000 191.712
50.99000 181.562
51.00000 180.774
51.01000 183.933
51.02000 186.930
51.03000 187.903
51.04000 188.271
51.05000 188.077
51.06000 183.796
51.07000 178.696
51.08000 174.409
51.09000 169.651
51.10000 165.636
51.11000 163.919
51.12000 169.434
51.13000 175.477
51.14000 178.750
51.15000 176.064
51.16000 173.176
51.17000 171.456
51.18000 169.452
51.19000 168.030
51.20000 163.387
51.21000 155.656
51.22000 148.048
51.23000 150.314
51.24000 158.843
51.25000 167.139
51.26000 167.268
51.27000 164.033
51.28000 160.827
51.29000 157.972
51.30000 155.220
51.31000 152.863
51.32000 153.338
51.33000 154.372
51.34000 155.238
51.35000 155.775
51.36000 156.188
51.37000 157.348
51.38000 160.827
51.39000 164.471
51.40000 165.803
51.41000 162.230
51.42000 158.498
51.43000 156.289
51.44000 148.932
51.45000 143.703
51.46000 141.442
51.47000 141.979
51.48000 142.544
51.49000 145.246
51.50000 149.284
51.51000 153.207
51.52000 153.562
51.53000 152.456
51.54000 151.579
51.55000 153.422
51.56000 156.056
51.57000 157.896
51.58000 154.149
51.59000 149.319
51.60000 145.282
51.61000 144.615
51.62000 144.404
51.63000 144.840
51.64000 147.255
51.65000 149.808
51.66000 152.336
51.67000 154.812
51.68000 157.286
51.69000 158.741
51.70000 151.795
51.71000 146.855
51.72000 147.145
51.73000 152.282
51.74000 157.342
51.75000 156.858
51.76000 152.962
51.77000 149.181
51.78000 149.497
51.79000 151.428
51.80000 153.011
51.81000 150.556
51.82000 146.944
51.83000 143.716
51.84000 143.137
51.85000 143.064
51.86000 143.002
51.87000 137.644
51.88000 132.675
51.89000 129.284
51.90000 130.645
51.91000 132.327
51.92000 135.264
51.93000 140.783
51.94000 146.381
51.95000 149.652
51.96000 144.627
51.97000 141.055
51.98000 141.080
51.99000 144.385
52.00000 147.661
52.01000 149.010
52.02000 149.189
52.03000 149.363
52.04000 145.711
52.05000 140.753
52.06000 136.193
52.07000 136.166
52.08000 137.418
52.09000 138.417
52.10000 137.695
52.11000 136.651
52.12000 135.783
52.13000 140.611
52.14000 145.160
52.15000 147.157
52.16000 141.576
52.17000 135.495
52.18000 132.868
52.19000 137.257
52.20000 141.850
52.21000 144.515
52.22000 147.102
52.23000 148.916
52.24000 147.413
52.25000 142.935
52.26000 138.514
52.27000 137.701
52.28000 139.044
52.29000 140.344
52.30000 143.231
52.31000 146.574
52.32000 149.640
52.33000 149.634
52.34000 148.775
52.35000 147.495
52.36000 143.413
52.37000 138.813
52.38000 135.002
52.39000 137.255
52.40000 139.693
52.41000 142.634
52.42000 147.042
52.43000 151.545
52.44000 153.231
52.45000 149.280
52.46000 145.172
52.47000 142.803
52.48000 148.716
52.49000 152.884
52.50000 152.835
52.51000 149.066
52.52000 145.335
52.53000 143.844
52.54000 143.673
52.55000 143.507
52.56000 144.512
52.57000 145.907
52.58000 147.114
52.59000 146.278
52.60000 144.884
52.61000 143.512
52.62000 142.285
52.63000 141.084
52.64000 140.092
52.65000 143.574
52.66000 146.861
52.67000 149.139
52.68000 148.507
52.69000 147.692
52.70000 146.512
52.71000 144.615
52.72000 142.698
52.73000 141.600
52.74000 139.045
52.75000 137.257
52.76000 137.060
52.77000 138.244
52.78000 139.418
52.79000 140.034
52.80000 140.325
52.81000 140.607
52.82000 147.432
52.83000 156.313
52.84000 163.916
52.85000 157.904
52.86000 148.219
52.87000 139.572
52.88000 137.609
52.89000 136.839
52.90000 136.205
52.91000 136.382
52.92000 136.602
52.93000 138.832
52.94000 146.772
52.95000 155.061
52.96000 157.671
52.97000 149.242
52.98000 140.529
52.99000 135.576
53.00000 142.697
53.01000 147.692
53.02000 149.881
53.03000 149.674
53.04000 149.473
53.05000 149.577
53.06000 149.855
53.07000 150.124
53.08000 146.818
53.09000 142.389
53.10000 138.455
53.11000 139.675
53.12000 142.265
53.13000 144.581
53.14000 145.162
53.15000 145.440
53.16000 145.667
53.17000 147.859
53.18000 149.834
53.19000 151.338
53.20000 151.521
53.21000 151.625
53.22000 152.224
53.23000 153.768
53.24000 155.335
53.25000 156.220
53.26000 153.487
53.27000 151.583
53.28000 152.265
53.29000 155.120
53.30000 157.943
53.31000 159.103
53.32000 159.325
53.33000 159.539
53.34000 158.361
53.35000 156.748
53.36000 155.025
53.37000 152.167
53.38000 149.012
53.39000 147.413
53.40000 155.487
53.41000 165.231
53.42000 173.206
53.43000 167.845
53.44000 162.286
53.45000 159.039
53.46000 162.171
53.47000 165.672
53.48000 166.553
53.49000 162.487
53.50000 158.305
53.51000 155.960
53.52000 152.135
53.53000 149.482
53.54000 147.931
53.55000 147.290
53.56000 146.641
53.57000 145.558
53.58000 144.236
53.59000 142.962
53.60000 144.399
53.61000 146.713
53.62000 148.791
53.63000 148.505
53.64000 147.611
53.65000 146.461
53.66000 143.747
53.67000 140.767
53.68000 138.336
53.69000 138.187
53.70000 138.260
53.71000 139.865
53.72000 145.636
53.73000 151.642
53.74000 154.755
53.75000 152.485
53.76000 150.094
53.77000 148.763
53.78000 150.390
53.79000 151.514
53.80000 150.179
53.81000 146.839
53.82000 143.533
53.83000 141.751
53.84000 140.803
53.85000 139.891
53.86000 140.907
53.87000 142.536
53.88000 143.859
53.89000 142.193
53.90000 139.768
53.91000 137.870
53.92000 139.142
53.93000 140.943
53.94000 142.407
53.95000 142.468
53.96000 142.401
53.97000 140.444
53.98000 133.419
53.99000 126.116
54.00000 124.399
54.01000 132.925
54.02000 141.672
54.03000 146.504
54.04000 147.210
54.05000 147.688
54.06000 147.944
54.07000 148.022
54.08000 148.076
54.09000 147.066
54.10000 145.483
54.11000 143.962
54.12000 144.625
54.13000 145.999
54.14000 146.936
54.15000 143.676
54.16000 139.366
54.17000 135.693
54.18000 135.782
54.19000 136.489
54.20000 137.061
54.21000 139.799
54.22000 142.207
54.23000 142.463
54.24000 137.031
54.25000 131.296
54.26000 128.734
54.27000 131.907
54.28000 135.197
54.29000 137.002
54.30000 142.171
54.31000 145.725
54.32000 147.086
54.33000 146.718
54.34000 146.327
54.35000 144.947
54.36000 143.041
54.37000 141.213
54.38000 139.079
54.39000 136.981
54.40000 135.351
54.41000 138.108
54.42000 141.947
54.43000 144.988
54.44000 143.400
54.45000 141.066
54.46000 139.180
54.47000 139.297
54.48000 139.553
54.49000 138.832
54.50000 135.569
54.51000 132.174
54.52000 130.759
54.53000 132.871
54.54000 135.051
54.55000 136.238
54.56000 141.313
54.57000 144.791
54.58000 145.700
54.59000 144.614
54.60000 143.551
54.61000 143.427
54.62000 143.793
54.63000 144.145
54.64000 143.198
54.65000 141.880
54.66000 140.886
54.67000 142.867
54.68000 145.570
54.69000 147.147
54.70000 142.297
54.71000 136.429
54.72000 131.702
54.73000 132.042
54.74000 132.713
54.75000 134.208
54.76000 137.820
54.77000 141.539
54.78000 142.987
54.79000 140.451
54.80000 137.841
54.81000 136.430
54.82000 133.883
54.83000 132.148
54.84000 132.516
54.85000 134.494
54.86000 136.441
54.87000 137.211
54.88000 137.375
54.89000 137.531
54.90000 137.975
54.91000 138.483
54.92000 139.389
54.93000 143.890
54.94000 149.249
54.95000 153.527
54.96000 151.738
54.97000 149.004
54.98000 146.809
54.99000 148.523
55.00000 150.210
55.01000 151.013
55.02000 149.581
55.03000 148.040
55.04000 149.054
55.05000 154.485
55.06000 159.994
55.07000 162.949
55.08000 156.853
55.09000 152.690
55.10000 149.818
55.11000 147.916
55.12000 146.138
55.13000 149.017
55.14000 154.263
55.15000 159.277
55.16000 156.767
55.17000 151.999
55.18000 147.621
55.19000 146.698
55.20000 146.586
55.21000 147.057
55.22000 150.750
55.23000 154.936
55.24000 158.285
55.25000 154.389
55.26000 150.698
55.27000 149.039
55.28000 152.444
55.29000 156.089
55.30000 160.554
55.31000 166.413
55.32000 172.296
55.33000 175.427
55.34000 168.198
55.35000 163.301
55.36000 164.266
55.37000 169.574
55.38000 174.744
55.39000 174.974
55.40000 172.728
55.41000 170.585
55.42000 170.236
55.43000 170.484
55.44000 171.220
55.45000 176.191
55.46000 182.144
55.47000 187.081
55.48000 186.499
55.49000 185.087
55.50000 183.961
55.51000 184.046
55.52000 184.202
55.53000 184.814
55.54000 186.545
55.55000 188.328
55.56000 190.345
55.57000 192.757
55.58000 195.176
55.59000 196.453
55.60000 207.766
55.61000 215.474
55.62000 226.587
55.63000 240.183
55.64000 253.430
55.65000 254.551
55.66000 249.686
55.67000 245.050
55.68000 250.511
55.69000 258.737
55.70000 267.482
55.71000 280.653
55.72000 294.832
55.73000 309.267
55.74000 325.063
55.75000 341.062
55.76000 353.773
55.77000 370.271
55.78000 383.827
55.79000 397.351
55.80000 410.800
55.81000 424.245
55.82000 439.707
55.83000 458.505
55.84000 477.352
55.85000 487.227
55.86000 501.532
55.87000 511.209
55.88000 519.162
55.89000 525.875
55.90000 532.596
55.91000 539.601
55.92000 546.742
55.93000 553.540
55.94000 561.408
55.95000 569.022
55.96000 576.104
55.97000 578.747
55.98000 580.394
55.99000 580.368
56.00000 571.543
56.01000 561.441
56.02000 553.442
56.03000 537.941
56.04000 524.961
56.05000 513.882
56.06000 507.344
56.07000 501.001
56.08000 492.704
56.09000 481.222
56.10000 469.695
56.11000 463.704
56.12000 443.792
56.13000 430.356
56.14000 419.173
56.15000 409.583
56.16000 399.979
56.17000 389.878
56.18000 379.540
56.19000 369.713
56.20000 359.907
56.21000 350.849
56.22000 341.368
56.23000 328.411
56.24000 314.686
56.25000 300.911
56.26000 286.880
56.27000 272.812
56.28000 261.711
56.29000 257.723
56.30000 255.006
56.31000 251.235
56.32000 244.988
56.33000 238.636
56.34000 233.967
56.35000 231.996
56.36000 230.061
56.37000 229.064
56.38000 214.296
56.39000 204.390
56.40000 200.157
56.41000 199.874
56.42000 199.528
56.43000 197.217
56.44000 193.978
56.45000 190.904
56.46000 188.342
56.47000 186.131
56.48000 184.040
56.49000 182.917
56.50000 182.004
56.51000 180.673
56.52000 177.215
56.53000 173.459
56.54000 170.506
56.55000 170.446
56.56000 170.589
56.57000 171.133
56.58000 172.608
56.59000 174.120
56.60000 170.865
56.61000 160.073
56.62000 149.187
56.63000 143.620
56.64000 148.842
56.65000 152.347
56.66000 155.369
56.67000 158.059
56.68000 160.604
56.69000 158.792
56.70000 154.951
56.71000 151.310
56.72000 148.996
56.73000 147.254
56.74000 146.019
56.75000 148.790
56.76000 152.418
56.77000 155.309
56.78000 154.505
56.79000 153.193
56.80000 152.166
56.81000 148.054
56.82000 144.569
56.83000 141.747
56.84000 140.439
56.85000 139.191
56.86000 138.940
56.87000 140.242
56.88000 141.562
56.89000 142.232
56.90000 139.057
56.91000 136.929
56.92000 134.757
56.93000 132.556
56.94000 130.473
56.95000 131.814
56.96000 134.727
56.97000 137.484
56.98000 141.033
56.99000 144.527
57.00000 147.535
57.01000 146.785
57.02000 145.243
57.03000 143.329
57.04000 139.584
57.05000 135.591
57.06000 132.474
57.07000 133.982
57.08000 135.475
57.09000 135.928
57.10000 134.033
57.11000 132.050
57.12000 131.050
57.13000 131.558
57.14000 132.083
57.15000 132.346
57.16000 136.631
57.17000 139.465
57.18000 139.351
57.19000 137.277
57.20000 135.336
57.21000 137.109
57.22000 140.563
57.23000 143.827
57.24000 140.198
57.25000 134.909
57.26000 130.413
57.27000 131.949
57.28000 134.736
57.29000 136.231
57.30000 131.454
57.31000 125.846
57.32000 121.484
57.33000 126.502
57.34000 131.071
57.35000 132.326
57.36000 126.220
57.37000 119.845
57.38000 118.785
57.39000 125.757
57.40000 132.811
57.41000 135.556
57.42000 134.017
57.43000 132.456
57.44000 128.907
57.45000 124.054
57.46000 119.449
57.47000 121.454
57.48000 126.408
57.49000 131.083
57.50000 131.253
57.51000 130.150
57.52000 129.135
57.53000 128.766
57.54000 128.529
57.55000 128.088
57.56000 126.669
57.57000 125.124
57.58000 123.926
57.59000 126.140
57.60000 128.102
57.61000 127.980
57.62000 123.293
57.63000 118.444
57.64000 118.232
57.65000 124.919
57.66000 131.672
57.67000 131.707
57.68000 125.174
57.69000 118.715
57.70000 118.817
57.71000 123.157
57.72000 127.362
57.73000 128.067
57.74000 127.232
57.75000 126.446
57.76000 125.654
57.77000 124.927
57.78000 124.701
57.79000 128.145
57.80000 132.326
57.81000 134.931
57.82000 130.134
57.83000 124.391
57.84000 119.956
57.85000 124.225
57.86000 128.116
57.87000 130.391
57.88000 129.181
57.89000 127.852
57.90000 127.452
57.91000 128.414
57.92000 129.388
57.93000 128.936
57.94000 127.114
57.95000 125.297
57.96000 124.015
57.97000 123.073
57.98000 122.132
57.99000 121.203
58.00000 120.279
58.01000 119.409
58.02000 121.661
58.03000 124.561
58.04000 127.079
58.05000 126.845
58.06000 126.068
58.07000 125.640
58.08000 126.828
58.09000 128.219
58.10000 129.289
58.11000 129.580
58.12000 129.766
58.13000 129.457
58.14000 128.098
58.15000 126.704
58.16000 124.897
58.17000 122.493
58.18000 120.084
58.19000 120.077
58.20000 122.341
58.21000 124.597
58.22000 126.250
58.23000 127.525
58.24000 128.620
58.25000 125.370
58.26000 120.264
58.27000 115.469
58.28000 116.157
58.29000 118.243
58.30000 120.015
58.31000 119.574
58.32000 118.703
58.33000 117.910
58.34000 117.476
58.35000 117.085
58.36000 116.786
58.37000 116.387
58.38000 116.067
58.39000 116.021
58.40000 116.550
58.41000 117.097
58.42000 119.989
58.43000 126.217
58.44000 132.468
58.45000 133.727
58.46000 130.345
58.47000 126.991
58.48000 125.751
58.49000 125.816
58.50000 125.804
58.51000 123.990
58.52000 121.417
58.53000 119.005
58.54000 125.216
58.55000 133.127
58.56000 139.527
58.57000 135.455
58.58000 129.378
58.59000 124.592
58.60000 125.593
58.61000 127.291
58.62000 128.588
58.63000 127.101
58.64000 125.779
58.65000 123.990
58.66000 121.236
58.67000 118.453
58.68000 116.974
58.69000 117.319
58.70000 117.676
58.71000 119.343
58.72000 122.207
58.73000 125.047
58.74000 126.285
58.75000 126.549
58.76000 126.740
58.77000 125.283
58.78000 123.142
58.79000 121.138
58.80000 119.692
58.81000 118.523
58.82000 117.566
58.83000 118.062
58.84000 118.832
58.85000 120.102
58.86000 123.579
58.87000 127.317
58.88000 130.159
58.89000 128.401
58.90000 126.777
58.91000 125.013
58.92000 122.961
58.93000 120.902
58.94000 119.210
58.95000 118.024
58.96000 116.842
58.97000 118.771
58.98000 123.496
58.99000 128.145
59.00000 127.826
59.01000 124.531
59.02000 121.271
59.03000 118.769
59.04000 116.578
59.05000 114.530
59.06000 116.959
59.07000 120.297
59.08000 123.230
59.09000 123.458
59.10000 123.185
59.11000 122.472
59.12000 119.846
59.13000 116.997
59.14000 114.839
59.15000 119.966
59.16000 124.362
59.17000 126.914
59.18000 125.764
59.19000 124.510
59.20000 121.538
59.21000 116.232
59.22000 110.916
59.23000 108.303
59.24000 108.082
59.25000 107.931
59.26000 112.062
59.27000 118.722
59.28000 125.094
59.29000 125.336
59.30000 123.107
59.31000 121.026
59.32000 118.163
59.33000 115.374
59.34000 113.257
59.35000 115.561
59.36000 118.669
59.37000 121.916
59.38000 125.753
59.39000 129.656
59.40000 132.602
59.41000 123.992
59.42000 116.675
59.43000 112.154
59.44000 113.165
59.45000 114.326
59.46000 114.042
59.47000 111.828
59.48000 109.605
59.49000 109.493
59.50000 111.217
59.51000 112.919
59.52000 113.379
59.53000 113.116
59.54000 112.974
59.55000 115.354
59.56000 118.735
59.57000 121.885
59.58000 121.558
59.59000 120.411
59.60000 119.518
59.61000 120.269
59.62000 121.314
59.63000 121.922
59.64000 120.686
59.65000 119.245
59.66000 118.162
59.67000 114.967
59.68000 112.369
59.69000 110.783
59.70000 111.173
59.71000 111.615
59.72000 112.525
59.73000 114.051
59.74000 115.579
59.75000 117.135
59.76000 118.710
59.77000 120.220
59.78000 118.077
59.79000 113.841
59.80000 109.849
59.81000 110.771
59.82000 113.617
59.83000 116.263
59.84000 118.015
59.85000 119.381
59.86000 121.218
59.87000 126.046
59.88000 131.400
59.89000 134.655
59.90000 129.205
59.91000 122.802
59.92000 118.009
59.93000 119.337
59.94000 120.658
59.95000 120.426
59.96000 117.206
59.97000 113.913
59.98000 113.388
59.99000 116.450
60.00000 119.524
60.01000 119.713
60.02000 117.474
60.03000 115.281
60.04000 115.446
60.05000 116.943
60.06000 118.391
60.07000 118.903
60.08000 119.053
60.09000 119.193
60.10000 118.797
60.11000 118.314
60.12000 118.152
60.13000 119.989
60.14000 122.172
60.15000 123.657
60.16000 122.285
60.17000 120.608
60.18000 119.357
60.19000 122.597
60.20000 125.325
60.21000 126.180
60.22000 123.488
60.23000 120.713
60.24000 118.629
60.25000 117.428
60.26000 116.232
60.27000 117.224
60.28000 120.023
60.29000 122.802
60.30000 124.590
60.31000 125.827
60.32000 126.817
60.33000 123.142
60.34000 117.692
60.35000 112.641
60.36000 111.753
60.37000 111.923
60.38000 112.638
60.39000 116.693
60.40000 121.318
60.41000 124.357
60.42000 121.014
60.43000 117.000
60.44000 114.020
60.45000 112.319
60.46000 111.053
60.47000 110.922
60.48000 112.910
60.49000 114.945
60.50000 115.770
60.51000 115.076
60.52000 114.377
60.53000 114.674
60.54000 115.781
60.55000 116.877
60.56000 117.429
60.57000 117.684
60.58000 117.886
60.59000 117.108
60.60000 115.963
60.61000 114.904
60.62000 118.310
60.63000 122.392
60.64000 126.087
60.65000 127.452
60.66000 128.426
60.67000 128.525
60.68000 125.156
60.69000 121.431
60.70000 118.677
60.71000 116.602
60.72000 115.022
60.73000 113.974
60.74000 113.903
60.75000 113.854
60.76000 114.431
60.77000 115.782
60.78000 117.133
60.79000 116.970
60.80000 115.597
60.81000 114.249
60.82000 114.027
60.83000 114.412
60.84000 114.805
60.85000 115.310
60.86000 115.856
60.87000 116.361
60.88000 116.102
60.89000 115.697
60.90000 115.288
60.91000 114.848
60.92000 114.404
60.93000 113.952
60.94000 113.467
60.95000 112.978
60.96000 112.619
60.97000 116.288
60.98000 119.296
60.99000 121.266
61.00000 121.356
61.01000 121.407
61.02000 122.357
61.03000 124.402
61.04000 126.446
61.05000 127.652
61.06000 128.194
61.07000 128.691
61.08000 127.280
61.09000 124.854
61.10000 122.611
61.11000 123.578
61.12000 125.713
61.13000 127.682
61.14000 127.994
61.15000 127.907
61.16000 128.207
61.17000 130.768
61.18000 133.694
61.19000 135.685
61.20000 134.081
61.21000 132.122
61.22000 130.686
61.23000 134.316
61.24000 137.324
61.25000 139.088
61.26000 138.628
61.27000 138.125
61.28000 135.238
61.29000 129.497
61.30000 123.762
61.31000 121.130
61.32000 120.916
61.33000 120.689
61.34000 119.946
61.35000 118.932
61.36000 118.246
61.37000 123.120
61.38000 129.991
61.39000 136.313
61.40000 135.991
61.41000 134.259
61.42000 132.395
61.43000 129.777
61.44000 127.040
61.45000 126.135
61.46000 132.167
61.47000 138.871
61.48000 143.765
61.49000 155.455
61.50000 164.732
61.51000 174.582
61.52000 185.442
61.53000 196.321
61.54000 212.497
61.55000 234.912
61.56000 257.282
61.57000 273.256
61.58000 284.256
61.59000 295.348
61.60000 310.087
61.61000 326.713
61.62000 343.179
61.63000 357.006
61.64000 369.898
61.65000 381.737
61.66000 392.710
61.67000 402.314
61.68000 409.081
61.69000 399.851
61.70000 388.118
61.71000 380.381
61.72000 387.542
61.73000 396.112
61.74000 402.342
61.75000 381.247
61.76000 363.984
61.77000 342.116
61.78000 312.263
61.79000 282.268
61.80000 259.253
61.81000 244.331
61.82000 229.459
61.83000 211.048
61.84000 190.106
61.85000 169.488
61.86000 161.140
61.87000 159.048
61.88000 156.644
61.89000 149.215
61.90000 140.032
61.91000 131.616
61.92000 136.428
61.93000 143.494
61.94000 148.682
61.95000 143.459
61.96000 136.636
61.97000 132.001
61.98000 135.405
61.99000 139.553
62.00000 142.556
62.01000 138.382
62.02000 134.915
62.03000 132.901
62.04000 133.371
62.05000 133.882
62.06000 134.056
62.07000 133.843
62.08000 133.631
62.09000 133.142
62.10000 132.454
62.11000 131.736
62.12000 129.956
62.13000 127.642
62.14000 125.531
62.15000 126.586
62.16000 128.729
62.17000 130.691
62.18000 128.491
62.19000 125.676
62.20000 123.695
62.21000 126.259
62.22000 129.511
62.23000 131.957
62.24000 131.490
62.25000 130.760
62.26000 130.233
62.27000 129.021
62.28000 128.069
62.29000 128.088
62.30000 129.742
62.31000 131.423
62.32000 131.896
62.33000 131.013
62.34000 130.132
62.35000 131.457
62.36000 134.371
62.37000 137.246
62.38000 138.710
62.39000 139.477
62.40000 140.296
62.41000 141.918
62.42000 143.812
62.43000 145.541
62.44000 144.689
62.45000 143.409
62.46000 141.189
62.47000 133.930
62.48000 125.923
62.49000 120.523
62.50000 124.421
62.51000 129.142
62.52000 132.530
62.53000 137.138
62.54000 140.703
62.55000 140.835
62.56000 135.270
62.57000 129.619
62.58000 126.767
62.59000 127.005
62.60000 127.243
62.61000 128.969
62.62000 131.740
62.63000 134.488
62.64000 136.455
62.65000 138.042
62.66000 139.651
62.67000 141.608
62.68000 143.681
62.69000 145.570
62.70000 145.417
62.71000 144.874
62.72000 143.933
62.73000 140.896
62.74000 137.553
62.75000 135.184
62.76000 136.234
62.77000 137.581
62.78000 138.543
62.79000 134.497
62.80000 131.243
62.81000 129.622
62.82000 130.670
62.83000 131.755
62.84000 132.201
62.85000 131.952
62.86000 131.704
62.87000 131.443
62.88000 131.176
62.89000 130.980
62.90000 133.095
62.91000 136.321
62.92000 139.373
62.93000 139.885
62.94000 139.562
62.95000 139.269
62.96000 139.453
62.97000 139.710
62.98000 139.891
62.99000 139.678
63.00000 139.410
63.01000 139.682
63.02000 141.827
63.03000 144.130
63.04000 145.768
63.05000 141.840
63.06000 138.670
63.07000 138.708
63.08000 143.911
63.09000 149.184
63.10000 149.384
63.11000 144.165
63.12000 138.969
63.13000 138.266
63.14000 140.678
63.15000 143.047
63.16000 144.057
63.17000 144.424
63.18000 144.644
63.19000 142.791
63.20000 140.267
63.21000 137.975
63.22000 138.456
63.23000 139.415
63.24000 140.142
63.25000 139.688
63.26000 139.067
63.27000 138.590
63.28000 138.603
63.29000 138.658
63.30000 138.697
63.31000 137.763
63.32000 137.023
63.33000 135.924
63.34000 134.254
63.35000 132.577
63.36000 133.485
63.37000 137.107
63.38000 140.712
63.39000 142.657
63.40000 143.450
63.41000 144.221
63.42000 144.320
63.43000 144.105
63.44000 143.808
63.45000 142.362
63.46000 140.549
63.47000 138.906
63.48000 142.735
63.49000 147.146
63.50000 150.891
63.51000 151.291
63.52000 151.229
63.53000 149.937
63.54000 144.514
63.55000 138.755
63.56000 134.698
63.57000 141.268
63.58000 146.568
63.59000 150.702
63.60000 153.014
63.61000 155.304
63.62000 154.441
63.63000 150.319
63.64000 146.219
63.65000 143.971
63.66000 142.990
63.67000 142.124
63.68000 144.575
63.69000 148.553
63.70000 152.223
63.71000 151.736
63.72000 149.939
63.73000 148.315
63.74000 146.793
63.75000 145.473
63.76000 144.412
63.77000 144.631
63.78000 145.023
63.79000 145.096
63.80000 144.110
63.81000 143.039
63.82000 142.289
63.83000 146.756
63.84000 150.286
63.85000 152.152
63.86000 151.456
63.87000 150.731
63.88000 148.081
63.89000 143.475
63.90000 138.896
63.91000 140.734
63.92000 146.774
63.93000 152.748
63.94000 156.863
63.95000 160.134
63.96000 163.002
63.97000 160.550
63.98000 156.447
63.99000 152.746
64.00000 151.738
64.01000 151.345
64.02000 150.738
64.03000 149.089
64.04000 147.300
64.05000 145.849
64.06000 145.496
64.07000 145.228
64.08000 145.041
64.09000 145.676
64.10000 146.178
64.11000 147.697
64.12000 150.759
64.13000 153.836
64.14000 154.429
64.15000 152.542
64.16000 150.666
64.17000 152.424
64.18000 156.513
64.19000 160.498
64.20000 161.690
64.21000 161.633
64.22000 161.713
64.23000 163.561
64.24000 165.949
64.25000 168.100
64.26000 167.707
64.27000 166.906
64.28000 165.800
64.29000 163.236
64.30000 160.480
64.31000 159.042
64.32000 161.835
64.33000 164.948
64.34000 167.111
64.35000 167.362
64.36000 167.501
64.37000 167.478
64.38000 167.214
64.39000 166.947
64.40000 164.277
64.41000 159.247
64.42000 154.252
64.43000 154.853
64.44000 159.016
64.45000 163.117
64.46000 165.615
64.47000 167.405
64.48000 169.192
64.49000 170.937
64.50000 172.671
64.51000 174.227
64.52000 174.801
64.53000 175.130
64.54000 175.263
64.55000 174.473
64.56000 173.564
64.57000 172.763
64.58000 172.301
64.59000 171.865
64.60000 171.563
64.61000 174.618
64.62000 177.002
64.63000 179.153
64.64000 180.962
64.65000 182.767
64.66000 181.912
64.67000 178.489
64.68000 175.091
64.69000 173.450
64.70000 172.939
64.71000 172.548
64.72000 175.146
64.73000 179.044
64.74000 182.775
64.75000 184.443
64.76000 185.499
64.77000 186.445
64.78000 188.063
64.79000 189.591
64.80000 190.997
64.81000 191.832
64.82000 192.594
64.83000 193.389
64.84000 194.284
64.85000 195.186
64.86000 195.807
64.87000 193.340
64.88000 191.412
64.89000 192.147
64.90000 196.738
64.91000 201.361
64.92000 205.317
64.93000 208.639
64.94000 211.935
64.95000 213.112
64.96000 212.959
64.97000 212.770
64.98000 211.693
64.99000 210.237
65.00000 209.435
65.01000 216.489
65.02000 225.841
65.03000 234.205
65.04000 228.125
65.05000 220.364
65.06000 214.479
65.07000 217.168
65.08000 220.914
65.09000 224.153
65.10000 225.831
65.11000 227.399
65.12000 228.472
65.13000 235.466
65.14000 240.844
65.15000 244.580
65.16000 245.975
65.17000 247.353
65.18000 250.134
65.19000 254.226
65.20000 258.283
65.21000 262.699
65.22000 267.252
65.23000 271.629
65.24000 271.873
65.25000 270.370
65.26000 269.561
65.27000 276.899
65.28000 286.584
65.29000 295.227
65.30000 300.385
65.31000 304.291
65.32000 309.957
65.33000 323.531
65.34000 338.063
65.35000 349.727
65.36000 352.694
65.37000 355.066
65.38000 356.682
65.39000 356.460
65.40000 356.252
65.41000 360.454
65.42000 370.850
65.43000 381.290
65.44000 393.139
65.45000 406.282
65.46000 419.308
65.47000 432.290
65.48000 444.994
65.49000 457.440
65.50000 463.989
65.51000 468.082
65.52000 472.873
65.53000 485.667
65.54000 500.733
65.55000 514.150
65.56000 524.189
65.57000 532.357
65.58000 542.817
65.59000 563.427
65.60000 585.243
65.61000 606.343
65.62000 625.300
65.63000 644.115
65.64000 656.867
65.65000 729.979
65.66000 785.819
65.67000 852.228
65.68000 933.259
65.69000 1014.408
65.70000 1135.701
65.71000 1293.251
65.72000 1449.313
65.73000 1620.080
65.74000 1796.026
65.75000 1971.628
65.76000 2139.611
65.77000 2304.467
65.78000 2464.864
65.79000 2575.185
65.80000 2671.498
65.81000 2757.071
65.82000 2787.000
65.83000 2803.989
65.84000 2821.755
65.85000 2842.910
65.86000 2864.459
65.87000 2877.620
65.88000 2866.085
65.89000 2852.940
65.90000 2844.076
65.91000 2759.641
65.92000 2695.227
65.93000 2590.023
65.94000 2429.252
65.95000 2268.146
65.96000 2089.484
65.97000 1895.222
65.98000 1702.913
65.99000 1527.990
66.00000 1366.903
66.01000 1207.276
66.02000 1079.020
66.03000 963.452
66.04000 850.942
66.05000 772.033
66.06000 702.384
66.07000 640.642
66.08000 607.459
66.09000 583.250
66.10000 559.608
66.11000 538.395
66.12000 517.459
66.13000 500.970
66.14000 497.381
66.15000 494.610
66.16000 492.752
66.17000 487.084
66.18000 482.799
66.19000 479.785
66.20000 478.476
66.21000 477.184
66.22000 484.149
66.23000 498.331
66.24000 512.362
66.25000 534.067
66.26000 559.659
66.27000 585.420
66.28000 614.711
66.29000 645.409
66.30000 675.754
66.31000 702.296
66.32000 727.807
66.33000 750.369
66.34000 775.892
66.35000 798.408
66.36000 817.058
66.37000 819.364
66.38000 819.840
66.39000 822.307
66.40000 830.471
66.41000 838.987
66.42000 844.672
66.43000 848.162
66.44000 850.705
66.45000 842.252
66.46000 819.276
66.47000 796.246
66.48000 783.028
66.49000 778.249
66.50000 773.523
66.51000 741.017
66.52000 693.681
66.53000 646.790
66.54000 608.894
66.55000 574.532
66.56000 541.514
66.57000 522.639
66.58000 507.547
66.59000 494.230
66.60000 484.218
66.61000 476.086
66.62000 466.251
66.63000 449.333
66.64000 431.637
66.65000 419.670
66.66000 423.849
66.67000 429.000
66.68000 432.420
66.69000 430.242
66.70000 428.528
66.71000 425.609
66.72000 421.122
66.73000 416.635
66.74000 415.450
66.75000 417.062
66.76000 418.654
66.77000 419.328
66.78000 419.477
66.79000 419.811
66.80000 423.795
66.81000 429.191
66.82000 434.133
66.83000 434.397
66.84000 433.428
66.85000 432.575
66.86000 431.304
66.87000 430.148
66.88000 428.960
66.89000 427.645
66.90000 426.317
66.91000 425.606
66.92000 426.607
66.93000 427.708
66.94000 428.436
66.95000 427.294
66.96000 426.418
66.97000 429.504
66.98000 437.660
66.99000 445.830
67.00000 451.531
67.01000 455.176
67.02000 458.775
67.03000 459.046
67.04000 457.500
67.05000 456.036
67.06000 456.137
67.07000 456.834
67.08000 457.697
67.09000 460.231
67.10000 463.197
67.11000 465.803
67.12000 460.674
67.13000 455.128
67.14000 450.672
67.15000 450.613
67.16000 451.017
67.17000 451.807
67.18000 453.649
67.19000 455.552
67.20000 456.802
67.21000 461.591
67.22000 465.176
67.23000 470.733
67.24000 478.775
67.25000 486.810
67.26000 488.524
67.27000 485.056
67.28000 481.633
67.29000 478.710
67.30000 476.133
67.31000 474.027
67.32000 480.664
67.33000 490.590
67.34000 499.052
67.35000 493.040
67.36000 483.331
67.37000 474.824
67.38000 476.858
67.39000 480.123
67.40000 482.143
67.41000 479.210
67.42000 475.765
67.43000 472.961
67.44000 471.887
67.45000 470.910
67.46000 470.271
67.47000 487.891
67.48000 501.124
67.49000 510.935
67.50000 516.502
67.51000 522.042
67.52000 521.947
67.53000 517.305
67.54000 512.728
67.55000 511.230
67.56000 511.397
67.57000 511.830
67.58000 517.069
67.59000 524.089
67.60000 530.330
67.61000 529.012
67.62000 525.793
67.63000 522.979
67.64000 524.136
67.65000 525.689
67.66000 528.142
67.67000 534.118
67.68000 540.451
67.69000 541.801
67.70000 529.899
67.71000 517.282
67.72000 509.083
67.73000 534.153
67.74000 553.033
67.75000 565.295
67.76000 569.479
67.77000 573.647
67.78000 578.915
67.79000 585.057
67.80000 591.109
67.81000 585.959
67.82000 575.152
67.83000 564.938
67.84000 565.123
67.85000 569.109
67.86000 572.241
67.87000 567.269
67.88000 560.288
67.89000 554.202
67.90000 560.543
67.91000 567.688
67.92000 573.681
67.93000 575.228
67.94000 576.335
67.95000 577.044
67.96000 576.713
67.97000 576.327
67.98000 576.078
67.99000 587.850
68.00000 596.632
68.01000 604.034
68.02000 609.777
68.03000 615.488
68.04000 613.246
68.05000 604.787
68.06000 596.459
68.07000 593.086
68.08000 592.346
68.09000 592.343
68.10000 604.919
68.11000 622.026
68.12000 637.908
68.13000 642.403
68.14000 644.119
68.15000 645.610
68.16000 649.416
68.17000 652.978
68.18000 656.900
68.19000 662.184
68.20000 667.600
68.21000 670.482
68.22000 666.816
68.23000 662.817
68.24000 660.247
68.25000 670.684
68.26000 678.478
68.27000 688.716
68.28000 701.844
68.29000 714.955
68.30000 722.772
68.31000 726.514
68.32000 730.196
68.33000 731.821
68.34000 732.361
68.35000 733.034
68.36000 735.929
68.37000 739.614
68.38000 744.097
68.39000 755.864
68.40000 769.382
68.41000 781.108
68.42000 787.454
68.43000 792.140
68.44000 798.618
68.45000 811.806
68.46000 825.631
68.47000 838.588
68.48000 849.338
68.49000 859.977
68.50000 866.777
68.51000 890.794
68.52000 908.500
68.53000 922.728
68.54000 932.911
68.55000 943.147
68.56000 965.999
68.57000 998.410
68.58000 1030.270
68.59000 1069.669
68.60000 1111.486
68.61000 1153.622
68.62000 1200.903
68.63000 1249.985
68.64000 1300.331
68.65000 1361.962
68.66000 1426.265
68.67000 1481.904
68.68000 1547.282
68.69000 1604.138
68.70000 1665.585
68.71000 1743.948
68.72000 1823.886
68.73000 1896.912
68.74000 1952.590
68.75000 2007.435
68.76000 2042.288
68.77000 2132.731
68.78000 2199.104
68.79000 2283.063
68.80000 2387.150
68.81000 2491.243
68.82000 2592.224
68.83000 2690.884
68.84000 2787.789
68.85000 2958.210
68.86000 3158.539
68.87000 3368.616
68.88000 3732.328
68.89000 4149.025
68.90000 4627.116
68.91000 5642.747
68.92000 6783.684
68.93000 7768.381
68.94000 10703.344
68.95000 13444.718
68.96000 16558.918
68.97000 21026.709
68.98000 25617.766
68.99000 30444.816
69.00000 35855.621
69.01000 41293.637
69.02000 44729.605
69.03000 50578.949
69.04000 54845.672
69.05000 58167.762
69.06000 60426.121
69.07000 62679.516
69.08000 64229.824
69.09000 65263.770
69.10000 66278.484
69.11000 67240.953
69.12000 68143.977
69.13000 69064.070
69.14000 70246.227
69.15000 71517.453
69.16000 72670.680
69.17000 72810.766
69.18000 72718.305
69.19000 72638.719
69.20000 69796.648
69.21000 67040.938
69.22000 63910.391
69.23000 59439.160
69.24000 54848.484
69.25000 50580.953
69.26000 47101.305
69.27000 43657.273
69.28000 41493.797
69.29000 38690.250
69.30000 36656.320
69.31000 35228.551
69.32000 34472.281
69.33000 33716.691
69.34000 32999.695
69.35000 32310.609
69.36000 31634.908
69.37000 30469.900
69.38000 29117.297
69.39000 27708.090
69.40000 25451.313
69.41000 22910.633
69.42000 20343.588
69.43000 17554.539
69.44000 14715.321
69.45000 12277.658
69.46000 10024.429
69.47000 8142.272
69.48000 6431.755
69.49000 5326.056
69.50000 4273.066
69.51000 3394.556
69.52000 2935.352
69.53000 2494.517
69.54000 2219.215
69.55000 1961.786
69.56000 1776.285
69.57000 1636.874
69.58000 1547.687
69.59000 1458.653
69.60000 1388.380
69.61000 1331.467
69.62000 1275.708
69.63000 1221.297
69.64000 1169.598
69.65000 1118.401
69.66000 1074.553
69.67000 1033.131
69.68000 993.348
69.69000 967.100
69.70000 943.865
69.71000 923.968
69.72000 898.852
69.73000 877.025
69.74000 856.246
69.75000 839.110
69.76000 822.284
69.77000 804.435
69.78000 784.162
69.79000 763.785
69.80000 751.136
69.81000 731.441
69.82000 717.198
69.83000 705.160
69.84000 695.484
69.85000 685.823
69.86000 677.898
69.87000 671.192
69.88000 664.628
69.89000 654.624
69.90000 643.445
69.91000 632.553
69.92000 625.734
69.93000 620.241
69.94000 613.905
69.95000 600.743
69.96000 586.086
69.97000 573.569
69.98000 574.886
69.99000 577.641
70.00000 579.382
