20.00000 512.445
20.01000 501.691
20.02000 489.401
20.03000 479.915
20.04000 481.495
20.05000 484.206
20.06000 486.208
20.07000 481.480
20.08000 477.530
20.09000 478.884
20.10000 489.951
20.11000 501.225
20.12000 503.536
20.13000 494.822
20.14000 486.093
20.15000 482.740
20.16000 483.683
20.17000 484.604
20.18000 484.501
20.19000 483.847
20.20000 483.142
20.21000 481.533
20.22000 479.592
20.23000 477.800
20.24000 479.700
20.25000 482.228
20.26000 484.846
20.27000 487.984
20.28000 491.208
20.29000 493.947
20.30000 494.802
20.31000 495.469
20.32000 495.959
20.33000 488.477
20.34000 482.362
20.35000 480.099
20.36000 484.787
20.37000 489.618
20.38000 493.237
20.39000 495.390
20.40000 497.536
20.41000 503.241
20.42000 511.708
20.43000 519.802
20.44000 511.976
20.45000 495.707
20.46000 480.240
20.47000 478.656
20.48000 482.108
20.49000 485.288
20.50000 483.539
20.51000 480.889
20.52000 478.823
20.53000 480.139
20.54000 481.999
20.55000 483.783
20.56000 485.272
20.57000 486.733
20.58000 487.803
20.59000 491.766
20.60000 494.940
20.61000 494.781
20.62000 488.694
20.63000 482.492
20.64000 475.566
20.65000 467.779
20.66000 460.008
20.67000 460.143
20.68000 466.373
20.69000 472.592
20.70000 478.360
20.71000 483.893
20.72000 489.117
20.73000 489.161
20.74000 487.353
20.75000 485.690
20.76000 484.935
20.77000 484.457
20.78000 484.822
20.79000 489.999
20.80000 495.938
20.81000 500.128
20.82000 497.724
20.83000 494.687
20.84000 492.473
20.85000 497.853
20.86000 502.293
20.87000 502.580
20.88000 495.593
20.89000 488.471
20.90000 486.858
20.91000 491.703
20.92000 496.546
20.93000 499.668
20.94000 501.464
20.95000 503.199
20.96000 502.545
20.97000 500.660
20.98000 498.561
20.99000 492.963
21.00000 486.132
21.01000 479.862
21.02000 480.008
21.03000 481.503
21.04000 483.415
21.05000 487.665
21.06000 492.278
21.07000 496.984
21.08000 502.038
21.09000 507.124
21.10000 510.817
21.11000 500.499
21.12000 492.041
21.13000 486.956
21.14000 487.694
21.15000 488.534
21.16000 489.036
21.17000 489.149
21.18000 489.261
21.19000 489.099
21.20000 488.735
21.21000 488.310
21.22000 485.617
21.23000 481.773
21.24000 478.236
21.25000 479.595
21.26000 482.654
21.27000 485.457
21.28000 484.300
21.29000 482.443
21.30000 480.553
21.31000 478.487
21.32000 476.394
21.33000 476.340
21.34000 483.745
21.35000 491.837
21.36000 497.687
21.37000 497.177
21.38000 496.556
21.39000 498.252
21.40000 503.893
21.41000 509.600
21.42000 510.887
21.43000 507.158
21.44000 503.435
21.45000 496.414
21.46000 487.024
21.47000 478.030
21.48000 483.240
21.49000 495.558
21.50000 506.786
21.51000 501.070
21.52000 489.554
21.53000 479.024
21.54000 478.101
21.55000 479.256
21.56000 480.263
21.57000 480.475
21.58000 480.567
21.59000 481.295
21.60000 484.310
21.61000 487.531
21.62000 489.849
21.63000 507.506
21.64000 521.564
21.65000 526.680
21.66000 516.807
21.67000 506.699
21.68000 506.590
21.69000 517.649
21.70000 528.677
21.71000 531.729
21.72000 528.995
21.73000 526.549
21.74000 534.109
21.75000 546.602
21.76000 558.629
21.77000 563.577
21.78000 566.138
21.79000 568.476
21.80000 585.513
21.81000 603.596
21.82000 619.724
21.83000 625.413
21.84000 629.561
21.85000 633.559
21.86000 637.025
21.87000 640.444
21.88000 642.893
21.89000 645.167
21.90000 646.898
21.91000 655.165
21.92000 674.224
21.93000 693.444
21.94000 707.654
21.95000 716.362
21.96000 725.033
21.97000 726.262
21.98000 722.190
21.99000 718.283
22.00000 719.843
22.01000 724.060
22.02000 728.200
22.03000 731.197
22.04000 733.813
22.05000 736.196
22.06000 720.022
22.07000 702.015
22.08000 688.185
22.09000 696.297
22.10000 707.588
22.11000 712.893
22.12000 697.260
22.13000 679.824
22.14000 667.386
22.15000 656.175
22.16000 647.666
22.17000 642.040
22.18000 641.104
22.19000 640.234
22.20000 626.622
22.21000 599.244
22.22000 571.977
22.23000 561.022
22.24000 561.587
22.25000 561.969
22.26000 556.519
22.27000 548.276
22.28000 540.483
22.29000 539.193
22.30000 540.034
22.31000 540.798
22.32000 538.700
22.33000 536.287
22.34000 534.084
22.35000 532.962
22.36000 531.993
22.37000 529.203
22.38000 520.133
22.39000 510.535
22.40000 503.720
22.41000 502.677
22.42000 502.066
22.43000 498.730
22.44000 491.025
22.45000 483.262
22.46000 478.197
22.47000 476.000
22.48000 473.814
22.49000 472.611
22.50000 472.098
22.51000 471.546
22.52000 469.792
22.53000 467.469
22.54000 465.573
22.55000 469.661
22.56000 475.682
22.57000 481.144
22.58000 479.226
22.59000 476.119
22.60000 473.162
22.61000 470.967
22.62000 468.880
22.63000 466.638
22.64000 463.873
22.65000 461.065
22.66000 459.080
22.67000 449.870
22.68000 442.655
22.69000 442.048
22.70000 451.874
22.71000 461.829
22.72000 464.909
22.73000 460.803
22.74000 456.717
22.75000 460.768
22.76000 470.282
22.77000 479.367
22.78000 475.752
22.79000 466.227
22.80000 457.167
22.81000 454.499
22.82000 453.863
22.83000 453.288
22.84000 452.190
22.85000 451.123
22.86000 450.460
22.87000 451.816
22.88000 453.449
22.89000 454.154
22.90000 451.754
22.91000 449.104
22.92000 447.239
22.93000 450.150
22.94000 452.496
22.95000 451.794
22.96000 446.349
22.97000 440.850
22.98000 438.413
22.99000 439.124
23.00000 439.832
23.01000 445.222
23.02000 453.662
23.03000 461.800
23.04000 461.257
23.05000 456.733
23.06000 452.488
23.07000 451.997
23.08000 452.682
23.09000 453.301
23.10000 450.051
23.11000 446.477
23.12000 443.434
23.13000 443.002
23.14000 442.922
23.15000 443.638
23.16000 446.979
23.17000 450.526
23.18000 453.009
23.19000 448.757
23.20000 445.348
23.21000 444.589
23.22000 447.887
23.23000 451.229
23.24000 449.506
23.25000 442.667
23.26000 435.869
23.27000 432.927
23.28000 432.555
23.29000 432.344
23.30000 436.622
23.31000 442.928
23.32000 448.881
23.33000 450.206
23.34000 450.102
23.35000 450.008
23.36000 452.789
23.37000 455.752
23.38000 457.313
23.39000 452.087
23.40000 445.962
23.41000 441.958
23.42000 444.842
23.43000 448.256
23.44000 450.634
23.45000 441.292
23.46000 433.919
23.47000 433.713
23.48000 444.324
23.49000 455.043
23.50000 457.344
23.51000 451.283
23.52000 445.260
23.53000 445.351
23.54000 449.386
23.55000 453.202
23.56000 451.165
23.57000 446.519
23.58000 442.136
23.59000 441.118
23.60000 441.124
23.61000 441.130
23.62000 435.346
23.63000 429.244
23.64000 424.583
23.65000 426.792
23.66000 429.894
23.67000 433.950
23.68000 441.059
23.69000 448.397
23.70000 453.487
23.71000 453.219
23.72000 452.875
23.73000 448.154
23.74000 436.926
23.75000 425.637
23.76000 421.630
23.77000 424.733
23.78000 427.816
23.79000 426.782
23.80000 423.151
23.81000 419.796
23.82000 423.573
23.83000 430.482
23.84000 437.192
23.85000 441.413
23.86000 444.888
23.87000 448.007
23.88000 445.285
23.89000 441.878
23.90000 438.699
23.91000 436.585
23.92000 434.608
23.93000 432.686
23.94000 430.941
23.95000 429.208
23.96000 428.011
23.97000 429.565
23.98000 430.803
23.99000 433.561
24.00000 438.546
24.01000 443.548
24.02000 441.284
24.03000 432.040
24.04000 422.864
24.05000 419.304
24.06000 419.312
24.07000 419.484
24.08000 423.763
24.09000 429.820
24.10000 435.208
24.11000 432.433
24.12000 427.246
24.13000 422.599
24.14000 425.419
24.15000 429.169
24.16000 432.779
24.17000 435.752
24.18000 438.644
24.19000 439.665
24.20000 434.869
24.21000 429.658
24.22000 426.078
24.23000 430.966
24.24000 434.839
24.25000 436.500
24.26000 434.971
24.27000 433.415
24.28000 431.034
24.29000 427.873
24.30000 424.738
24.31000 424.512
24.32000 426.081
24.33000 427.669
24.34000 429.728
24.35000 431.988
24.36000 433.629
24.37000 427.881
24.38000 419.981
24.39000 412.920
24.40000 414.351
24.41000 417.036
24.42000 418.635
24.43000 415.296
24.44000 411.351
24.45000 408.950
24.46000 411.276
24.47000 413.932
24.48000 415.747
24.49000 423.947
24.50000 430.233
24.51000 431.677
24.52000 426.245
24.53000 420.762
24.54000 418.057
24.55000 417.931
24.56000 417.805
24.57000 424.462
24.58000 435.098
24.59000 445.033
24.60000 438.559
24.61000 425.185
24.62000 412.725
24.63000 410.931
24.64000 412.198
24.65000 413.327
24.66000 419.252
24.67000 425.204
24.68000 430.288
24.69000 431.482
24.70000 432.208
24.71000 431.356
24.72000 425.747
24.73000 419.813
24.74000 415.777
24.75000 415.460
24.76000 415.308
24.77000 414.311
24.78000 412.131
24.79000 409.945
24.80000 410.089
24.81000 412.364
24.82000 414.618
24.83000 413.999
24.84000 411.680
24.85000 409.312
24.86000 405.799
24.87000 401.812
24.88000 399.157
24.89000 411.700
24.90000 428.539
24.91000 443.524
24.92000 440.084
24.93000 434.089
24.94000 428.358
24.95000 423.792
24.96000 419.363
24.97000 415.154
24.98000 411.601
24.99000 408.090
25.00000 405.714
25.01000 402.075
25.02000 399.335
25.03000 402.096
25.04000 412.433
25.05000 422.812
25.06000 425.716
25.07000 421.903
25.08000 418.127
25.09000 415.827
25.10000 414.441
25.11000 413.295
25.12000 417.427
25.13000 423.715
25.14000 428.928
25.15000 422.137
25.16000 412.004
25.17000 403.007
25.18000 400.403
25.19000 399.171
25.20000 398.565
25.21000 400.675
25.22000 403.100
25.23000 405.814
25.24000 409.377
25.25000 412.995
25.26000 415.431
25.27000 415.891
25.28000 416.192
25.29000 415.484
25.30000 413.407
25.31000 411.325
25.32000 411.968
25.33000 415.022
25.34000 418.044
25.35000 413.385
25.36000 404.396
25.37000 395.729
25.38000 393.921
25.39000 394.876
25.40000 396.089
25.41000 400.124
25.42000 404.933
25.43000 409.193
25.44000 409.087
25.45000 408.308
25.46000 407.979
25.47000 409.577
25.48000 411.393
25.49000 412.686
25.50000 412.464
25.51000 412.147
25.52000 411.935
25.53000 401.428
25.54000 393.427
25.55000 394.785
25.56000 408.639
25.57000 422.540
25.58000 423.782
25.59000 414.011
25.60000 404.347
25.61000 398.828
25.62000 395.790
25.63000 392.942
25.64000 393.992
25.65000 396.591
25.66000 399.382
25.67000 404.233
25.68000 409.641
25.69000 414.421
25.70000 413.140
25.71000 411.097
25.72000 409.060
25.73000 407.043
25.74000 405.028
25.75000 404.056
25.76000 406.053
25.77000 408.231
25.78000 409.684
25.79000 405.408
25.80000 402.133
25.81000 403.569
25.82000 411.197
25.83000 418.842
25.84000 418.588
25.85000 411.574
25.86000 404.641
25.87000 407.307
25.88000 415.275
25.89000 422.974
25.90000 425.313
25.91000 425.553
25.92000 425.185
25.93000 418.449
25.94000 410.018
25.95000 402.583
25.96000 395.225
25.97000 388.893
25.98000 386.137
25.99000 398.201
26.00000 411.882
26.01000 420.300
26.02000 413.951
26.03000 406.719
26.04000 401.925
26.05000 401.654
26.06000 401.536
26.07000 402.542
26.08000 405.001
26.09000 407.460
26.10000 406.119
26.11000 401.577
26.12000 397.090
26.13000 393.964
26.14000 391.664
26.15000 389.589
26.16000 391.867
26.17000 395.824
26.18000 399.789
26.19000 403.831
26.20000 407.892
26.21000 411.465
26.22000 406.484
26.23000 400.923
26.24000 395.318
26.25000 389.531
26.26000 383.725
26.27000 380.844
26.28000 386.052
26.29000 391.731
26.30000 395.476
26.31000 384.655
26.32000 376.425
26.33000 380.462
26.34000 400.126
26.35000 419.808
26.36000 421.548
26.37000 408.416
26.38000 395.452
26.39000 391.035
26.40000 391.362
26.41000 391.724
26.42000 392.776
26.43000 394.090
26.44000 394.920
26.45000 390.899
26.46000 385.626
26.47000 380.998
26.48000 391.723
26.49000 403.180
26.50000 411.593
26.51000 407.774
26.52000 402.672
26.53000 398.078
26.54000 394.867
26.55000 391.735
26.56000 389.680
26.57000 394.371
26.58000 397.934
26.59000 401.816
26.60000 406.098
26.61000 410.368
26.62000 409.362
26.63000 404.051
26.64000 398.813
26.65000 389.990
26.66000 379.500
26.67000 369.947
26.68000 377.605
26.69000 391.710
26.70000 404.537
26.71000 404.800
26.72000 401.867
26.73000 399.300
26.74000 399.258
26.75000 399.584
26.76000 399.745
26.77000 399.252
26.78000 398.692
26.79000 397.808
26.80000 396.054
26.81000 394.252
26.82000 393.076
26.83000 402.590
26.84000 409.741
26.85000 408.912
26.86000 398.233
26.87000 387.545
26.88000 382.940
26.89000 383.217
26.90000 383.491
26.91000 383.491
26.92000 383.346
26.93000 383.154
26.94000 382.102
26.95000 380.734
26.96000 379.749
26.97000 382.457
26.98000 386.092
26.99000 389.265
27.00000 387.408
27.01000 385.111
27.02000 383.134
27.03000 382.405
27.04000 381.802
27.05000 382.800
27.06000 388.040
27.07000 393.507
27.08000 397.054
27.09000 396.062
27.10000 395.266
27.11000 392.874
27.12000 388.543
27.13000 384.226
27.14000 385.734
27.15000 391.845
27.16000 397.865
27.17000 398.850
27.18000 397.206
27.19000 395.396
27.20000 390.681
27.21000 384.909
27.22000 379.999
27.23000 383.214
27.24000 388.433
27.25000 392.980
27.26000 386.074
27.27000 378.593
27.28000 373.209
27.29000 375.879
27.30000 379.343
27.31000 383.537
27.32000 389.639
27.33000 395.839
27.34000 399.840
27.35000 398.045
27.36000 396.651
27.37000 392.920
27.38000 386.396
27.39000 379.873
27.40000 375.168
27.41000 371.878
27.42000 368.638
27.43000 372.456
27.44000 379.739
27.45000 386.555
27.46000 385.469
27.47000 381.549
27.48000 378.645
27.49000 385.128
27.50000 393.892
27.51000 401.508
27.52000 402.770
27.53000 402.985
27.54000 402.622
27.55000 400.079
27.56000 397.325
27.57000 394.364
27.58000 390.870
27.59000 387.349
27.60000 385.090
27.61000 382.564
27.62000 380.718
27.63000 375.762
27.64000 367.148
27.65000 358.584
27.66000 362.794
27.67000 376.789
27.68000 390.553
27.69000 389.684
27.70000 381.525
27.71000 374.190
27.72000 380.425
27.73000 391.457
27.74000 400.800
27.75000 394.840
27.76000 385.218
27.77000 376.878
27.78000 381.618
27.79000 387.391
27.80000 392.160
27.81000 393.188
27.82000 393.861
27.83000 392.877
27.84000 387.687
27.85000 382.291
27.86000 378.848
27.87000 375.778
27.88000 373.549
27.89000 371.590
27.90000 369.943
27.91000 368.294
27.92000 365.997
27.93000 363.213
27.94000 360.477
27.95000 362.008
27.96000 365.588
27.97000 369.152
27.98000 372.446
27.99000 375.646
28.00000 378.857
28.01000 382.169
28.02000 385.504
28.03000 388.388
28.04000 383.417
28.05000 378.169
28.06000 373.876
28.07000 373.090
28.08000 372.628
28.09000 373.570
28.10000 378.020
28.11000 382.636
28.12000 385.565
28.13000 381.730
28.14000 378.864
28.15000 378.098
28.16000 379.723
28.17000 381.358
28.18000 384.207
28.19000 387.960
28.20000 391.644
28.21000 393.374
28.22000 394.096
28.23000 394.579
28.24000 391.323
28.25000 386.783
28.26000 382.919
28.27000 384.941
28.28000 388.329
28.29000 391.250
28.30000 384.518
28.31000 377.574
28.32000 373.023
28.33000 377.126
28.34000 382.012
28.35000 387.149
28.36000 392.904
28.37000 398.687
28.38000 402.335
28.39000 396.434
28.40000 392.052
28.41000 389.742
28.42000 389.756
28.43000 389.734
28.44000 383.230
28.45000 371.988
28.46000 360.957
28.47000 363.301
28.48000 371.937
28.49000 379.961
28.50000 378.662
28.51000 374.208
28.52000 370.123
28.53000 369.199
28.54000 368.997
28.55000 368.823
28.56000 376.586
28.57000 384.153
28.58000 388.499
28.59000 381.378
28.60000 373.242
28.61000 368.367
28.62000 371.408
28.63000 374.804
28.64000 376.933
28.65000 376.181
28.66000 375.607
28.67000 375.297
28.68000 375.279
28.69000 375.250
28.70000 373.496
28.71000 370.499
28.72000 367.562
28.73000 368.487
28.74000 371.191
28.75000 373.623
28.76000 372.023
28.77000 369.077
28.78000 366.594
28.79000 367.975
28.80000 370.225
28.81000 372.156
28.82000 374.137
28.83000 375.817
28.84000 376.034
28.85000 371.118
28.86000 365.757
28.87000 363.337
28.88000 367.955
28.89000 372.877
28.90000 375.946
28.91000 370.011
28.92000 365.642
28.93000 361.645
28.94000 358.052
28.95000 354.497
28.96000 356.249
28.97000 361.763
28.98000 367.164
28.99000 367.939
29.00000 366.547
29.01000 365.242
29.02000 365.194
29.03000 365.560
29.04000 366.234
29.05000 369.443
29.06000 373.213
29.07000 376.438
29.08000 376.860
29.09000 376.879
29.10000 376.810
29.11000 376.440
29.12000 376.044
29.13000 374.243
29.14000 369.126
29.15000 363.870
29.16000 360.613
29.17000 362.863
29.18000 364.534
29.19000 367.113
29.20000 370.660
29.21000 374.179
29.22000 373.960
29.23000 371.133
29.24000 368.366
29.25000 364.879
29.26000 361.205
29.27000 357.892
29.28000 359.690
29.29000 363.143
29.30000 366.388
29.31000 367.958
29.32000 369.162
29.33000 370.190
29.34000 366.253
29.35000 362.353
29.36000 358.158
29.37000 352.962
29.38000 347.683
29.39000 347.031
29.40000 357.137
29.41000 367.680
29.42000 374.174
29.43000 368.291
29.44000 363.959
29.45000 364.930
29.46000 371.465
29.47000 377.981
29.48000 382.254
29.49000 384.984
29.50000 387.653
29.51000 385.766
29.52000 381.918
29.53000 377.689
29.54000 368.208
29.55000 357.051
29.56000 347.624
29.57000 351.879
29.58000 359.069
29.59000 365.188
29.60000 373.413
29.61000 380.568
29.62000 386.280
29.63000 387.149
29.64000 387.627
29.65000 387.746
29.66000 387.044
29.67000 386.309
29.68000 385.859
29.69000 383.359
29.70000 381.552
29.71000 382.703
29.72000 386.907
29.73000 391.089
29.74000 392.911
29.75000 393.135
29.76000 393.354
29.77000 406.331
29.78000 424.374
29.79000 440.634
29.80000 432.882
29.81000 417.578
29.82000 405.516
29.83000 418.608
29.84000 437.013
29.85000 452.633
29.86000 460.415
29.87000 466.052
29.88000 470.540
29.89000 471.229
29.90000 471.617
29.91000 474.280
29.92000 482.080
29.93000 490.075
29.94000 494.941
29.95000 494.387
29.96000 493.950
29.97000 497.610
29.98000 505.426
29.99000 513.190
30.00000 515.697
30.01000 514.697
30.02000 513.721
30.03000 515.248
30.04000 517.793
30.05000 519.506
30.06000 510.264
30.07000 497.627
30.08000 486.594
30.09000 487.772
30.10000 491.489
30.11000 494.634
30.12000 487.162
30.13000 479.725
30.14000 474.236
30.15000 475.093
30.16000 476.440
30.17000 476.855
30.18000 475.196
30.19000 473.460
30.20000 472.410
30.21000 461.906
30.22000 454.352
30.23000 450.164
30.24000 449.332
30.25000 448.514
30.26000 449.107
30.27000 450.628
30.28000 452.110
30.29000 450.455
30.30000 447.536
30.31000 444.522
30.32000 440.296
30.33000 435.700
30.34000 430.796
30.35000 423.584
30.36000 415.900
30.37000 409.416
30.38000 406.630
30.39000 404.706
30.40000 402.951
30.41000 401.738
30.42000 400.567
30.43000 398.902
30.44000 396.153
30.45000 393.365
30.46000 391.690
30.47000 393.767
30.48000 395.268
30.49000 394.416
30.50000 391.255
30.51000 388.144
30.52000 389.469
30.53000 393.663
30.54000 397.748
30.55000 397.993
30.56000 396.615
30.57000 395.606
30.58000 399.248
30.59000 404.290
30.60000 409.031
30.61000 411.561
30.62000 413.647
30.63000 415.402
30.64000 408.401
30.65000 401.628
30.66000 398.239
30.67000 405.559
30.68000 413.668
30.69000 417.563
30.70000 412.347
30.71000 406.819
30.72000 403.519
30.73000 408.448
30.74000 411.996
30.75000 415.617
30.76000 419.309
30.77000 423.017
30.78000 428.076
30.79000 433.996
30.80000 439.756
30.81000 447.997
30.82000 456.868
30.83000 464.924
30.84000 462.994
30.85000 458.104
30.86000 453.500
30.87000 450.968
30.88000 448.847
30.89000 447.067
30.90000 466.967
30.91000 485.801
30.92000 502.962
30.93000 514.905
30.94000 526.474
30.95000 535.282
30.96000 538.205
30.97000 540.933
30.98000 542.552
30.99000 578.542
31.00000 604.207
31.01000 640.519
31.02000 686.924
31.03000 733.286
31.04000 776.323
31.05000 817.273
31.06000 857.075
31.07000 931.756
31.08000 1016.938
31.09000 1103.235
31.10000 1202.904
31.11000 1306.481
31.12000 1410.763
31.13000 1520.039
31.14000 1630.290
31.15000 1722.539
31.16000 1890.343
31.17000 2037.510
31.18000 2192.708
31.19000 2372.579
31.20000 2554.180
31.21000 2737.177
31.22000 2923.105
31.23000 3109.127
31.24000 3218.770
31.25000 3445.364
31.26000 3605.917
31.27000 3752.497
31.28000 3886.049
31.29000 4019.376
31.30000 4136.195
31.31000 4242.800
31.32000 4346.311
31.33000 4411.680
31.34000 4458.455
31.35000 4502.470
31.36000 4514.144
31.37000 4516.508
31.38000 4508.764
31.39000 4430.749
31.40000 4339.257
31.41000 4262.925
31.42000 4171.913
31.43000 4094.961
31.44000 3989.098
31.45000 3795.715
31.46000 3596.346
31.47000 3399.472
31.48000 3207.762
31.49000 3016.211
31.50000 2904.048
31.51000 2677.595
31.52000 2517.581
31.53000 2351.502
31.54000 2179.862
31.55000 2008.600
31.56000 1863.495
31.57000 1734.333
31.58000 1609.054
31.59000 1508.827
31.60000 1423.704
31.61000 1337.701
31.62000 1241.617
31.63000 1142.673
31.64000 1048.663
31.65000 988.337
31.66000 934.366
31.67000 889.472
31.68000 831.391
31.69000 782.019
31.70000 739.157
31.71000 715.716
31.72000 693.571
31.73000 666.561
31.74000 629.623
31.75000 592.393
31.76000 570.737
31.77000 548.380
31.78000 532.672
31.79000 516.560
31.80000 500.085
31.81000 483.770
31.82000 477.863
31.83000 478.207
31.84000 478.540
31.85000 464.212
31.86000 444.965
31.87000 427.501
31.88000 430.030
31.89000 438.145
31.90000 443.829
31.91000 433.201
31.92000 419.547
31.93000 408.222
31.94000 407.351
31.95000 407.636
31.96000 403.472
31.97000 386.227
31.98000 368.131
31.99000 358.978
32.00000 367.812
32.01000 377.154
32.02000 382.552
32.03000 375.940
32.04000 371.262
32.05000 370.337
32.06000 372.742
32.07000 375.085
32.08000 373.598
32.09000 369.846
32.10000 366.214
32.11000 365.500
32.12000 365.939
32.13000 366.075
32.14000 362.871
32.15000 358.750
32.16000 355.721
32.17000 359.900
32.18000 365.394
32.19000 369.937
32.20000 365.278
32.21000 360.569
32.22000 356.148
32.23000 352.555
32.24000 349.015
32.25000 346.578
32.26000 346.325
32.27000 346.131
32.28000 346.020
32.29000 349.450
32.30000 351.856
32.31000 350.635
32.32000 346.248
32.33000 341.899
32.34000 339.738
32.35000 338.853
32.36000 337.998
32.37000 346.224
32.38000 357.399
32.39000 367.303
32.40000 363.571
32.41000 356.141
32.42000 349.172
32.43000 345.184
32.44000 341.730
32.45000 338.884
32.46000 344.976
32.47000 350.814
32.48000 353.676
32.49000 348.038
32.50000 341.876
32.51000 337.750
32.52000 337.600
32.53000 337.553
32.54000 337.527
32.55000 344.120
32.56000 348.731
32.57000 347.538
32.58000 341.360
32.59000 335.218
32.60000 331.085
32.61000 328.107
32.62000 325.230
32.63000 326.919
32.64000 330.197
32.65000 333.111
32.66000 332.194
32.67000 330.254
32.68000 328.233
32.69000 325.690
32.70000 323.056
32.71000 320.891
32.72000 323.651
32.73000 326.362
32.74000 329.495
32.75000 333.813
32.76000 338.203
32.77000 342.332
32.78000 345.962
32.79000 349.579
32.80000 351.625
32.81000 346.995
32.82000 343.756
32.83000 341.013
32.84000 338.689
32.85000 336.412
32.86000 336.572
32.87000 338.112
32.88000 339.597
32.89000 334.886
32.90000 328.200
32.91000 322.200
32.92000 323.245
32.93000 326.145
32.94000 327.906
32.95000 322.537
32.96000 315.931
32.97000 310.519
32.98000 307.840
32.99000 305.884
33.00000 304.711
33.01000 305.710
33.02000 306.835
33.03000 310.249
33.04000 318.005
33.05000 325.864
33.06000 330.280
33.07000 321.109
33.08000 314.723
33.09000 314.006
33.10000 318.005
33.11000 321.887
33.12000 319.914
33.13000 314.676
33.14000 309.629
33.15000 306.907
33.16000 305.183
33.17000 303.996
33.18000 308.216
33.19000 313.837
33.20000 318.670
33.21000 318.658
33.22000 317.818
33.23000 317.132
33.24000 315.074
33.25000 313.272
33.26000 310.453
33.27000 304.853
33.28000 299.095
33.29000 298.720
33.30000 308.410
33.31000 318.330
33.32000 323.865
33.33000 321.195
33.34000 319.323
33.35000 314.848
33.36000 308.244
33.37000 301.789
33.38000 302.454
33.39000 307.033
33.40000 311.438
33.41000 311.046
33.42000 308.988
33.43000 307.469
33.44000 311.272
33.45000 316.433
33.46000 320.411
33.47000 317.242
33.48000 312.872
33.49000 309.315
33.50000 306.449
33.51000 304.165
33.52000 303.797
33.53000 308.589
33.54000 313.666
33.55000 316.576
33.56000 315.491
33.57000 314.319
33.58000 313.669
33.59000 311.904
33.60000 310.684
33.61000 309.835
33.62000 309.284
33.63000 308.725
33.64000 307.740
33.65000 306.525
33.66000 305.358
33.67000 303.793
33.68000 302.189
33.69000 300.667
33.70000 299.930
33.71000 299.390
33.72000 298.863
33.73000 298.413
33.74000 297.976
33.75000 297.621
33.76000 298.575
33.77000 299.460
33.78000 301.265
33.79000 305.515
33.80000 309.896
33.81000 312.377
33.82000 311.405
33.83000 310.361
33.84000 309.787
33.85000 300.890
33.86000 294.758
33.87000 291.215
33.88000 289.726
33.89000 288.368
33.90000 292.734
33.91000 300.153
33.92000 307.275
33.93000 310.437
33.94000 312.043
33.95000 313.174
33.96000 309.814
33.97000 305.341
33.98000 301.823
33.99000 303.883
34.00000 306.848
34.01000 309.246
34.02000 306.399
34.03000 303.660
34.04000 302.417
34.05000 305.092
34.06000 307.973
34.07000 306.662
34.08000 297.852
34.09000 288.892
34.10000 284.002
34.11000 288.624
34.12000 291.799
34.13000 291.466
34.14000 288.395
34.15000 285.384
34.16000 284.859
34.17000 285.642
34.18000 286.393
34.19000 288.586
34.20000 291.118
34.21000 293.818
34.22000 298.083
34.23000 302.730
34.24000 305.687
34.25000 298.940
34.26000 290.645
34.27000 283.957
34.28000 286.904
34.29000 290.056
34.30000 291.916
34.31000 290.444
34.32000 288.803
34.33000 289.844
34.34000 295.615
34.35000 301.476
34.36000 304.652
34.37000 302.693
34.38000 301.347
34.39000 300.584
34.40000 300.269
34.41000 299.812
34.42000 293.694
34.43000 284.641
34.44000 275.974
34.45000 276.911
34.46000 280.960
34.47000 284.847
34.48000 287.273
34.49000 289.347
34.50000 291.176
34.51000 291.616
34.52000 291.839
34.53000 292.018
34.54000 297.252
34.55000 301.882
34.56000 303.158
34.57000 295.903
34.58000 288.227
34.59000 286.555
34.60000 295.316
34.61000 304.265
34.62000 309.077
34.63000 296.455
34.64000 287.836
34.65000 283.971
34.66000 283.703
34.67000 283.542
34.68000 287.450
34.69000 293.439
34.70000 299.164
34.71000 299.781
34.72000 298.693
34.73000 296.922
34.74000 289.060
34.75000 279.756
34.76000 272.681
34.77000 277.987
34.78000 285.200
34.79000 290.977
34.80000 288.951
34.81000 286.725
34.82000 284.893
34.83000 284.049
34.84000 283.253
34.85000 283.851
34.86000 286.834
34.87000 289.858
34.88000 291.472
34.89000 293.568
34.90000 294.997
34.91000 296.446
34.92000 297.911
34.93000 299.430
34.94000 302.904
34.95000 307.363
34.96000 311.621
34.97000 302.985
34.98000 290.835
34.99000 279.964
35.00000 280.286
35.01000 283.214
35.02000 285.306
35.03000 282.829
35.04000 279.661
35.05000 277.132
35.06000 276.109
35.07000 275.394
35.08000 277.295
35.09000 285.661
35.10000 294.327
35.11000 297.570
35.12000 291.666
35.13000 285.613
35.14000 282.409
35.15000 281.172
35.16000 280.336
35.17000 280.240
35.18000 280.687
35.19000 281.127
35.20000 281.351
35.21000 281.469
35.22000 281.581
35.23000 281.644
35.24000 281.688
35.25000 281.576
35.26000 280.131
35.27000 278.381
35.28000 276.986
35.29000 277.501
35.30000 278.301
35.31000 278.937
35.32000 280.082
35.33000 281.042
35.34000 282.385
35.35000 284.666
35.36000 286.988
35.37000 290.342
35.38000 295.409
35.39000 300.503
35.40000 303.179
35.41000 283.800
35.42000 270.709
35.43000 266.113
35.44000 267.654
35.45000 269.209
35.46000 271.249
35.47000 273.525
35.48000 275.692
35.49000 276.621
35.50000 277.097
35.51000 277.551
35.52000 277.810
35.53000 278.026
35.54000 277.391
35.55000 272.260
35.56000 266.472
35.57000 261.883
35.58000 267.301
35.59000 272.360
35.60000 276.342
35.61000 277.742
35.62000 279.029
35.63000 275.797
35.64000 265.166
35.65000 254.428
35.66000 248.831
35.67000 263.563
35.68000 273.486
35.69000 277.386
35.70000 277.002
35.71000 276.643
35.72000 277.105
35.73000 277.963
35.74000 278.778
35.75000 273.412
35.76000 266.567
35.77000 260.340
35.78000 259.218
35.79000 259.230
35.80000 260.189
35.81000 266.072
35.82000 272.662
35.83000 277.869
35.84000 277.695
35.85000 277.188
35.86000 276.552
35.87000 275.610
35.88000 274.654
35.89000 272.782
35.90000 269.431
35.91000 266.059
35.92000 264.316
35.93000 269.479
35.94000 272.962
35.95000 276.438
35.96000 279.910
35.97000 283.195
35.98000 280.651
35.99000 275.339
36.00000 270.294
36.01000 270.587
36.02000 272.459
36.03000 273.628
36.04000 269.109
36.05000 263.345
36.06000 258.185
36.07000 256.113
36.08000 254.476
36.09000 253.188
36.10000 258.486
36.11000 263.171
36.12000 266.532
36.13000 266.806
36.14000 266.953
36.15000 267.860
36.16000 269.972
36.17000 272.099
36.18000 273.190
36.19000 275.748
36.20000 277.446
36.21000 276.386
36.22000 273.424
36.23000 270.475
36.24000 267.922
36.25000 265.554
36.26000 263.309
36.27000 262.667
36.28000 262.548
36.29000 262.289
36.30000 260.915
36.31000 259.300
36.32000 257.838
36.33000 257.138
36.34000 256.544
36.35000 256.078
36.36000 263.981
36.37000 270.845
36.38000 276.131
36.39000 277.791
36.40000 279.308
36.41000 279.229
36.42000 276.653
36.43000 274.048
36.44000 272.722
36.45000 264.294
36.46000 258.698
36.47000 259.317
36.48000 264.157
36.49000 268.964
36.50000 272.818
36.51000 276.231
36.52000 279.463
36.53000 280.663
36.54000 281.177
36.55000 280.955
36.56000 275.001
36.57000 267.833
36.58000 261.802
36.59000 261.411
36.60000 261.787
36.61000 262.080
36.62000 274.842
36.63000 285.816
36.64000 291.632
36.65000 285.762
36.66000 279.443
36.67000 272.654
36.68000 265.139
36.69000 257.615
36.70000 253.820
36.71000 262.683
36.72000 268.573
36.73000 270.680
36.74000 270.256
36.75000 269.873
36.76000 270.635
36.77000 271.919
36.78000 273.132
36.79000 275.259
36.80000 277.475
36.81000 279.610
36.82000 281.128
36.83000 282.517
36.84000 283.671
36.85000 283.677
36.86000 283.530
36.87000 283.415
36.88000 290.040
36.89000 295.732
36.90000 297.001
36.91000 288.389
36.92000 279.411
36.93000 275.382
36.94000 278.872
36.95000 282.440
36.96000 284.225
36.97000 283.563
36.98000 283.098
36.99000 280.348
37.00000 276.093
37.01000 272.060
37.02000 274.057
37.03000 278.758
37.04000 283.195
37.05000 286.329
37.06000 288.837
37.07000 290.115
37.08000 282.161
37.09000 272.312
37.10000 264.244
37.11000 264.725
37.12000 266.326
37.13000 267.569
37.14000 268.611
37.15000 269.428
37.16000 271.233
37.17000 275.212
37.18000 279.270
37.19000 279.550
37.20000 274.177
37.21000 268.750
37.22000 265.958
37.23000 265.758
37.24000 265.559
37.25000 265.391
37.26000 265.244
37.27000 265.094
37.28000 264.890
37.29000 264.660
37.30000 264.444
37.31000 268.138
37.32000 272.602
37.33000 275.848
37.34000 270.122
37.35000 262.584
37.36000 257.816
37.37000 266.140
37.38000 276.148
37.39000 283.885
37.40000 276.095
37.41000 269.003
37.42000 262.647
37.43000 257.889
37.44000 253.186
37.45000 250.850
37.46000 252.001
37.47000 253.183
37.48000 256.335
37.49000 261.393
37.50000 266.405
37.51000 267.607
37.52000 266.372
37.53000 265.077
37.54000 262.267
37.55000 258.798
37.56000 255.533
37.57000 263.330
37.58000 273.467
37.59000 281.723
37.60000 276.378
37.61000 268.328
37.62000 262.761
37.63000 268.742
37.64000 276.179
37.65000 281.908
37.66000 279.631
37.67000 277.369
37.68000 273.283
37.69000 265.294
37.70000 257.176
37.71000 254.887
37.72000 261.059
37.73000 267.301
37.74000 269.014
37.75000 266.418
37.76000 263.862
37.77000 264.504
37.78000 267.160
37.79000 269.787
37.80000 271.703
37.81000 273.313
37.82000 274.826
37.83000 274.943
37.84000 274.677
37.85000 274.025
37.86000 270.632
37.87000 266.704
37.88000 264.400
37.89000 269.532
37.90000 275.584
37.91000 280.229
37.92000 275.636
37.93000 271.492
37.94000 270.240
37.95000 275.083
37.96000 280.122
37.97000 281.517
37.98000 277.704
37.99000 273.852
38.00000 271.363
38.01000 270.151
38.02000 268.992
38.03000 271.750
38.04000 276.939
38.05000 282.041
38.06000 285.105
38.07000 287.306
38.08000 289.370
38.09000 291.149
38.10000 292.694
38.11000 294.135
38.12000 294.851
38.13000 295.428
38.14000 296.710
38.15000 301.174
38.16000 306.024
38.17000 309.732
38.18000 307.737
38.19000 305.854
38.20000 305.333
38.21000 307.638
38.22000 310.031
38.23000 311.344
38.24000 311.138
38.25000 310.921
38.26000 316.735
38.27000 328.093
38.28000 339.354
38.29000 343.892
38.30000 344.319
38.31000 344.899
38.32000 348.974
38.33000 354.506
38.34000 359.689
38.35000 365.982
38.36000 371.993
38.37000 378.041
38.38000 384.334
38.39000 390.673
38.40000 398.054
38.41000 410.059
38.42000 422.616
38.43000 432.177
38.44000 441.363
38.45000 448.573
38.46000 460.330
38.47000 481.393
38.48000 502.732
38.49000 519.992
38.50000 531.595
38.51000 543.158
38.52000 549.337
38.53000 550.640
38.54000 552.176
38.55000 569.041
38.56000 595.142
38.57000 620.624
38.58000 632.341
38.59000 638.398
38.60000 644.063
38.61000 648.751
38.62000 652.760
38.63000 655.907
38.64000 653.253
38.65000 649.518
38.66000 645.986
38.67000 643.339
38.68000 640.796
38.69000 638.866
38.70000 635.097
38.71000 632.041
38.72000 625.363
38.73000 611.379
38.74000 597.186
38.75000 586.933
38.76000 582.060
38.77000 577.221
38.78000 567.604
38.79000 553.750
38.80000 539.954
38.81000 529.708
38.82000 521.569
38.83000 513.045
38.84000 496.195
38.85000 475.971
38.86000 457.089
38.87000 444.838
38.88000 435.391
38.89000 425.856
38.90000 415.744
38.91000 405.527
38.92000 395.517
38.93000 386.402
38.94000 377.390
38.95000 370.580
38.96000 360.428
38.97000 352.303
38.98000 343.884
38.99000 334.883
39.00000 325.867
39.01000 317.343
39.02000 309.482
39.03000 301.628
39.04000 298.297
39.05000 298.925
39.06000 299.520
39.07000 298.136
39.08000 295.594
39.09000 293.200
39.10000 293.883
39.11000 295.796
39.12000 297.579
39.13000 295.036
39.14000 291.670
39.15000 288.328
39.16000 285.142
39.17000 281.985
39.18000 278.033
39.19000 270.712
39.20000 263.013
39.21000 257.219
39.22000 260.259
39.23000 263.067
39.24000 263.295
39.25000 258.470
39.26000 253.511
39.27000 253.083
39.28000 258.650
39.29000 264.241
39.30000 265.355
39.31000 262.615
39.32000 259.866
39.33000 256.632
39.34000 253.118
39.35000 249.534
39.36000 244.531
39.37000 238.970
39.38000 233.795
39.39000 238.327
39.40000 244.773
39.41000 250.314
39.42000 250.075
39.43000 248.812
39.44000 247.856
39.45000 248.178
39.46000 248.642
39.47000 248.989
39.48000 243.840
39.49000 239.561
39.50000 238.323
39.51000 242.962
39.52000 247.748
39.53000 249.767
39.54000 248.180
39.55000 246.580
39.56000 246.317
39.57000 247.188
39.58000 248.057
39.59000 248.811
39.60000 249.500
39.61000 250.107
39.62000 249.096
39.63000 247.457
39.64000 245.935
39.65000 245.065
39.66000 244.437
39.67000 243.745
39.68000 242.657
39.69000 241.500
39.70000 240.811
39.71000 242.040
39.72000 243.476
39.73000 244.548
39.74000 235.893
39.75000 228.702
39.76000 226.977
39.77000 235.656
39.78000 244.585
39.79000 250.582
39.80000 252.816
39.81000 255.034
39.82000 251.284
39.83000 242.578
39.84000 234.000
39.85000 231.940
39.86000 233.526
39.87000 235.063
39.88000 235.657
39.89000 235.890
39.90000 236.106
39.91000 232.299
39.92000 227.929
39.93000 224.790
39.94000 229.247
39.95000 235.006
39.96000 239.218
39.97000 237.171
39.98000 234.463
39.99000 232.449
40.00000 237.147
40.01000 241.100
40.02000 244.881
40.03000 248.340
40.04000 251.792
40.05000 249.717
40.06000 240.662
40.07000 231.597
40.08000 229.391
40.09000 232.808
40.10000 236.135
40.11000 235.088
40.12000 231.629
40.13000 228.306
40.14000 227.506
40.15000 227.657
40.16000 227.797
40.17000 227.784
40.18000 227.737
40.19000 227.880
40.20000 229.176
40.21000 230.666
40.22000 231.766
40.23000 231.314
40.24000 230.702
40.25000 230.249
40.26000 236.089
40.27000 240.895
40.28000 240.676
40.29000 231.170
40.30000 221.459
40.31000 218.974
40.32000 225.470
40.33000 231.981
40.34000 237.377
40.35000 241.852
40.36000 246.159
40.37000 242.672
40.38000 234.950
40.39000 227.604
40.40000 227.046
40.41000 229.010
40.42000 230.824
40.43000 230.131
40.44000 228.941
40.45000 227.945
40.46000 228.112
40.47000 228.471
40.48000 228.629
40.49000 227.999
40.50000 227.289
40.51000 226.766
40.52000 228.539
40.53000 230.009
40.54000 229.410
40.55000 225.040
40.56000 220.591
40.57000 221.152
40.58000 227.841
40.59000 234.534
40.60000 237.118
40.61000 236.437
40.62000 235.700
40.63000 232.560
40.64000 228.133
40.65000 223.947
40.66000 224.013
40.67000 225.635
40.68000 227.131
40.69000 226.840
40.70000 226.181
40.71000 225.649
40.72000 225.860
40.73000 226.191
40.74000 226.576
40.75000 227.165
40.76000 227.776
40.77000 228.224
40.78000 232.556
40.79000 236.064
40.80000 236.235
40.81000 230.417
40.82000 224.478
40.83000 222.432
40.84000 225.071
40.85000 227.715
40.86000 228.066
40.87000 226.628
40.88000 225.236
40.89000 225.755
40.90000 227.281
40.91000 228.767
40.92000 229.543
40.93000 230.062
40.94000 230.541
40.95000 230.050
40.96000 229.399
40.97000 228.212
40.98000 223.939
40.99000 219.172
41.00000 217.020
41.01000 224.822
41.02000 233.594
41.03000 240.008
41.04000 237.784
41.05000 235.727
41.06000 232.880
41.07000 228.636
41.08000 224.366
41.09000 222.022
41.10000 221.963
41.11000 221.907
41.12000 222.735
41.13000 224.235
41.14000 225.603
41.15000 221.630
41.16000 214.880
41.17000 208.533
41.18000 208.908
41.19000 211.675
41.20000 214.217
41.21000 216.196
41.22000 217.842
41.23000 219.919
41.24000 224.439
41.25000 229.344
41.26000 231.583
41.27000 223.829
41.28000 215.123
41.29000 208.784
41.30000 213.321
41.31000 217.230
41.32000 218.483
41.33000 215.106
41.34000 211.645
41.35000 209.462
41.36000 208.769
41.37000 208.080
41.38000 208.740
41.39000 210.413
41.40000 212.134
41.41000 215.652
41.42000 220.093
41.43000 224.192
41.44000 222.738
41.45000 219.336
41.46000 216.216
41.47000 221.405
41.48000 227.785
41.49000 233.154
41.50000 232.885
41.51000 231.744
41.52000 229.318
41.53000 222.147
41.54000 214.533
41.55000 209.013
41.56000 205.854
41.57000 203.514
41.58000 204.163
41.59000 209.946
41.60000 215.816
41.61000 220.284
41.62000 223.142
41.63000 225.990
41.64000 224.489
41.65000 219.772
41.66000 215.135
41.67000 213.453
41.68000 213.264
41.69000 213.290
41.70000 216.715
41.71000 221.315
41.72000 225.526
41.73000 225.975
41.74000 225.594
41.75000 224.641
41.76000 220.551
41.77000 215.984
41.78000 211.896
41.79000 209.552
41.80000 207.367
41.81000 205.789
41.82000 207.442
41.83000 208.825
41.84000 209.784
41.85000 210.025
41.86000 210.254
41.87000 209.345
41.88000 207.150
41.89000 204.961
41.90000 205.162
41.91000 207.107
41.92000 208.989
41.93000 208.679
41.94000 207.279
41.95000 206.019
41.96000 206.927
41.97000 208.574
41.98000 210.078
41.99000 214.692
42.00000 219.424
42.01000 223.375
42.02000 223.111
42.03000 222.218
42.04000 220.725
42.05000 217.084
42.06000 213.251
42.07000 210.497
42.08000 217.944
42.09000 223.997
42.10000 225.750
42.11000 220.337
42.12000 214.813
42.13000 210.452
42.14000 207.383
42.15000 204.325
42.16000 202.418
42.17000 201.353
42.18000 200.385
42.19000 202.743
42.20000 206.733
42.21000 210.619
42.22000 212.954
42.23000 214.769
42.24000 216.424
42.25000 213.073
42.26000 209.097
42.27000 205.899
42.28000 206.826
42.29000 208.359
42.30000 211.039
42.31000 217.768
42.32000 224.851
42.33000 229.918
42.34000 221.784
42.35000 215.130
42.36000 210.063
42.37000 207.605
42.38000 205.184
42.39000 204.160
42.40000 204.661
42.41000 205.161
42.42000 205.470
42.43000 205.642
42.44000 205.771
42.45000 204.507
42.46000 202.570
42.47000 200.735
42.48000 200.391
42.49000 200.541
42.50000 200.678
42.51000 204.727
42.52000 209.082
42.53000 212.906
42.54000 213.949
42.55000 214.593
42.56000 214.141
42.57000 209.877
42.58000 205.287
42.59000 202.018
42.60000 205.432
42.61000 208.251
42.62000 209.591
42.63000 208.540
42.64000 207.455
42.65000 210.453
42.66000 217.835
42.67000 225.186
42.68000 227.622
42.69000 226.615
42.70000 225.584
42.71000 223.799
42.72000 221.654
42.73000 219.389
42.74000 215.409
42.75000 210.871
42.76000 206.749
42.77000 211.335
42.78000 217.074
42.79000 221.459
42.80000 218.882
42.81000 215.321
42.82000 212.267
42.83000 210.951
42.84000 209.781
42.85000 208.950
42.86000 216.458
42.87000 222.428
42.88000 223.254
42.89000 215.878
42.90000 208.395
42.91000 206.663
42.92000 211.006
42.93000 215.329
42.94000 215.596
42.95000 213.084
42.96000 210.656
42.97000 210.773
42.98000 212.084
42.99000 213.377
43.00000 214.407
43.01000 215.353
43.02000 216.210
43.03000 212.877
43.04000 209.140
43.05000 206.963
43.06000 212.677
43.07000 219.487
43.08000 223.602
43.09000 218.612
43.10000 212.878
43.11000 208.832
43.12000 215.051
43.13000 220.081
43.14000 223.762
43.15000 225.322
43.16000 226.857
43.17000 222.057
43.18000 210.677
43.19000 199.355
43.20000 198.536
43.21000 204.799
43.22000 210.883
43.23000 211.722
43.24000 210.131
43.25000 208.288
43.26000 203.011
43.27000 196.647
43.28000 190.889
43.29000 192.639
43.30000 195.584
43.31000 198.739
43.32000 202.939
43.33000 207.281
43.34000 209.559
43.35000 204.972
43.36000 199.836
43.37000 196.229
43.38000 196.318
43.39000 196.493
43.40000 196.706
43.41000 196.976
43.42000 197.246
43.43000 200.280
43.44000 206.139
43.45000 211.964
43.46000 212.040
43.47000 208.306
43.48000 204.670
43.49000 203.815
43.50000 204.228
43.51000 204.767
43.52000 206.977
43.53000 209.708
43.54000 212.174
43.55000 210.391
43.56000 208.044
43.57000 206.156
43.58000 206.518
43.59000 207.182
43.60000 207.626
43.61000 207.346
43.62000 207.010
43.63000 206.775
43.64000 208.193
43.65000 209.311
43.66000 211.539
43.67000 215.460
43.68000 219.398
43.69000 219.820
43.70000 216.710
43.71000 213.620
43.72000 211.469
43.73000 209.960
43.74000 208.396
43.75000 205.305
43.76000 201.527
43.77000 197.895
43.78000 196.158
43.79000 195.003
43.80000 193.963
43.81000 197.734
43.82000 201.911
43.83000 205.896
43.84000 208.955
43.85000 211.893
43.86000 213.318
43.87000 209.854
43.88000 206.018
43.89000 203.349
43.90000 204.794
43.91000 205.996
43.92000 206.132
43.93000 204.667
43.94000 203.187
43.95000 200.694
43.96000 197.201
43.97000 193.730
43.98000 193.344
43.99000 194.944
44.00000 196.599
44.01000 199.725
44.02000 203.501
44.03000 207.240
44.04000 210.508
44.05000 213.632
44.06000 216.440
44.07000 210.255
44.08000 203.242
44.09000 197.934
44.10000 200.710
44.11000 204.530
44.12000 208.178
44.13000 211.281
44.14000 214.344
44.15000 216.465
44.16000 213.674
44.17000 211.446
44.18000 209.913
44.19000 209.410
44.20000 208.916
44.21000 209.029
44.22000 209.731
44.23000 210.429
44.24000 211.000
44.25000 211.483
44.26000 212.049
44.27000 214.741
44.28000 218.363
44.29000 221.368
44.30000 216.728
44.31000 209.806
44.32000 203.598
44.33000 203.197
44.34000 203.860
44.35000 204.826
44.36000 207.206
44.37000 209.764
44.38000 212.684
44.39000 216.739
44.40000 220.876
44.41000 223.727
44.42000 228.327
44.43000 231.826
44.44000 233.294
44.45000 231.804
44.46000 230.289
44.47000 233.174
44.48000 240.258
44.49000 247.290
44.50000 249.034
44.51000 247.465
44.52000 246.080
44.53000 249.250
44.54000 254.381
44.55000 259.154
44.56000 259.579
44.57000 258.726
44.58000 257.963
44.59000 265.559
44.60000 273.619
44.61000 280.522
44.62000 282.108
44.63000 283.033
44.64000 285.094
44.65000 290.668
44.66000 296.491
44.67000 300.484
44.68000 304.090
44.69000 306.782
44.70000 311.065
44.71000 317.630
44.72000 324.213
44.73000 330.977
44.74000 337.910
44.75000 344.787
44.76000 354.265
44.77000 365.164
44.78000 375.922
44.79000 383.348
44.80000 389.357
44.81000 395.075
44.82000 397.334
44.83000 398.592
44.84000 399.715
44.85000 407.672
44.86000 415.752
44.87000 422.255
44.88000 421.625
44.89000 420.125
44.90000 419.987
44.91000 424.001
44.92000 428.302
44.93000 431.237
44.94000 431.584
44.95000 431.784
44.96000 431.241
44.97000 429.649
44.98000 428.051
44.99000 428.360
45.00000 430.429
45.01000 432.480
45.02000 432.404
45.03000 431.048
45.04000 429.432
45.05000 421.824
45.06000 411.708
45.07000 402.241
45.08000 400.276
45.09000 400.452
45.10000 400.609
45.11000 387.217
45.12000 373.336
45.13000 361.671
45.14000 359.877
45.15000 359.263
45.16000 357.933
45.17000 354.451
45.18000 350.823
45.19000 348.360
45.20000 337.218
45.21000 328.711
45.22000 323.977
45.23000 324.493
45.24000 325.041
45.25000 322.865
45.26000 318.215
45.27000 313.607
45.28000 307.401
45.29000 300.373
45.30000 293.597
45.31000 292.443
45.32000 293.608
45.33000 294.071
45.34000 286.577
45.35000 276.847
45.36000 268.195
45.37000 269.229
45.38000 271.698
45.39000 272.645
45.40000 266.927
45.41000 260.425
45.42000 254.142
45.43000 248.506
45.44000 242.911
45.45000 239.132
45.46000 244.989
45.47000 249.556
45.48000 250.693
45.49000 247.131
45.50000 243.541
45.51000 240.251
45.52000 237.227
45.53000 234.233
45.54000 234.108
45.55000 235.660
45.56000 237.037
45.57000 234.644
45.58000 230.718
45.59000 227.029
45.60000 225.967
45.61000 225.633
45.62000 225.336
45.63000 222.669
45.64000 219.981
45.65000 217.075
45.66000 213.226
45.67000 209.270
45.68000 206.926
45.69000 209.287
45.70000 211.950
45.71000 213.739
45.72000 218.499
45.73000 222.097
45.74000 224.157
45.75000 224.144
45.76000 224.119
45.77000 222.348
45.78000 219.043
45.79000 215.773
45.80000 210.535
45.81000 204.286
45.82000 198.235
45.83000 196.360
45.84000 196.158
45.85000 195.713
45.86000 192.644
45.87000 188.859
45.88000 185.509
45.89000 191.679
45.90000 198.503
45.91000 202.891
45.92000 196.933
45.93000 189.806
45.94000 184.403
45.95000 183.953
45.96000 183.812
45.97000 183.718
45.98000 191.257
45.99000 196.997
46.00000 200.070
46.01000 199.602
46.02000 199.116
46.03000 197.570
46.04000 195.106
46.05000 192.670
46.06000 188.846
46.07000 184.326
46.08000 180.036
46.09000 180.427
46.10000 182.668
46.11000 184.865
46.12000 186.587
46.13000 188.182
46.14000 189.591
46.15000 184.961
46.16000 180.038
46.17000 176.533
46.18000 178.967
46.19000 182.057
46.20000 185.948
46.21000 192.107
46.22000 198.405
46.23000 202.594
46.24000 189.077
46.25000 178.745
46.26000 174.578
46.27000 178.471
46.28000 182.393
46.29000 183.206
46.30000 181.372
46.31000 179.560
46.32000 177.496
46.33000 175.344
46.34000 173.391
46.35000 175.397
46.36000 178.944
46.37000 182.537
46.38000 186.604
46.39000 190.797
46.40000 194.491
46.41000 188.224
46.42000 181.323
46.43000 174.593
46.44000 168.565
46.45000 162.614
46.46000 160.314
46.47000 168.205
46.48000 176.700
46.49000 182.321
46.50000 180.904
46.51000 179.731
46.52000 179.113
46.53000 179.209
46.54000 179.313
46.55000 181.748
46.56000 186.136
46.57000 190.469
46.58000 189.746
46.59000 186.275
46.60000 182.914
46.61000 181.677
46.62000 181.254
46.63000 180.558
46.64000 177.085
46.65000 172.889
46.66000 169.200
46.67000 168.728
46.68000 168.797
46.69000 169.437
46.70000 172.386
46.71000 175.581
46.72000 177.977
46.73000 178.176
46.74000 178.248
46.75000 178.295
46.76000 181.132
46.77000 183.269
46.78000 185.798
46.79000 188.824
46.80000 191.836
46.81000 188.046
46.82000 178.648
46.83000 169.374
46.84000 165.026
46.85000 163.447
46.86000 162.268
46.87000 168.575
46.88000 177.712
46.89000 185.837
46.90000 183.896
46.91000 179.369
46.92000 175.399
46.93000 175.812
46.94000 176.804
46.95000 177.489
46.96000 176.949
46.97000 176.283
46.98000 176.515
46.99000 179.189
47.00000 181.999
47.01000 183.838
47.02000 172.524
47.03000 163.994
47.04000 161.019
47.05000 164.974
47.06000 168.943
47.07000 170.438
47.08000 169.926
47.09000 169.422
47.10000 168.104
47.11000 166.393
47.12000 164.824
47.13000 165.864
47.14000 167.875
47.15000 170.340
47.16000 177.231
47.17000 185.242
47.18000 192.249
47.19000 192.739
47.20000 192.230
47.21000 190.008
47.22000 181.046
47.23000 171.397
47.24000 164.839
47.25000 166.542
47.26000 168.696
47.27000 170.098
47.28000 172.333
47.29000 173.986
47.30000 174.081
47.31000 172.267
47.32000 170.448
47.33000 168.746
47.34000 167.139
47.35000 165.555
47.36000 166.322
47.37000 168.293
47.38000 170.274
47.39000 172.427
47.40000 174.645
47.41000 176.197
47.42000 171.395
47.43000 165.009
47.44000 159.437
47.45000 162.076
47.46000 165.482
47.47000 168.224
47.48000 168.396
47.49000 168.310
47.50000 169.168
47.51000 172.513
47.52000 175.990
47.53000 178.241
47.54000 170.300
47.55000 164.339
47.56000 162.120
47.57000 164.422
47.58000 166.732
47.59000 168.432
47.60000 169.653
47.61000 170.855
47.62000 170.365
47.63000 169.021
47.64000 167.958
47.65000 171.727
47.66000 177.245
47.67000 182.187
47.68000 181.734
47.69000 179.956
47.70000 178.409
47.71000 176.249
47.72000 174.320
47.73000 172.899
47.74000 173.411
47.75000 174.113
47.76000 174.022
47.77000 171.874
47.78000 169.620
47.79000 168.168
47.80000 170.354
47.81000 172.001
47.82000 172.017
47.83000 170.091
47.84000 168.164
47.85000 166.533
47.86000 165.133
47.87000 163.754
47.88000 165.271
47.89000 168.203
47.90000 171.005
47.91000 171.620
47.92000 171.455
47.93000 171.426
47.94000 172.642
47.95000 174.160
47.96000 175.477
47.97000 177.031
47.98000 178.387
47.99000 178.501
48.00000 173.941
48.01000 168.933
48.02000 165.476
48.03000 165.989
48.04000 166.701
48.05000 167.156
48.06000 166.451
48.07000 165.922
48.08000 166.034
48.09000 166.895
48.10000 167.750
48.11000 166.961
48.12000 164.918
48.13000 162.910
48.14000 163.346
48.15000 164.984
48.16000 166.481
48.17000 165.702
48.18000 164.122
48.19000 163.225
48.20000 168.473
48.21000 175.184
48.22000 180.997
48.23000 177.366
48.24000 173.031
48.25000 169.785
48.26000 170.570
48.27000 171.733
48.28000 172.736
48.29000 173.333
48.30000 173.911
48.31000 174.279
48.32000 172.520
48.33000 171.215
48.34000 169.499
48.35000 167.311
48.36000 165.123
48.37000 163.101
48.38000 161.205
48.39000 159.341
48.40000 161.920
48.41000 166.585
48.42000 170.920
48.43000 169.999
48.44000 167.256
48.45000 164.878
48.46000 165.726
48.47000 167.329
48.48000 168.715
48.49000 168.667
48.50000 168.441
48.51000 166.861
48.52000 160.336
48.53000 153.358
48.54000 150.523
48.55000 157.990
48.56000 165.942
48.57000 170.976
48.58000 168.072
48.59000 165.871
48.60000 165.764
48.61000 168.026
48.62000 170.261
48.63000 167.009
48.64000 159.705
48.65000 152.534
48.66000 154.418
48.67000 160.598
48.68000 166.579
48.69000 169.490
48.70000 171.351
48.71000 172.980
48.72000 172.592
48.73000 171.738
48.74000 171.002
48.75000 169.029
48.76000 167.200
48.77000 164.757
48.78000 160.112
48.79000 155.268
48.80000 153.156
48.81000 157.738
48.82000 162.626
48.83000 165.703
48.84000 162.854
48.85000 160.725
48.86000 160.036
48.87000 160.952
48.88000 161.876
48.89000 164.026
48.90000 167.069
48.91000 170.053
48.92000 169.567
48.93000 167.454
48.94000 165.422
48.95000 164.622
48.96000 164.237
48.97000 163.806
48.98000 162.996
48.99000 162.099
49.00000 161.328
49.01000 162.383
49.02000 163.503
49.03000 163.221
49.04000 157.971
49.05000 152.285
49.06000 147.803
49.07000 146.230
49.08000 144.785
49.09000 143.881
49.10000 152.880
49.11000 159.481
49.12000 161.845
49.13000 159.566
49.14000 157.298
49.15000 157.055
49.16000 158.262
49.17000 159.444
49.18000 161.905
49.19000 164.870
49.20000 167.478
49.21000 164.822
49.22000 160.418
49.23000 156.309
49.24000 154.642
49.25000 153.521
49.26000 152.560
49.27000 156.984
49.28000 161.378
49.29000 164.959
49.30000 165.709
49.31000 166.216
49.32000 166.861
49.33000 167.839
49.34000 168.831
49.35000 169.448
49.36000 163.177
49.37000 158.591
49.38000 156.156
49.39000 156.039
49.40000 155.931
49.41000 156.983
49.42000 158.853
49.43000 160.683
49.44000 162.894
49.45000 165.192
49.46000 167.082
49.47000 163.095
49.48000 157.186
49.49000 152.135
49.50000 154.074
49.51000 157.553
49.52000 160.528
49.53000 160.440
49.54000 160.000
49.55000 159.614
49.56000 159.412
49.57000 159.225
49.58000 159.401
49.59000 160.425
49.60000 161.485
49.61000 162.140
49.62000 159.276
49.63000 157.185
49.64000 156.222
49.65000 156.457
49.66000 156.692
49.67000 157.016
49.68000 157.402
49.69000 157.780
49.70000 159.576
49.71000 161.940
49.72000 164.447
49.73000 168.957
49.74000 174.111
49.75000 178.353
49.76000 175.289
49.77000 170.641
49.78000 166.679
49.79000 167.018
49.80000 167.808
49.81000 167.331
49.82000 162.563
49.83000 157.443
49.84000 152.850
49.85000 149.476
49.86000 146.151
49.87000 144.107
49.88000 149.289
49.89000 153.067
49.90000 155.418
49.91000 156.278
49.92000 157.145
49.93000 158.718
49.94000 160.773
49.95000 162.781
49.96000 164.141
49.97000 165.156
49.98000 166.009
49.99000 164.660
50.00000 162.611
50.01000 161.074
50.02000 163.552
50.03000 166.888
50.04000 169.723
50.05000 163.289
50.06000 156.819
50.07000 153.251
50.08000 159.369
50.09000 166.264
50.10000 171.738
50.11000 173.974
50.12000 176.083
50.13000 177.372
50.14000 172.166
50.15000 168.389
50.16000 166.068
50.17000 165.242
50.18000 164.437
50.19000 166.015
50.20000 169.198
50.21000 172.306
50.22000 174.375
50.23000 175.899
50.24000 177.399
50.25000 178.577
50.26000 179.655
50.27000 180.536
50.28000 179.913
50.29000 178.974
50.30000 178.178
50.31000 181.872
50.32000 185.474
50.33000 188.506
50.34000 189.666
50.35000 190.679
50.36000 192.237
50.37000 195.021
50.38000 197.850
50.39000 199.568
50.40000 210.194
50.41000 217.845
50.42000 221.660
50.43000 221.607
50.44000 221.610
50.45000 227.287
50.46000 236.726
50.47000 245.935
50.48000 244.416
50.49000 238.340
50.50000 232.817
50.51000 234.513
50.52000 238.436
50.53000 241.762
50.54000 240.580
50.55000 238.465
50.56000 236.677
50.57000 242.816
50.58000 248.827
50.59000 253.883
50.60000 255.843
50.61000 257.567
50.62000 260.055
50.63000 264.238
50.64000 268.482
50.65000 271.043
50.66000 257.237
50.67000 247.291
50.68000 242.795
50.69000 243.702
50.70000 244.595
50.71000 244.194
50.72000 242.947
50.73000 241.731
50.74000 240.814
50.75000 240.065
50.76000 239.013
50.77000 234.099
50.78000 228.011
50.79000 222.846
50.80000 224.535
50.81000 227.618
50.82000 230.217
50.83000 219.525
50.84000 209.159
50.85000 200.043
50.86000 194.921
50.87000 190.098
50.88000 188.589
50.89000 194.313
50.90000 200.290
50.91000 203.874
50.92000 196.840
50.93000 191.774
50.94000 189.532
50.95000 190.040
50.96000 190.538
50.97000 190.171
50.98000 189.247
50.99000 188.348
51.00000 182.738
51.01000 175.425
51.02000 168.759
51.03000 170.133
51.04000 173.916
51.05000 176.974
51.06000 174.750
51.07000 171.469
51.08000 168.711
51.09000 170.634
51.10000 172.733
51.11000 174.948
51.12000 177.525
51.13000 180.130
51.14000 180.474
51.15000 175.957
51.16000 171.276
51.17000 168.487
51.18000 162.986
51.19000 159.071
51.20000 158.208
51.21000 160.268
51.22000 162.313
51.23000 163.028
51.24000 162.901
51.25000 162.777
51.26000 167.082
51.27000 173.000
51.28000 178.152
51.29000 173.988
51.30000 167.075
51.31000 161.244
51.32000 163.161
51.33000 166.605
51.34000 169.493
51.35000 164.048
51.36000 158.653
51.37000 155.205
51.38000 157.795
51.39000 160.815
51.40000 161.959
51.41000 159.124
51.42000 156.159
51.43000 154.404
51.44000 155.862
51.45000 156.911
51.46000 155.422
51.47000 151.543
51.48000 147.712
51.49000 147.566
51.50000 149.722
51.51000 151.817
51.52000 154.410
51.53000 157.075
51.54000 159.584
51.55000 160.242
51.56000 160.362
51.57000 159.880
51.58000 155.159
51.59000 149.616
51.60000 144.983
51.61000 144.060
51.62000 143.671
51.63000 144.153
51.64000 147.295
51.65000 150.623
51.66000 151.299
51.67000 146.434
51.68000 141.395
51.69000 138.431
51.70000 141.740
51.71000 144.106
51.72000 146.677
51.73000 149.437
51.74000 152.179
51.75000 153.597
51.76000 154.202
51.77000 154.789
51.78000 157.635
51.79000 161.234
51.80000 164.206
51.81000 159.880
51.82000 153.464
51.83000 147.442
51.84000 144.143
51.85000 141.363
51.86000 139.046
51.87000 144.839
51.88000 150.448
51.89000 154.049
51.90000 151.604
51.91000 148.748
51.92000 147.845
51.93000 150.963
51.94000 154.202
51.95000 156.095
51.96000 157.668
51.97000 158.771
51.98000 155.647
51.99000 148.671
52.00000 141.808
52.01000 142.653
52.02000 148.172
52.03000 153.523
52.04000 155.310
52.05000 155.607
52.06000 155.588
52.07000 151.986
52.08000 147.373
52.09000 143.630
52.10000 145.788
52.11000 149.053
52.12000 151.766
52.13000 153.728
52.14000 155.278
52.15000 154.760
52.16000 148.104
52.17000 141.042
52.18000 137.743
52.19000 142.085
52.20000 146.648
52.21000 149.297
52.22000 149.623
52.23000 149.843
52.24000 150.673
52.25000 152.050
52.26000 153.364
52.27000 150.654
52.28000 145.539
52.29000 140.585
52.30000 142.309
52.31000 146.515
52.32000 150.428
52.33000 151.073
52.34000 150.810
52.35000 150.816
52.36000 152.612
52.37000 154.738
52.38000 156.500
52.39000 156.372
52.40000 156.087
52.41000 155.875
52.42000 155.880
52.43000 155.898
52.44000 155.317
52.45000 153.534
52.46000 151.717
52.47000 150.670
52.48000 148.124
52.49000 146.335
52.50000 144.680
52.51000 143.144
52.52000 141.691
52.53000 145.236
52.54000 151.723
52.55000 157.998
52.56000 157.119
52.57000 153.573
52.58000 149.910
52.59000 144.986
52.60000 139.716
52.61000 135.555
52.62000 138.656
52.63000 143.075
52.64000 146.725
52.65000 144.320
52.66000 141.773
52.67000 141.151
52.68000 146.082
52.69000 151.362
52.70000 154.308
52.71000 152.652
52.72000 150.874
52.73000 149.855
52.74000 152.100
52.75000 153.675
52.76000 151.036
52.77000 144.740
52.78000 138.574
52.79000 139.881
52.80000 145.520
52.81000 150.971
52.82000 154.756
52.83000 157.705
52.84000 159.939
52.85000 154.566
52.86000 147.140
52.87000 140.814
52.88000 141.570
52.89000 143.590
52.90000 145.254
52.91000 144.081
52.92000 142.857
52.93000 143.432
52.94000 149.120
52.95000 155.120
52.96000 158.314
52.97000 156.053
52.98000 153.652
52.99000 152.287
53.00000 146.350
53.01000 142.207
53.02000 143.813
53.03000 150.328
53.04000 156.749
53.05000 158.069
53.06000 156.475
53.07000 154.936
53.08000 152.320
53.09000 149.462
53.10000 146.960
53.11000 148.186
53.12000 150.402
53.13000 152.691
53.14000 155.445
53.15000 158.280
53.16000 160.607
53.17000 157.235
53.18000 153.957
53.19000 151.402
53.20000 150.872
53.21000 150.463
53.22000 151.646
53.23000 155.877
53.24000 160.183
53.25000 162.614
53.26000 159.145
53.27000 156.723
53.28000 156.929
53.29000 159.343
53.30000 161.662
53.31000 159.075
53.32000 153.726
53.33000 148.570
53.34000 149.372
53.35000 152.284
53.36000 155.054
53.37000 156.378
53.38000 157.323
53.39000 158.287
53.40000 159.371
53.41000 160.477
53.42000 161.381
53.43000 162.293
53.44000 163.040
53.45000 163.922
53.46000 165.174
53.47000 166.448
53.48000 165.634
53.49000 160.876
53.50000 156.026
53.51000 153.306
53.52000 148.493
53.53000 145.161
53.54000 146.226
53.55000 150.928
53.56000 155.582
53.57000 157.870
53.58000 158.845
53.59000 159.784
53.60000 158.757
53.61000 157.093
53.62000 155.447
53.63000 153.983
53.64000 152.565
53.65000 151.301
53.66000 150.976
53.67000 150.811
53.68000 150.676
53.69000 148.875
53.70000 147.259
53.71000 146.522
53.72000 148.175
53.73000 149.962
53.74000 150.481
53.75000 148.639
53.76000 146.743
53.77000 145.688
53.78000 150.179
53.79000 153.290
53.80000 154.025
53.81000 152.826
53.82000 151.638
53.83000 150.940
53.84000 150.511
53.85000 150.099
53.86000 149.592
53.87000 149.084
53.88000 148.614
53.89000 148.519
53.90000 148.520
53.91000 147.882
53.92000 143.406
53.93000 138.289
53.94000 134.128
53.95000 136.928
53.96000 139.795
53.97000 142.911
53.98000 146.693
53.99000 150.511
54.00000 151.262
54.01000 146.388
54.02000 141.394
54.03000 138.634
54.04000 141.890
54.05000 144.141
54.06000 144.568
54.07000 143.532
54.08000 142.530
54.09000 143.017
54.10000 144.308
54.11000 145.548
54.12000 145.818
54.13000 145.737
54.14000 145.413
54.15000 142.760
54.16000 139.525
54.17000 137.269
54.18000 140.794
54.19000 145.268
54.20000 148.894
54.21000 145.822
54.22000 142.771
54.23000 141.493
54.24000 144.901
54.25000 148.558
54.26000 150.185
54.27000 148.141
54.28000 146.023
54.29000 144.861
54.30000 146.382
54.31000 147.417
54.32000 143.984
54.33000 137.028
54.34000 130.290
54.35000 132.901
54.36000 140.476
54.37000 147.744
54.38000 146.477
54.39000 142.395
54.40000 138.885
54.41000 140.737
54.42000 143.911
54.43000 146.646
54.44000 146.839
54.45000 146.621
54.46000 146.445
54.47000 148.362
54.48000 150.087
54.49000 150.991
54.50000 149.756
54.51000 148.411
54.52000 147.184
54.53000 146.170
54.54000 145.161
54.55000 144.611
54.56000 142.178
54.57000 140.519
54.58000 142.294
54.59000 146.734
54.60000 151.014
54.61000 148.714
54.62000 142.969
54.63000 137.465
54.64000 137.423
54.65000 139.209
54.66000 141.019
54.67000 143.058
54.68000 145.153
54.69000 147.482
54.70000 151.145
54.71000 155.021
54.72000 158.142
54.73000 154.690
54.74000 151.375
54.75000 149.146
54.76000 149.705
54.77000 150.404
54.78000 149.392
54.79000 145.379
54.80000 141.311
54.81000 139.112
54.82000 136.322
54.83000 134.428
54.84000 136.104
54.85000 140.509
54.86000 144.868
54.87000 147.412
54.88000 149.021
54.89000 150.560
54.90000 150.084
54.91000 148.979
54.92000 147.657
54.93000 144.379
54.94000 140.635
54.95000 137.607
54.96000 138.607
54.97000 140.234
54.98000 141.540
54.99000 142.840
55.00000 143.892
55.01000 146.245
55.02000 151.893
55.03000 157.702
55.04000 161.605
55.05000 162.216
55.06000 162.769
55.07000 163.065
55.08000 158.257
55.09000 154.976
55.10000 152.703
55.11000 151.189
55.12000 149.757
55.13000 151.404
55.14000 154.617
55.15000 157.688
55.16000 159.207
55.17000 160.118
55.18000 161.116
55.19000 162.876
55.20000 164.816
55.21000 166.962
55.22000 170.246
55.23000 173.704
55.24000 176.471
55.25000 173.018
55.26000 169.763
55.27000 168.056
55.28000 170.210
55.29000 172.547
55.30000 175.246
55.31000 178.561
55.32000 181.887
55.33000 183.656
55.34000 186.195
55.35000 187.912
55.36000 187.293
55.37000 184.944
55.38000 182.766
55.39000 186.768
55.40000 193.866
55.41000 200.640
55.42000 205.331
55.43000 209.025
55.44000 212.927
55.45000 218.642
55.46000 224.776
55.47000 230.853
55.48000 236.616
55.49000 242.332
55.50000 246.889
55.51000 254.401
55.52000 260.678
55.53000 266.743
55.54000 272.288
55.55000 277.808
55.56000 284.564
55.57000 293.392
55.58000 302.252
55.59000 306.931
55.60000 325.282
55.61000 337.752
55.62000 350.625
55.63000 363.790
55.64000 376.918
55.65000 388.775
55.66000 400.005
55.67000 410.709
55.68000 416.164
55.69000 419.580
55.70000 423.897
55.71000 435.901
55.72000 449.656
55.73000 463.008
55.74000 474.203
55.75000 485.080
55.76000 493.722
55.77000 502.840
55.78000 510.217
55.79000 514.631
55.80000 511.867
55.81000 508.782
55.82000 511.436
55.83000 523.576
55.84000 535.857
55.85000 542.292
55.86000 533.714
55.87000 527.908
55.88000 523.472
55.89000 520.021
55.90000 516.492
55.91000 510.376
55.92000 503.002
55.93000 495.983
55.94000 480.106
55.95000 462.680
55.96000 446.770
55.97000 443.518
55.98000 443.107
55.99000 440.888
56.00000 429.164
56.01000 416.059
56.02000 405.683
56.03000 399.208
56.04000 394.275
56.05000 387.634
56.06000 376.913
56.07000 366.016
56.08000 353.297
56.09000 337.609
56.10000 321.880
56.11000 313.704
56.12000 313.213
56.13000 312.860
56.14000 309.187
56.15000 303.165
56.16000 297.100
56.17000 289.622
56.18000 281.466
56.19000 273.714
56.20000 269.263
56.21000 266.149
56.22000 262.605
56.23000 255.532
56.24000 247.678
56.25000 240.174
56.26000 234.474
56.27000 229.032
56.28000 224.738
56.29000 224.306
56.30000 224.221
56.31000 221.369
56.32000 212.004
56.33000 202.366
56.34000 198.791
56.35000 204.944
56.36000 211.226
56.37000 214.465
56.38000 195.935
56.39000 183.493
56.40000 176.453
56.41000 173.177
56.42000 170.097
56.43000 173.060
56.44000 178.879
56.45000 184.402
56.46000 176.214
56.47000 164.568
56.48000 154.200
56.49000 154.090
56.50000 156.212
56.51000 158.341
56.52000 160.507
56.53000 162.679
56.54000 164.386
56.55000 165.152
56.56000 165.702
56.57000 164.328
56.58000 158.491
56.59000 152.472
56.60000 149.605
56.61000 151.722
56.62000 153.901
56.63000 155.015
56.64000 149.718
56.65000 146.210
56.66000 148.724
56.67000 155.368
56.68000 161.773
56.69000 161.043
56.70000 156.990
56.71000 153.148
56.72000 150.975
56.73000 149.463
56.74000 148.239
56.75000 149.295
56.76000 150.839
56.77000 151.845
56.78000 150.161
56.79000 148.107
56.80000 146.498
56.81000 144.165
56.82000 142.255
56.83000 140.684
56.84000 139.891
56.85000 139.128
56.86000 139.000
56.87000 139.862
56.88000 140.736
56.89000 141.179
56.90000 141.255
56.91000 141.286
56.92000 139.079
56.93000 135.360
56.94000 131.828
56.95000 133.679
56.96000 138.001
56.97000 142.091
56.98000 141.380
56.99000 139.341
57.00000 137.222
57.01000 134.489
57.02000 131.627
57.03000 129.206
57.04000 128.962
57.05000 129.013
57.06000 129.052
57.07000 126.262
57.08000 123.859
57.09000 123.075
57.10000 125.942
57.11000 128.948
57.12000 131.497
57.13000 133.345
57.14000 135.185
57.15000 136.110
57.16000 132.122
57.17000 129.496
57.18000 130.729
57.19000 134.533
57.20000 138.225
57.21000 138.854
57.22000 138.096
57.23000 137.380
57.24000 134.877
57.25000 132.072
57.26000 129.704
57.27000 130.659
57.28000 132.303
57.29000 133.355
57.30000 131.531
57.31000 129.326
57.32000 127.610
57.33000 134.680
57.34000 140.845
57.35000 143.103
57.36000 136.679
57.37000 129.937
57.38000 126.772
57.39000 129.010
57.40000 131.304
57.41000 131.001
57.42000 128.115
57.43000 125.228
57.44000 122.247
57.45000 119.204
57.46000 116.461
57.47000 121.733
57.48000 130.580
57.49000 138.927
57.50000 137.786
57.51000 134.089
57.52000 130.816
57.53000 130.708
57.54000 131.246
57.55000 131.754
57.56000 132.120
57.57000 132.468
57.58000 132.737
57.59000 129.849
57.60000 127.367
57.61000 126.160
57.62000 127.747
57.63000 129.433
57.64000 129.596
57.65000 127.492
57.66000 125.366
57.67000 127.686
57.68000 134.353
57.69000 140.940
57.70000 140.548
57.71000 135.648
57.72000 130.954
57.73000 131.576
57.74000 134.536
57.75000 137.324
57.76000 135.605
57.77000 132.792
57.78000 130.529
57.79000 132.299
57.80000 134.878
57.81000 136.002
57.82000 130.291
57.83000 123.706
57.84000 118.622
57.85000 123.431
57.86000 127.818
57.87000 130.350
57.88000 128.876
57.89000 127.266
57.90000 126.152
57.91000 125.765
57.92000 125.384
57.93000 127.031
57.94000 130.626
57.95000 134.159
57.96000 132.513
57.97000 127.572
57.98000 122.894
57.99000 124.781
58.00000 129.514
58.01000 133.965
58.02000 132.013
58.03000 128.499
58.04000 125.527
58.05000 126.460
58.06000 128.164
58.07000 129.376
58.08000 128.312
58.09000 126.962
58.10000 125.924
58.11000 129.331
58.12000 132.279
58.13000 133.825
58.14000 132.391
58.15000 130.858
58.16000 128.646
58.17000 125.452
58.18000 122.251
58.19000 122.299
58.20000 125.419
58.21000 128.452
58.22000 124.808
58.23000 116.978
58.24000 109.565
58.25000 112.225
58.26000 119.188
58.27000 125.728
58.28000 130.102
58.29000 133.516
58.30000 136.141
58.31000 133.189
58.32000 129.152
58.33000 126.368
58.34000 129.286
58.35000 132.905
58.36000 135.679
58.37000 131.402
58.38000 127.635
58.39000 124.945
58.40000 124.514
58.41000 124.154
58.42000 124.145
58.43000 124.635
58.44000 125.128
58.45000 125.328
58.46000 125.256
58.47000 125.205
58.48000 126.787
58.49000 129.375
58.50000 131.878
58.51000 132.393
58.52000 132.071
58.53000 131.769
58.54000 126.666
58.55000 120.764
58.56000 116.007
58.57000 119.187
58.58000 123.886
58.59000 126.808
58.60000 121.767
58.61000 115.766
58.62000 111.184
58.63000 112.549
58.64000 113.945
58.65000 116.551
58.66000 121.659
58.67000 126.843
58.68000 129.163
58.69000 127.473
58.70000 125.756
58.71000 124.598
58.72000 123.952
58.73000 123.345
58.74000 125.451
58.75000 129.206
58.76000 132.856
58.77000 134.142
58.78000 134.447
58.79000 134.732
58.80000 129.598
58.81000 123.536
58.82000 118.359
58.83000 119.204
58.84000 121.182
58.85000 123.170
58.86000 125.201
58.87000 127.236
58.88000 128.783
58.89000 126.574
58.90000 124.639
58.91000 124.534
58.92000 128.157
58.93000 131.889
58.94000 132.719
58.95000 129.546
58.96000 126.350
58.97000 125.028
58.98000 125.392
58.99000 125.721
59.00000 123.763
59.01000 120.435
59.02000 117.276
59.03000 117.825
59.04000 119.891
59.05000 121.823
59.06000 120.480
59.07000 118.432
59.08000 117.045
59.09000 120.084
59.10000 123.943
59.11000 126.213
59.12000 121.581
59.13000 116.148
59.14000 112.032
59.15000 113.840
59.16000 115.560
59.17000 116.441
59.18000 115.635
59.19000 114.782
59.20000 116.195
59.21000 120.683
59.22000 125.187
59.23000 126.465
59.24000 124.889
59.25000 123.321
59.26000 122.181
59.27000 121.294
59.28000 120.474
59.29000 121.097
59.30000 122.302
59.31000 123.426
59.32000 120.869
59.33000 117.637
59.34000 115.011
59.35000 116.372
59.36000 118.460
59.37000 119.951
59.38000 118.889
59.39000 117.536
59.40000 116.515
59.41000 124.443
59.42000 131.096
59.43000 134.715
59.44000 132.331
59.45000 129.785
59.46000 127.226
59.47000 124.649
59.48000 122.075
59.49000 121.295
59.50000 122.079
59.51000 122.856
59.52000 123.252
59.53000 123.427
59.54000 123.519
59.55000 121.893
59.56000 119.583
59.57000 117.432
59.58000 117.786
59.59000 118.718
59.60000 119.663
59.61000 120.694
59.62000 121.739
59.63000 122.492
59.64000 122.013
59.65000 121.397
59.66000 120.933
59.67000 122.669
59.68000 124.131
59.69000 125.198
59.70000 125.493
59.71000 125.767
59.72000 125.065
59.73000 123.076
59.74000 121.083
59.75000 121.098
59.76000 122.830
59.77000 124.526
59.78000 124.220
59.79000 122.766
59.80000 121.437
59.81000 122.614
59.82000 124.773
59.83000 126.781
59.84000 125.427
59.85000 123.396
59.86000 121.143
59.87000 117.482
59.88000 113.573
59.89000 110.661
59.90000 111.887
59.91000 113.565
59.92000 114.822
59.93000 116.883
59.94000 118.530
59.95000 119.985
59.96000 121.071
59.97000 122.149
59.98000 120.659
59.99000 115.844
60.00000 111.019
60.01000 110.886
60.02000 114.700
60.03000 118.453
60.04000 118.982
60.05000 117.690
60.06000 116.409
60.07000 115.343
60.08000 114.360
60.09000 113.448
60.10000 115.288
60.11000 117.599
60.12000 119.403
60.13000 118.043
60.14000 116.135
60.15000 115.281
60.16000 118.733
60.17000 122.646
60.18000 125.563
60.19000 117.440
60.20000 110.613
60.21000 106.652
60.22000 108.116
60.23000 109.709
60.24000 110.735
60.25000 111.038
60.26000 111.337
60.27000 114.804
60.28000 120.882
60.29000 126.862
60.30000 127.975
60.31000 126.378
60.32000 124.808
60.33000 123.736
60.34000 122.853
60.35000 122.036
60.36000 118.506
60.37000 114.698
60.38000 111.919
60.39000 115.451
60.40000 120.057
60.41000 123.355
60.42000 121.391
60.43000 118.874
60.44000 117.005
60.45000 119.731
60.46000 122.053
60.47000 124.337
60.48000 126.553
60.49000 128.768
60.50000 128.782
60.51000 126.034
60.52000 123.282
60.53000 123.619
60.54000 126.469
60.55000 129.237
60.56000 128.108
60.57000 124.841
60.58000 121.823
60.59000 123.390
60.60000 126.677
60.61000 129.718
60.62000 127.361
60.63000 124.009
60.64000 120.693
60.65000 117.597
60.66000 114.538
60.67000 112.616
60.68000 115.197
60.69000 118.242
60.70000 120.493
60.71000 127.488
60.72000 133.117
60.73000 134.424
60.74000 127.783
60.75000 120.970
60.76000 118.435
60.77000 121.188
60.78000 123.950
60.79000 125.306
60.80000 125.532
60.81000 125.755
60.82000 125.884
60.83000 125.962
60.84000 125.916
60.85000 123.649
60.86000 120.560
60.87000 117.708
60.88000 119.429
60.89000 122.002
60.90000 124.246
60.91000 124.545
60.92000 124.523
60.93000 124.488
60.94000 124.402
60.95000 124.310
60.96000 124.242
60.97000 123.622
60.98000 123.119
60.99000 122.805
61.00000 122.832
61.01000 122.866
61.02000 121.573
61.03000 118.666
61.04000 115.760
61.05000 116.677
61.06000 120.600
61.07000 124.462
61.08000 125.695
61.09000 125.527
61.10000 125.292
61.11000 123.878
61.12000 122.035
61.13000 120.336
61.14000 120.033
61.15000 120.071
61.16000 120.464
61.17000 122.930
61.18000 125.731
61.19000 127.703
61.20000 126.491
61.21000 124.964
61.22000 123.844
61.23000 125.830
61.24000 127.488
61.25000 126.824
61.26000 122.012
61.27000 117.119
61.28000 116.944
61.29000 122.419
61.30000 127.893
61.31000 128.448
61.32000 125.189
61.33000 122.046
61.34000 123.702
61.35000 127.878
61.36000 131.865
61.37000 132.660
61.38000 132.308
61.39000 131.984
61.40000 134.278
61.41000 136.897
61.42000 139.124
61.43000 139.101
61.44000 138.720
61.45000 138.665
61.46000 139.843
61.47000 141.141
61.48000 142.088
61.49000 150.115
61.50000 156.580
61.51000 167.513
61.52000 186.306
61.53000 205.247
61.54000 224.066
61.55000 242.743
61.56000 261.374
61.57000 284.666
61.58000 311.368
61.59000 337.906
61.60000 357.973
61.61000 374.691
61.62000 391.102
61.63000 402.434
61.64000 411.967
61.65000 420.723
61.66000 424.815
61.67000 427.470
61.68000 430.578
61.69000 436.239
61.70000 442.300
61.71000 447.856
61.72000 451.527
61.73000 455.019
61.74000 457.558
61.75000 436.413
61.76000 419.250
61.77000 396.326
61.78000 363.410
61.79000 330.317
61.80000 303.189
61.81000 282.976
61.82000 262.827
61.83000 244.046
61.84000 226.418
61.85000 208.854
61.86000 193.699
61.87000 179.772
61.88000 166.136
61.89000 157.167
61.90000 149.826
61.91000 143.098
61.92000 140.996
61.93000 140.095
61.94000 139.405
61.95000 139.879
61.96000 140.532
61.97000 140.709
61.98000 139.137
61.99000 137.403
62.00000 136.148
62.01000 136.560
62.02000 136.937
62.03000 137.031
62.04000 136.642
62.05000 136.245
62.06000 136.066
62.07000 136.133
62.08000 136.201
62.09000 137.560
62.10000 139.861
62.11000 142.159
62.12000 144.327
62.13000 146.430
62.14000 148.090
62.15000 142.816
62.16000 135.157
62.17000 128.150
62.18000 130.143
62.19000 133.774
62.20000 136.866
62.21000 137.016
62.22000 136.723
62.23000 136.771
62.24000 138.056
62.25000 139.454
62.26000 140.461
62.27000 135.844
62.28000 132.108
62.29000 133.186
62.30000 142.368
62.31000 151.681
62.32000 153.971
62.33000 148.383
62.34000 142.807
62.35000 138.602
62.36000 135.429
62.37000 132.318
62.38000 131.413
62.39000 131.602
62.40000 132.059
62.41000 136.619
62.42000 142.571
62.43000 148.005
62.44000 148.179
62.45000 147.266
62.46000 146.305
62.47000 145.083
62.48000 143.823
62.49000 142.989
62.50000 143.676
62.51000 144.498
62.52000 145.088
62.53000 142.627
62.54000 140.641
62.55000 140.231
62.56000 142.434
62.57000 144.677
62.58000 144.485
62.59000 141.606
62.60000 138.735
62.61000 138.323
62.62000 139.670
62.63000 140.992
62.64000 141.473
62.65000 141.542
62.66000 141.350
62.67000 137.262
62.68000 131.874
62.69000 126.963
62.70000 130.211
62.71000 134.717
62.72000 138.985
62.73000 141.999
62.74000 144.831
62.75000 146.913
62.76000 146.362
62.77000 145.582
62.78000 145.025
62.79000 143.533
62.80000 142.363
62.81000 142.218
62.82000 143.748
62.83000 145.302
62.84000 145.055
62.85000 142.853
62.86000 140.660
62.87000 139.765
62.88000 139.793
62.89000 139.885
62.90000 142.049
62.91000 145.210
62.92000 148.135
62.93000 147.618
62.94000 145.970
62.95000 144.471
62.96000 142.338
62.97000 140.327
62.98000 137.952
62.99000 133.686
63.00000 129.149
63.01000 127.010
63.02000 133.171
63.03000 140.035
63.04000 144.917
63.05000 143.744
63.06000 142.657
63.07000 141.672
63.08000 140.851
63.09000 140.032
63.10000 142.252
63.11000 147.718
63.12000 153.160
63.13000 153.609
63.14000 150.601
63.15000 147.679
63.16000 147.458
63.17000 148.518
63.18000 149.648
63.19000 151.778
63.20000 154.232
63.21000 156.460
63.22000 149.240
63.23000 141.045
63.24000 134.367
63.25000 135.438
63.26000 137.598
63.27000 139.542
63.28000 140.748
63.29000 141.894
63.30000 142.704
63.31000 140.908
63.32000 139.462
63.33000 139.081
63.34000 140.387
63.35000 141.715
63.36000 139.953
63.37000 134.947
63.38000 129.964
63.39000 133.128
63.40000 141.798
63.41000 150.265
63.42000 152.618
63.43000 152.113
63.44000 151.547
63.45000 150.142
63.46000 148.469
63.47000 146.954
63.48000 144.687
63.49000 142.547
63.50000 140.644
63.51000 139.935
63.52000 139.390
63.53000 139.660
63.54000 142.664
63.55000 145.890
63.56000 148.163
63.57000 145.110
63.58000 142.636
63.59000 141.772
63.60000 143.423
63.61000 145.104
63.62000 146.551
63.63000 147.757
63.64000 148.955
63.65000 150.284
63.66000 151.682
63.67000 152.981
63.68000 151.434
63.69000 148.575
63.70000 145.787
63.71000 143.965
63.72000 142.447
63.73000 141.074
63.74000 145.877
63.75000 151.251
63.76000 155.463
63.77000 153.923
63.78000 151.604
63.79000 150.112
63.80000 151.360
63.81000 152.824
63.82000 153.851
63.83000 153.512
63.84000 153.215
63.85000 153.806
63.86000 155.761
63.87000 157.732
63.88000 157.113
63.89000 153.866
63.90000 150.637
63.91000 151.012
63.92000 153.758
63.93000 156.461
63.94000 158.004
63.95000 159.020
63.96000 159.965
63.97000 159.959
63.98000 159.659
63.99000 159.388
64.00000 160.191
64.01000 161.093
64.02000 161.055
64.03000 156.443
64.04000 151.223
64.05000 148.889
64.06000 155.971
64.07000 163.781
64.08000 169.233
64.09000 170.008
64.10000 170.463
64.11000 170.110
64.12000 168.533
64.13000 166.943
64.14000 165.702
64.15000 164.809
64.16000 163.922
64.17000 163.045
64.18000 162.187
64.19000 161.355
64.20000 161.222
64.21000 161.401
64.22000 161.655
64.23000 162.877
64.24000 164.395
64.25000 165.762
64.26000 168.186
64.27000 170.501
64.28000 171.473
64.29000 166.007
64.30000 159.700
64.31000 156.858
64.32000 165.154
64.33000 174.291
64.34000 180.638
64.35000 179.861
64.36000 179.085
64.37000 176.860
64.38000 172.471
64.39000 168.062
64.40000 167.395
64.41000 170.401
64.42000 173.387
64.43000 174.785
64.44000 175.148
64.45000 175.488
64.46000 175.217
64.47000 174.677
64.48000 174.194
64.49000 174.440
64.50000 174.904
64.51000 175.322
64.52000 175.392
64.53000 175.393
64.54000 175.043
64.55000 173.041
64.56000 170.828
64.57000 170.493
64.58000 176.106
64.59000 182.157
64.60000 186.341
64.61000 180.907
64.62000 176.572
64.63000 176.450
64.64000 182.524
64.65000 188.652
64.66000 187.380
64.67000 178.964
64.68000 170.610
64.69000 171.441
64.70000 178.028
64.71000 184.430
64.72000 186.194
64.73000 185.940
64.74000 185.823
64.75000 187.366
64.76000 189.402
64.77000 191.227
64.78000 189.695
64.79000 187.775
64.80000 186.559
64.81000 188.606
64.82000 191.065
64.83000 193.598
64.84000 196.364
64.85000 199.147
64.86000 201.061
64.87000 200.161
64.88000 199.416
64.89000 200.986
64.90000 205.911
64.91000 210.863
64.92000 213.171
64.93000 212.971
64.94000 212.772
64.95000 214.052
64.96000 216.225
64.97000 218.476
64.98000 222.652
64.99000 227.653
65.00000 232.431
65.01000 234.534
65.02000 235.854
65.03000 237.035
65.04000 239.668
65.05000 242.211
65.06000 244.254
65.07000 244.014
65.08000 243.493
65.09000 246.848
65.10000 262.125
65.11000 278.240
65.12000 289.272
65.13000 290.587
65.14000 291.340
65.15000 292.607
65.16000 294.606
65.17000 296.612
65.18000 304.285
65.19000 317.248
65.20000 330.103
65.21000 338.026
65.22000 342.806
65.23000 347.859
65.24000 359.381
65.25000 373.634
65.26000 387.803
65.27000 400.977
65.28000 413.865
65.29000 425.366
65.30000 431.516
65.31000 435.974
65.32000 441.100
65.33000 449.227
65.34000 457.718
65.35000 466.371
65.36000 475.518
65.37000 484.699
65.38000 490.953
65.39000 505.551
65.40000 516.649
65.41000 522.687
65.42000 521.616
65.43000 520.498
65.44000 523.568
65.45000 530.483
65.46000 537.337
65.47000 544.791
65.48000 552.461
65.49000 559.828
65.50000 560.256
65.51000 557.797
65.52000 556.098
65.53000 563.133
65.54000 572.648
65.55000 581.122
65.56000 598.713
65.57000 615.494
65.58000 631.311
65.59000 642.857
65.60000 653.896
65.61000 669.232
65.62000 697.408
65.63000 726.441
65.64000 746.120
65.65000 797.701
65.66000 836.861
65.67000 906.220
65.68000 1017.357
65.69000 1128.772
65.70000 1261.104
65.71000 1412.329
65.72000 1562.124
65.73000 1758.674
65.74000 1978.752
65.75000 2197.972
65.76000 2398.164
65.77000 2590.549
65.78000 2778.580
65.79000 2917.710
65.80000 3043.161
65.81000 3154.622
65.82000 3241.417
65.83000 3312.719
65.84000 3373.121
65.85000 3386.000
65.86000 3393.341
65.87000 3394.594
65.88000 3377.929
65.89000 3360.097
65.90000 3348.072
65.91000 3269.510
65.92000 3209.656
65.93000 3098.240
65.94000 2916.581
65.95000 2734.501
65.96000 2533.421
65.97000 2315.457
65.98000 2099.684
65.99000 1885.034
66.00000 1675.647
66.01000 1468.312
66.02000 1305.031
66.03000 1159.568
66.04000 1018.250
66.05000 922.469
66.06000 839.236
66.07000 765.454
66.08000 714.006
66.09000 672.999
66.10000 634.288
66.11000 605.429
66.12000 577.695
66.13000 552.335
66.14000 533.858
66.15000 515.818
66.16000 503.714
66.17000 510.339
66.18000 515.637
66.19000 518.858
66.20000 519.291
66.21000 519.722
66.22000 530.307
66.23000 549.770
66.24000 569.025
66.25000 585.869
66.26000 600.957
66.27000 616.591
66.28000 643.627
66.29000 675.206
66.30000 707.610
66.31000 748.875
66.32000 792.545
66.33000 831.169
66.34000 866.696
66.35000 896.918
66.36000 924.771
66.37000 942.613
66.38000 959.333
66.39000 971.158
66.40000 968.988
66.41000 965.952
66.42000 963.925
66.43000 945.809
66.44000 932.077
66.45000 920.670
66.46000 912.334
66.47000 904.007
66.48000 891.969
66.49000 876.740
66.50000 861.682
66.51000 829.245
66.52000 787.818
66.53000 746.435
66.54000 705.936
66.55000 665.784
66.56000 627.137
66.57000 604.327
66.58000 585.753
66.59000 569.363
66.60000 548.774
66.61000 530.372
66.62000 513.132
66.63000 500.727
66.64000 488.853
66.65000 478.836
66.66000 474.055
66.67000 469.590
66.68000 466.624
66.69000 467.721
66.70000 468.607
66.71000 467.121
66.72000 462.552
66.73000 457.974
66.74000 455.178
66.75000 453.891
66.76000 452.620
66.77000 448.665
66.78000 443.327
66.79000 438.688
66.80000 447.776
66.81000 462.182
66.82000 475.290
66.83000 475.021
66.84000 471.229
66.85000 467.891
66.86000 469.328
66.87000 471.280
66.88000 472.858
66.89000 472.898
66.90000 472.772
66.91000 472.409
66.92000 471.388
66.93000 470.328
66.94000 469.627
66.95000 471.601
66.96000 473.104
66.97000 475.933
66.98000 480.461
66.99000 484.991
67.00000 487.577
67.01000 488.544
67.02000 489.498
67.03000 485.266
67.04000 478.322
67.05000 471.815
67.06000 473.665
67.07000 478.704
67.08000 483.061
67.09000 480.536
67.10000 476.226
67.11000 472.441
67.12000 482.927
67.13000 494.037
67.14000 503.384
67.15000 505.611
67.16000 507.088
67.17000 507.806
67.18000 506.443
67.19000 504.962
67.20000 503.989
67.21000 503.321
67.22000 502.834
67.23000 506.157
67.24000 514.278
67.25000 522.393
67.26000 521.474
67.27000 513.149
67.28000 504.935
67.29000 512.885
67.30000 529.272
67.31000 544.656
67.32000 541.421
67.33000 531.180
67.34000 521.908
67.35000 522.203
67.36000 524.943
67.37000 527.343
67.38000 530.652
67.39000 533.623
67.40000 536.142
67.41000 536.867
67.42000 537.407
67.43000 538.419
67.44000 540.704
67.45000 543.060
67.46000 544.600
67.47000 549.082
67.48000 552.421
67.49000 553.872
67.50000 552.982
67.51000 552.082
67.52000 549.595
67.53000 545.828
67.54000 542.114
67.55000 546.374
67.56000 554.716
67.57000 562.790
67.58000 566.033
67.59000 567.485
67.60000 568.406
67.61000 564.193
67.62000 558.687
67.63000 553.876
67.64000 557.637
67.65000 562.071
67.66000 566.629
67.67000 571.669
67.68000 576.758
67.69000 581.277
67.70000 584.281
67.71000 587.203
67.72000 589.102
67.73000 588.112
67.74000 587.342
67.75000 586.958
67.76000 587.047
67.77000 587.141
67.78000 588.729
67.79000 591.504
67.80000 594.239
67.81000 592.497
67.82000 588.485
67.83000 585.149
67.84000 593.662
67.85000 606.507
67.86000 617.566
67.87000 611.687
67.88000 601.609
67.89000 592.824
67.90000 608.038
67.91000 624.378
67.92000 638.473
67.93000 643.914
67.94000 648.497
67.95000 650.066
67.96000 643.735
67.97000 636.990
67.98000 632.631
67.99000 623.360
68.00000 616.510
68.01000 619.502
68.02000 634.316
68.03000 649.135
68.04000 658.707
68.05000 664.178
68.06000 669.565
68.07000 672.751
68.08000 674.716
68.09000 676.781
68.10000 680.533
68.11000 684.893
68.12000 689.227
68.13000 693.317
68.14000 697.348
68.15000 700.853
68.16000 704.232
68.17000 707.099
68.18000 708.684
68.19000 705.401
68.20000 701.646
68.21000 702.077
68.22000 713.319
68.23000 725.112
68.24000 732.691
68.25000 737.769
68.26000 741.439
68.27000 746.797
68.28000 754.150
68.29000 761.479
68.30000 762.267
68.31000 758.020
68.32000 753.842
68.33000 759.305
68.34000 769.438
68.35000 779.365
68.36000 785.859
68.37000 791.135
68.38000 796.976
68.39000 807.965
68.40000 820.191
68.41000 830.798
68.42000 839.002
68.43000 845.669
68.44000 852.283
68.45000 858.701
68.46000 865.100
68.47000 875.424
68.48000 895.743
68.49000 916.557
68.50000 929.859
68.51000 941.946
68.52000 950.728
68.53000 968.541
68.54000 996.859
68.55000 1025.216
68.56000 1058.553
68.57000 1095.664
68.58000 1132.144
68.59000 1169.426
68.60000 1205.865
68.61000 1242.726
68.62000 1286.394
68.63000 1332.444
68.64000 1381.235
68.65000 1454.499
68.66000 1533.557
68.67000 1601.965
68.68000 1682.298
68.69000 1752.156
68.70000 1824.292
68.71000 1904.823
68.72000 1986.135
68.73000 2067.457
68.74000 2148.803
68.75000 2230.152
68.76000 2281.847
68.77000 2394.686
68.78000 2477.391
68.79000 2562.183
68.80000 2649.363
68.81000 2736.712
68.82000 2856.313
68.83000 2999.972
68.84000 3141.076
68.85000 3331.854
68.86000 3540.231
68.87000 3759.256
68.88000 4146.108
68.89000 4590.839
68.90000 5093.728
68.91000 6105.826
68.92000 7236.626
68.93000 8212.574
68.94000 11224.584
68.95000 14042.375
68.96000 17315.629
68.97000 22242.500
68.98000 27319.961
68.99000 32770.559
69.00000 39144.148
69.01000 45560.766
69.02000 49615.055
69.03000 57217.898
69.04000 62768.520
69.05000 67058.242
69.06000 69928.086
69.07000 72792.250
69.08000 74881.383
69.09000 76401.305
69.10000 77892.961
69.11000 79052.516
69.12000 80011.516
69.13000 80981.828
69.14000 82125.922
69.15000 83329.094
69.16000 84434.680
69.17000 84702.414
69.18000 84777.852
69.19000 84842.789
69.20000 82046.281
69.21000 79316.672
69.22000 76306.180
69.23000 72291.031
69.24000 68186.375
69.25000 63910.969
69.26000 59219.270
69.27000 54508.754
69.28000 51549.695
69.29000 47401.715
69.30000 44389.738
69.31000 42286.922
69.32000 41191.270
69.33000 40097.734
69.34000 39235.961
69.35000 38541.793
69.36000 37861.109
69.37000 36544.254
69.38000 34976.172
69.39000 33351.523
69.40000 30879.811
69.41000 28124.363
69.42000 25345.777
69.43000 22372.344
69.44000 19354.879
69.45000 16764.180
69.46000 13737.818
69.47000 11125.323
69.48000 8738.768
69.49000 7148.366
69.50000 5627.349
69.51000 4364.197
69.52000 3720.742
69.53000 3104.436
69.54000 2719.552
69.55000 2370.793
69.56000 2119.604
69.57000 1930.818
69.58000 1810.033
69.59000 1689.433
69.60000 1590.980
69.61000 1508.299
69.62000 1427.295
69.63000 1358.904
69.64000 1298.988
69.65000 1240.746
69.66000 1206.948
69.67000 1181.219
69.68000 1153.462
69.69000 1108.946
69.70000 1060.703
69.71000 1019.392
69.72000 998.362
69.73000 983.074
69.74000 965.232
69.75000 938.518
69.76000 911.049
69.77000 884.206
69.78000 858.847
69.79000 833.550
69.80000 817.846
69.81000 789.761
69.82000 769.427
69.83000 757.586
69.84000 754.848
69.85000 752.122
69.86000 750.665
69.87000 750.098
69.88000 749.542
69.89000 738.344
69.90000 722.726
69.91000 706.923
69.92000 688.466
69.93000 669.147
69.94000 650.690
69.95000 639.221
69.96000 629.284
69.97000 620.797
69.98000 617.263
69.99000 614.874
70.00000 611.616
