20.00000 490.911
20.01000 492.319
20.02000 493.928
20.03000 494.273
20.04000 489.637
20.05000 484.491
20.06000 480.690
20.07000 490.330
20.08000 498.373
20.09000 499.025
20.10000 486.146
20.11000 472.977
20.12000 468.568
20.13000 474.934
20.14000 481.318
20.15000 482.289
20.16000 478.943
20.17000 475.657
20.18000 475.042
20.19000 475.866
20.20000 476.554
20.21000 474.842
20.22000 472.246
20.23000 469.850
20.24000 480.445
20.25000 492.851
20.26000 502.003
20.27000 491.964
20.28000 478.781
20.29000 467.457
20.30000 463.355
20.31000 459.975
20.32000 457.490
20.33000 469.978
20.34000 480.254
20.35000 485.908
20.36000 483.224
20.37000 480.369
20.38000 478.298
20.39000 477.174
20.40000 476.055
20.41000 477.105
20.42000 479.849
20.43000 482.520
20.44000 482.092
20.45000 480.021
20.46000 478.075
20.47000 478.300
20.48000 479.312
20.49000 480.244
20.50000 482.215
20.51000 484.208
20.52000 485.300
20.53000 481.170
20.54000 476.199
20.55000 472.889
20.56000 475.933
20.57000 479.601
20.58000 482.287
20.59000 477.820
20.60000 474.086
20.61000 470.525
20.62000 467.272
20.63000 464.026
20.64000 464.344
20.65000 468.909
20.66000 473.473
20.67000 477.995
20.68000 482.461
20.69000 486.822
20.70000 486.907
20.71000 484.756
20.72000 482.562
20.73000 479.650
20.74000 476.481
20.75000 473.566
20.76000 464.407
20.77000 454.875
20.78000 447.811
20.79000 454.832
20.80000 464.081
20.81000 471.295
20.82000 470.833
20.83000 469.634
20.84000 468.760
20.85000 468.265
20.86000 467.898
20.87000 467.289
20.88000 466.254
20.89000 465.213
20.90000 466.111
20.91000 469.283
20.92000 472.451
20.93000 475.854
20.94000 479.415
20.95000 482.976
20.96000 486.566
20.97000 490.172
20.98000 493.331
20.99000 489.191
21.00000 482.479
21.01000 476.318
21.02000 475.518
21.03000 475.946
21.04000 476.360
21.05000 476.702
21.06000 477.032
21.07000 476.224
21.08000 471.187
21.09000 465.753
21.10000 461.807
21.11000 463.155
21.12000 464.389
21.13000 463.785
21.14000 460.005
21.15000 456.170
21.16000 459.731
21.17000 471.825
21.18000 483.896
21.19000 484.301
21.20000 475.998
21.21000 467.886
21.22000 466.965
21.23000 469.693
21.24000 472.373
21.25000 474.275
21.26000 475.908
21.27000 477.403
21.28000 477.769
21.29000 477.859
21.30000 478.644
21.31000 483.259
21.32000 488.459
21.33000 491.785
21.34000 488.258
21.35000 484.101
21.36000 481.095
21.37000 470.463
21.38000 462.029
21.39000 460.824
21.40000 471.916
21.41000 483.213
21.42000 484.156
21.43000 473.345
21.44000 462.557
21.45000 463.033
21.46000 471.775
21.47000 480.494
21.48000 488.393
21.49000 495.883
21.50000 502.593
21.51000 497.200
21.52000 487.663
21.53000 478.943
21.54000 475.723
21.55000 473.992
21.56000 473.140
21.57000 477.056
21.58000 481.689
21.59000 484.492
21.60000 480.701
21.61000 476.317
21.62000 473.161
21.63000 472.945
21.64000 472.883
21.65000 474.411
21.66000 478.604
21.67000 482.838
21.68000 485.017
21.69000 484.899
21.70000 484.780
21.71000 484.535
21.72000 484.201
21.73000 483.800
21.74000 481.103
21.75000 477.274
21.76000 473.598
21.77000 472.254
21.78000 471.697
21.79000 471.188
21.80000 473.819
21.81000 476.787
21.82000 481.038
21.83000 492.132
21.84000 504.235
21.85000 514.470
21.86000 518.072
21.87000 521.089
21.88000 523.251
21.89000 518.002
21.90000 513.740
21.91000 513.510
21.92000 519.939
21.93000 526.468
21.94000 531.651
21.95000 535.357
21.96000 539.048
21.97000 544.325
21.98000 550.680
21.99000 556.893
22.00000 558.397
22.01000 557.611
22.02000 556.738
22.03000 554.566
22.04000 551.963
22.05000 549.592
22.06000 558.273
22.07000 568.155
22.08000 576.910
22.09000 579.752
22.10000 581.736
22.11000 585.062
22.12000 593.080
22.13000 601.502
22.14000 607.510
22.15000 597.942
22.16000 590.134
22.17000 582.954
22.18000 576.796
22.19000 570.652
22.20000 570.156
22.21000 575.762
22.22000 581.347
22.23000 583.869
22.24000 584.225
22.25000 584.383
22.26000 578.236
22.27000 569.069
22.28000 560.210
22.29000 555.793
22.30000 552.830
22.31000 550.138
22.32000 544.866
22.33000 539.703
22.34000 534.865
22.35000 531.700
22.36000 528.774
22.37000 525.065
22.38000 518.656
22.39000 512.020
22.40000 507.308
22.41000 510.605
22.42000 513.368
22.43000 514.099
22.44000 511.574
22.45000 509.005
22.46000 504.649
22.47000 498.395
22.48000 492.168
22.49000 486.269
22.50000 480.658
22.51000 475.300
22.52000 477.705
22.53000 483.775
22.54000 489.577
22.55000 491.593
22.56000 492.387
22.57000 493.108
22.58000 492.252
22.59000 491.195
22.60000 489.113
22.61000 481.819
22.62000 473.797
22.63000 466.887
22.64000 463.756
22.65000 460.936
22.66000 458.943
22.67000 460.980
22.68000 462.650
22.69000 463.801
22.70000 464.132
22.71000 464.454
22.72000 464.043
22.73000 462.867
22.74000 461.697
22.75000 463.785
22.76000 468.056
22.77000 472.125
22.78000 470.246
22.79000 465.599
22.80000 461.064
22.81000 458.077
22.82000 455.582
22.83000 453.323
22.84000 455.924
22.85000 459.130
22.86000 461.853
22.87000 462.162
22.88000 462.139
22.89000 461.988
22.90000 461.409
22.91000 460.795
22.92000 460.363
22.93000 446.174
22.94000 435.014
22.95000 429.543
22.96000 432.918
22.97000 436.397
22.98000 438.563
22.99000 439.380
23.00000 440.193
23.01000 444.899
23.02000 452.140
23.03000 459.048
23.04000 456.408
23.05000 449.389
23.06000 442.637
23.07000 439.453
23.08000 437.388
23.09000 435.522
23.10000 431.335
23.11000 427.224
23.12000 424.001
23.13000 425.144
23.14000 426.877
23.15000 428.498
23.16000 429.751
23.17000 430.975
23.18000 431.832
23.19000 441.845
23.20000 449.677
23.21000 453.463
23.22000 451.048
23.23000 448.566
23.24000 445.984
23.25000 443.302
23.26000 440.636
23.27000 438.564
23.28000 436.911
23.29000 435.504
23.30000 440.879
23.31000 449.319
23.32000 456.864
23.33000 452.685
23.34000 444.886
23.35000 437.854
23.36000 440.369
23.37000 444.312
23.38000 447.418
23.39000 446.466
23.40000 444.977
23.41000 442.709
23.42000 437.907
23.43000 432.911
23.44000 429.429
23.45000 417.663
23.46000 408.556
23.47000 407.149
23.48000 417.364
23.49000 427.696
23.50000 431.712
23.51000 429.455
23.52000 427.212
23.53000 430.752
23.54000 437.973
23.55000 445.020
23.56000 447.445
23.57000 447.812
23.58000 447.903
23.59000 444.480
23.60000 439.987
23.61000 435.945
23.62000 444.177
23.63000 453.582
23.64000 459.776
23.65000 450.658
23.66000 439.551
23.67000 431.619
23.68000 433.847
23.69000 436.836
23.70000 438.910
23.71000 454.136
23.72000 465.950
23.73000 467.667
23.74000 454.375
23.75000 440.941
23.76000 434.809
23.77000 435.808
23.78000 436.801
23.79000 438.223
23.80000 439.896
23.81000 441.549
23.82000 442.688
23.83000 443.602
23.84000 444.290
23.85000 442.167
23.86000 439.200
23.87000 436.536
23.88000 444.509
23.89000 453.348
23.90000 458.452
23.91000 446.025
23.92000 431.363
23.93000 421.712
23.94000 427.864
23.95000 435.174
23.96000 440.220
23.97000 434.402
23.98000 429.752
23.99000 430.140
24.00000 437.903
24.01000 445.730
24.02000 448.086
24.03000 445.186
24.04000 442.308
24.05000 438.425
24.06000 433.978
24.07000 429.835
24.08000 433.272
24.09000 439.990
24.10000 446.396
24.11000 448.994
24.12000 450.466
24.13000 451.785
24.14000 443.601
24.15000 434.819
24.16000 427.131
24.17000 424.503
24.18000 422.507
24.19000 421.428
24.20000 423.200
24.21000 425.175
24.22000 426.532
24.23000 432.215
24.24000 436.583
24.25000 435.664
24.26000 427.122
24.27000 418.521
24.28000 417.417
24.29000 423.394
24.30000 429.324
24.31000 432.010
24.32000 432.653
24.33000 433.108
24.34000 428.998
24.35000 422.941
24.36000 417.057
24.37000 413.227
24.38000 409.996
24.39000 407.108
24.40000 413.612
24.41000 420.870
24.42000 427.926
24.43000 434.068
24.44000 440.097
24.45000 441.939
24.46000 430.963
24.47000 419.092
24.48000 410.978
24.49000 409.039
24.50000 407.733
24.51000 405.158
24.52000 400.780
24.53000 396.391
24.54000 401.410
24.55000 415.168
24.56000 428.809
24.57000 432.181
24.58000 429.276
24.59000 426.265
24.60000 420.776
24.61000 414.245
24.62000 408.285
24.63000 408.988
24.64000 411.603
24.65000 413.935
24.66000 415.958
24.67000 417.665
24.68000 419.354
24.69000 420.955
24.70000 422.546
24.71000 423.246
24.72000 421.258
24.73000 419.088
24.74000 417.612
24.75000 410.877
24.76000 405.730
24.77000 405.113
24.78000 410.833
24.79000 416.593
24.80000 415.839
24.81000 409.135
24.82000 402.491
24.83000 402.476
24.84000 406.410
24.85000 410.366
24.86000 414.823
24.87000 419.488
24.88000 423.367
24.89000 418.282
24.90000 410.664
24.91000 403.885
24.92000 414.806
24.93000 427.181
24.94000 435.433
24.95000 425.519
24.96000 413.459
24.97000 406.926
24.98000 416.829
24.99000 427.822
25.00000 435.262
25.01000 420.775
25.02000 409.504
25.03000 403.245
25.04000 403.889
25.05000 404.574
25.06000 405.300
25.07000 406.062
25.08000 406.817
25.09000 403.700
25.10000 398.379
25.11000 393.418
25.12000 396.344
25.13000 402.492
25.14000 407.852
25.15000 404.430
25.16000 398.561
25.17000 393.350
25.18000 394.274
25.19000 396.058
25.20000 396.834
25.21000 393.233
25.22000 389.125
25.23000 388.601
25.24000 398.580
25.25000 409.238
25.26000 416.415
25.27000 414.053
25.28000 412.098
25.29000 407.975
25.30000 400.915
25.31000 393.846
25.32000 396.201
25.33000 406.888
25.34000 417.466
25.35000 422.707
25.36000 424.756
25.37000 426.670
25.38000 425.702
25.39000 423.573
25.40000 421.426
25.41000 419.086
25.42000 416.693
25.43000 414.573
25.44000 406.611
25.45000 398.803
25.46000 393.749
25.47000 400.462
25.48000 408.513
25.49000 414.766
25.50000 415.823
25.51000 416.554
25.52000 417.043
25.53000 409.865
25.54000 404.387
25.55000 403.429
25.56000 408.506
25.57000 413.606
25.58000 412.008
25.59000 404.582
25.60000 397.237
25.61000 399.628
25.62000 407.493
25.63000 414.777
25.64000 410.063
25.65000 400.587
25.66000 391.909
25.67000 391.752
25.68000 393.899
25.69000 395.795
25.70000 400.960
25.71000 405.925
25.72000 409.300
25.73000 405.986
25.74000 401.926
25.75000 398.419
25.76000 396.489
25.77000 394.655
25.78000 393.433
25.79000 406.108
25.80000 415.757
25.81000 417.659
25.82000 409.380
25.83000 401.060
25.84000 397.180
25.85000 397.100
25.86000 397.021
25.87000 396.727
25.88000 396.321
25.89000 396.037
25.90000 398.197
25.91000 401.313
25.92000 404.093
25.93000 403.351
25.94000 401.671
25.95000 400.189
25.96000 392.928
25.97000 385.790
25.98000 381.768
25.99000 390.649
26.00000 400.939
26.01000 407.459
26.02000 403.397
26.03000 398.702
26.04000 395.590
26.05000 400.043
26.06000 403.470
26.07000 401.152
26.08000 391.400
26.09000 381.633
26.10000 379.998
26.11000 385.215
26.12000 390.367
26.13000 388.708
26.14000 383.344
26.15000 378.227
26.16000 377.937
26.17000 379.509
26.18000 381.451
26.19000 387.194
26.20000 393.933
26.21000 399.861
26.22000 402.881
26.23000 405.048
26.24000 406.099
26.25000 402.604
26.26000 398.622
26.27000 395.014
26.28000 392.439
26.29000 389.923
26.30000 388.265
26.31000 391.466
26.32000 393.910
26.33000 396.112
26.34000 398.003
26.35000 399.889
26.36000 399.789
26.37000 398.041
26.38000 396.316
26.39000 395.152
26.40000 394.323
26.41000 393.647
26.42000 395.891
26.43000 399.244
26.44000 401.746
26.45000 395.713
26.46000 387.475
26.47000 380.246
26.48000 383.575
26.49000 387.979
26.50000 391.633
26.51000 392.277
26.52000 392.605
26.53000 392.316
26.54000 390.348
26.55000 388.284
26.56000 386.930
26.57000 388.350
26.58000 389.441
26.59000 389.357
26.60000 387.801
26.61000 386.242
26.62000 385.766
26.63000 386.172
26.64000 386.572
26.65000 385.640
26.66000 384.022
26.67000 382.634
26.68000 385.447
26.69000 389.835
26.70000 393.481
26.71000 389.852
26.72000 384.371
26.73000 379.573
26.74000 385.683
26.75000 392.487
26.76000 396.290
26.77000 388.220
26.78000 378.930
26.79000 372.149
26.80000 372.108
26.81000 372.438
26.82000 372.653
26.83000 382.252
26.84000 389.445
26.85000 391.939
26.86000 388.633
26.87000 385.316
26.88000 383.603
26.89000 383.177
26.90000 382.756
26.91000 385.582
26.92000 390.029
26.93000 394.093
26.94000 391.316
26.95000 386.014
26.96000 381.516
26.97000 384.756
26.98000 389.936
26.99000 394.460
27.00000 384.307
27.01000 373.552
27.02000 366.158
27.03000 371.868
27.04000 378.896
27.05000 383.994
27.06000 383.980
27.07000 383.693
27.08000 383.507
27.09000 380.230
27.10000 377.784
27.11000 376.686
27.12000 377.225
27.13000 377.757
27.14000 375.354
27.15000 370.632
27.16000 365.980
27.17000 364.004
27.18000 363.469
27.19000 363.187
27.20000 367.313
27.21000 373.043
27.22000 379.159
27.23000 388.911
27.24000 399.561
27.25000 408.838
27.26000 397.529
27.27000 385.023
27.28000 374.598
27.29000 372.160
27.30000 370.508
27.31000 369.371
27.32000 369.576
27.33000 369.850
27.34000 370.027
27.35000 378.527
27.36000 384.857
27.37000 384.941
27.38000 377.558
27.39000 370.187
27.40000 369.946
27.41000 375.251
27.42000 380.474
27.43000 386.882
27.44000 393.694
27.45000 399.769
27.46000 393.384
27.47000 382.529
27.48000 373.137
27.49000 377.265
27.50000 384.679
27.51000 391.122
27.52000 385.844
27.53000 379.756
27.54000 374.869
27.55000 374.528
27.56000 374.625
27.57000 374.540
27.58000 373.985
27.59000 373.406
27.60000 373.034
27.61000 369.272
27.62000 366.482
27.63000 368.122
27.64000 374.973
27.65000 381.811
27.66000 383.681
27.67000 381.746
27.68000 379.844
27.69000 375.884
27.70000 371.024
27.71000 366.532
27.72000 368.095
27.73000 371.798
27.74000 375.218
27.75000 376.081
27.76000 376.332
27.77000 376.549
27.78000 372.195
27.79000 367.880
27.80000 364.624
27.81000 365.309
27.82000 366.366
27.83000 365.663
27.84000 360.498
27.85000 355.113
27.86000 351.678
27.87000 357.743
27.88000 362.276
27.89000 366.169
27.90000 369.321
27.91000 372.466
27.92000 374.457
27.93000 375.577
27.94000 376.677
27.95000 372.457
27.96000 365.759
27.97000 359.138
27.98000 353.741
27.99000 348.771
28.00000 345.428
28.01000 356.534
28.02000 371.044
28.03000 383.590
28.04000 377.227
28.05000 369.355
28.06000 362.209
28.07000 357.728
28.08000 353.493
28.09000 353.872
28.10000 365.779
28.11000 378.236
28.12000 386.138
28.13000 375.785
28.14000 368.049
28.15000 367.004
28.16000 373.582
28.17000 380.115
28.18000 376.911
28.19000 366.478
28.20000 356.233
28.21000 352.526
28.22000 352.116
28.23000 351.961
28.24000 355.783
28.25000 360.971
28.26000 365.640
28.27000 365.784
28.28000 364.879
28.29000 364.098
28.30000 370.329
28.31000 376.509
28.32000 379.096
28.33000 368.692
28.34000 357.113
28.35000 350.110
28.36000 354.381
28.37000 359.173
28.38000 362.195
28.39000 367.128
28.40000 370.722
28.41000 369.890
28.42000 364.100
28.43000 358.357
28.44000 361.293
28.45000 370.573
28.46000 379.678
28.47000 380.211
28.48000 376.638
28.49000 373.268
28.50000 372.979
28.51000 373.732
28.52000 374.409
28.53000 374.428
28.54000 374.297
28.55000 374.184
28.56000 376.840
28.57000 379.436
28.58000 381.009
28.59000 378.942
28.60000 376.553
28.61000 373.873
28.62000 370.489
28.63000 367.073
28.64000 364.931
28.65000 365.941
28.66000 366.705
28.67000 365.920
28.68000 363.426
28.69000 360.952
28.70000 361.561
28.71000 364.389
28.72000 367.161
28.73000 366.003
28.74000 363.043
28.75000 360.370
28.76000 361.961
28.77000 364.974
28.78000 366.843
28.79000 359.134
28.80000 349.271
28.81000 340.810
28.82000 337.124
28.83000 334.597
28.84000 335.361
28.85000 347.669
28.86000 360.976
28.87000 370.561
28.88000 371.236
28.89000 371.524
28.90000 371.704
28.91000 364.549
28.92000 359.317
28.93000 357.375
28.94000 359.000
28.95000 360.594
28.96000 357.584
28.97000 351.311
28.98000 345.167
28.99000 345.637
29.00000 349.144
29.01000 352.662
29.02000 356.342
29.03000 360.076
29.04000 363.616
29.05000 365.557
29.06000 367.146
29.07000 368.504
29.08000 368.020
29.09000 367.390
29.10000 367.129
29.11000 368.142
29.12000 369.264
29.13000 370.083
29.14000 370.187
29.15000 370.261
29.16000 370.307
29.17000 366.892
29.18000 364.403
29.19000 361.525
29.20000 358.230
29.21000 354.981
29.22000 357.701
29.23000 364.589
29.24000 371.329
29.25000 374.139
29.26000 375.050
29.27000 375.311
29.28000 366.379
29.29000 354.469
29.30000 343.343
29.31000 338.533
29.32000 335.099
29.33000 332.169
29.34000 339.090
29.35000 346.080
29.36000 350.431
29.37000 345.794
29.38000 340.412
29.39000 337.761
29.40000 341.458
29.41000 345.412
29.42000 347.848
29.43000 337.146
29.44000 329.349
29.45000 330.982
29.46000 342.505
29.47000 353.952
29.48000 356.234
29.49000 352.214
29.50000 348.283
29.51000 346.058
29.52000 344.688
29.53000 343.816
29.54000 349.816
29.55000 358.010
29.56000 364.754
29.57000 360.028
29.58000 352.841
29.59000 346.726
29.60000 354.931
29.61000 363.484
29.62000 369.880
29.63000 369.034
29.64000 367.602
29.65000 364.762
29.66000 358.697
29.67000 352.504
29.68000 348.712
29.69000 342.466
29.70000 337.974
29.71000 338.769
29.72000 345.015
29.73000 351.281
29.74000 359.585
29.75000 369.269
29.76000 378.728
29.77000 378.379
29.78000 373.725
29.79000 369.007
29.80000 363.433
29.81000 357.589
29.82000 353.241
29.83000 360.489
29.84000 370.187
29.85000 378.417
29.86000 380.300
29.87000 381.159
29.88000 383.193
29.89000 389.116
29.90000 395.346
29.91000 399.928
29.92000 400.786
29.93000 401.503
29.94000 401.940
29.95000 405.976
29.96000 408.888
29.97000 409.717
29.98000 408.434
29.99000 407.182
30.00000 409.146
30.01000 413.254
30.02000 417.263
30.03000 428.695
30.04000 442.842
30.05000 455.681
30.06000 451.307
30.07000 441.600
30.08000 433.485
30.09000 437.501
30.10000 444.038
30.11000 449.571
30.12000 438.224
30.13000 426.848
30.14000 418.192
30.15000 418.399
30.16000 419.290
30.17000 419.749
30.18000 419.244
30.19000 418.703
30.20000 418.377
30.21000 422.823
30.22000 426.026
30.23000 422.081
30.24000 411.008
30.25000 400.019
30.26000 397.005
30.27000 399.232
30.28000 401.403
30.29000 398.846
30.30000 394.388
30.31000 390.713
30.32000 397.088
30.33000 406.533
30.34000 414.041
30.35000 407.072
30.36000 397.141
30.37000 388.760
30.38000 388.228
30.39000 388.638
30.40000 390.757
30.41000 398.357
30.42000 406.371
30.43000 410.732
30.44000 407.079
30.45000 403.141
30.46000 400.774
30.47000 390.709
30.48000 383.502
30.49000 385.975
30.50000 397.935
30.51000 409.757
30.52000 409.183
30.53000 400.588
30.54000 392.216
30.55000 388.186
30.56000 386.167
30.57000 384.216
30.58000 383.120
30.59000 382.281
30.60000 381.043
30.61000 376.870
30.62000 372.107
30.63000 368.099
30.64000 373.810
30.65000 379.612
30.66000 384.147
30.67000 384.677
30.68000 384.912
30.69000 386.009
30.70000 388.970
30.71000 391.994
30.72000 393.800
30.73000 393.928
30.74000 394.007
30.75000 395.626
30.76000 398.726
30.77000 401.784
30.78000 401.212
30.79000 398.327
30.80000 395.520
30.81000 398.101
30.82000 402.785
30.83000 407.160
30.84000 407.753
30.85000 407.224
30.86000 407.172
30.87000 410.555
30.88000 414.619
30.89000 418.029
30.90000 416.057
30.91000 413.852
30.92000 414.976
30.93000 426.475
30.94000 438.720
30.95000 447.237
30.96000 447.809
30.97000 448.118
30.98000 448.302
30.99000 449.950
31.00000 451.125
31.01000 455.160
31.02000 461.907
31.03000 468.670
31.04000 476.752
31.05000 485.662
31.06000 494.322
31.07000 514.647
31.08000 538.713
31.09000 562.349
31.10000 580.834
31.11000 597.815
31.12000 614.107
31.13000 625.526
31.14000 635.996
31.15000 644.756
31.16000 699.681
31.17000 750.046
31.18000 803.329
31.19000 865.577
31.20000 928.453
31.21000 986.017
31.22000 1032.421
31.23000 1078.470
31.24000 1105.611
31.25000 1225.787
31.26000 1311.103
31.27000 1387.106
31.28000 1454.428
31.29000 1521.891
31.30000 1599.594
31.31000 1683.634
31.32000 1765.234
31.33000 1858.884
31.34000 1952.603
31.35000 2043.721
31.36000 2104.363
31.37000 2156.232
31.38000 2205.687
31.39000 2238.353
31.40000 2267.799
31.41000 2292.365
31.42000 2337.115
31.43000 2376.251
31.44000 2401.147
31.45000 2382.936
31.46000 2361.776
31.47000 2328.193
31.48000 2268.886
31.49000 2208.793
31.50000 2173.605
31.51000 2086.510
31.52000 2024.933
31.53000 1967.144
31.54000 1912.826
31.55000 1858.149
31.56000 1778.675
31.57000 1684.085
31.58000 1592.339
31.59000 1518.617
31.60000 1455.846
31.61000 1392.534
31.62000 1323.037
31.63000 1251.786
31.64000 1182.074
31.65000 1122.875
31.66000 1065.659
31.67000 1018.065
31.68000 963.770
31.69000 918.169
31.70000 873.736
31.71000 832.788
31.72000 792.072
31.73000 756.116
31.74000 729.870
31.75000 703.911
31.76000 688.812
31.77000 643.759
31.78000 611.984
31.79000 585.583
31.80000 564.032
31.81000 542.617
31.82000 530.127
31.83000 522.997
31.84000 516.090
31.85000 503.054
31.86000 488.341
31.87000 474.507
31.88000 470.546
31.89000 469.342
31.90000 467.150
31.91000 458.330
31.92000 448.280
31.93000 439.945
31.94000 428.685
31.95000 419.100
31.96000 410.415
31.97000 404.377
31.98000 398.510
31.99000 392.421
32.00000 385.883
32.01000 379.332
32.02000 375.547
32.03000 381.745
32.04000 386.121
32.05000 382.619
32.06000 372.127
32.07000 361.805
32.08000 361.946
32.09000 368.278
32.10000 374.406
32.11000 371.775
32.12000 365.946
32.13000 360.439
32.14000 358.466
32.15000 357.466
32.16000 357.283
32.17000 362.486
32.18000 368.673
32.19000 373.789
32.20000 370.234
32.21000 366.487
32.22000 361.906
32.23000 354.909
32.24000 347.758
32.25000 343.083
32.26000 343.314
32.27000 343.678
32.28000 343.888
32.29000 349.342
32.30000 353.171
32.31000 353.838
32.32000 351.746
32.33000 349.630
32.34000 346.053
32.35000 341.626
32.36000 337.345
32.37000 336.020
32.38000 335.880
32.39000 335.526
32.40000 332.883
32.41000 329.619
32.42000 327.250
32.43000 330.675
32.44000 335.141
32.45000 338.822
32.46000 329.616
32.47000 320.853
32.48000 314.504
32.49000 315.050
32.50000 316.021
32.51000 317.581
32.52000 320.289
32.53000 323.027
32.54000 324.588
32.55000 323.653
32.56000 322.996
32.57000 324.067
32.58000 326.624
32.59000 329.155
32.60000 330.228
32.61000 330.464
32.62000 330.692
32.63000 324.625
32.64000 316.581
32.65000 309.487
32.66000 312.372
32.67000 317.923
32.68000 322.696
32.69000 322.521
32.70000 321.473
32.71000 320.611
32.72000 321.227
32.73000 321.867
32.74000 323.602
32.75000 328.424
32.76000 333.431
32.77000 334.786
32.78000 329.111
32.79000 323.260
32.80000 319.949
32.81000 316.133
32.82000 313.490
32.83000 318.543
32.84000 330.100
32.85000 341.423
32.86000 340.413
32.87000 332.421
32.88000 324.714
32.89000 318.485
32.90000 313.164
32.91000 308.297
32.92000 308.108
32.93000 309.150
32.94000 310.735
32.95000 315.715
32.96000 321.285
32.97000 325.848
32.98000 313.038
32.99000 301.003
33.00000 293.032
33.01000 296.333
33.02000 300.294
33.03000 302.547
33.04000 301.558
33.05000 300.492
33.06000 299.893
33.07000 306.163
33.08000 310.533
33.09000 315.648
33.10000 321.384
33.11000 326.904
33.12000 321.664
33.13000 310.421
33.14000 299.591
33.15000 297.937
33.16000 299.669
33.17000 301.532
33.18000 304.710
33.19000 308.228
33.20000 311.137
33.21000 310.294
33.22000 308.810
33.23000 307.598
33.24000 305.136
33.25000 303.013
33.26000 301.906
33.27000 303.579
33.28000 305.410
33.29000 308.260
33.30000 313.012
33.31000 317.808
33.32000 320.485
33.33000 312.957
33.34000 307.726
33.35000 303.242
33.36000 299.371
33.37000 295.487
33.38000 290.994
33.39000 286.167
33.40000 281.522
33.41000 287.607
33.42000 297.096
33.43000 305.664
33.44000 305.148
33.45000 302.314
33.46000 300.108
33.47000 301.693
33.48000 303.914
33.49000 305.723
33.50000 304.382
33.51000 303.022
33.52000 301.645
33.53000 300.223
33.54000 298.799
33.55000 297.404
33.56000 296.062
33.57000 294.722
33.58000 293.980
33.59000 301.440
33.60000 306.590
33.61000 306.054
33.62000 300.937
33.63000 295.854
33.64000 292.352
33.65000 289.706
33.66000 287.164
33.67000 287.391
33.68000 288.564
33.69000 289.842
33.70000 292.137
33.71000 294.688
33.72000 296.244
33.73000 291.888
33.74000 286.555
33.75000 282.228
33.76000 289.566
33.77000 296.510
33.78000 301.880
33.79000 303.067
33.80000 304.029
33.81000 303.608
33.82000 300.676
33.83000 297.691
33.84000 296.050
33.85000 291.790
33.86000 288.858
33.87000 287.750
33.88000 288.089
33.89000 288.458
33.90000 290.149
33.91000 292.547
33.92000 294.847
33.93000 296.440
33.94000 297.688
33.95000 298.569
33.96000 295.985
33.97000 292.543
33.98000 289.358
33.99000 287.668
34.00000 286.222
34.01000 285.052
34.02000 284.400
34.03000 283.912
34.04000 285.027
34.05000 290.341
34.06000 295.875
34.07000 299.092
34.08000 298.162
34.09000 297.150
34.10000 296.598
34.11000 300.896
34.12000 303.828
34.13000 299.833
34.14000 290.428
34.15000 281.270
34.16000 282.338
34.17000 288.785
34.18000 294.965
34.19000 297.114
34.20000 297.766
34.21000 297.730
34.22000 291.307
34.23000 283.327
34.24000 277.134
34.25000 281.202
34.26000 286.907
34.27000 291.507
34.28000 285.273
34.29000 279.358
34.30000 277.026
34.31000 283.939
34.32000 291.322
34.33000 296.700
34.34000 298.542
34.35000 300.317
34.36000 301.279
34.37000 298.377
34.38000 296.393
34.39000 296.508
34.40000 298.236
34.41000 299.820
34.42000 295.674
34.43000 288.556
34.44000 281.741
34.45000 281.104
34.46000 282.552
34.47000 283.810
34.48000 283.344
34.49000 282.465
34.50000 282.009
34.51000 283.952
34.52000 286.271
34.53000 288.134
34.54000 286.607
34.55000 285.108
34.56000 283.062
34.57000 279.624
34.58000 276.116
34.59000 274.131
34.60000 274.792
34.61000 275.500
34.62000 275.881
34.63000 280.902
34.64000 284.327
34.65000 285.601
34.66000 285.249
34.67000 284.852
34.68000 282.773
34.69000 279.834
34.70000 277.023
34.71000 281.236
34.72000 287.440
34.73000 292.613
34.74000 288.601
34.75000 282.416
34.76000 278.022
34.77000 283.574
34.78000 290.659
34.79000 296.334
34.80000 289.207
34.81000 282.478
34.82000 276.801
34.83000 273.756
34.84000 270.837
34.85000 271.446
34.86000 278.095
34.87000 284.846
34.88000 288.449
34.89000 279.484
34.90000 273.381
34.91000 270.184
34.92000 269.152
34.93000 268.227
34.94000 271.227
34.95000 276.204
34.96000 280.956
34.97000 280.276
34.98000 277.906
34.99000 275.416
35.00000 271.870
35.01000 268.078
35.02000 264.737
35.03000 263.860
35.04000 263.355
35.05000 262.951
35.06000 267.443
35.07000 271.430
35.08000 274.007
35.09000 273.101
35.10000 272.034
35.11000 271.377
35.12000 271.412
35.13000 271.459
35.14000 271.484
35.15000 283.207
35.16000 291.141
35.17000 291.842
35.18000 287.239
35.19000 282.627
35.20000 277.704
35.21000 272.626
35.22000 267.785
35.23000 268.061
35.24000 269.930
35.25000 271.645
35.26000 272.048
35.27000 272.151
35.28000 272.453
35.29000 273.825
35.30000 275.355
35.31000 276.573
35.32000 274.078
35.33000 271.801
35.34000 270.930
35.35000 273.483
35.36000 276.191
35.37000 275.278
35.38000 268.347
35.39000 261.325
35.40000 257.635
35.41000 261.506
35.42000 264.140
35.43000 267.923
35.44000 272.535
35.45000 276.992
35.46000 276.211
35.47000 272.868
35.48000 269.685
35.49000 265.757
35.50000 261.889
35.51000 258.660
35.52000 260.808
35.53000 264.170
35.54000 265.724
35.55000 257.718
35.56000 248.315
35.57000 240.861
35.58000 244.117
35.59000 247.486
35.60000 251.373
35.61000 256.504
35.62000 261.691
35.63000 265.700
35.64000 267.782
35.65000 269.836
35.66000 270.907
35.67000 277.630
35.68000 282.149
35.69000 282.737
35.70000 280.530
35.71000 278.301
35.72000 275.347
35.73000 272.043
35.74000 268.902
35.75000 267.583
35.76000 266.919
35.77000 266.669
35.78000 269.836
35.79000 273.763
35.80000 276.885
35.81000 275.828
35.82000 274.172
35.83000 272.863
35.84000 274.862
35.85000 276.693
35.86000 275.960
35.87000 269.161
35.88000 262.105
35.89000 257.048
35.90000 255.216
35.91000 253.427
35.92000 252.502
35.93000 250.672
35.94000 249.462
35.95000 251.536
35.96000 255.909
35.97000 260.207
35.98000 262.170
35.99000 263.024
36.00000 263.834
36.01000 264.771
36.02000 265.673
36.03000 266.724
36.04000 268.978
36.05000 271.496
36.06000 272.279
36.07000 264.181
36.08000 254.832
36.09000 247.471
36.10000 249.168
36.11000 251.131
36.12000 253.104
36.13000 255.101
36.14000 257.098
36.15000 259.283
36.16000 261.766
36.17000 264.252
36.18000 265.527
36.19000 258.316
36.20000 253.528
36.21000 256.217
36.22000 264.063
36.23000 271.564
36.24000 268.657
36.25000 260.877
36.26000 253.500
36.27000 254.796
36.28000 258.551
36.29000 261.768
36.30000 260.717
36.31000 258.747
36.32000 257.430
36.33000 259.397
36.34000 261.820
36.35000 263.721
36.36000 261.194
36.37000 258.886
36.38000 257.682
36.39000 259.014
36.40000 260.447
36.41000 260.080
36.42000 256.894
36.43000 253.675
36.44000 252.037
36.45000 259.255
36.46000 264.077
36.47000 266.892
36.48000 268.345
36.49000 269.673
36.50000 267.374
36.51000 263.401
36.52000 259.640
36.53000 256.026
36.54000 252.743
36.55000 249.774
36.56000 249.252
36.57000 249.248
36.58000 250.104
36.59000 255.218
36.60000 260.912
36.61000 265.362
36.62000 258.202
36.63000 251.752
36.64000 247.169
36.65000 246.818
36.66000 246.629
36.67000 247.760
36.68000 250.928
36.69000 254.118
36.70000 255.727
36.71000 252.619
36.72000 250.569
36.73000 251.472
36.74000 254.351
36.75000 257.200
36.76000 259.190
36.77000 260.790
36.78000 262.303
36.79000 263.102
36.80000 263.633
36.81000 264.490
36.82000 267.842
36.83000 271.715
36.84000 274.251
36.85000 270.272
36.86000 265.423
36.87000 261.646
36.88000 267.555
36.89000 272.861
36.90000 275.621
36.91000 272.701
36.92000 269.569
36.93000 270.647
36.94000 278.121
36.95000 285.660
36.96000 289.432
36.97000 280.088
36.98000 273.962
36.99000 277.884
37.00000 288.428
37.01000 298.435
37.02000 293.890
37.03000 282.819
37.04000 272.368
37.05000 275.908
37.06000 283.086
37.07000 289.945
37.08000 294.409
37.09000 298.382
37.10000 300.910
37.11000 296.505
37.12000 291.193
37.13000 287.071
37.14000 289.138
37.15000 291.154
37.16000 292.922
37.17000 294.143
37.18000 295.345
37.19000 293.423
37.20000 286.829
37.21000 280.189
37.22000 275.805
37.23000 273.639
37.24000 271.440
37.25000 266.224
37.26000 259.049
37.27000 252.310
37.28000 256.985
37.29000 266.703
37.30000 275.863
37.31000 267.680
37.32000 255.393
37.33000 245.445
37.34000 252.733
37.35000 263.503
37.36000 271.900
37.37000 269.084
37.38000 264.828
37.39000 261.536
37.40000 257.460
37.41000 254.179
37.42000 253.614
37.43000 258.938
37.44000 264.465
37.45000 264.994
37.46000 258.158
37.47000 251.257
37.48000 249.951
37.49000 254.059
37.50000 258.168
37.51000 262.398
37.52000 266.705
37.53000 270.776
37.54000 268.862
37.55000 264.341
37.56000 260.087
37.57000 259.522
37.58000 260.008
37.59000 260.317
37.60000 259.340
37.61000 258.107
37.62000 256.665
37.63000 254.247
37.64000 251.707
37.65000 249.750
37.66000 257.147
37.67000 263.540
37.68000 268.060
37.69000 268.579
37.70000 268.964
37.71000 269.352
37.72000 269.742
37.73000 270.133
37.74000 267.629
37.75000 262.373
37.76000 257.136
37.77000 253.417
37.78000 250.654
37.79000 248.112
37.80000 250.944
37.81000 256.083
37.82000 260.913
37.83000 262.831
37.84000 263.803
37.85000 264.081
37.86000 259.433
37.87000 253.822
37.88000 248.892
37.89000 247.081
37.90000 245.657
37.91000 244.563
37.92000 252.513
37.93000 259.299
37.94000 263.731
37.95000 263.203
37.96000 262.515
37.97000 259.952
37.98000 254.710
37.99000 249.447
38.00000 248.947
38.01000 252.902
38.02000 256.876
38.03000 262.349
38.04000 268.753
38.05000 274.892
38.06000 274.775
38.07000 272.010
38.08000 269.416
38.09000 270.244
38.10000 271.898
38.11000 272.729
38.12000 267.818
38.13000 261.801
38.14000 258.005
38.15000 264.211
38.16000 271.633
38.17000 277.307
38.18000 272.739
38.19000 268.581
38.20000 265.703
38.21000 265.482
38.22000 265.343
38.23000 269.718
38.24000 280.447
38.25000 291.219
38.26000 293.485
38.27000 287.928
38.28000 282.399
38.29000 278.856
38.30000 276.527
38.31000 274.391
38.32000 276.670
38.33000 280.792
38.34000 284.652
38.35000 287.867
38.36000 290.623
38.37000 294.014
38.38000 301.758
38.39000 310.326
38.40000 317.421
38.41000 317.983
38.42000 317.766
38.43000 317.601
38.44000 328.798
38.45000 338.211
38.46000 346.493
38.47000 352.461
38.48000 358.360
38.49000 367.589
38.50000 381.434
38.51000 395.304
38.52000 415.284
38.53000 440.771
38.54000 466.302
38.55000 494.716
38.56000 524.867
38.57000 554.910
38.58000 582.546
38.59000 609.193
38.60000 634.113
38.61000 681.124
38.62000 729.439
38.63000 777.029
38.64000 819.738
38.65000 861.539
38.66000 899.864
38.67000 923.008
38.68000 944.378
38.69000 960.589
38.70000 1012.211
38.71000 1054.582
38.72000 1090.757
38.73000 1114.431
38.74000 1137.747
38.75000 1152.175
38.76000 1154.467
38.77000 1156.687
38.78000 1161.054
38.79000 1167.326
38.80000 1173.236
38.81000 1156.646
38.82000 1126.700
38.83000 1097.111
38.84000 1075.208
38.85000 1056.419
38.86000 1038.877
38.87000 996.581
38.88000 952.038
38.89000 909.021
38.90000 876.092
38.91000 845.012
38.92000 808.846
38.93000 750.802
38.94000 690.252
38.95000 644.499
38.96000 609.002
38.97000 581.685
38.98000 553.736
38.99000 524.528
39.00000 495.286
39.01000 469.400
39.02000 448.024
39.03000 426.685
39.04000 408.083
39.05000 391.905
39.06000 375.709
39.07000 358.498
39.08000 340.694
39.09000 323.569
39.10000 320.682
39.11000 323.480
39.12000 326.089
39.13000 320.583
39.14000 313.601
39.15000 306.323
39.16000 297.110
39.17000 287.549
39.18000 279.888
39.19000 280.273
39.20000 281.563
39.21000 282.533
39.22000 277.388
39.23000 273.066
39.24000 268.845
39.25000 264.826
39.26000 260.811
39.27000 258.168
39.28000 257.339
39.29000 256.519
39.30000 255.079
39.31000 253.107
39.32000 251.198
39.33000 252.797
39.34000 256.418
39.35000 259.835
39.36000 259.119
39.37000 256.777
39.38000 254.598
39.39000 250.673
39.40000 246.703
39.41000 243.261
39.42000 243.191
39.43000 243.719
39.44000 243.926
39.45000 242.797
39.46000 241.520
39.47000 240.564
39.48000 235.265
39.49000 230.922
39.50000 227.964
39.51000 227.680
39.52000 227.463
39.53000 229.368
39.54000 234.036
39.55000 238.712
39.56000 240.187
39.57000 238.952
39.58000 237.783
39.59000 240.124
39.60000 244.458
39.61000 248.298
39.62000 242.389
39.63000 232.697
39.64000 223.694
39.65000 226.326
39.66000 231.471
39.67000 235.427
39.68000 231.922
39.69000 227.117
39.70000 224.357
39.71000 229.999
39.72000 236.548
39.73000 241.437
39.74000 239.562
39.75000 237.790
39.76000 234.983
39.77000 230.205
39.78000 225.381
39.79000 223.938
39.80000 226.835
39.81000 229.745
39.82000 231.895
39.83000 233.406
39.84000 234.914
39.85000 236.213
39.86000 237.397
39.87000 238.478
39.88000 237.602
39.89000 235.978
39.90000 234.472
39.91000 233.695
39.92000 233.166
39.93000 232.330
39.94000 229.599
39.95000 226.543
39.96000 224.770
39.97000 228.185
39.98000 232.148
39.99000 235.095
40.00000 231.019
40.01000 227.537
40.02000 226.608
40.03000 230.467
40.04000 234.436
40.05000 236.790
40.06000 237.103
40.07000 237.409
40.08000 234.058
40.09000 227.724
40.10000 221.502
40.11000 220.690
40.12000 222.861
40.13000 225.183
40.14000 230.308
40.15000 236.490
40.16000 242.212
40.17000 238.910
40.18000 233.866
40.19000 228.552
40.20000 221.610
40.21000 214.393
40.22000 210.421
40.23000 219.373
40.24000 229.664
40.25000 237.284
40.26000 231.075
40.27000 225.658
40.28000 221.308
40.29000 218.932
40.30000 216.600
40.31000 217.432
40.32000 222.196
40.33000 226.965
40.34000 229.057
40.35000 228.986
40.36000 228.775
40.37000 222.172
40.38000 212.095
40.39000 202.823
40.40000 208.111
40.41000 218.809
40.42000 228.694
40.43000 233.556
40.44000 236.782
40.45000 238.049
40.46000 227.630
40.47000 215.274
40.48000 205.871
40.49000 208.049
40.50000 211.404
40.51000 213.877
40.52000 213.429
40.53000 212.960
40.54000 213.759
40.55000 216.869
40.56000 220.028
40.57000 222.711
40.58000 224.813
40.59000 226.910
40.60000 227.188
40.61000 226.025
40.62000 224.809
40.63000 221.299
40.64000 216.561
40.65000 212.136
40.66000 213.242
40.67000 216.374
40.68000 219.262
40.69000 222.232
40.70000 224.911
40.71000 227.218
40.72000 227.338
40.73000 227.102
40.74000 226.594
40.75000 225.035
40.76000 223.371
40.77000 222.149
40.78000 222.106
40.79000 222.121
40.80000 220.682
40.81000 216.631
40.82000 212.529
40.83000 212.692
40.84000 217.991
40.85000 223.289
40.86000 225.783
40.87000 226.078
40.88000 226.312
40.89000 224.006
40.90000 220.358
40.91000 216.884
40.92000 216.380
40.93000 216.948
40.94000 217.470
40.95000 212.195
40.96000 206.209
40.97000 201.293
40.98000 202.549
40.99000 204.794
41.00000 206.694
41.01000 207.285
41.02000 207.749
41.03000 208.088
41.04000 207.048
41.05000 206.191
41.06000 208.122
41.07000 214.984
41.08000 221.940
41.09000 223.128
41.10000 217.485
41.11000 211.842
41.12000 212.559
41.13000 218.148
41.14000 223.502
41.15000 219.452
41.16000 210.512
41.17000 202.256
41.18000 205.400
41.19000 212.600
41.20000 219.217
41.21000 220.310
41.22000 220.099
41.23000 219.661
41.24000 217.946
41.25000 216.030
41.26000 214.166
41.27000 212.501
41.28000 210.854
41.29000 209.655
41.30000 205.233
41.31000 201.705
41.32000 201.772
41.33000 208.103
41.34000 214.549
41.35000 215.977
41.36000 211.558
41.37000 207.141
41.38000 206.537
41.39000 208.812
41.40000 210.994
41.41000 209.582
41.42000 206.328
41.43000 203.408
41.44000 205.916
41.45000 210.326
41.46000 214.372
41.47000 212.444
41.48000 209.462
41.49000 207.188
41.50000 208.855
41.51000 211.131
41.52000 213.160
41.53000 214.274
41.54000 215.303
41.55000 216.049
41.56000 211.004
41.57000 206.913
41.58000 206.201
41.59000 211.292
41.60000 216.484
41.61000 217.145
41.62000 212.610
41.63000 208.082
41.64000 206.973
41.65000 208.409
41.66000 209.747
41.67000 207.480
41.68000 203.391
41.69000 199.741
41.70000 203.018
41.71000 208.690
41.72000 213.883
41.73000 215.284
41.74000 215.743
41.75000 216.130
41.76000 216.123
41.77000 216.056
41.78000 215.227
41.79000 211.627
41.80000 207.774
41.81000 204.993
41.82000 210.300
41.83000 214.659
41.84000 216.062
41.85000 212.461
41.86000 208.778
41.87000 204.902
41.88000 200.809
41.89000 196.729
41.90000 198.196
41.91000 203.701
41.92000 209.185
41.93000 213.904
41.94000 218.244
41.95000 221.837
41.96000 213.928
41.97000 202.102
41.98000 191.297
41.99000 195.680
42.00000 202.675
42.01000 208.653
42.02000 209.144
42.03000 208.816
42.04000 207.293
42.05000 201.485
42.06000 195.294
42.07000 190.845
42.08000 195.358
42.09000 199.123
42.10000 201.485
42.11000 201.510
42.12000 201.499
42.13000 201.579
42.14000 201.761
42.15000 201.942
42.16000 204.935
42.17000 209.923
42.18000 214.673
42.19000 211.359
42.20000 204.088
42.21000 197.525
42.22000 201.596
42.23000 209.236
42.24000 216.203
42.25000 216.127
42.26000 214.645
42.27000 212.687
42.28000 208.200
42.29000 203.341
42.30000 199.215
42.31000 197.673
42.32000 196.358
42.33000 195.417
42.34000 201.220
42.35000 205.877
42.36000 207.258
42.37000 203.255
42.38000 199.174
42.39000 197.502
42.40000 198.462
42.41000 199.419
42.42000 198.420
42.43000 196.050
42.44000 193.734
42.45000 193.226
42.46000 193.590
42.47000 194.121
42.48000 197.090
42.49000 200.866
42.50000 204.303
42.51000 206.918
42.52000 209.072
42.53000 209.928
42.54000 204.015
42.55000 197.126
42.56000 192.504
42.57000 195.762
42.58000 199.695
42.59000 202.495
42.60000 207.019
42.61000 210.523
42.62000 210.983
42.63000 206.519
42.64000 201.987
42.65000 198.815
42.66000 197.104
42.67000 195.401
42.68000 196.101
42.69000 198.465
42.70000 200.732
42.71000 199.958
42.72000 197.735
42.73000 195.717
42.74000 196.634
42.75000 198.507
42.76000 200.209
42.77000 200.882
42.78000 201.277
42.79000 201.120
42.80000 198.127
42.81000 194.733
42.82000 193.604
42.83000 200.242
42.84000 207.529
42.85000 212.695
42.86000 203.816
42.87000 196.624
42.88000 191.618
42.89000 190.096
42.90000 188.620
42.91000 188.336
42.92000 189.314
42.93000 190.287
42.94000 192.228
42.95000 194.809
42.96000 197.274
42.97000 196.205
42.98000 193.477
42.99000 190.837
43.00000 189.442
43.01000 188.447
43.02000 187.545
43.03000 191.005
43.04000 194.887
43.05000 198.364
43.06000 199.785
43.07000 200.920
43.08000 201.183
43.09000 198.502
43.10000 195.580
43.11000 193.517
43.12000 199.356
43.13000 204.026
43.14000 205.217
43.15000 200.943
43.16000 196.602
43.17000 193.332
43.18000 191.175
43.19000 189.028
43.20000 193.040
43.21000 201.150
43.22000 208.928
43.23000 206.967
43.24000 200.497
43.25000 194.574
43.26000 196.094
43.27000 199.970
43.28000 203.477
43.29000 201.176
43.30000 198.063
43.31000 196.017
43.32000 199.274
43.33000 203.254
43.34000 205.043
43.35000 199.541
43.36000 193.456
43.37000 189.182
43.38000 196.086
43.39000 201.640
43.40000 205.548
43.41000 206.908
43.42000 208.240
43.43000 206.926
43.44000 202.911
43.45000 198.917
43.46000 197.906
43.47000 198.884
43.48000 199.663
43.49000 194.809
43.50000 187.385
43.51000 180.530
43.52000 181.232
43.53000 184.292
43.54000 187.054
43.55000 188.627
43.56000 189.790
43.57000 190.833
43.58000 191.293
43.59000 191.674
43.60000 193.453
43.61000 199.819
43.62000 206.542
43.63000 211.242
43.64000 199.922
43.65000 190.916
43.66000 186.981
43.67000 190.773
43.68000 194.647
43.69000 195.982
43.70000 194.764
43.71000 193.555
43.72000 193.593
43.73000 194.445
43.74000 195.328
43.75000 197.044
43.76000 199.136
43.77000 200.844
43.78000 197.569
43.79000 192.763
43.80000 188.433
43.81000 188.734
43.82000 189.835
43.83000 191.396
43.84000 195.175
43.85000 199.246
43.86000 201.281
43.87000 196.742
43.88000 191.702
43.89000 188.196
43.90000 190.061
43.91000 191.614
43.92000 191.709
43.93000 189.615
43.94000 187.499
43.95000 187.935
43.96000 190.889
43.97000 193.823
43.98000 194.321
43.99000 193.248
44.00000 192.235
44.01000 192.783
44.02000 194.024
44.03000 195.245
44.04000 196.227
44.05000 197.136
44.06000 197.953
44.07000 196.200
44.08000 194.209
44.09000 192.195
44.10000 190.073
44.11000 187.936
44.12000 186.885
44.13000 189.289
44.14000 191.951
44.15000 193.794
44.16000 196.016
44.17000 197.698
44.18000 197.283
44.19000 193.766
44.20000 190.222
44.21000 189.627
44.22000 191.895
44.23000 194.148
44.24000 195.265
44.25000 195.647
44.26000 195.854
44.27000 191.580
44.28000 185.349
44.29000 179.882
44.30000 183.886
44.31000 190.716
44.32000 196.844
44.33000 194.141
44.34000 190.239
44.35000 187.698
44.36000 191.515
44.37000 196.136
44.38000 199.435
44.39000 198.583
44.40000 197.430
44.41000 196.636
44.42000 189.730
44.43000 184.391
44.44000 184.642
44.45000 193.033
44.46000 201.493
44.47000 207.386
44.48000 210.826
44.49000 214.240
44.50000 213.524
44.51000 210.253
44.52000 207.035
44.53000 205.121
44.54000 203.768
44.55000 202.657
44.56000 204.462
44.57000 207.126
44.58000 209.510
44.59000 208.092
44.60000 206.203
44.61000 205.399
44.62000 209.584
44.63000 214.388
44.64000 217.217
44.65000 213.937
44.66000 210.225
44.67000 207.678
44.68000 203.050
44.69000 199.531
44.70000 197.172
44.71000 196.479
44.72000 195.799
44.73000 202.040
44.74000 214.777
44.75000 227.411
44.76000 231.139
44.77000 229.354
44.78000 227.605
44.79000 226.738
44.80000 226.244
44.81000 225.399
44.82000 220.408
44.83000 214.216
44.84000 208.685
44.85000 213.750
44.86000 219.944
44.87000 225.168
44.88000 226.007
44.89000 226.310
44.90000 227.473
44.91000 231.254
44.92000 235.216
44.93000 237.920
44.94000 233.619
44.95000 230.241
44.96000 230.196
44.97000 234.860
44.98000 239.557
44.99000 241.223
45.00000 240.090
45.01000 238.966
45.02000 240.012
45.03000 242.343
45.04000 244.817
45.05000 250.579
45.06000 257.717
45.07000 264.504
45.08000 267.236
45.09000 268.809
45.10000 270.212
45.11000 270.763
45.12000 271.101
45.13000 270.445
45.14000 265.363
45.15000 259.750
45.16000 259.547
45.17000 275.581
45.18000 292.710
45.19000 304.341
45.20000 283.156
45.21000 266.616
45.22000 260.557
45.23000 269.074
45.24000 277.685
45.25000 282.509
45.26000 283.893
45.27000 285.265
45.28000 281.304
45.29000 274.265
45.30000 267.560
45.31000 268.354
45.32000 272.241
45.33000 275.595
45.34000 272.922
45.35000 268.554
45.36000 264.671
45.37000 266.205
45.38000 268.415
45.39000 268.770
45.40000 260.995
45.41000 252.267
45.42000 246.959
45.43000 251.776
45.44000 257.257
45.45000 260.961
45.46000 247.806
45.47000 237.650
45.48000 235.475
45.49000 244.232
45.50000 253.047
45.51000 251.731
45.52000 241.362
45.53000 231.096
45.54000 231.745
45.55000 238.742
45.56000 245.355
45.57000 243.620
45.58000 238.492
45.59000 233.497
45.60000 229.988
45.61000 226.889
45.62000 224.141
45.63000 223.956
45.64000 224.204
45.65000 224.479
45.66000 224.875
45.67000 225.284
45.68000 223.812
45.69000 216.852
45.70000 209.541
45.71000 204.627
45.72000 198.732
45.73000 194.332
45.74000 194.705
45.75000 201.515
45.76000 208.357
45.77000 212.594
45.78000 214.540
45.79000 216.465
45.80000 215.773
45.81000 213.595
45.82000 211.370
45.83000 208.151
45.84000 204.536
45.85000 201.237
45.86000 201.377
45.87000 202.455
45.88000 203.410
45.89000 203.590
45.90000 203.625
45.91000 203.320
45.92000 201.569
45.93000 199.656
45.94000 197.073
45.95000 192.567
45.96000 187.942
45.97000 184.849
45.98000 192.923
45.99000 199.129
46.00000 202.504
46.01000 202.119
46.02000 201.716
46.03000 200.684
46.04000 199.106
46.05000 197.547
46.06000 196.670
46.07000 196.199
46.08000 195.658
46.09000 193.690
46.10000 191.160
46.11000 188.933
46.12000 189.926
46.13000 191.785
46.14000 193.427
46.15000 190.171
46.16000 186.608
46.17000 183.538
46.18000 182.530
46.19000 181.751
46.20000 181.375
46.21000 182.141
46.22000 182.976
46.23000 183.532
46.24000 183.214
46.25000 182.962
46.26000 184.405
46.27000 188.064
46.28000 191.724
46.29000 190.647
46.30000 185.537
46.31000 180.487
46.32000 177.762
46.33000 176.396
46.34000 175.178
46.35000 176.896
46.36000 179.756
46.37000 182.496
46.38000 183.991
46.39000 185.156
46.40000 186.182
46.41000 184.208
46.42000 182.054
46.43000 180.005
46.44000 178.387
46.45000 176.814
46.46000 175.175
46.47000 173.349
46.48000 171.512
46.49000 170.296
46.50000 177.991
46.51000 183.831
46.52000 185.591
46.53000 182.100
46.54000 178.594
46.55000 178.088
46.56000 180.094
46.57000 182.075
46.58000 180.855
46.59000 177.915
46.60000 175.074
46.61000 174.118
46.62000 173.887
46.63000 173.590
46.64000 172.628
46.65000 171.492
46.66000 170.494
46.67000 173.094
46.68000 175.862
46.69000 178.070
46.70000 178.011
46.71000 177.711
46.72000 176.901
46.73000 174.693
46.74000 172.403
46.75000 170.896
46.76000 173.314
46.77000 175.161
46.78000 175.666
46.79000 174.470
46.80000 173.270
46.81000 172.660
46.82000 172.537
46.83000 172.415
46.84000 172.239
46.85000 172.037
46.86000 171.944
46.87000 173.878
46.88000 176.578
46.89000 178.857
46.90000 176.941
46.91000 173.947
46.92000 171.323
46.93000 172.255
46.94000 173.572
46.95000 174.638
46.96000 174.698
46.97000 174.655
46.98000 174.860
46.99000 175.742
47.00000 176.662
47.01000 177.264
47.02000 171.252
47.03000 166.726
47.04000 163.628
47.05000 162.313
47.06000 161.008
47.07000 161.348
47.08000 163.022
47.09000 164.673
47.10000 166.031
47.11000 167.196
47.12000 168.088
47.13000 164.018
47.14000 158.099
47.15000 153.099
47.16000 157.063
47.17000 163.296
47.18000 168.748
47.19000 171.280
47.20000 173.035
47.21000 174.327
47.22000 173.797
47.23000 173.082
47.24000 172.507
47.25000 172.307
47.26000 172.127
47.27000 172.010
47.28000 167.906
47.29000 164.834
47.30000 164.618
47.31000 167.909
47.32000 171.197
47.33000 170.729
47.34000 167.262
47.35000 163.845
47.36000 161.057
47.37000 158.679
47.38000 156.658
47.39000 160.949
47.40000 167.560
47.41000 173.309
47.42000 170.833
47.43000 166.308
47.44000 162.359
47.45000 162.264
47.46000 162.722
47.47000 162.332
47.48000 158.653
47.49000 154.646
47.50000 152.465
47.51000 155.094
47.52000 157.977
47.53000 159.845
47.54000 158.885
47.55000 158.141
47.56000 158.864
47.57000 161.359
47.58000 163.854
47.59000 165.143
47.60000 165.485
47.61000 165.823
47.62000 163.046
47.63000 158.756
47.64000 154.646
47.65000 153.655
47.66000 153.794
47.67000 154.177
47.68000 156.853
47.69000 160.092
47.70000 162.911
47.71000 163.959
47.72000 164.611
47.73000 165.712
47.74000 168.525
47.75000 171.506
47.76000 173.539
47.77000 173.109
47.78000 172.552
47.79000 172.193
47.80000 172.015
47.81000 171.888
47.82000 169.051
47.83000 162.993
47.84000 156.945
47.85000 154.789
47.86000 155.643
47.87000 156.483
47.88000 157.474
47.89000 158.509
47.90000 159.644
47.91000 162.455
47.92000 165.863
47.93000 168.638
47.94000 165.596
47.95000 161.149
47.96000 157.287
47.97000 153.411
47.98000 150.106
47.99000 148.570
48.00000 153.686
48.01000 159.439
48.02000 164.189
48.03000 166.373
48.04000 168.428
48.05000 169.744
48.06000 172.077
48.07000 173.791
48.08000 171.292
48.09000 163.865
48.10000 156.452
48.11000 153.700
48.12000 154.498
48.13000 155.284
48.14000 152.004
48.15000 146.810
48.16000 142.119
48.17000 145.639
48.18000 152.046
48.19000 158.117
48.20000 161.163
48.21000 163.490
48.22000 165.504
48.23000 160.631
48.24000 155.577
48.25000 151.726
48.26000 152.339
48.27000 153.370
48.28000 156.300
48.29000 164.022
48.30000 171.976
48.31000 177.041
48.32000 172.937
48.33000 169.837
48.34000 166.334
48.35000 162.364
48.36000 158.401
48.37000 155.850
48.38000 154.357
48.39000 152.890
48.40000 154.037
48.41000 156.424
48.42000 159.002
48.43000 164.619
48.44000 171.289
48.45000 176.628
48.46000 170.229
48.47000 161.079
48.48000 153.176
48.49000 156.431
48.50000 160.641
48.51000 163.423
48.52000 160.996
48.53000 158.092
48.54000 155.620
48.55000 154.224
48.56000 152.878
48.57000 152.027
48.58000 154.839
48.59000 156.923
48.60000 159.741
48.61000 163.392
48.62000 167.011
48.63000 164.662
48.64000 157.907
48.65000 151.276
48.66000 153.043
48.67000 158.793
48.68000 164.216
48.69000 164.580
48.70000 163.215
48.71000 161.973
48.72000 161.791
48.73000 161.855
48.74000 161.910
48.75000 160.773
48.76000 159.658
48.77000 159.042
48.78000 160.216
48.79000 161.551
48.80000 161.777
48.81000 159.285
48.82000 156.669
48.83000 155.022
48.84000 154.334
48.85000 153.847
48.86000 155.392
48.87000 159.199
48.88000 162.983
48.89000 162.630
48.90000 159.270
48.91000 155.975
48.92000 159.135
48.93000 165.242
48.94000 170.874
48.95000 169.348
48.96000 165.413
48.97000 162.190
48.98000 165.008
48.99000 169.199
49.00000 172.801
49.01000 162.689
49.02000 152.426
49.03000 145.291
49.04000 149.231
49.05000 154.145
49.06000 157.163
49.07000 155.602
49.08000 153.839
49.09000 152.736
49.10000 153.496
49.11000 154.065
49.12000 154.639
49.13000 155.219
49.14000 155.774
49.15000 152.586
49.16000 146.720
49.17000 140.970
49.18000 143.420
49.19000 149.603
49.20000 155.491
49.21000 157.029
49.22000 157.123
49.23000 157.360
49.24000 158.783
49.25000 160.472
49.26000 161.919
49.27000 159.817
49.28000 157.609
49.29000 156.091
49.30000 156.981
49.31000 158.078
49.32000 159.090
49.33000 159.901
49.34000 160.703
49.35000 161.202
49.36000 165.953
49.37000 169.417
49.38000 168.955
49.39000 164.260
49.40000 159.559
49.41000 154.321
49.42000 148.704
49.43000 143.204
49.44000 144.774
49.45000 149.530
49.46000 153.949
49.47000 153.518
49.48000 151.500
49.49000 149.716
49.50000 149.845
49.51000 150.395
49.52000 150.866
49.53000 152.609
49.54000 154.232
49.55000 155.451
49.56000 155.287
49.57000 155.007
49.58000 154.416
49.59000 153.096
49.60000 151.746
49.61000 150.911
49.62000 153.099
49.63000 154.699
49.64000 155.598
49.65000 155.754
49.66000 155.903
49.67000 155.320
49.68000 154.229
49.69000 153.161
49.70000 153.131
49.71000 153.571
49.72000 153.780
49.73000 150.733
49.74000 146.636
49.75000 143.381
49.76000 146.860
49.77000 151.800
49.78000 156.012
49.79000 151.039
49.80000 145.777
49.81000 144.299
49.82000 155.639
49.83000 168.030
49.84000 175.556
49.85000 171.828
49.86000 167.647
49.87000 165.077
49.88000 158.442
49.89000 153.649
49.90000 153.891
49.91000 159.382
49.92000 164.825
49.93000 164.599
49.94000 160.496
49.95000 156.486
49.96000 155.630
49.97000 156.214
49.98000 156.729
49.99000 156.297
50.00000 155.565
50.01000 154.620
50.02000 152.009
50.03000 149.043
50.04000 146.520
50.05000 144.674
50.06000 143.202
50.07000 142.755
50.08000 145.732
50.09000 148.984
50.10000 151.302
50.11000 151.491
50.12000 151.597
50.13000 151.662
50.14000 161.355
50.15000 168.367
50.16000 168.919
50.17000 162.845
50.18000 156.794
50.19000 153.101
50.20000 150.998
50.21000 148.944
50.22000 150.938
50.23000 154.619
50.24000 157.972
50.25000 156.945
50.26000 154.548
50.27000 152.863
50.28000 156.662
50.29000 161.614
50.30000 165.812
50.31000 163.901
50.32000 161.610
50.33000 158.464
50.34000 152.509
50.35000 146.334
50.36000 143.232
50.37000 147.036
50.38000 151.100
50.39000 153.567
50.40000 161.099
50.41000 166.514
50.42000 166.454
50.43000 160.875
50.44000 155.356
50.45000 155.828
50.46000 160.273
50.47000 164.609
50.48000 166.605
50.49000 167.503
50.50000 168.475
50.51000 170.421
50.52000 172.666
50.53000 174.673
50.54000 174.879
50.55000 174.712
50.56000 174.571
50.57000 176.545
50.58000 178.430
50.59000 180.689
50.60000 184.159
50.61000 187.722
50.62000 189.366
50.63000 186.760
50.64000 184.000
50.65000 182.335
50.66000 194.673
50.67000 203.557
50.68000 209.351
50.69000 212.082
50.70000 214.809
50.71000 217.138
50.72000 219.207
50.73000 221.224
50.74000 215.964
50.75000 207.857
50.76000 200.674
50.77000 205.260
50.78000 213.422
50.79000 220.536
50.80000 219.857
50.81000 217.593
50.82000 215.685
50.83000 218.294
50.84000 220.962
50.85000 222.222
50.86000 218.983
50.87000 215.408
50.88000 213.197
50.89000 213.966
50.90000 214.838
50.91000 215.361
50.92000 209.832
50.93000 205.865
50.94000 200.994
50.95000 195.244
50.96000 189.568
50.97000 190.363
50.98000 195.323
50.99000 200.152
51.00000 194.958
51.01000 185.821
51.02000 177.214
51.03000 175.201
51.04000 175.162
51.05000 174.933
51.06000 173.314
51.07000 171.418
51.08000 169.823
51.09000 173.269
51.10000 176.675
51.11000 178.939
51.12000 177.607
51.13000 176.013
51.14000 172.436
51.15000 164.591
51.16000 156.601
51.17000 151.841
51.18000 153.557
51.19000 154.812
51.20000 153.959
51.21000 151.086
51.22000 148.260
51.23000 149.266
51.24000 152.701
51.25000 156.042
51.26000 156.669
51.27000 156.150
51.28000 155.596
51.29000 154.610
51.30000 153.496
51.31000 152.765
51.32000 154.772
51.33000 157.317
51.34000 159.452
51.35000 157.778
51.36000 155.990
51.37000 155.653
51.38000 159.816
51.39000 164.299
51.40000 165.253
51.41000 158.724
51.42000 151.950
51.43000 147.940
51.44000 146.526
51.45000 145.541
51.46000 144.953
51.47000 144.739
51.48000 144.547
51.49000 146.005
51.50000 148.494
51.51000 150.912
51.52000 148.856
51.53000 145.093
51.54000 142.028
51.55000 147.274
51.56000 154.935
51.57000 161.414
51.58000 159.573
51.59000 156.121
51.60000 153.235
51.61000 153.184
51.62000 153.430
51.63000 153.886
51.64000 154.986
51.65000 156.130
51.66000 156.615
51.67000 155.722
51.68000 154.786
51.69000 154.236
51.70000 156.719
51.71000 158.484
51.72000 156.362
51.73000 150.637
51.74000 144.988
51.75000 144.794
51.76000 147.957
51.77000 151.027
51.78000 148.235
51.79000 143.253
51.80000 138.771
51.81000 140.102
51.82000 143.097
51.83000 145.681
51.84000 145.424
51.85000 144.625
51.86000 143.960
51.87000 144.035
51.88000 144.171
51.89000 144.120
51.90000 143.505
51.91000 142.851
51.92000 143.712
51.93000 147.695
51.94000 151.772
51.95000 154.154
51.96000 148.069
51.97000 143.750
51.98000 142.848
51.99000 145.063
52.00000 147.246
52.01000 147.344
52.02000 146.178
52.03000 145.047
52.04000 143.792
52.05000 142.555
52.06000 141.483
52.07000 142.297
52.08000 143.643
52.09000 144.622
52.10000 143.117
52.11000 141.146
52.12000 139.507
52.13000 142.096
52.14000 144.649
52.15000 146.386
52.16000 145.702
52.17000 144.858
52.18000 144.965
52.19000 147.002
52.20000 149.094
52.21000 150.308
52.22000 144.598
52.23000 140.562
52.24000 138.072
52.25000 136.968
52.26000 135.922
52.27000 138.519
52.28000 143.293
52.29000 147.917
52.30000 148.480
52.31000 147.446
52.32000 146.307
52.33000 143.991
52.34000 141.348
52.35000 139.059
52.36000 139.129
52.37000 139.634
52.38000 140.053
52.39000 140.931
52.40000 141.700
52.41000 142.726
52.42000 144.505
52.43000 146.332
52.44000 145.693
52.45000 140.121
52.46000 134.411
52.47000 131.120
52.48000 134.876
52.49000 137.532
52.50000 139.551
52.51000 141.009
52.52000 142.415
52.53000 140.714
52.54000 137.183
52.55000 133.768
52.56000 134.224
52.57000 136.124
52.58000 138.230
52.59000 142.562
52.60000 147.505
52.61000 151.409
52.62000 148.518
52.63000 144.393
52.64000 140.985
52.65000 143.326
52.66000 145.792
52.67000 146.114
52.68000 140.256
52.69000 134.010
52.70000 131.008
52.71000 134.402
52.72000 137.968
52.73000 140.009
52.74000 143.375
52.75000 145.730
52.76000 147.439
52.77000 148.587
52.78000 149.714
52.79000 149.678
52.80000 148.966
52.81000 148.278
52.82000 146.711
52.83000 144.905
52.84000 143.208
52.85000 142.672
52.86000 142.450
52.87000 141.745
52.88000 137.932
52.89000 133.565
52.90000 129.968
52.91000 136.538
52.92000 142.871
52.93000 147.355
52.94000 146.586
52.95000 145.496
52.96000 144.754
52.97000 144.691
52.98000 144.646
52.99000 144.620
53.00000 139.239
53.01000 135.483
53.02000 137.881
53.03000 145.536
53.04000 153.025
53.05000 151.471
53.06000 144.751
53.07000 138.264
53.08000 135.417
53.09000 134.074
53.10000 133.230
53.11000 137.583
53.12000 143.316
53.13000 147.903
53.14000 145.238
53.15000 141.301
53.16000 138.069
53.17000 138.436
53.18000 139.059
53.19000 139.564
53.20000 139.739
53.21000 139.895
53.22000 139.932
53.23000 139.744
53.24000 139.551
53.25000 139.442
53.26000 140.321
53.27000 140.937
53.28000 143.022
53.29000 146.341
53.30000 149.626
53.31000 151.130
53.32000 151.632
53.33000 152.116
53.34000 148.413
53.35000 143.417
53.36000 139.284
53.37000 143.958
53.38000 150.938
53.39000 156.813
53.40000 155.820
53.41000 153.641
53.42000 151.858
53.43000 154.166
53.44000 156.415
53.45000 157.923
53.46000 157.385
53.47000 156.728
53.48000 157.083
53.49000 159.345
53.50000 161.653
53.51000 162.946
53.52000 158.297
53.53000 155.059
53.54000 151.543
53.55000 147.798
53.56000 144.098
53.57000 142.621
53.58000 142.377
53.59000 142.143
53.60000 144.053
53.61000 146.610
53.62000 149.017
53.63000 149.921
53.64000 150.437
53.65000 150.360
53.66000 146.656
53.67000 142.335
53.68000 138.811
53.69000 141.281
53.70000 143.814
53.71000 145.605
53.72000 145.376
53.73000 145.033
53.74000 144.101
53.75000 142.073
53.76000 140.021
53.77000 138.879
53.78000 141.191
53.79000 142.799
53.80000 145.121
53.81000 148.024
53.82000 150.817
53.83000 148.426
53.84000 143.201
53.85000 138.175
53.86000 140.618
53.87000 145.526
53.88000 150.050
53.89000 150.829
53.90000 150.657
53.91000 150.239
53.92000 148.340
53.93000 146.195
53.94000 144.451
53.95000 138.730
53.96000 133.728
53.97000 131.090
53.98000 134.793
53.99000 138.844
54.00000 142.605
54.01000 145.836
54.02000 149.056
54.03000 150.835
54.04000 143.096
54.05000 137.756
54.06000 137.411
54.07000 141.069
54.08000 144.654
54.09000 144.974
54.10000 143.535
54.11000 142.152
54.12000 137.859
54.13000 132.839
54.14000 128.373
54.15000 129.233
54.16000 131.425
54.17000 133.502
54.18000 134.903
54.19000 136.192
54.20000 137.237
54.21000 140.253
54.22000 142.872
54.23000 144.373
54.24000 142.922
54.25000 141.312
54.26000 140.175
54.27000 139.889
54.28000 139.620
54.29000 139.473
54.30000 136.172
54.31000 133.901
54.32000 133.113
54.33000 133.496
54.34000 133.834
54.35000 132.280
54.36000 129.722
54.37000 127.267
54.38000 131.903
54.39000 138.641
54.40000 144.674
54.41000 144.078
54.42000 141.849
54.43000 139.454
54.44000 136.096
54.45000 132.582
54.46000 129.743
54.47000 134.276
54.48000 138.551
54.49000 140.950
54.50000 138.463
54.51000 135.723
54.52000 134.970
54.53000 137.752
54.54000 140.604
54.55000 142.156
54.56000 139.606
54.57000 137.857
54.58000 137.602
54.59000 138.508
54.60000 139.351
54.61000 137.620
54.62000 134.543
54.63000 131.595
54.64000 135.762
54.65000 142.026
54.66000 147.355
54.67000 144.072
54.68000 138.701
54.69000 134.760
54.70000 138.983
54.71000 144.501
54.72000 148.945
54.73000 145.164
54.74000 141.453
54.75000 137.658
54.76000 133.645
54.77000 129.621
54.78000 128.573
54.79000 132.746
54.80000 137.016
54.81000 139.323
54.82000 142.026
54.83000 143.865
54.84000 142.945
54.85000 139.916
54.86000 136.969
54.87000 137.178
54.88000 139.016
54.89000 140.774
54.90000 143.616
54.91000 146.619
54.92000 148.905
54.93000 144.722
54.94000 138.995
54.95000 134.527
54.96000 137.136
54.97000 140.847
54.98000 143.826
54.99000 141.394
55.00000 139.012
55.01000 136.694
55.02000 134.538
55.03000 132.391
55.04000 133.169
55.05000 139.004
55.06000 144.928
55.07000 148.105
55.08000 141.002
55.09000 136.160
55.10000 134.583
55.11000 135.465
55.12000 136.393
55.13000 139.105
55.14000 142.724
55.15000 146.182
55.16000 147.187
55.17000 147.329
55.18000 147.350
55.19000 146.305
55.20000 145.010
55.21000 144.004
55.22000 144.590
55.23000 145.420
55.24000 146.084
55.25000 144.569
55.26000 143.181
55.27000 143.518
55.28000 148.154
55.29000 152.994
55.30000 155.473
55.31000 153.933
55.32000 152.325
55.33000 151.469
55.34000 150.218
55.35000 149.370
55.36000 149.289
55.37000 149.777
55.38000 150.269
55.39000 150.902
55.40000 151.606
55.41000 152.279
55.42000 153.346
55.43000 154.464
55.44000 155.064
55.45000 151.178
55.46000 146.253
55.47000 143.014
55.48000 148.939
55.49000 156.242
55.50000 162.065
55.51000 165.591
55.52000 168.269
55.53000 168.959
55.54000 164.765
55.55000 160.346
55.56000 161.055
55.57000 170.368
55.58000 179.818
55.59000 184.808
55.60000 182.494
55.61000 180.925
55.62000 180.520
55.63000 180.963
55.64000 181.473
55.65000 184.337
55.66000 188.363
55.67000 192.200
55.68000 203.631
55.69000 216.607
55.70000 228.307
55.71000 229.142
55.72000 227.499
55.73000 226.438
55.74000 228.479
55.75000 230.979
55.76000 232.966
55.77000 244.983
55.78000 255.374
55.79000 268.789
55.80000 289.531
55.81000 310.599
55.82000 326.895
55.83000 335.297
55.84000 343.582
55.85000 347.923
55.86000 360.817
55.87000 369.573
55.88000 381.451
55.89000 395.570
55.90000 409.812
55.91000 428.134
55.92000 448.440
55.93000 467.767
55.94000 481.894
55.95000 493.370
55.96000 504.582
55.97000 513.601
55.98000 522.127
55.99000 530.348
56.00000 536.967
56.01000 543.353
56.02000 548.409
56.03000 546.960
56.04000 545.344
56.05000 542.382
56.06000 536.206
56.07000 529.891
56.08000 529.334
56.09000 538.153
56.10000 547.105
56.11000 551.758
56.12000 537.756
56.13000 528.292
56.14000 518.442
56.15000 508.319
56.16000 498.142
56.17000 486.210
56.18000 473.435
56.19000 461.293
56.20000 443.606
56.21000 425.580
56.22000 408.508
56.23000 399.246
56.24000 391.711
56.25000 382.438
56.26000 364.173
56.27000 344.626
56.28000 329.202
56.29000 318.813
56.30000 310.820
56.31000 302.429
56.32000 293.101
56.33000 283.734
56.34000 275.214
56.35000 268.054
56.36000 260.912
56.37000 257.230
56.38000 243.922
56.39000 234.983
56.40000 229.338
56.41000 225.988
56.42000 222.614
56.43000 218.527
56.44000 214.102
56.45000 209.903
56.46000 207.320
56.47000 205.420
56.48000 202.971
56.49000 196.113
56.50000 188.296
56.51000 181.190
56.52000 177.701
56.53000 174.719
56.54000 172.373
56.55000 174.198
56.56000 175.934
56.57000 176.350
56.58000 173.705
56.59000 170.935
56.60000 168.096
56.61000 165.147
56.62000 162.196
56.63000 160.687
56.64000 158.986
56.65000 157.828
56.66000 154.788
56.67000 150.458
56.68000 146.312
56.69000 147.682
56.70000 151.622
56.71000 155.356
56.72000 153.213
56.73000 149.514
56.74000 145.798
56.75000 141.954
56.76000 138.083
56.77000 135.487
56.78000 139.285
56.79000 143.961
56.80000 147.625
56.81000 144.938
56.82000 142.382
56.83000 141.771
56.84000 145.607
56.85000 149.617
56.86000 149.694
56.87000 143.648
56.88000 137.530
56.89000 134.427
56.90000 141.001
56.91000 145.391
56.92000 148.241
56.93000 150.050
56.94000 151.654
56.95000 147.362
56.96000 140.364
56.97000 133.741
56.98000 136.180
56.99000 141.038
57.00000 145.140
57.01000 143.378
57.02000 140.381
57.03000 137.049
57.04000 132.065
57.05000 126.857
57.06000 122.792
57.07000 126.158
57.08000 129.310
57.09000 132.762
57.10000 136.889
57.11000 141.043
57.12000 142.306
57.13000 139.135
57.14000 135.917
57.15000 134.298
57.16000 132.576
57.17000 131.429
57.18000 130.562
57.19000 129.882
57.20000 129.256
57.21000 130.110
57.22000 131.635
57.23000 133.076
57.24000 131.900
57.25000 130.077
57.26000 128.526
57.27000 129.040
57.28000 129.984
57.29000 129.984
57.30000 125.410
57.31000 120.230
57.32000 116.201
57.33000 113.344
57.34000 111.143
57.35000 112.394
57.36000 121.317
57.37000 130.520
57.38000 135.311
57.39000 133.433
57.40000 131.487
57.41000 129.100
57.42000 126.276
57.43000 123.452
57.44000 120.752
57.45000 118.132
57.46000 115.658
57.47000 117.067
57.48000 120.209
57.49000 123.174
57.50000 128.045
57.51000 133.043
57.52000 136.763
57.53000 130.955
57.54000 123.202
57.55000 117.051
57.56000 118.547
57.57000 121.039
57.58000 122.969
57.59000 127.900
57.60000 131.997
57.61000 133.274
57.62000 128.378
57.63000 123.263
57.64000 120.025
57.65000 119.580
57.66000 119.161
57.67000 120.097
57.68000 122.357
57.69000 124.589
57.70000 124.333
57.71000 122.470
57.72000 120.650
57.73000 119.975
57.74000 119.803
57.75000 119.640
57.76000 118.759
57.77000 117.754
57.78000 117.155
57.79000 119.526
57.80000 122.494
57.81000 124.856
57.82000 124.369
57.83000 123.519
57.84000 122.862
57.85000 126.255
57.86000 129.181
57.87000 129.733
57.88000 125.163
57.89000 120.418
57.90000 117.925
57.91000 118.733
57.92000 119.569
57.93000 121.393
57.94000 124.165
57.95000 126.912
57.96000 127.576
57.97000 126.914
57.98000 126.252
57.99000 125.578
58.00000 124.898
58.01000 124.259
58.02000 124.067
58.03000 124.012
58.04000 123.593
58.05000 120.556
58.06000 117.001
58.07000 114.667
58.08000 117.982
58.09000 122.005
58.10000 125.099
58.11000 126.045
58.12000 126.672
58.13000 125.626
58.14000 121.023
58.15000 116.303
58.16000 113.602
58.17000 113.817
58.18000 114.056
58.19000 116.235
58.20000 120.249
58.21000 124.215
58.22000 124.538
58.23000 122.576
58.24000 120.652
58.25000 119.627
58.26000 118.985
58.27000 118.383
58.28000 121.776
58.29000 125.933
58.30000 129.545
58.31000 129.307
58.32000 128.319
58.33000 127.298
58.34000 126.125
58.35000 124.935
58.36000 124.022
58.37000 121.529
58.38000 119.473
58.39000 118.709
58.40000 120.655
58.41000 122.687
58.42000 123.883
58.43000 123.891
58.44000 123.891
58.45000 122.336
58.46000 119.337
58.47000 116.400
58.48000 117.977
58.49000 122.341
58.50000 126.573
58.51000 127.704
58.52000 127.530
58.53000 127.366
58.54000 124.038
58.55000 120.178
58.56000 117.297
58.57000 121.196
58.58000 126.392
58.59000 129.750
58.60000 124.871
58.61000 118.999
58.62000 114.516
58.63000 119.126
58.64000 123.247
58.65000 125.844
58.66000 125.287
58.67000 124.634
58.68000 124.811
58.69000 126.148
58.70000 127.493
58.71000 128.058
58.72000 127.910
58.73000 127.762
58.74000 127.631
58.75000 127.510
58.76000 127.399
58.77000 127.507
58.78000 127.706
58.79000 127.892
58.80000 126.352
58.81000 124.508
58.82000 122.612
58.83000 120.364
58.84000 118.049
58.85000 117.245
58.86000 123.104
58.87000 129.751
58.88000 134.806
58.89000 131.615
58.90000 128.673
58.91000 125.942
58.92000 123.641
58.93000 121.352
58.94000 120.580
58.95000 121.898
58.96000 123.230
58.97000 123.327
58.98000 122.316
58.99000 121.316
59.00000 121.008
59.01000 121.116
59.02000 121.160
59.03000 119.813
59.04000 117.896
59.05000 116.104
59.06000 119.324
59.07000 123.516
59.08000 126.998
59.09000 125.733
59.10000 123.589
59.11000 122.350
59.12000 125.040
59.13000 128.186
59.14000 130.570
59.15000 128.751
59.16000 127.110
59.17000 124.008
59.18000 117.974
59.19000 111.857
59.20000 109.288
59.21000 111.535
59.22000 113.808
59.23000 114.987
59.24000 115.195
59.25000 115.402
59.26000 115.511
59.27000 115.562
59.28000 115.773
59.29000 119.420
59.30000 124.453
59.31000 129.148
59.32000 129.636
59.33000 129.031
59.34000 128.088
59.35000 124.923
59.36000 121.354
59.37000 118.783
59.38000 120.484
59.39000 122.671
59.40000 124.321
59.41000 124.629
59.42000 124.804
59.43000 124.947
59.44000 125.029
59.45000 125.109
59.46000 124.473
59.47000 122.879
59.48000 121.282
59.49000 120.939
59.50000 121.689
59.51000 122.402
59.52000 120.915
59.53000 118.148
59.54000 115.435
59.55000 113.838
59.56000 112.683
59.57000 111.608
59.58000 113.903
59.59000 116.803
59.60000 119.902
59.61000 124.277
59.62000 128.881
59.63000 131.994
59.64000 128.830
59.65000 124.964
59.66000 122.059
59.67000 119.631
59.68000 117.755
59.69000 117.499
59.70000 120.402
59.71000 123.387
59.72000 124.784
59.73000 124.091
59.74000 123.389
59.75000 123.069
59.76000 123.077
59.77000 123.089
59.78000 123.318
59.79000 123.672
59.80000 124.087
59.81000 125.729
59.82000 127.851
59.83000 129.825
59.84000 125.400
59.85000 119.865
59.86000 114.950
59.87000 113.969
59.88000 113.682
59.89000 114.832
59.90000 121.947
59.91000 129.713
59.92000 135.527
59.93000 131.777
59.94000 128.404
59.95000 126.281
59.96000 126.560
59.97000 126.898
59.98000 126.760
59.99000 126.005
60.00000 125.249
60.01000 123.928
60.02000 122.136
60.03000 120.393
60.04000 121.256
60.05000 123.591
60.06000 125.811
60.07000 125.788
60.08000 124.899
60.09000 124.073
60.10000 119.225
60.11000 113.901
60.12000 109.722
60.13000 112.679
60.14000 116.873
60.15000 120.385
60.16000 121.113
60.17000 121.542
60.18000 121.862
60.19000 127.564
60.20000 132.249
60.21000 132.636
60.22000 124.885
60.23000 116.941
60.24000 113.159
60.25000 114.686
60.26000 116.231
60.27000 119.384
60.28000 123.858
60.29000 128.203
60.30000 126.127
60.31000 120.474
60.32000 115.028
60.33000 113.470
60.34000 113.394
60.35000 113.322
60.36000 119.115
60.37000 125.693
60.38000 130.860
60.39000 127.367
60.40000 122.399
60.41000 117.647
60.42000 113.765
60.43000 109.974
60.44000 107.160
60.45000 115.184
60.46000 121.898
60.47000 124.946
60.48000 121.152
60.49000 117.203
60.50000 114.467
60.51000 113.254
60.52000 112.047
60.53000 114.622
60.54000 120.266
60.55000 125.801
60.56000 126.159
60.57000 123.678
60.58000 121.427
60.59000 123.424
60.60000 127.014
60.61000 130.335
60.62000 126.421
60.63000 121.250
60.64000 116.817
60.65000 116.842
60.66000 117.613
60.67000 119.006
60.68000 122.862
60.69000 126.972
60.70000 130.010
60.71000 126.541
60.72000 123.572
60.73000 121.099
60.74000 119.538
60.75000 117.997
60.76000 116.985
60.77000 116.627
60.78000 116.270
60.79000 116.152
60.80000 116.225
60.81000 116.291
60.82000 116.054
60.83000 115.653
60.84000 115.304
60.85000 115.873
60.86000 116.782
60.87000 117.621
60.88000 117.420
60.89000 117.007
60.90000 116.514
60.91000 115.554
60.92000 114.518
60.93000 113.988
60.94000 115.433
60.95000 117.077
60.96000 118.288
60.97000 118.777
60.98000 119.125
60.99000 120.495
61.00000 123.714
61.01000 126.973
61.02000 126.397
61.03000 121.157
61.04000 115.917
61.05000 115.923
61.06000 120.061
61.07000 124.140
61.08000 125.689
61.09000 125.889
61.10000 125.956
61.11000 123.698
61.12000 120.593
61.13000 117.732
61.14000 118.907
61.15000 120.853
61.16000 122.426
61.17000 121.824
61.18000 120.869
61.19000 121.324
61.20000 127.190
61.21000 133.592
61.22000 138.285
61.23000 131.639
61.24000 126.048
61.25000 123.461
61.26000 126.239
61.27000 129.123
61.28000 129.810
61.29000 127.868
61.30000 125.924
61.31000 124.039
61.32000 122.210
61.33000 120.397
61.34000 119.254
61.35000 118.462
61.36000 117.770
61.37000 118.754
61.38000 120.340
61.39000 121.800
61.40000 124.826
61.41000 127.871
61.42000 130.284
61.43000 129.074
61.44000 127.287
61.45000 126.417
61.46000 129.018
61.47000 131.954
61.48000 134.099
61.49000 137.960
61.50000 141.004
61.51000 147.706
61.52000 160.846
61.53000 174.107
61.54000 188.240
61.55000 203.400
61.56000 218.526
61.57000 229.188
61.58000 236.382
61.59000 243.789
61.60000 259.583
61.61000 279.716
61.62000 299.167
61.63000 307.348
61.64000 311.539
61.65000 315.389
61.66000 323.381
61.67000 331.397
61.68000 338.167
61.69000 337.909
61.70000 336.552
61.71000 333.898
61.72000 326.404
61.73000 318.453
61.74000 312.672
61.75000 316.138
61.76000 319.155
61.77000 312.355
61.78000 288.532
61.79000 264.407
61.80000 243.624
61.81000 226.715
61.82000 209.857
61.83000 194.369
61.84000 180.014
61.85000 165.878
61.86000 160.057
61.87000 158.477
61.88000 156.619
61.89000 150.279
61.90000 142.376
61.91000 135.133
61.92000 133.366
61.93000 132.943
61.94000 133.053
61.95000 136.117
61.96000 139.635
61.97000 142.356
61.98000 142.154
61.99000 141.681
62.00000 141.338
62.01000 141.199
62.02000 141.099
62.03000 136.994
62.04000 126.047
62.05000 114.983
62.06000 110.663
62.07000 114.033
62.08000 117.401
62.09000 120.484
62.10000 123.332
62.11000 126.113
62.12000 126.431
62.13000 125.510
62.14000 124.802
62.15000 127.420
62.16000 131.183
62.17000 134.624
62.18000 131.264
62.19000 126.870
62.20000 123.489
62.21000 125.628
62.22000 128.601
62.23000 131.524
62.24000 134.263
62.25000 136.986
62.26000 138.948
62.27000 131.942
62.28000 126.256
62.29000 122.991
62.30000 123.800
62.31000 124.675
62.32000 126.428
62.33000 129.165
62.34000 131.894
62.35000 133.358
62.36000 133.891
62.37000 134.394
62.38000 133.876
62.39000 132.853
62.40000 131.831
62.41000 130.826
62.42000 129.828
62.43000 128.916
62.44000 131.023
62.45000 133.506
62.46000 135.368
62.47000 133.894
62.48000 131.926
62.49000 130.812
62.50000 132.744
62.51000 134.947
62.52000 136.527
62.53000 133.157
62.54000 130.411
62.55000 129.463
62.56000 131.499
62.57000 133.579
62.58000 133.309
62.59000 130.445
62.60000 127.589
62.61000 127.207
62.62000 128.594
62.63000 130.014
62.64000 132.545
62.65000 135.619
62.66000 138.488
62.67000 138.314
62.68000 137.123
62.69000 136.038
62.70000 130.824
62.71000 125.380
62.72000 121.920
62.73000 128.933
62.74000 137.472
62.75000 143.643
62.76000 141.501
62.77000 138.637
62.78000 136.591
62.79000 135.367
62.80000 134.460
62.81000 135.112
62.82000 138.313
62.83000 141.551
62.84000 142.064
62.85000 139.620
62.86000 137.184
62.87000 135.096
62.88000 133.271
62.89000 131.554
62.90000 133.281
62.91000 136.666
62.92000 139.792
62.93000 139.160
62.94000 137.292
62.95000 135.593
62.96000 133.139
62.97000 130.820
62.98000 128.952
62.99000 129.430
63.00000 130.244
63.01000 130.535
63.02000 129.016
63.03000 127.344
63.04000 126.155
63.05000 127.894
63.06000 129.312
63.07000 129.565
63.08000 127.942
63.09000 126.294
63.10000 128.304
63.11000 134.220
63.12000 140.111
63.13000 141.439
63.14000 139.596
63.15000 137.821
63.16000 138.146
63.17000 139.467
63.18000 140.964
63.19000 144.958
63.20000 149.761
63.21000 154.121
63.22000 152.969
63.23000 150.890
63.24000 148.764
63.25000 146.400
63.26000 144.002
63.27000 141.806
63.28000 140.298
63.29000 138.847
63.30000 137.820
63.31000 141.845
63.32000 145.060
63.33000 145.270
63.34000 140.713
63.35000 136.097
63.36000 133.064
63.37000 131.695
63.38000 130.333
63.39000 134.289
63.40000 141.818
63.41000 149.033
63.42000 146.820
63.43000 140.201
63.44000 134.045
63.45000 134.274
63.46000 136.544
63.47000 138.600
63.48000 142.633
63.49000 146.562
63.50000 149.332
63.51000 146.277
63.52000 142.417
63.53000 139.577
63.54000 140.161
63.55000 141.022
63.56000 141.629
63.57000 142.165
63.58000 142.570
63.59000 143.192
63.60000 144.155
63.61000 145.121
63.62000 144.526
63.63000 142.318
63.64000 140.122
63.65000 140.629
63.66000 142.939
63.67000 145.146
63.68000 144.403
63.69000 142.302
63.70000 140.272
63.71000 139.212
63.72000 138.459
63.73000 137.778
63.74000 135.451
63.75000 133.098
63.76000 131.460
63.77000 133.359
63.78000 135.738
63.79000 138.210
63.80000 140.992
63.81000 143.798
63.82000 145.766
63.83000 145.779
63.84000 145.731
63.85000 144.734
63.86000 142.274
63.87000 139.798
63.88000 140.127
63.89000 143.306
63.90000 146.467
63.91000 146.238
63.92000 143.779
63.93000 141.437
63.94000 142.376
63.95000 144.804
63.96000 147.134
63.97000 148.164
63.98000 148.790
63.99000 149.355
64.00000 146.916
64.01000 144.225
64.02000 142.461
64.03000 145.206
64.04000 148.552
64.05000 150.992
64.06000 150.477
64.07000 149.734
64.08000 149.215
64.09000 151.159
64.10000 152.696
64.11000 153.356
64.12000 152.684
64.13000 151.999
64.14000 153.426
64.15000 156.963
64.16000 160.477
64.17000 158.986
64.18000 154.270
64.19000 149.739
64.20000 150.186
64.21000 152.860
64.22000 155.376
64.23000 155.849
64.24000 155.697
64.25000 155.560
64.26000 154.716
64.27000 153.849
64.28000 153.537
64.29000 155.888
64.30000 158.586
64.31000 161.228
64.32000 163.689
64.33000 166.137
64.34000 167.837
64.35000 169.193
64.36000 170.206
64.37000 167.933
64.38000 160.754
64.39000 153.527
64.40000 151.319
64.41000 154.036
64.42000 156.735
64.43000 161.466
64.44000 167.421
64.45000 173.210
64.46000 174.667
64.47000 174.213
64.48000 173.695
64.49000 172.385
64.50000 170.836
64.51000 169.444
64.52000 171.349
64.53000 173.599
64.54000 174.883
64.55000 171.618
64.56000 167.770
64.57000 166.000
64.58000 170.815
64.59000 176.116
64.60000 179.781
64.61000 172.846
64.62000 167.358
64.63000 165.303
64.64000 168.298
64.65000 171.338
64.66000 173.584
64.67000 175.063
64.68000 176.531
64.69000 177.596
64.70000 178.389
64.71000 179.185
64.72000 180.031
64.73000 180.898
64.74000 181.462
64.75000 178.298
64.76000 174.028
64.77000 170.200
64.78000 171.956
64.79000 174.457
64.80000 176.358
64.81000 175.470
64.82000 174.231
64.83000 174.659
64.84000 180.286
64.85000 186.288
64.86000 190.417
64.87000 185.724
64.88000 181.984
64.89000 180.969
64.90000 183.901
64.91000 186.867
64.92000 187.446
64.93000 185.761
64.94000 184.089
64.95000 184.341
64.96000 185.778
64.97000 187.399
64.98000 193.493
64.99000 201.503
65.00000 208.872
65.01000 208.531
65.02000 205.935
65.03000 203.613
65.04000 203.885
65.05000 204.563
65.06000 205.780
65.07000 209.459
65.08000 213.443
65.09000 216.250
65.10000 215.438
65.11000 214.371
65.12000 213.641
65.13000 206.661
65.14000 201.286
65.15000 199.690
65.16000 203.487
65.17000 207.324
65.18000 210.805
65.19000 213.954
65.20000 217.077
65.21000 218.512
65.22000 218.893
65.23000 219.396
65.24000 222.767
65.25000 227.349
65.26000 231.199
65.27000 226.451
65.28000 219.226
65.29000 212.777
65.30000 225.042
65.31000 238.846
65.32000 250.822
65.33000 254.572
65.34000 257.326
65.35000 260.223
65.36000 263.551
65.37000 266.908
65.38000 269.195
65.39000 268.944
65.40000 268.699
65.41000 273.099
65.42000 284.029
65.43000 295.002
65.44000 304.206
65.45000 311.784
65.46000 319.295
65.47000 330.034
65.48000 342.499
65.49000 354.840
65.50000 364.361
65.51000 372.708
65.52000 381.176
65.53000 391.023
65.54000 401.263
65.55000 410.381
65.56000 423.179
65.57000 434.903
65.58000 446.153
65.59000 455.303
65.60000 464.204
65.61000 475.652
65.62000 494.709
65.63000 514.275
65.64000 527.537
65.65000 576.232
65.66000 613.318
65.67000 661.599
65.68000 725.368
65.69000 789.250
65.70000 876.301
65.71000 984.278
65.72000 1091.234
65.73000 1229.160
65.74000 1382.514
65.75000 1534.943
65.76000 1666.893
65.77000 1790.439
65.78000 1912.227
65.79000 2014.264
65.80000 2110.775
65.81000 2196.524
65.82000 2253.214
65.83000 2297.699
65.84000 2336.638
65.85000 2351.403
65.86000 2363.349
65.87000 2369.171
65.88000 2356.963
65.89000 2343.579
65.90000 2334.554
65.91000 2285.940
65.92000 2248.936
65.93000 2176.341
65.94000 2055.259
65.95000 1933.896
65.96000 1810.411
65.97000 1685.039
65.98000 1560.926
65.99000 1410.374
66.00000 1247.730
66.01000 1086.827
66.02000 963.330
66.03000 854.963
66.04000 750.375
66.05000 687.326
66.06000 635.724
66.07000 589.981
66.08000 561.463
66.09000 539.500
66.10000 517.245
66.11000 493.743
66.12000 470.097
66.13000 452.083
66.14000 450.406
66.15000 449.767
66.16000 449.338
66.17000 432.132
66.18000 419.019
66.19000 411.777
66.20000 412.410
66.21000 413.096
66.22000 424.253
66.23000 444.564
66.24000 464.658
66.25000 479.585
66.26000 491.227
66.27000 503.426
66.28000 527.228
66.29000 555.654
66.30000 583.279
66.31000 602.277
66.32000 618.933
66.33000 633.664
66.34000 648.229
66.35000 660.791
66.36000 675.418
66.37000 698.775
66.38000 723.110
66.39000 740.680
66.40000 738.905
66.41000 735.934
66.42000 733.951
66.43000 711.382
66.44000 694.264
66.45000 680.700
66.46000 671.829
66.47000 662.982
66.48000 655.459
66.49000 649.074
66.50000 642.761
66.51000 623.725
66.52000 597.996
66.53000 572.105
66.54000 542.958
66.55000 512.532
66.56000 483.198
66.57000 465.376
66.58000 450.632
66.59000 437.623
66.60000 427.974
66.61000 420.163
66.62000 411.729
66.63000 400.696
66.64000 389.377
66.65000 380.316
66.66000 377.615
66.67000 375.297
66.68000 373.758
66.69000 379.562
66.70000 383.988
66.71000 386.662
66.72000 387.058
66.73000 387.438
66.74000 384.011
66.75000 377.363
66.76000 370.794
66.77000 371.998
66.78000 377.469
66.79000 382.796
66.80000 385.280
66.81000 386.664
66.82000 387.748
66.83000 385.738
66.84000 382.913
66.85000 380.426
66.86000 382.551
66.87000 385.072
66.88000 387.469
66.89000 389.359
66.90000 391.194
66.91000 391.849
66.92000 389.227
66.93000 386.413
66.94000 384.555
66.95000 385.544
66.96000 386.323
66.97000 387.341
66.98000 388.664
66.99000 389.992
67.00000 393.191
67.01000 397.949
67.02000 402.647
67.03000 403.383
67.04000 401.946
67.05000 400.711
67.06000 403.349
67.07000 407.464
67.08000 410.758
67.09000 405.755
67.10000 398.601
67.11000 392.318
67.12000 399.272
67.13000 407.194
67.14000 413.292
67.15000 412.023
67.16000 409.977
67.17000 409.599
67.18000 413.786
67.19000 418.233
67.20000 421.154
67.21000 417.227
67.22000 414.220
67.23000 414.542
67.24000 419.057
67.25000 423.587
67.26000 429.207
67.27000 435.720
67.28000 442.146
67.29000 443.262
67.30000 441.504
67.31000 439.924
67.32000 441.630
67.33000 444.572
67.34000 447.276
67.35000 447.622
67.36000 447.366
67.37000 447.142
67.38000 447.998
67.39000 448.890
67.40000 449.029
67.41000 446.182
67.42000 443.026
67.43000 441.915
67.44000 446.322
67.45000 451.035
67.46000 454.115
67.47000 448.319
67.48000 443.919
67.49000 445.852
67.50000 455.638
67.51000 465.444
67.52000 474.207
67.53000 482.129
67.54000 489.940
67.55000 491.296
67.56000 489.213
67.57000 487.073
67.58000 483.907
67.59000 480.362
67.60000 477.027
67.61000 475.734
67.62000 474.956
67.63000 474.275
67.64000 484.579
67.65000 494.957
67.66000 502.198
67.67000 497.155
67.68000 490.868
67.69000 489.811
67.70000 502.662
67.71000 516.264
67.72000 525.103
67.73000 501.339
67.74000 483.426
67.75000 475.925
67.76000 481.131
67.77000 486.371
67.78000 492.406
67.79000 499.071
67.80000 505.638
67.81000 505.702
67.82000 502.392
67.83000 499.385
67.84000 501.705
67.85000 505.972
67.86000 509.759
67.87000 508.994
67.88000 507.100
67.89000 505.449
67.90000 516.617
67.91000 527.944
67.92000 536.597
67.93000 534.937
67.94000 532.254
67.95000 531.560
67.96000 536.079
67.97000 540.871
67.98000 543.968
67.99000 548.825
68.00000 552.402
68.01000 553.995
68.02000 553.205
68.03000 552.410
68.04000 551.845
68.05000 551.460
68.06000 551.082
68.07000 563.587
68.08000 582.284
68.09000 599.628
68.10000 593.871
68.11000 579.793
68.12000 567.460
68.13000 571.352
68.14000 579.206
68.15000 586.036
68.16000 591.760
68.17000 596.493
68.18000 598.860
68.19000 592.244
68.20000 584.755
68.21000 581.253
68.22000 588.047
68.23000 595.366
68.24000 600.070
68.25000 615.003
68.26000 626.038
68.27000 630.359
68.28000 626.745
68.29000 623.138
68.30000 624.772
68.31000 630.438
68.32000 636.012
68.33000 641.977
68.34000 647.949
68.35000 654.387
68.36000 668.567
68.37000 685.496
68.38000 700.865
68.39000 702.032
68.40000 699.783
68.41000 697.833
68.42000 710.238
68.43000 722.722
68.44000 734.851
68.45000 745.652
68.46000 756.326
68.47000 763.998
68.48000 764.024
68.49000 763.671
68.50000 763.446
68.51000 782.733
68.52000 797.028
68.53000 812.775
68.54000 830.212
68.55000 847.617
68.56000 857.826
68.57000 862.583
68.58000 867.258
68.59000 897.672
68.60000 939.803
68.61000 981.581
68.62000 1017.656
68.63000 1051.736
68.64000 1088.543
68.65000 1149.716
68.66000 1216.656
68.67000 1274.579
68.68000 1329.943
68.69000 1376.675
68.70000 1423.085
68.71000 1468.307
68.72000 1513.418
68.73000 1563.724
68.74000 1627.066
68.75000 1691.035
68.76000 1731.686
68.77000 1812.209
68.78000 1871.182
68.79000 1927.687
68.80000 1981.367
68.81000 2035.117
68.82000 2103.061
68.83000 2181.592
68.84000 2258.727
68.85000 2360.510
68.86000 2470.782
68.87000 2588.478
68.88000 2823.176
68.89000 3098.225
68.90000 3410.738
68.91000 4051.271
68.92000 4768.268
68.93000 5387.079
68.94000 7379.715
68.95000 9247.315
68.96000 11450.046
68.97000 14869.510
68.98000 18399.777
68.99000 22177.627
69.00000 26567.900
69.01000 30986.725
69.02000 33778.723
69.03000 38817.691
69.04000 42495.266
69.05000 45395.434
69.06000 47420.180
69.07000 49440.359
69.08000 50797.668
69.09000 51668.145
69.10000 52522.434
69.11000 53312.344
69.12000 54043.172
69.13000 54789.734
69.14000 55777.922
69.15000 56848.234
69.16000 57844.750
69.17000 58207.637
69.18000 58425.090
69.19000 58612.277
69.20000 57030.293
69.21000 55467.180
69.22000 53492.313
69.23000 50044.734
69.24000 46465.938
69.25000 42964.020
69.26000 39649.539
69.27000 36343.531
69.28000 34266.758
69.29000 31867.711
69.30000 30129.732
69.31000 28859.287
69.32000 28106.773
69.33000 27355.859
69.34000 26804.830
69.35000 26398.354
69.36000 25999.773
69.37000 25232.590
69.38000 24319.996
69.39000 23362.766
69.40000 21737.162
69.41000 19887.676
69.42000 17991.172
69.43000 15698.729
69.44000 13316.814
69.45000 11271.777
69.46000 9163.403
69.47000 7373.066
69.48000 5767.195
69.49000 4811.339
69.50000 3912.132
69.51000 3152.856
69.52000 2729.861
69.53000 2321.597
69.54000 2066.636
69.55000 1844.837
69.56000 1685.196
69.57000 1556.995
69.58000 1463.055
69.59000 1369.229
69.60000 1289.502
69.61000 1219.816
69.62000 1151.543
69.63000 1103.610
69.64000 1066.955
69.65000 1030.787
69.66000 1001.733
69.67000 975.027
69.68000 948.394
69.69000 922.353
69.70000 896.443
69.71000 874.258
69.72000 842.751
69.73000 815.032
69.74000 790.859
69.75000 778.993
69.76000 768.177
69.77000 754.922
69.78000 735.893
69.79000 716.619
69.80000 704.653
69.81000 677.974
69.82000 658.630
69.83000 650.517
69.84000 654.444
69.85000 658.250
69.86000 645.541
69.87000 621.251
69.88000 597.474
69.89000 590.207
69.90000 590.771
69.91000 590.780
69.92000 582.903
69.93000 572.460
69.94000 562.924
69.95000 560.729
69.96000 560.143
69.97000 559.642
69.98000 558.501
69.99000 557.464
70.00000 553.452
