20.00000 480.544
20.01000 482.665
20.02000 485.088
20.03000 487.644
20.04000 490.720
20.05000 493.849
20.06000 496.160
20.07000 492.137
20.08000 488.749
20.09000 485.602
20.10000 482.895
20.11000 480.197
20.12000 479.380
20.13000 480.876
20.14000 482.376
20.15000 487.461
20.16000 495.380
20.17000 503.103
20.18000 502.049
20.19000 496.272
20.20000 490.624
20.21000 487.271
20.22000 484.762
20.23000 482.447
20.24000 486.116
20.25000 490.745
20.26000 493.711
20.27000 486.863
20.28000 478.407
20.29000 471.903
20.30000 472.979
20.31000 474.814
20.32000 476.164
20.33000 486.801
20.34000 495.411
20.35000 500.722
20.36000 500.082
20.37000 499.320
20.38000 497.327
20.39000 493.844
20.40000 490.364
20.41000 488.215
20.42000 487.121
20.43000 485.972
20.44000 482.471
20.45000 477.724
20.46000 473.333
20.47000 475.112
20.48000 479.130
20.49000 482.831
20.50000 486.425
20.51000 489.617
20.52000 491.992
20.53000 489.625
20.54000 486.495
20.55000 484.380
20.56000 486.148
20.57000 488.298
20.58000 489.872
20.59000 483.222
20.60000 477.761
20.61000 473.382
20.62000 470.929
20.63000 468.513
20.64000 471.529
20.65000 481.018
20.66000 490.498
20.67000 489.877
20.68000 481.471
20.69000 473.263
20.70000 473.157
20.71000 477.287
20.72000 480.880
20.73000 475.440
20.74000 466.772
20.75000 458.800
20.76000 459.739
20.77000 462.505
20.78000 465.731
20.79000 471.579
20.80000 477.842
20.81000 483.510
20.82000 486.931
20.83000 490.136
20.84000 492.473
20.85000 487.864
20.86000 484.044
20.87000 481.332
20.88000 480.559
20.89000 479.823
20.90000 482.517
20.91000 489.235
20.92000 495.942
20.93000 492.451
20.94000 481.247
20.95000 470.254
20.96000 467.534
20.97000 469.075
20.98000 471.085
20.99000 480.798
21.00000 493.225
21.01000 504.631
21.02000 505.062
21.03000 503.113
21.04000 499.843
21.05000 489.171
21.06000 477.346
21.07000 468.016
21.08000 467.947
21.09000 468.748
21.10000 469.330
21.11000 481.274
21.12000 490.884
21.13000 496.802
21.14000 496.346
21.15000 495.779
21.16000 491.188
21.17000 481.955
21.18000 472.742
21.19000 473.276
21.20000 481.080
21.21000 488.816
21.22000 493.967
21.23000 497.808
21.24000 501.189
21.25000 497.237
21.26000 490.737
21.27000 484.784
21.28000 484.147
21.29000 484.692
21.30000 485.071
21.31000 484.531
21.32000 483.851
21.33000 484.191
21.34000 488.268
21.35000 492.688
21.36000 495.883
21.37000 492.536
21.38000 489.731
21.39000 487.518
21.40000 486.312
21.41000 485.123
21.42000 484.588
21.43000 484.795
21.44000 485.003
21.45000 487.551
21.46000 491.797
21.47000 495.925
21.48000 495.775
21.49000 493.485
21.50000 491.129
21.51000 487.754
21.52000 484.029
21.53000 480.623
21.54000 479.323
21.55000 478.601
21.56000 478.018
21.57000 478.194
21.58000 478.483
21.59000 479.199
21.60000 481.454
21.61000 483.846
21.62000 485.568
21.63000 491.443
21.64000 496.087
21.65000 498.810
21.66000 498.312
21.67000 497.763
21.68000 499.411
21.69000 503.510
21.70000 507.597
21.71000 515.968
21.72000 527.362
21.73000 538.668
21.74000 546.890
21.75000 553.591
21.76000 559.995
21.77000 561.882
21.78000 562.245
21.79000 562.577
21.80000 565.966
21.81000 569.590
21.82000 573.895
21.83000 581.837
21.84000 590.316
21.85000 598.708
21.86000 606.791
21.87000 614.847
21.88000 620.619
21.89000 626.986
21.90000 631.872
21.91000 635.774
21.92000 638.053
21.93000 640.308
21.94000 640.853
21.95000 639.520
21.96000 638.191
21.97000 645.115
21.98000 657.841
21.99000 670.485
22.00000 680.417
22.01000 689.030
22.02000 697.206
22.03000 698.913
22.04000 698.470
22.05000 698.066
22.06000 689.535
22.07000 680.367
22.08000 672.385
22.09000 670.629
22.10000 669.775
22.11000 666.074
22.12000 652.415
22.13000 637.899
22.14000 627.545
22.15000 621.545
22.16000 617.112
22.17000 613.606
22.18000 611.606
22.19000 609.627
22.20000 604.131
22.21000 594.835
22.22000 585.577
22.23000 578.764
22.24000 573.728
22.25000 568.654
22.26000 562.325
22.27000 555.395
22.28000 548.429
22.29000 540.935
22.30000 533.267
22.31000 526.298
22.32000 523.190
22.33000 521.197
22.34000 518.541
22.35000 512.460
22.36000 505.893
22.37000 501.848
22.38000 506.496
22.39000 511.877
22.40000 515.697
22.41000 495.275
22.42000 478.964
22.43000 471.332
22.44000 477.609
22.45000 484.070
22.46000 482.113
22.47000 471.209
22.48000 460.353
22.49000 461.660
22.50000 471.323
22.51000 480.783
22.52000 484.025
22.53000 484.331
22.54000 484.128
22.55000 476.776
22.56000 467.115
22.57000 458.351
22.58000 460.965
22.59000 465.453
22.60000 468.886
22.61000 466.955
22.62000 464.274
22.63000 461.676
22.64000 459.362
22.65000 457.071
22.66000 455.452
22.67000 464.486
22.68000 471.673
22.69000 475.277
22.70000 473.224
22.71000 471.101
22.72000 468.263
22.73000 464.677
22.74000 461.110
22.75000 461.846
22.76000 465.487
22.77000 468.931
22.78000 466.532
22.79000 461.413
22.80000 455.924
22.81000 445.359
22.82000 433.178
22.83000 422.151
22.84000 428.971
22.85000 438.341
22.86000 445.050
22.87000 438.451
22.88000 430.024
22.89000 428.537
22.90000 450.258
22.91000 473.847
22.92000 490.443
22.93000 472.914
22.94000 458.621
22.95000 448.899
22.96000 446.287
22.97000 443.758
22.98000 443.620
22.99000 445.941
23.00000 448.248
23.01000 449.427
23.02000 449.839
23.03000 450.180
23.04000 448.479
23.05000 445.841
23.06000 443.563
23.07000 446.098
23.08000 450.144
23.09000 453.798
23.10000 452.559
23.11000 450.564
23.12000 448.232
23.13000 444.244
23.14000 440.033
23.15000 437.876
23.16000 442.491
23.17000 447.638
23.18000 451.243
23.19000 443.375
23.20000 437.097
23.21000 434.851
23.22000 438.782
23.23000 442.780
23.24000 441.602
23.25000 435.193
23.26000 428.823
23.27000 433.804
23.28000 446.161
23.29000 457.951
23.30000 454.097
23.31000 443.172
23.32000 433.358
23.33000 438.086
23.34000 447.307
23.35000 455.620
23.36000 446.077
23.37000 434.453
23.38000 424.129
23.39000 420.104
23.40000 416.912
23.41000 414.397
23.42000 414.080
23.43000 413.930
23.44000 413.827
23.45000 427.370
23.46000 437.967
23.47000 443.430
23.48000 441.146
23.49000 438.783
23.50000 437.617
23.51000 437.639
23.52000 437.662
23.53000 433.519
23.54000 426.748
23.55000 420.299
23.56000 422.431
23.57000 428.388
23.58000 433.745
23.59000 431.446
23.60000 426.816
23.61000 422.651
23.62000 431.781
23.63000 442.156
23.64000 450.773
23.65000 451.007
23.66000 450.152
23.67000 448.210
23.68000 442.789
23.69000 437.107
23.70000 433.166
23.71000 435.813
23.72000 437.980
23.73000 438.736
23.74000 437.394
23.75000 436.033
23.76000 434.241
23.77000 432.028
23.78000 429.831
23.79000 429.291
23.80000 429.811
23.81000 430.227
23.82000 427.928
23.83000 424.438
23.84000 421.206
23.85000 421.204
23.86000 422.172
23.87000 423.040
23.88000 424.710
23.89000 426.312
23.90000 428.160
23.91000 431.159
23.92000 434.306
23.93000 437.771
23.94000 442.240
23.95000 446.783
23.96000 449.918
23.97000 440.366
23.98000 432.863
23.99000 427.632
24.00000 425.725
24.01000 423.847
24.02000 423.987
24.03000 426.065
24.04000 428.128
24.05000 423.616
24.06000 415.070
24.07000 407.055
24.08000 412.263
24.09000 423.196
24.10000 433.358
24.11000 434.129
24.12000 432.124
24.13000 430.328
24.14000 432.850
24.15000 435.797
24.16000 437.314
24.17000 432.228
24.18000 426.315
24.19000 424.052
24.20000 433.124
24.21000 443.008
24.22000 449.797
24.23000 441.684
24.24000 435.234
24.25000 430.612
24.26000 428.626
24.27000 426.661
24.28000 426.630
24.29000 428.425
24.30000 430.207
24.31000 430.150
24.32000 428.964
24.33000 427.615
24.34000 422.350
24.35000 415.413
24.36000 409.465
24.37000 415.302
24.38000 424.571
24.39000 432.856
24.40000 433.155
24.41000 432.064
24.42000 431.733
24.43000 434.854
24.44000 438.399
24.45000 439.568
24.46000 433.463
24.47000 426.851
24.48000 422.332
24.49000 419.067
24.50000 416.653
24.51000 418.964
24.52000 427.982
24.53000 437.048
24.54000 439.243
24.55000 435.056
24.56000 430.905
24.57000 425.836
24.58000 420.306
24.59000 415.005
24.60000 415.057
24.61000 417.360
24.62000 419.139
24.63000 414.804
24.64000 408.713
24.65000 403.282
24.66000 405.216
24.67000 408.123
24.68000 411.449
24.69000 416.652
24.70000 422.081
24.71000 424.676
24.72000 418.722
24.73000 412.186
24.74000 407.740
24.75000 408.073
24.76000 408.430
24.77000 411.070
24.78000 416.904
24.79000 422.757
24.80000 422.736
24.81000 417.348
24.82000 412.010
24.83000 408.427
24.84000 405.961
24.85000 403.632
24.86000 404.410
24.87000 406.476
24.88000 408.838
24.89000 414.581
24.90000 421.279
24.91000 427.240
24.92000 425.447
24.93000 422.623
24.94000 420.328
24.95000 420.364
24.96000 420.675
24.97000 418.954
24.98000 411.191
24.99000 403.026
25.00000 397.501
25.01000 403.816
25.02000 408.778
25.03000 413.119
25.04000 416.602
25.05000 420.078
25.06000 422.360
25.07000 423.566
25.08000 424.761
25.09000 425.247
25.10000 425.306
25.11000 425.247
25.12000 422.570
25.13000 418.824
25.14000 414.840
25.15000 408.201
25.16000 400.822
25.17000 394.271
25.18000 400.722
25.19000 408.399
25.20000 413.804
25.21000 409.347
25.22000 403.747
25.23000 398.910
25.24000 396.310
25.25000 393.854
25.26000 392.200
25.27000 404.242
25.28000 413.482
25.29000 418.638
25.30000 418.257
25.31000 417.846
25.32000 416.913
25.33000 415.519
25.34000 414.140
25.35000 416.998
25.36000 422.238
25.37000 427.255
25.38000 427.504
25.39000 425.834
25.40000 424.053
25.41000 421.049
25.42000 417.710
25.43000 414.752
25.44000 416.958
25.45000 419.680
25.46000 421.560
25.47000 419.839
25.48000 417.709
25.49000 414.760
25.50000 409.446
25.51000 403.982
25.52000 400.322
25.53000 405.436
25.54000 409.406
25.55000 413.158
25.56000 416.622
25.57000 420.075
25.58000 416.046
25.59000 405.508
25.60000 395.085
25.61000 392.473
25.62000 394.356
25.63000 396.336
25.64000 400.303
25.65000 405.060
25.66000 409.430
25.67000 409.676
25.68000 408.807
25.69000 408.040
25.70000 407.255
25.71000 406.574
25.72000 406.364
25.73000 408.131
25.74000 410.118
25.75000 411.503
25.76000 411.174
25.77000 410.740
25.78000 410.450
25.79000 413.213
25.80000 415.316
25.81000 417.610
25.82000 420.155
25.83000 422.688
25.84000 416.363
25.85000 402.456
25.86000 388.709
25.87000 382.352
25.88000 380.279
25.89000 378.715
25.90000 387.333
25.91000 399.936
25.92000 410.967
25.93000 405.568
25.94000 395.794
25.95000 387.176
25.96000 391.883
25.97000 397.963
25.98000 403.234
25.99000 405.154
26.00000 406.709
26.01000 405.535
26.02000 396.709
26.03000 387.426
26.04000 381.272
26.05000 385.107
26.06000 388.122
26.07000 391.277
26.08000 394.611
26.09000 397.946
26.10000 401.340
26.11000 404.786
26.12000 408.190
26.13000 404.802
26.14000 397.764
26.15000 391.448
26.16000 399.206
26.17000 412.390
26.18000 423.866
26.19000 417.854
26.20000 407.256
26.21000 397.934
26.22000 396.394
26.23000 396.227
26.24000 395.172
26.25000 390.491
26.26000 385.423
26.27000 383.403
26.28000 389.813
26.29000 396.714
26.30000 401.265
26.31000 401.518
26.32000 401.630
26.33000 400.633
26.34000 398.224
26.35000 395.821
26.36000 398.709
26.37000 405.982
26.38000 413.162
26.39000 413.317
26.40000 409.665
26.41000 406.181
26.42000 405.863
26.43000 406.749
26.44000 407.886
26.45000 411.538
26.46000 415.841
26.47000 419.616
26.48000 409.665
26.49000 399.111
26.50000 390.644
26.51000 390.567
26.52000 391.368
26.53000 392.505
26.54000 394.556
26.55000 396.658
26.56000 398.036
26.57000 388.601
26.58000 381.482
26.59000 378.502
26.60000 380.713
26.61000 382.938
26.62000 383.935
26.63000 383.932
26.64000 383.928
26.65000 386.683
26.66000 390.832
26.67000 394.598
26.68000 391.338
26.69000 385.445
26.70000 380.437
26.71000 384.120
26.72000 390.013
26.73000 395.172
26.74000 388.634
26.75000 381.351
26.76000 378.230
26.77000 391.575
26.78000 406.612
26.79000 413.092
26.80000 396.586
26.81000 378.814
26.82000 367.220
26.83000 374.264
26.84000 379.728
26.85000 384.074
26.86000 387.039
26.87000 389.998
26.88000 392.057
26.89000 393.394
26.90000 394.712
26.91000 400.163
26.92000 407.626
26.93000 414.477
26.94000 410.398
26.95000 402.284
26.96000 394.648
26.97000 391.607
26.98000 389.717
26.99000 388.067
27.00000 388.255
27.01000 388.674
27.02000 387.657
27.03000 381.039
27.04000 373.857
27.05000 370.297
27.06000 376.325
27.07000 382.867
27.08000 387.111
27.09000 391.909
27.10000 395.431
27.11000 396.024
27.12000 393.059
27.13000 390.081
27.14000 385.631
27.15000 380.017
27.16000 374.487
27.17000 378.882
27.18000 388.269
27.19000 397.468
27.20000 403.413
27.21000 408.173
27.22000 411.380
27.23000 399.941
27.24000 384.888
27.25000 371.775
27.26000 375.723
27.27000 381.453
27.28000 385.865
27.29000 385.222
27.30000 384.080
27.31000 382.919
27.32000 381.706
27.33000 380.491
27.34000 379.707
27.35000 379.260
27.36000 378.938
27.37000 375.435
27.38000 368.130
27.39000 360.862
27.40000 365.291
27.41000 378.819
27.42000 392.136
27.43000 394.248
27.44000 390.602
27.45000 386.805
27.46000 380.444
27.47000 373.162
27.48000 367.210
27.49000 373.541
27.50000 382.856
27.51000 390.951
27.52000 385.343
27.53000 378.704
27.54000 373.566
27.55000 374.102
27.56000 375.186
27.57000 376.899
27.58000 380.227
27.59000 383.636
27.60000 385.824
27.61000 377.275
27.62000 370.896
27.63000 369.116
27.64000 372.744
27.65000 376.383
27.66000 380.120
27.67000 383.934
27.68000 387.684
27.69000 390.564
27.70000 392.914
27.71000 394.916
27.72000 391.162
27.73000 385.373
27.74000 379.974
27.75000 378.094
27.76000 377.056
27.77000 376.157
27.78000 373.016
27.79000 370.045
27.80000 368.396
27.81000 371.669
27.82000 375.406
27.83000 376.241
27.84000 369.719
27.85000 362.835
27.86000 358.442
27.87000 364.043
27.88000 368.245
27.89000 368.672
27.90000 364.729
27.91000 360.793
27.92000 359.495
27.93000 360.185
27.94000 360.863
27.95000 368.276
27.96000 378.755
27.97000 388.553
27.98000 387.433
27.99000 382.509
28.00000 377.451
28.01000 371.212
28.02000 364.694
28.03000 359.058
28.04000 367.745
28.05000 376.994
28.06000 384.114
28.07000 383.420
28.08000 382.003
28.09000 382.514
28.10000 387.839
28.11000 393.393
28.12000 396.917
28.13000 395.844
28.14000 395.009
28.15000 395.229
28.16000 396.649
28.17000 398.051
28.18000 395.925
28.19000 391.178
28.20000 386.517
28.21000 380.914
28.22000 375.049
28.23000 369.761
28.24000 373.495
28.25000 380.328
28.26000 386.377
28.27000 385.598
28.28000 383.235
28.29000 381.197
28.30000 383.851
28.31000 386.703
28.32000 388.825
28.33000 388.312
28.34000 387.560
28.35000 387.755
28.36000 390.280
28.37000 392.912
28.38000 394.572
28.39000 383.649
28.40000 375.595
28.41000 373.594
28.42000 378.378
28.43000 383.129
28.44000 381.304
28.45000 374.673
28.46000 368.167
28.47000 371.450
28.48000 379.281
28.49000 386.438
28.50000 383.320
28.51000 376.727
28.52000 371.047
28.53000 373.175
28.54000 377.087
28.55000 380.452
28.56000 377.952
28.57000 375.101
28.58000 371.442
28.59000 364.907
28.60000 358.118
28.61000 356.600
28.62000 367.876
28.63000 379.725
28.64000 387.155
28.65000 378.427
28.66000 371.945
28.67000 371.546
28.68000 377.852
28.69000 384.098
28.70000 380.530
28.71000 369.896
28.72000 359.471
28.73000 359.074
28.74000 363.398
28.75000 367.705
28.76000 371.740
28.77000 375.686
28.78000 379.458
28.79000 381.783
28.80000 383.782
28.81000 385.496
28.82000 372.813
28.83000 360.325
28.84000 351.275
28.85000 354.287
28.86000 358.342
28.87000 361.913
28.88000 364.324
28.89000 366.684
28.90000 368.155
28.91000 368.931
28.92000 369.484
28.93000 367.893
28.94000 363.978
28.95000 360.084
28.96000 359.214
28.97000 360.488
28.98000 361.736
28.99000 361.886
29.00000 361.523
29.01000 361.106
29.02000 359.897
29.03000 358.428
29.04000 357.259
29.05000 358.558
29.06000 360.403
29.07000 361.982
29.08000 369.647
29.09000 376.845
29.10000 381.155
29.11000 375.480
29.12000 368.961
29.13000 365.125
29.14000 367.621
29.15000 370.383
29.16000 372.094
29.17000 371.949
29.18000 371.826
29.19000 367.910
29.20000 359.947
29.21000 352.036
29.22000 351.010
29.23000 354.791
29.24000 358.491
29.25000 361.930
29.26000 365.113
29.27000 367.967
29.28000 366.158
29.29000 362.840
29.30000 360.533
29.31000 366.371
29.32000 373.985
29.33000 380.482
29.34000 372.247
29.35000 363.574
29.36000 357.718
29.37000 361.457
29.38000 365.990
29.39000 369.457
29.40000 370.448
29.41000 371.339
29.42000 371.887
29.43000 366.040
29.44000 361.786
29.45000 363.452
29.46000 371.327
29.47000 379.121
29.48000 377.331
29.49000 368.952
29.50000 360.760
29.51000 356.555
29.52000 354.309
29.53000 352.218
29.54000 352.288
29.55000 353.048
29.56000 353.141
29.57000 347.966
29.58000 341.662
29.59000 336.297
29.60000 345.395
29.61000 354.714
29.62000 361.589
29.63000 360.257
29.64000 358.262
29.65000 357.274
29.66000 358.593
29.67000 360.003
29.68000 360.866
29.69000 372.327
29.70000 380.621
29.71000 385.615
29.72000 387.205
29.73000 388.784
29.74000 389.085
29.75000 388.520
29.76000 387.969
29.77000 396.261
29.78000 408.096
29.79000 418.947
29.80000 416.557
29.81000 410.003
29.82000 405.513
29.83000 417.034
29.84000 431.937
29.85000 444.585
29.86000 461.664
29.87000 476.493
29.88000 487.655
29.89000 486.700
29.90000 484.786
29.91000 483.288
29.92000 482.729
29.93000 482.205
29.94000 481.887
29.95000 496.372
29.96000 506.834
29.97000 516.503
29.98000 525.366
29.99000 534.180
30.00000 537.881
30.01000 538.172
30.02000 538.457
30.03000 532.128
30.04000 523.212
30.05000 514.875
30.06000 514.155
30.07000 515.797
30.08000 517.138
30.09000 516.189
30.10000 514.765
30.11000 513.559
30.12000 508.518
30.13000 503.872
30.14000 497.192
30.15000 483.889
30.16000 470.074
30.17000 462.672
30.18000 469.542
30.19000 476.938
30.20000 481.410
30.21000 459.901
30.22000 444.385
30.23000 434.391
30.24000 429.901
30.25000 425.494
30.26000 428.983
30.27000 437.658
30.28000 446.116
30.29000 449.427
30.30000 450.392
30.31000 450.671
30.32000 442.135
30.33000 430.907
30.34000 421.520
30.35000 425.902
30.36000 433.101
30.37000 439.176
30.38000 431.675
30.39000 423.928
30.40000 417.838
30.41000 417.068
30.42000 416.698
30.43000 415.967
30.44000 414.444
30.45000 412.892
30.46000 411.960
30.47000 416.132
30.48000 419.132
30.49000 414.740
30.50000 403.102
30.51000 391.600
30.52000 392.140
30.53000 400.474
30.54000 408.591
30.55000 411.621
30.56000 412.375
30.57000 413.253
30.58000 415.693
30.59000 418.603
30.60000 420.734
30.61000 417.152
30.62000 412.420
30.63000 408.438
30.64000 416.673
30.65000 424.845
30.66000 429.641
30.67000 423.759
30.68000 417.091
30.69000 412.764
30.70000 413.497
30.71000 414.404
30.72000 414.945
30.73000 425.211
30.74000 432.552
30.75000 438.028
30.76000 441.706
30.77000 445.322
30.78000 443.905
30.79000 439.279
30.80000 434.778
30.81000 434.245
30.82000 435.379
30.83000 436.821
30.84000 442.051
30.85000 448.403
30.86000 454.338
30.87000 457.269
30.88000 459.604
30.89000 461.564
30.90000 467.325
30.91000 472.518
30.92000 478.426
30.93000 486.563
30.94000 494.860
30.95000 505.568
30.96000 521.417
30.97000 537.436
30.98000 546.939
30.99000 575.188
31.00000 595.284
31.01000 619.716
31.02000 648.260
31.03000 676.722
31.04000 698.795
31.05000 716.857
31.06000 734.413
31.07000 790.031
31.08000 858.388
31.09000 926.701
31.10000 994.501
31.11000 1062.151
31.12000 1134.316
31.13000 1238.446
31.14000 1348.805
31.15000 1441.147
31.16000 1607.576
31.17000 1753.450
31.18000 1900.267
31.19000 2049.980
31.20000 2199.895
31.21000 2363.197
31.22000 2554.622
31.23000 2746.942
31.24000 2860.298
31.25000 3132.683
31.26000 3325.786
31.27000 3516.803
31.28000 3705.875
31.29000 3894.398
31.30000 4042.761
31.31000 4166.278
31.32000 4286.210
31.33000 4419.113
31.34000 4550.458
31.35000 4675.877
31.36000 4731.830
31.37000 4767.789
31.38000 4800.187
31.39000 4807.831
31.40000 4810.728
31.41000 4813.144
31.42000 4723.398
31.43000 4639.725
31.44000 4540.477
31.45000 4394.080
31.46000 4244.458
31.47000 4092.891
31.48000 3937.295
31.49000 3781.577
31.50000 3690.397
31.51000 3389.596
31.52000 3176.783
31.53000 2989.858
31.54000 2826.669
31.55000 2663.138
31.56000 2475.944
31.57000 2274.328
31.58000 2078.772
31.59000 1917.853
31.60000 1778.982
31.61000 1642.391
31.62000 1531.932
31.63000 1428.883
31.64000 1328.424
31.65000 1245.646
31.66000 1166.205
31.67000 1100.123
31.68000 1031.107
31.69000 973.690
31.70000 917.995
31.71000 867.440
31.72000 817.227
31.73000 769.439
31.74000 726.600
31.75000 683.906
31.76000 659.072
31.77000 638.677
31.78000 624.369
31.79000 607.955
31.80000 589.643
31.81000 571.417
31.82000 558.879
31.83000 549.755
31.84000 540.916
31.85000 523.210
31.86000 503.013
31.87000 483.210
31.88000 467.811
31.89000 453.644
31.90000 440.263
31.91000 432.158
31.92000 425.032
31.93000 419.122
31.94000 414.753
31.95000 411.291
31.96000 408.842
31.97000 409.370
31.98000 410.091
31.99000 408.822
32.00000 403.552
32.01000 398.170
32.02000 395.060
32.03000 392.841
32.04000 391.290
32.05000 390.596
32.06000 390.662
32.07000 390.698
32.08000 388.887
32.09000 385.983
32.10000 383.172
32.11000 379.364
32.12000 375.383
32.13000 371.519
32.14000 368.926
32.15000 366.683
32.16000 364.646
32.17000 363.973
32.18000 363.549
32.19000 363.198
32.20000 369.502
32.21000 375.326
32.22000 377.672
32.23000 369.939
32.24000 361.567
32.25000 355.499
32.26000 353.997
32.27000 352.620
32.28000 351.830
32.29000 362.516
32.30000 370.017
32.31000 368.872
32.32000 360.177
32.33000 351.578
32.34000 348.583
32.35000 348.854
32.36000 349.117
32.37000 351.572
32.38000 354.712
32.39000 356.755
32.40000 347.011
32.41000 334.071
32.42000 323.806
32.43000 330.860
32.44000 341.025
32.45000 349.405
32.46000 345.636
32.47000 341.415
32.48000 338.314
32.49000 338.408
32.50000 338.699
32.51000 336.776
32.52000 330.529
32.53000 324.169
32.54000 320.544
32.55000 335.605
32.56000 346.156
32.57000 348.592
32.58000 344.058
32.59000 339.637
32.60000 341.437
32.61000 346.811
32.62000 352.000
32.63000 350.329
32.64000 346.217
32.65000 342.040
32.66000 337.163
32.67000 332.100
32.68000 327.453
32.69000 325.455
32.70000 323.925
32.71000 322.668
32.72000 328.379
32.73000 333.698
32.74000 337.382
32.75000 336.465
32.76000 335.271
32.77000 334.717
32.78000 335.398
32.79000 336.110
32.80000 336.513
32.81000 332.524
32.82000 329.738
32.83000 328.126
32.84000 327.506
32.85000 326.895
32.86000 326.744
32.87000 326.852
32.88000 326.956
32.89000 324.335
32.90000 320.878
32.91000 317.523
32.92000 315.231
32.93000 313.218
32.94000 311.594
32.95000 312.403
32.96000 313.633
32.97000 314.642
32.98000 318.419
32.99000 321.760
33.00000 323.017
33.01000 318.492
33.02000 313.629
33.03000 309.958
33.04000 308.549
33.05000 307.194
33.06000 306.432
33.07000 304.420
33.08000 303.032
33.09000 307.012
33.10000 315.458
33.11000 323.702
33.12000 321.877
33.13000 314.435
33.14000 307.266
33.15000 306.293
33.16000 307.598
33.17000 309.084
33.18000 312.398
33.19000 316.186
33.20000 320.164
33.21000 325.308
33.22000 330.651
33.23000 335.015
33.24000 329.831
33.25000 324.765
33.26000 320.668
33.27000 319.218
33.28000 317.920
33.29000 316.487
33.30000 314.802
33.31000 313.111
33.32000 312.168
33.33000 315.286
33.34000 317.438
33.35000 313.727
33.36000 305.215
33.37000 296.823
33.38000 294.117
33.39000 294.536
33.40000 294.939
33.41000 300.946
33.42000 308.555
33.43000 315.552
33.44000 316.515
33.45000 315.937
33.46000 314.359
33.47000 306.728
33.48000 298.081
33.49000 291.042
33.50000 294.219
33.51000 297.676
33.52000 300.613
33.53000 302.152
33.54000 303.614
33.55000 304.398
33.56000 303.933
33.57000 303.441
33.58000 303.168
33.59000 313.254
33.60000 320.208
33.61000 316.808
33.62000 305.066
33.63000 293.575
33.64000 293.486
33.65000 299.573
33.66000 305.422
33.67000 306.763
33.68000 306.454
33.69000 306.007
33.70000 304.226
33.71000 302.110
33.72000 301.218
33.73000 307.602
33.74000 315.187
33.75000 321.342
33.76000 314.818
33.77000 308.455
33.78000 304.488
33.79000 306.886
33.80000 309.628
33.81000 309.582
33.82000 304.475
33.83000 299.263
33.84000 296.396
33.85000 298.943
33.86000 300.703
33.87000 301.487
33.88000 301.498
33.89000 301.476
33.90000 299.990
33.91000 297.725
33.92000 295.550
33.93000 290.971
33.94000 285.869
33.95000 281.350
33.96000 282.358
33.97000 284.734
33.98000 287.452
33.99000 292.161
34.00000 297.193
34.01000 301.263
34.02000 298.670
34.03000 296.024
34.04000 295.475
34.05000 300.416
34.06000 305.643
34.07000 308.742
34.08000 308.030
34.09000 307.243
34.10000 306.814
34.11000 294.775
34.12000 286.517
34.13000 285.616
34.14000 290.459
34.15000 295.291
34.16000 299.647
34.17000 303.752
34.18000 307.688
34.19000 301.120
34.20000 291.460
34.21000 282.858
34.22000 284.077
34.23000 287.692
34.24000 291.353
34.25000 295.279
34.26000 299.248
34.27000 302.448
34.28000 303.218
34.29000 303.652
34.30000 302.209
34.31000 295.924
34.32000 289.394
34.33000 287.169
34.34000 292.536
34.35000 298.046
34.36000 301.032
34.37000 303.316
34.38000 304.850
34.39000 299.223
34.40000 288.092
34.41000 277.241
34.42000 277.535
34.43000 283.607
34.44000 289.420
34.45000 291.841
34.46000 292.978
34.47000 293.996
34.48000 293.928
34.49000 293.601
34.50000 292.496
34.51000 286.995
34.52000 280.805
34.53000 275.831
34.54000 288.288
34.55000 299.727
34.56000 307.784
34.57000 307.241
34.58000 306.274
34.59000 302.920
34.60000 295.417
34.61000 287.840
34.62000 283.766
34.63000 276.208
34.64000 271.080
34.65000 274.075
34.66000 283.216
34.67000 292.178
34.68000 294.315
34.69000 292.964
34.70000 291.673
34.71000 288.512
34.72000 284.961
34.73000 281.532
34.74000 279.189
34.75000 277.103
34.76000 275.801
34.77000 278.857
34.78000 282.586
34.79000 285.572
34.80000 289.463
34.81000 292.680
34.82000 294.426
34.83000 292.487
34.84000 290.372
34.85000 288.639
34.86000 287.563
34.87000 286.497
34.88000 285.929
34.89000 282.884
34.90000 280.809
34.91000 278.918
34.92000 277.164
34.93000 275.442
34.94000 274.833
34.95000 274.786
34.96000 274.741
34.97000 274.964
34.98000 275.257
34.99000 275.459
35.00000 274.860
35.01000 274.075
35.02000 273.917
35.03000 277.183
35.04000 280.967
35.05000 283.988
35.06000 286.183
35.07000 287.894
35.08000 288.346
35.09000 285.685
35.10000 282.880
35.11000 281.208
35.12000 281.446
35.13000 281.715
35.14000 281.857
35.15000 286.150
35.16000 289.037
35.17000 286.328
35.18000 279.514
35.19000 272.996
35.20000 276.860
35.21000 285.877
35.22000 294.475
35.23000 293.257
35.24000 289.037
35.25000 284.843
35.26000 280.875
35.27000 276.958
35.28000 274.024
35.29000 276.372
35.30000 279.505
35.31000 281.998
35.32000 278.037
35.33000 274.382
35.34000 272.458
35.35000 274.747
35.36000 277.226
35.37000 279.734
35.38000 282.293
35.39000 284.852
35.40000 286.196
35.41000 273.984
35.42000 265.741
35.43000 263.825
35.44000 266.480
35.45000 269.235
35.46000 275.343
35.47000 283.093
35.48000 290.472
35.49000 286.091
35.50000 278.389
35.51000 271.907
35.52000 275.689
35.53000 281.788
35.54000 285.864
35.55000 279.244
35.56000 271.063
35.57000 264.577
35.58000 266.306
35.59000 268.271
35.60000 269.750
35.61000 270.063
35.62000 270.324
35.63000 271.268
35.64000 273.333
35.65000 275.413
35.66000 276.497
35.67000 273.232
35.68000 271.003
35.69000 265.773
35.70000 258.410
35.71000 251.374
35.72000 254.950
35.73000 263.642
35.74000 271.906
35.75000 274.769
35.76000 275.768
35.77000 276.082
35.78000 270.749
35.79000 264.160
35.80000 259.943
35.81000 268.067
35.82000 277.961
35.83000 285.778
35.84000 274.436
35.85000 264.022
35.86000 258.906
35.87000 266.326
35.88000 274.275
35.89000 280.035
35.90000 282.261
35.91000 284.440
35.92000 285.566
35.93000 280.420
35.94000 276.936
35.95000 271.763
35.96000 265.408
35.97000 259.367
35.98000 263.193
35.99000 271.706
36.00000 279.790
36.01000 276.541
36.02000 270.141
36.03000 264.937
36.04000 269.399
36.05000 275.975
36.06000 280.406
36.07000 273.856
36.08000 265.758
36.09000 259.383
36.10000 255.879
36.11000 253.263
36.12000 252.457
36.13000 255.870
36.14000 259.456
36.15000 261.138
36.16000 259.793
36.17000 258.409
36.18000 257.699
36.19000 263.803
36.20000 267.885
36.21000 269.199
36.22000 268.604
36.23000 268.094
36.24000 270.162
36.25000 273.438
36.26000 276.543
36.27000 270.945
36.28000 263.217
36.29000 256.645
36.30000 259.250
36.31000 263.831
36.32000 267.487
36.33000 266.483
36.34000 264.835
36.35000 263.542
36.36000 264.660
36.37000 265.710
36.38000 266.514
36.39000 266.749
36.40000 266.962
36.41000 266.133
36.42000 263.673
36.43000 261.193
36.44000 259.932
36.45000 268.283
36.46000 273.840
36.47000 274.489
36.48000 271.805
36.49000 269.265
36.50000 270.932
36.51000 274.540
36.52000 277.956
36.53000 275.462
36.54000 271.452
36.55000 267.920
36.56000 268.107
36.57000 269.083
36.58000 270.055
36.59000 271.013
36.60000 271.968
36.61000 272.715
36.62000 271.357
36.63000 270.140
36.64000 270.115
36.65000 272.791
36.66000 275.571
36.67000 277.063
36.68000 276.571
36.69000 276.057
36.70000 275.797
36.71000 276.025
36.72000 276.201
36.73000 278.941
36.74000 283.395
36.75000 287.598
36.76000 284.766
36.77000 278.734
36.78000 273.030
36.79000 269.621
36.80000 267.145
36.81000 264.798
36.82000 263.439
36.83000 262.286
36.84000 261.596
36.85000 263.167
36.86000 265.040
36.87000 266.498
36.88000 275.543
36.89000 283.217
36.90000 288.693
36.91000 289.261
36.92000 289.648
36.93000 287.179
36.94000 280.372
36.95000 273.521
36.96000 270.094
36.97000 274.545
36.98000 277.469
36.99000 276.225
37.00000 272.233
37.01000 268.366
37.02000 267.890
37.03000 268.935
37.04000 269.921
37.05000 271.305
37.06000 272.686
37.07000 274.646
37.08000 280.960
37.09000 288.166
37.10000 292.740
37.11000 284.678
37.12000 274.961
37.13000 267.421
37.14000 272.625
37.15000 277.530
37.16000 281.850
37.17000 284.883
37.18000 287.871
37.19000 287.680
37.20000 282.734
37.21000 277.743
37.22000 275.885
37.23000 277.112
37.24000 278.301
37.25000 276.056
37.26000 271.583
37.27000 267.245
37.28000 266.425
37.29000 267.161
37.30000 267.855
37.31000 273.111
37.32000 279.186
37.33000 283.530
37.34000 275.124
37.35000 264.143
37.36000 256.220
37.37000 262.754
37.38000 271.147
37.39000 277.635
37.40000 275.103
37.41000 272.564
37.42000 271.407
37.43000 273.246
37.44000 275.189
37.45000 273.864
37.46000 267.726
37.47000 261.544
37.48000 260.470
37.49000 264.335
37.50000 268.174
37.51000 269.703
37.52000 269.756
37.53000 269.780
37.54000 269.067
37.55000 268.033
37.56000 267.060
37.57000 263.392
37.58000 259.305
37.59000 255.601
37.60000 254.673
37.61000 254.297
37.62000 254.232
37.63000 255.617
37.64000 257.185
37.65000 258.392
37.66000 267.185
37.67000 274.582
37.68000 277.208
37.69000 269.635
37.70000 261.722
37.71000 256.741
37.72000 256.015
37.73000 255.325
37.74000 257.331
37.75000 261.902
37.76000 266.418
37.77000 266.511
37.78000 263.817
37.79000 261.288
37.80000 262.774
37.81000 265.984
37.82000 269.001
37.83000 269.457
37.84000 269.187
37.85000 268.653
37.86000 266.240
37.87000 263.460
37.88000 261.168
37.89000 261.113
37.90000 261.336
37.91000 261.507
37.92000 258.111
37.93000 255.229
37.94000 255.286
37.95000 261.536
37.96000 267.985
37.97000 271.780
37.98000 271.780
37.99000 271.752
38.00000 269.606
38.01000 265.480
38.02000 261.426
38.03000 262.732
38.04000 267.365
38.05000 271.850
38.06000 272.805
38.07000 272.267
38.08000 271.763
38.09000 272.242
38.10000 272.938
38.11000 273.286
38.12000 271.211
38.13000 268.668
38.14000 267.592
38.15000 273.123
38.16000 279.456
38.17000 284.298
38.18000 287.810
38.19000 290.509
38.20000 293.979
38.21000 299.054
38.22000 304.178
38.23000 305.870
38.24000 302.729
38.25000 299.554
38.26000 300.846
38.27000 306.244
38.28000 311.616
38.29000 315.183
38.30000 317.646
38.31000 320.006
38.32000 319.976
38.33000 318.950
38.34000 317.989
38.35000 330.804
38.36000 346.026
38.37000 359.966
38.38000 365.114
38.39000 368.598
38.40000 372.237
38.41000 376.565
38.42000 380.975
38.43000 384.334
38.44000 408.392
38.45000 428.420
38.46000 442.974
38.47000 446.320
38.48000 449.332
38.49000 455.800
38.50000 467.059
38.51000 478.346
38.52000 495.738
38.53000 518.638
38.54000 541.377
38.55000 553.546
38.56000 559.348
38.57000 565.236
38.58000 573.040
38.59000 581.632
38.60000 589.667
38.61000 598.672
38.62000 607.096
38.63000 616.056
38.64000 628.627
38.65000 641.871
38.66000 651.527
38.67000 645.510
38.68000 637.662
38.69000 631.709
38.70000 629.359
38.71000 627.699
38.72000 627.122
38.73000 628.732
38.74000 630.404
38.75000 623.797
38.76000 605.889
38.77000 587.923
38.78000 570.521
38.79000 553.641
38.80000 536.857
38.81000 526.062
38.82000 518.823
38.83000 511.640
38.84000 505.682
38.85000 500.220
38.86000 495.121
38.87000 480.766
38.88000 465.436
38.89000 449.842
38.90000 432.500
38.91000 414.837
38.92000 398.843
38.93000 390.021
38.94000 382.022
38.95000 375.977
38.96000 366.246
38.97000 358.434
38.98000 350.818
38.99000 343.596
39.00000 336.384
39.01000 328.791
39.02000 320.685
39.03000 312.582
39.04000 307.331
39.05000 304.583
39.06000 301.758
39.07000 294.373
39.08000 284.323
39.09000 274.682
39.10000 273.605
39.11000 275.948
39.12000 278.132
39.13000 280.893
39.14000 283.533
39.15000 285.160
39.16000 280.197
39.17000 274.047
39.18000 268.227
39.19000 263.804
39.20000 259.538
39.21000 256.327
39.22000 261.230
39.23000 265.461
39.24000 266.691
39.25000 262.042
39.26000 257.238
39.27000 254.842
39.28000 255.634
39.29000 256.441
39.30000 256.688
39.31000 256.454
39.32000 256.236
39.33000 256.891
39.34000 258.050
39.35000 259.143
39.36000 258.904
39.37000 258.141
39.38000 257.431
39.39000 253.108
39.40000 248.327
39.41000 243.994
39.42000 242.515
39.43000 241.542
39.44000 240.266
39.45000 237.724
39.46000 235.042
39.47000 233.032
39.48000 237.519
39.49000 241.329
39.50000 242.860
39.51000 239.987
39.52000 237.004
39.53000 236.410
39.54000 238.929
39.55000 241.459
39.56000 241.666
39.57000 239.908
39.58000 238.150
39.59000 236.419
39.60000 234.703
39.61000 233.041
39.62000 232.446
39.63000 232.264
39.64000 232.095
39.65000 233.070
39.66000 234.222
39.67000 235.222
39.68000 235.270
39.69000 235.151
39.70000 234.780
39.71000 233.376
39.72000 231.859
39.73000 230.727
39.74000 235.835
39.75000 240.102
39.76000 243.634
39.77000 245.766
39.78000 247.865
39.79000 246.888
39.80000 241.964
39.81000 237.031
39.82000 234.386
39.83000 233.654
39.84000 232.972
39.85000 234.796
39.86000 238.021
39.87000 241.113
39.88000 241.649
39.89000 241.206
39.90000 240.796
39.91000 243.057
39.92000 245.719
39.93000 246.729
39.94000 237.549
39.95000 226.622
39.96000 219.196
39.97000 225.930
39.98000 234.162
39.99000 240.283
40.00000 238.843
40.01000 237.385
40.02000 237.217
40.03000 239.465
40.04000 241.770
40.05000 243.681
40.06000 245.096
40.07000 246.508
40.08000 243.589
40.09000 237.135
40.10000 230.859
40.11000 233.168
40.12000 240.210
40.13000 246.992
40.14000 248.929
40.15000 249.040
40.16000 249.142
40.17000 242.184
40.18000 234.303
40.19000 227.866
40.20000 230.186
40.21000 233.982
40.22000 236.215
40.23000 232.222
40.24000 227.583
40.25000 224.149
40.26000 225.090
40.27000 226.010
40.28000 228.576
40.29000 234.185
40.30000 239.861
40.31000 242.080
40.32000 240.002
40.33000 237.915
40.34000 238.441
40.35000 241.069
40.36000 243.649
40.37000 244.044
40.38000 243.252
40.39000 242.441
40.40000 241.273
40.41000 239.972
40.42000 238.769
40.43000 233.629
40.44000 228.126
40.45000 223.099
40.46000 220.924
40.47000 219.220
40.48000 218.549
40.49000 221.927
40.50000 225.716
40.51000 228.511
40.52000 227.739
40.53000 226.991
40.54000 226.759
40.55000 227.466
40.56000 228.193
40.57000 228.849
40.58000 229.419
40.59000 229.988
40.60000 232.777
40.61000 237.311
40.62000 241.724
40.63000 240.856
40.64000 237.161
40.65000 233.355
40.66000 227.611
40.67000 221.158
40.68000 215.207
40.69000 219.608
40.70000 225.854
40.71000 231.544
40.72000 233.974
40.73000 235.873
40.74000 237.619
40.75000 238.779
40.76000 239.879
40.77000 240.688
40.78000 228.048
40.79000 217.730
40.80000 213.116
40.81000 218.739
40.82000 224.567
40.83000 226.820
40.84000 224.769
40.85000 222.713
40.86000 218.969
40.87000 213.928
40.88000 209.123
40.89000 214.199
40.90000 224.489
40.91000 234.396
40.92000 237.729
40.93000 238.690
40.94000 239.575
40.95000 234.987
40.96000 229.688
40.97000 224.930
40.98000 223.296
40.99000 222.162
41.00000 221.643
41.01000 223.470
41.02000 225.525
41.03000 227.027
41.04000 225.030
41.05000 223.351
41.06000 223.770
41.07000 227.901
41.08000 232.104
41.09000 232.380
41.10000 228.005
41.11000 223.633
41.12000 220.832
41.13000 219.252
41.14000 217.701
41.15000 217.308
41.16000 217.518
41.17000 217.552
41.18000 214.646
41.19000 210.696
41.20000 207.065
41.21000 207.598
41.22000 208.969
41.23000 211.522
41.24000 220.778
41.25000 231.089
41.26000 238.942
41.27000 237.582
41.28000 235.343
41.29000 233.714
41.30000 229.703
41.31000 226.524
41.32000 224.125
41.33000 223.085
41.34000 222.070
41.35000 223.561
41.36000 227.973
41.37000 232.378
41.38000 231.422
41.39000 226.429
41.40000 221.392
41.41000 214.638
41.42000 207.006
41.43000 200.274
41.44000 208.176
41.45000 221.209
41.46000 233.163
41.47000 232.633
41.48000 229.522
41.49000 225.963
41.50000 219.905
41.51000 213.461
41.52000 208.986
41.53000 211.780
41.54000 215.252
41.55000 217.770
41.56000 215.968
41.57000 214.424
41.58000 214.827
41.59000 218.578
41.60000 222.385
41.61000 222.169
41.62000 217.337
41.63000 212.514
41.64000 209.647
41.65000 208.254
41.66000 206.894
41.67000 206.777
41.68000 207.288
41.69000 208.125
41.70000 214.108
41.71000 221.870
41.72000 228.975
41.73000 226.552
41.74000 222.417
41.75000 218.848
41.76000 218.385
41.77000 218.393
41.78000 217.940
41.79000 215.810
41.80000 213.527
41.81000 211.879
41.82000 222.805
41.83000 231.633
41.84000 233.728
41.85000 224.428
41.86000 214.942
41.87000 209.157
41.88000 207.550
41.89000 205.952
41.90000 204.326
41.91000 202.693
41.92000 201.037
41.93000 198.545
41.94000 195.636
41.95000 193.213
41.96000 198.271
41.97000 205.878
41.98000 212.828
41.99000 213.541
42.00000 212.900
42.01000 212.412
42.02000 212.749
42.03000 213.209
42.04000 213.058
42.05000 210.713
42.06000 208.172
42.07000 206.347
42.08000 208.436
42.09000 210.171
42.10000 210.274
42.11000 207.658
42.12000 205.000
42.13000 203.833
42.14000 204.323
42.15000 204.813
42.16000 207.102
42.17000 210.665
42.18000 214.185
42.19000 216.277
42.20000 217.667
42.21000 218.784
42.22000 215.784
42.23000 211.401
42.24000 207.405
42.25000 206.815
42.26000 206.975
42.27000 207.277
42.28000 208.337
42.29000 209.508
42.30000 209.748
42.31000 206.701
42.32000 203.367
42.33000 200.982
42.34000 209.136
42.35000 215.716
42.36000 218.781
42.37000 216.072
42.38000 213.279
42.39000 210.102
42.40000 206.504
42.41000 202.921
42.42000 202.467
42.43000 204.229
42.44000 206.115
42.45000 212.066
42.46000 219.981
42.47000 227.222
42.48000 224.576
42.49000 218.660
42.50000 213.275
42.51000 209.739
42.52000 206.974
42.53000 204.872
42.54000 206.229
42.55000 208.085
42.56000 209.750
42.57000 210.752
42.58000 211.698
42.59000 212.372
42.60000 211.639
42.61000 211.035
42.62000 210.266
42.63000 209.232
42.64000 208.194
42.65000 212.282
42.66000 221.876
42.67000 231.430
42.68000 228.426
42.69000 216.718
42.70000 205.201
42.71000 199.655
42.72000 196.956
42.73000 194.555
42.74000 196.422
42.75000 199.680
42.76000 202.640
42.77000 201.334
42.78000 199.354
42.79000 197.855
42.80000 198.830
42.81000 200.155
42.82000 203.112
42.83000 211.664
42.84000 220.683
42.85000 227.077
42.86000 220.195
42.87000 214.545
42.88000 210.393
42.89000 208.626
42.90000 206.891
42.91000 206.017
42.92000 206.052
42.93000 206.086
42.94000 207.652
42.95000 210.248
42.96000 212.796
42.97000 213.870
42.98000 214.254
42.99000 214.552
43.00000 213.660
43.01000 212.387
43.02000 211.233
43.03000 209.547
43.04000 207.959
43.05000 206.729
43.06000 207.309
43.07000 208.140
43.08000 209.835
43.09000 214.450
43.10000 219.303
43.11000 222.728
43.12000 217.718
43.13000 213.661
43.14000 209.052
43.15000 203.576
43.16000 198.090
43.17000 197.810
43.18000 202.938
43.19000 208.040
43.20000 208.934
43.21000 206.985
43.22000 205.019
43.23000 202.546
43.24000 199.839
43.25000 197.423
43.26000 198.963
43.27000 201.755
43.28000 204.281
43.29000 202.941
43.30000 201.037
43.31000 199.824
43.32000 202.049
43.33000 204.743
43.34000 206.451
43.35000 204.880
43.36000 203.046
43.37000 201.758
43.38000 199.280
43.39000 197.368
43.40000 197.330
43.41000 200.192
43.42000 203.087
43.43000 205.395
43.44000 207.103
43.45000 208.802
43.46000 207.444
43.47000 204.077
43.48000 200.850
43.49000 201.581
43.50000 204.116
43.51000 206.097
43.52000 200.704
43.53000 193.011
43.54000 186.066
43.55000 188.692
43.56000 192.760
43.57000 196.976
43.58000 201.912
43.59000 206.944
43.60000 210.965
43.61000 211.665
43.62000 212.107
43.63000 212.416
43.64000 202.804
43.65000 195.260
43.66000 191.505
43.67000 193.523
43.68000 195.602
43.69000 197.234
43.70000 198.415
43.71000 199.589
43.72000 199.619
43.73000 198.901
43.74000 198.203
43.75000 198.051
43.76000 198.143
43.77000 198.222
43.78000 198.137
43.79000 198.001
43.80000 197.879
43.81000 203.500
43.82000 209.469
43.83000 213.306
43.84000 206.871
43.85000 199.085
43.86000 194.324
43.87000 199.335
43.88000 205.092
43.89000 209.097
43.90000 205.509
43.91000 202.596
43.92000 199.936
43.93000 197.652
43.94000 195.372
43.95000 196.220
43.96000 200.155
43.97000 204.065
43.98000 202.517
43.99000 197.491
44.00000 192.674
44.01000 193.381
44.02000 196.537
44.03000 199.719
44.04000 203.233
44.05000 206.848
44.06000 210.098
44.07000 203.253
44.08000 195.466
44.09000 189.083
44.10000 189.349
44.11000 190.474
44.12000 191.383
44.13000 191.604
44.14000 191.774
44.15000 191.891
44.16000 200.505
44.17000 207.210
44.18000 211.698
44.19000 212.907
44.20000 214.087
44.21000 212.504
44.22000 208.237
44.23000 204.001
44.24000 200.735
44.25000 198.134
44.26000 195.605
44.27000 194.902
44.28000 194.999
44.29000 195.345
44.30000 198.784
44.31000 203.147
44.32000 207.061
44.33000 206.401
44.34000 205.028
44.35000 204.280
44.36000 206.456
44.37000 209.002
44.38000 211.575
44.39000 214.235
44.40000 216.901
44.41000 218.739
44.42000 216.787
44.43000 215.226
44.44000 213.121
44.45000 210.225
44.46000 207.323
44.47000 209.483
44.48000 216.478
44.49000 223.419
44.50000 225.590
44.51000 224.758
44.52000 224.021
44.53000 225.590
44.54000 228.153
44.55000 230.998
44.56000 237.260
44.57000 244.526
44.58000 251.031
44.59000 247.174
44.60000 242.034
44.61000 239.430
44.62000 248.475
44.63000 258.969
44.64000 267.059
44.65000 267.718
44.66000 267.851
44.67000 267.941
44.68000 268.994
44.69000 269.805
44.70000 273.423
44.71000 281.063
44.72000 288.735
44.73000 293.919
44.74000 296.767
44.75000 299.593
44.76000 303.646
44.77000 308.379
44.78000 313.097
44.79000 317.479
44.80000 321.718
44.81000 326.589
44.82000 338.927
44.83000 353.429
44.84000 366.381
44.85000 366.735
44.86000 364.923
44.87000 364.657
44.88000 371.375
44.89000 378.946
44.90000 383.995
44.91000 381.366
44.92000 378.205
44.93000 376.049
44.94000 389.681
44.95000 400.241
44.96000 404.121
44.97000 398.566
44.98000 392.945
44.99000 392.439
45.00000 396.655
45.01000 400.835
45.02000 401.123
45.03000 399.065
45.04000 396.875
45.05000 391.673
45.06000 385.209
45.07000 379.098
45.08000 377.065
45.09000 376.196
45.10000 375.422
45.11000 370.974
45.12000 366.499
45.13000 362.506
45.14000 360.660
45.15000 359.069
45.16000 356.392
45.17000 350.450
45.18000 344.287
45.19000 340.103
45.20000 326.730
45.21000 316.546
45.22000 309.273
45.23000 306.049
45.24000 302.853
45.25000 302.760
45.26000 305.485
45.27000 308.185
45.28000 305.860
45.29000 300.605
45.30000 295.469
45.31000 292.995
45.32000 291.619
45.33000 290.155
45.34000 287.707
45.35000 284.982
45.36000 282.559
45.37000 275.689
45.38000 269.006
45.39000 262.604
45.40000 257.432
45.41000 252.404
45.42000 247.542
45.43000 243.168
45.44000 238.827
45.45000 235.894
45.46000 241.223
45.47000 245.368
45.48000 243.109
45.49000 232.081
45.50000 221.007
45.51000 218.562
45.52000 223.828
45.53000 229.042
45.54000 235.289
45.55000 242.005
45.56000 248.228
45.57000 243.722
45.58000 234.855
45.59000 226.497
45.60000 223.778
45.61000 222.622
45.62000 221.597
45.63000 224.013
45.64000 226.653
45.65000 227.956
45.66000 223.484
45.67000 218.347
45.68000 214.832
45.69000 216.048
45.70000 217.566
45.71000 218.587
45.72000 207.793
45.73000 199.531
45.74000 198.503
45.75000 207.234
45.76000 216.011
45.77000 219.250
45.78000 217.621
45.79000 216.008
45.80000 211.499
45.81000 205.427
45.82000 199.610
45.83000 199.144
45.84000 200.821
45.85000 202.425
45.86000 203.232
45.87000 203.821
45.88000 204.343
45.89000 204.495
45.90000 204.568
45.91000 204.632
45.92000 204.656
45.93000 204.676
45.94000 204.548
45.95000 204.000
45.96000 203.425
45.97000 203.040
45.98000 194.357
45.99000 187.756
46.00000 186.627
46.01000 192.763
46.02000 198.929
46.03000 200.062
46.04000 196.841
46.05000 193.656
46.06000 189.304
46.07000 184.395
46.08000 179.801
46.09000 181.650
46.10000 186.043
46.11000 190.061
46.12000 190.101
46.13000 189.071
46.14000 188.162
46.15000 183.924
46.16000 179.755
46.17000 177.702
46.18000 184.504
46.19000 192.286
46.20000 196.912
46.21000 192.600
46.22000 187.743
46.23000 184.513
46.24000 186.205
46.25000 187.550
46.26000 187.033
46.27000 184.082
46.28000 181.121
46.29000 178.729
46.30000 176.820
46.31000 174.933
46.32000 171.237
46.33000 166.625
46.34000 162.621
46.35000 170.665
46.36000 183.399
46.37000 194.724
46.38000 191.433
46.39000 184.271
46.40000 177.961
46.41000 178.119
46.42000 179.230
46.43000 180.771
46.44000 184.082
46.45000 187.585
46.46000 189.748
46.47000 188.173
46.48000 186.377
46.49000 185.188
46.50000 178.920
46.51000 174.201
46.52000 172.404
46.53000 174.366
46.54000 176.342
46.55000 177.739
46.56000 178.650
46.57000 179.551
46.58000 179.478
46.59000 178.876
46.60000 178.373
46.61000 179.814
46.62000 182.000
46.63000 183.906
46.64000 182.961
46.65000 181.273
46.66000 179.789
46.67000 175.288
46.68000 170.970
46.69000 167.833
46.70000 169.490
46.71000 171.655
46.72000 173.801
46.73000 175.890
46.74000 177.976
46.75000 179.349
46.76000 180.714
46.77000 181.718
46.78000 180.049
46.79000 174.994
46.80000 169.940
46.81000 170.693
46.82000 176.231
46.83000 181.698
46.84000 180.730
46.85000 176.325
46.86000 172.085
46.87000 170.940
46.88000 170.966
46.89000 170.800
46.90000 168.724
46.91000 166.158
46.92000 163.907
46.93000 166.630
46.94000 169.689
46.95000 171.923
46.96000 170.854
46.97000 169.442
46.98000 168.841
46.99000 170.443
47.00000 172.168
47.01000 173.297
47.02000 172.785
47.03000 172.382
47.04000 172.564
47.05000 173.476
47.06000 174.393
47.07000 176.002
47.08000 178.173
47.09000 180.314
47.10000 174.199
47.11000 163.879
47.12000 154.163
47.13000 155.431
47.14000 160.793
47.15000 165.565
47.16000 164.589
47.17000 162.157
47.18000 160.031
47.19000 161.089
47.20000 162.449
47.21000 164.471
47.22000 169.093
47.23000 173.980
47.24000 177.486
47.25000 177.300
47.26000 176.912
47.27000 176.660
47.28000 172.703
47.29000 169.745
47.30000 170.134
47.31000 174.633
47.32000 179.132
47.33000 180.157
47.34000 178.408
47.35000 176.685
47.36000 175.677
47.37000 175.071
47.38000 174.514
47.39000 174.829
47.40000 175.464
47.41000 175.441
47.42000 169.137
47.43000 161.267
47.44000 154.399
47.45000 159.221
47.46000 164.980
47.47000 169.914
47.48000 171.652
47.49000 173.070
47.50000 173.433
47.51000 171.017
47.52000 168.452
47.53000 166.792
47.54000 170.303
47.55000 172.949
47.56000 173.758
47.57000 172.348
47.58000 170.929
47.59000 168.497
47.60000 165.269
47.61000 162.090
47.62000 161.402
47.63000 162.014
47.64000 162.518
47.65000 161.161
47.66000 159.131
47.67000 157.456
47.68000 159.111
47.69000 161.583
47.70000 163.735
47.71000 164.760
47.72000 165.479
47.73000 166.543
47.74000 168.920
47.75000 171.426
47.76000 172.087
47.77000 167.958
47.78000 163.582
47.79000 160.764
47.80000 157.643
47.81000 155.360
47.82000 158.290
47.83000 167.416
47.84000 176.521
47.85000 177.577
47.86000 172.404
47.87000 167.314
47.88000 166.428
47.89000 167.695
47.90000 168.786
47.91000 166.943
47.92000 164.053
47.93000 161.990
47.94000 167.520
47.95000 174.886
47.96000 181.281
47.97000 178.156
47.98000 174.211
47.99000 170.284
48.00000 166.429
48.01000 162.581
48.02000 161.113
48.03000 165.737
48.04000 170.665
48.05000 173.821
48.06000 165.070
48.07000 158.537
48.08000 157.302
48.09000 162.266
48.10000 167.227
48.11000 169.643
48.12000 170.118
48.13000 170.586
48.14000 169.532
48.15000 167.757
48.16000 165.730
48.17000 159.600
48.18000 152.026
48.19000 145.761
48.20000 151.267
48.21000 159.575
48.22000 166.770
48.23000 162.840
48.24000 158.029
48.25000 155.858
48.26000 163.474
48.27000 172.007
48.28000 177.133
48.29000 173.663
48.30000 169.775
48.31000 167.300
48.32000 162.269
48.33000 158.581
48.34000 157.581
48.35000 159.677
48.36000 161.781
48.37000 164.770
48.38000 168.424
48.39000 172.014
48.40000 174.350
48.41000 175.992
48.42000 177.132
48.43000 170.296
48.44000 160.695
48.45000 151.961
48.46000 150.871
48.47000 151.571
48.48000 152.176
48.49000 154.958
48.50000 157.602
48.51000 159.905
48.52000 160.961
48.53000 161.903
48.54000 163.210
48.55000 165.424
48.56000 167.681
48.57000 169.110
48.58000 167.473
48.59000 166.250
48.60000 165.034
48.61000 163.827
48.62000 162.628
48.63000 162.876
48.64000 164.192
48.65000 165.483
48.66000 164.784
48.67000 163.151
48.68000 161.490
48.69000 159.411
48.70000 157.189
48.71000 155.520
48.72000 158.633
48.73000 162.850
48.74000 166.483
48.75000 161.791
48.76000 156.757
48.77000 152.957
48.78000 153.596
48.79000 154.634
48.80000 154.376
48.81000 150.942
48.82000 147.364
48.83000 145.112
48.84000 160.457
48.85000 171.759
48.86000 177.211
48.87000 176.145
48.88000 175.061
48.89000 171.745
48.90000 166.807
48.91000 161.963
48.92000 162.433
48.93000 165.406
48.94000 167.888
48.95000 162.953
48.96000 155.521
48.97000 149.502
48.98000 155.463
48.99000 164.146
49.00000 171.609
49.01000 163.589
49.02000 154.877
49.03000 149.018
49.04000 153.268
49.05000 158.406
49.06000 161.633
49.07000 160.246
49.08000 158.654
49.09000 157.659
49.10000 157.948
49.11000 158.170
49.12000 160.219
49.13000 164.268
49.14000 168.300
49.15000 169.557
49.16000 168.827
49.17000 168.111
49.18000 166.414
49.19000 164.324
49.20000 162.292
49.21000 161.130
49.22000 160.255
49.23000 159.362
49.24000 158.308
49.25000 157.218
49.26000 156.284
49.27000 154.644
49.28000 153.172
49.29000 152.357
49.30000 153.830
49.31000 155.499
49.32000 157.133
49.33000 158.679
49.34000 160.222
49.35000 161.181
49.36000 156.077
49.37000 152.339
49.38000 151.564
49.39000 153.981
49.40000 156.395
49.41000 158.154
49.42000 159.451
49.43000 160.720
49.44000 159.764
49.45000 157.823
49.46000 156.014
49.47000 156.105
49.48000 156.817
49.49000 157.337
49.50000 156.284
49.51000 154.884
49.52000 153.688
49.53000 151.535
49.54000 149.606
49.55000 149.216
49.56000 154.118
49.57000 159.464
49.58000 163.271
49.59000 163.463
49.60000 163.506
49.61000 163.532
49.62000 157.216
49.63000 152.617
49.64000 150.318
49.65000 150.457
49.66000 150.596
49.67000 150.587
49.68000 150.475
49.69000 150.366
49.70000 154.017
49.71000 159.219
49.72000 163.895
49.73000 161.194
49.74000 156.115
49.75000 151.292
49.76000 148.510
49.77000 146.170
49.78000 144.176
49.79000 147.034
49.80000 150.009
49.81000 152.227
49.82000 151.884
49.83000 151.331
49.84000 151.066
49.85000 151.468
49.86000 151.896
49.87000 152.160
49.88000 152.537
49.89000 152.808
49.90000 157.582
49.91000 167.049
49.92000 176.439
49.93000 176.863
49.94000 171.155
49.95000 165.576
49.96000 165.107
49.97000 166.931
49.98000 168.387
49.99000 164.800
50.00000 159.613
50.01000 154.913
50.02000 154.049
50.03000 154.003
50.04000 153.964
50.05000 156.924
50.06000 159.756
50.07000 162.902
50.08000 167.098
50.09000 171.379
50.10000 173.270
50.11000 169.710
50.12000 165.938
50.13000 163.634
50.14000 162.191
50.15000 161.165
50.16000 162.292
50.17000 165.624
50.18000 168.940
50.19000 170.563
50.20000 171.044
50.21000 171.514
50.22000 171.369
50.23000 170.960
50.24000 170.891
50.25000 175.360
50.26000 181.249
50.27000 186.624
50.28000 188.038
50.29000 188.621
50.30000 189.115
50.31000 191.051
50.32000 192.837
50.33000 193.528
50.34000 190.624
50.35000 187.437
50.36000 187.685
50.37000 195.651
50.38000 203.907
50.39000 208.920
50.40000 203.414
50.41000 199.404
50.42000 201.560
50.43000 209.932
50.44000 218.250
50.45000 221.206
50.46000 220.605
50.47000 220.018
50.48000 224.251
50.49000 230.373
50.50000 236.326
50.51000 240.077
50.52000 243.150
50.53000 245.301
50.54000 240.480
50.55000 234.218
50.56000 228.923
50.57000 239.642
50.58000 250.378
50.59000 258.671
50.60000 259.044
50.61000 258.810
50.62000 257.755
50.63000 254.883
50.64000 251.944
50.65000 250.171
50.66000 246.930
50.67000 244.613
50.68000 242.694
50.69000 241.170
50.70000 239.706
50.71000 243.850
50.72000 251.657
50.73000 259.267
50.74000 259.416
50.75000 256.393
50.76000 253.146
50.77000 247.057
50.78000 240.104
50.79000 233.838
50.80000 232.681
50.81000 232.563
50.82000 232.464
50.83000 232.423
50.84000 232.394
50.85000 229.852
50.86000 219.282
50.87000 208.112
50.88000 201.216
50.89000 203.651
50.90000 206.414
50.91000 208.071
50.92000 207.406
50.93000 206.919
50.94000 203.659
50.95000 197.699
50.96000 191.767
50.97000 188.300
50.98000 186.420
50.99000 184.589
51.00000 183.313
51.01000 182.330
51.02000 181.529
51.03000 182.987
51.04000 185.122
51.05000 186.814
51.06000 185.279
51.07000 183.097
51.08000 181.264
51.09000 181.805
51.10000 182.509
51.11000 181.523
51.12000 175.223
51.13000 168.535
51.14000 163.978
51.15000 164.005
51.16000 164.188
51.17000 164.296
51.18000 168.852
51.19000 172.107
51.20000 172.112
51.21000 169.003
51.22000 165.935
51.23000 166.223
51.24000 168.638
51.25000 170.988
51.26000 171.577
51.27000 171.415
51.28000 171.065
51.29000 168.433
51.30000 165.129
51.31000 162.276
51.32000 162.660
51.33000 163.681
51.34000 164.537
51.35000 162.042
51.36000 159.619
51.37000 158.376
51.38000 160.796
51.39000 163.478
51.40000 164.934
51.41000 163.790
51.42000 162.562
51.43000 161.835
51.44000 161.685
51.45000 161.583
51.46000 160.804
51.47000 159.387
51.48000 157.975
51.49000 156.959
51.50000 156.189
51.51000 155.441
51.52000 152.811
51.53000 149.551
51.54000 146.671
51.55000 148.305
51.56000 151.251
51.57000 154.064
51.58000 155.941
51.59000 157.635
51.60000 159.051
51.61000 158.632
51.62000 158.096
51.63000 157.262
51.64000 155.513
51.65000 153.700
51.66000 153.150
51.67000 155.236
51.68000 157.405
51.69000 158.680
51.70000 154.013
51.71000 150.691
51.72000 149.795
51.73000 151.147
51.74000 152.474
51.75000 152.063
51.76000 150.581
51.77000 149.142
51.78000 152.337
51.79000 157.213
51.80000 161.385
51.81000 157.368
51.82000 151.006
51.83000 145.314
51.84000 144.248
51.85000 144.064
51.86000 143.911
51.87000 145.286
51.88000 146.578
51.89000 147.898
51.90000 149.302
51.91000 150.711
51.92000 151.217
51.93000 149.859
51.94000 148.445
51.95000 147.618
51.96000 149.491
51.97000 150.821
51.98000 151.675
51.99000 152.095
52.00000 152.534
52.01000 154.211
52.02000 156.638
52.03000 158.992
52.04000 157.301
52.05000 154.114
52.06000 150.998
52.07000 148.685
52.08000 146.600
52.09000 144.753
52.10000 144.528
52.11000 144.608
52.12000 144.674
52.13000 141.728
52.14000 138.996
52.15000 138.884
52.16000 146.546
52.17000 154.721
52.18000 158.234
52.19000 152.280
52.20000 146.051
52.21000 142.436
52.22000 141.543
52.23000 140.931
52.24000 143.676
52.25000 149.431
52.26000 155.077
52.27000 153.767
52.28000 148.302
52.29000 143.008
52.30000 142.047
52.31000 142.809
52.32000 143.392
52.33000 141.981
52.34000 140.017
52.35000 138.952
52.36000 143.885
52.37000 149.925
52.38000 154.929
52.39000 151.543
52.40000 147.947
52.41000 144.909
52.42000 143.502
52.43000 142.200
52.44000 142.791
52.45000 147.170
52.46000 151.654
52.47000 154.239
52.48000 154.181
52.49000 154.129
52.50000 153.171
52.51000 151.412
52.52000 149.668
52.53000 148.791
52.54000 148.423
52.55000 148.067
52.56000 148.056
52.57000 148.176
52.58000 148.268
52.59000 148.055
52.60000 147.759
52.61000 147.466
52.62000 147.191
52.63000 146.920
52.64000 146.695
52.65000 146.692
52.66000 146.711
52.67000 146.765
52.68000 146.926
52.69000 147.092
52.70000 146.511
52.71000 144.453
52.72000 142.355
52.73000 141.154
52.74000 139.831
52.75000 138.909
52.76000 139.245
52.77000 140.673
52.78000 142.121
52.79000 144.685
52.80000 147.897
52.81000 151.000
52.82000 150.860
52.83000 149.515
52.84000 148.245
52.85000 147.772
52.86000 147.514
52.87000 147.683
52.88000 150.603
52.89000 154.013
52.90000 156.821
52.91000 153.821
52.92000 150.822
52.93000 147.796
52.94000 144.695
52.95000 141.589
52.96000 140.480
52.97000 143.253
52.98000 146.126
52.99000 147.759
53.00000 149.613
53.01000 150.902
53.02000 149.205
53.03000 144.959
53.04000 140.811
53.05000 141.995
53.06000 146.226
53.07000 150.309
53.08000 150.788
53.09000 149.914
53.10000 149.128
53.11000 149.265
53.12000 149.648
53.13000 150.618
53.14000 155.297
53.15000 160.628
53.16000 165.004
53.17000 164.495
53.18000 163.640
53.19000 161.331
53.20000 154.952
53.21000 148.329
53.22000 145.792
53.23000 151.080
53.24000 156.561
53.25000 159.655
53.26000 162.287
53.27000 164.108
53.28000 162.247
53.29000 157.292
53.30000 152.361
53.31000 148.674
53.32000 145.687
53.33000 142.808
53.34000 144.135
53.35000 146.907
53.36000 149.460
53.37000 149.795
53.38000 149.550
53.39000 149.383
53.40000 149.712
53.41000 150.126
53.42000 150.465
53.43000 151.003
53.44000 151.462
53.45000 152.495
53.46000 155.115
53.47000 157.827
53.48000 157.543
53.49000 151.604
53.50000 145.531
53.51000 142.127
53.52000 146.406
53.53000 149.387
53.54000 150.558
53.55000 150.232
53.56000 149.937
53.57000 151.202
53.58000 153.332
53.59000 155.383
53.60000 152.033
53.61000 146.965
53.62000 142.188
53.63000 140.329
53.64000 139.221
53.65000 138.769
53.66000 142.323
53.67000 146.557
53.68000 150.012
53.69000 148.528
53.70000 146.892
53.71000 146.327
53.72000 148.676
53.73000 151.188
53.74000 150.931
53.75000 145.521
53.76000 139.995
53.77000 136.919
53.78000 146.241
53.79000 152.698
53.80000 152.943
53.81000 148.133
53.82000 143.402
53.83000 142.423
53.84000 143.495
53.85000 144.525
53.86000 143.747
53.87000 142.383
53.88000 140.987
53.89000 139.276
53.90000 137.485
53.91000 135.897
53.92000 135.522
53.93000 135.351
53.94000 135.211
53.95000 138.075
53.96000 140.665
53.97000 142.426
53.98000 141.967
53.99000 141.387
54.00000 140.300
54.01000 138.284
54.02000 136.249
54.03000 135.124
54.04000 130.655
54.05000 127.580
54.06000 129.126
54.07000 134.374
54.08000 139.525
54.09000 140.340
54.10000 138.818
54.11000 137.356
54.12000 141.813
54.13000 148.027
54.14000 153.639
54.15000 153.489
54.16000 151.898
54.17000 150.187
54.18000 147.772
54.19000 145.241
54.20000 143.189
54.21000 144.467
54.22000 145.781
54.23000 146.431
54.24000 145.324
54.25000 144.124
54.26000 143.701
54.27000 144.682
54.28000 145.691
54.29000 146.245
54.30000 142.868
54.31000 140.549
54.32000 140.938
54.33000 143.465
54.34000 145.913
54.35000 144.992
54.36000 142.282
54.37000 139.681
54.38000 140.123
54.39000 141.567
54.40000 142.971
54.41000 143.995
54.42000 144.925
54.43000 145.628
54.44000 145.014
54.45000 144.189
54.46000 143.521
54.47000 143.050
54.48000 142.683
54.49000 142.537
54.50000 142.968
54.51000 143.429
54.52000 143.169
54.53000 141.624
54.54000 140.053
54.55000 139.198
54.56000 137.379
54.57000 136.134
54.58000 136.086
54.59000 136.969
54.60000 137.918
54.61000 141.586
54.62000 146.677
54.63000 151.556
54.64000 152.428
54.65000 151.903
54.66000 151.238
54.67000 149.272
54.68000 146.992
54.69000 144.493
54.70000 140.750
54.71000 136.808
54.72000 133.634
54.73000 138.153
54.74000 142.422
54.75000 145.869
54.76000 147.207
54.77000 148.440
54.78000 148.975
54.79000 148.285
54.80000 147.574
54.81000 147.189
54.82000 148.473
54.83000 149.355
54.84000 150.564
54.85000 152.023
54.86000 153.514
54.87000 156.235
54.88000 159.593
54.89000 162.805
54.90000 160.724
54.91000 157.044
54.92000 153.037
54.93000 146.068
54.94000 138.393
54.95000 132.190
54.96000 134.259
54.97000 137.618
54.98000 140.313
54.99000 142.536
55.00000 144.301
55.01000 144.934
55.02000 142.705
55.03000 140.337
55.04000 138.539
55.05000 137.726
55.06000 136.931
55.07000 136.505
55.08000 146.461
55.09000 153.240
55.10000 154.565
55.11000 151.785
55.12000 149.118
55.13000 150.674
55.14000 154.377
55.15000 157.917
55.16000 158.037
55.17000 157.044
55.18000 156.490
55.19000 159.827
55.20000 164.080
55.21000 167.155
55.22000 163.723
55.23000 159.295
55.24000 155.752
55.25000 163.719
55.26000 171.018
55.27000 175.210
55.28000 171.658
55.29000 167.738
55.30000 164.550
55.31000 162.611
55.32000 160.692
55.33000 159.670
55.34000 166.147
55.35000 170.557
55.36000 174.162
55.37000 177.171
55.38000 180.119
55.39000 180.897
55.40000 180.590
55.41000 180.296
55.42000 188.775
55.43000 199.440
55.44000 209.014
55.45000 209.112
55.46000 207.014
55.47000 205.525
55.48000 207.337
55.49000 209.646
55.50000 211.487
55.51000 220.432
55.52000 228.166
55.53000 235.171
55.54000 240.382
55.55000 245.511
55.56000 253.821
55.57000 267.469
55.58000 281.202
55.59000 288.454
55.60000 287.464
55.61000 286.855
55.62000 297.486
55.63000 316.318
55.64000 335.032
55.65000 349.636
55.66000 362.211
55.67000 374.196
55.68000 379.643
55.69000 382.645
55.70000 386.866
55.71000 401.459
55.72000 418.418
55.73000 434.417
55.74000 445.288
55.75000 455.402
55.76000 463.438
55.77000 456.239
55.78000 449.359
55.79000 451.586
55.80000 475.877
55.81000 501.152
55.82000 516.605
55.83000 515.818
55.84000 514.790
55.85000 514.251
55.86000 513.672
55.87000 513.282
55.88000 513.267
55.89000 513.520
55.90000 513.793
55.91000 514.723
55.92000 515.973
55.93000 517.162
55.94000 516.677
55.95000 515.714
55.96000 514.456
55.97000 510.750
55.98000 506.493
55.99000 500.253
56.00000 483.583
56.01000 465.399
56.02000 451.001
56.03000 439.359
56.04000 430.194
56.05000 420.895
56.06000 411.280
56.07000 401.650
56.08000 394.475
56.09000 391.296
56.10000 388.174
56.11000 386.551
56.12000 360.248
56.13000 342.502
56.14000 328.342
56.15000 316.719
56.16000 305.182
56.17000 296.426
56.18000 289.003
56.19000 281.948
56.20000 275.376
56.21000 269.448
56.22000 263.622
56.23000 258.624
56.24000 253.809
56.25000 249.568
56.26000 248.297
56.27000 247.450
56.28000 246.782
56.29000 242.270
56.30000 238.390
56.31000 234.528
56.32000 230.706
56.33000 226.886
56.34000 223.498
56.35000 220.804
56.36000 218.119
56.37000 216.735
56.38000 206.347
56.39000 199.377
56.40000 195.950
56.41000 194.993
56.42000 193.954
56.43000 190.369
56.44000 185.582
56.45000 181.038
56.46000 179.790
56.47000 179.621
56.48000 178.919
56.49000 173.931
56.50000 168.012
56.51000 162.604
56.52000 159.793
56.53000 157.345
56.54000 155.421
56.55000 157.235
56.56000 158.933
56.57000 159.599
56.58000 157.868
56.59000 156.040
56.60000 154.941
56.61000 154.993
56.62000 155.059
56.63000 155.093
56.64000 158.812
56.65000 161.276
56.66000 159.720
56.67000 155.405
56.68000 151.132
56.69000 148.119
56.70000 145.693
56.71000 143.394
56.72000 144.974
56.73000 147.569
56.74000 149.687
56.75000 148.049
56.76000 145.606
56.77000 143.332
56.78000 141.901
56.79000 140.586
56.80000 139.556
56.81000 144.946
56.82000 149.667
56.83000 152.760
56.84000 152.132
56.85000 151.358
56.86000 149.978
56.87000 147.656
56.88000 145.323
56.89000 144.140
56.90000 143.532
56.91000 143.133
56.92000 143.624
56.93000 144.718
56.94000 145.679
56.95000 142.835
56.96000 138.244
56.97000 133.900
56.98000 133.164
56.99000 133.529
57.00000 134.018
57.01000 135.457
57.02000 137.096
57.03000 138.574
57.04000 139.254
57.05000 139.826
57.06000 140.273
57.07000 135.877
57.08000 132.066
57.09000 129.110
57.10000 128.080
57.11000 127.123
57.12000 127.979
57.13000 131.616
57.14000 135.283
57.15000 137.127
57.16000 132.691
57.17000 129.742
57.18000 128.252
57.19000 127.735
57.20000 127.168
57.21000 125.238
57.22000 122.692
57.23000 120.286
57.24000 123.151
57.25000 127.279
57.26000 130.856
57.27000 130.249
57.28000 128.774
57.29000 127.536
57.30000 127.447
57.31000 127.510
57.32000 127.559
57.33000 125.619
57.34000 123.954
57.35000 123.806
57.36000 127.028
57.37000 130.373
57.38000 132.284
57.39000 132.028
57.40000 131.749
57.41000 129.755
57.42000 126.054
57.43000 122.389
57.44000 122.158
57.45000 124.178
57.46000 126.177
57.47000 127.596
57.48000 128.758
57.49000 129.854
57.50000 131.225
57.51000 132.559
57.52000 133.861
57.53000 134.927
57.54000 135.945
57.55000 135.898
57.56000 130.768
57.57000 124.976
57.58000 120.488
57.59000 122.601
57.60000 124.674
57.61000 126.277
57.62000 126.854
57.63000 127.394
57.64000 127.390
57.65000 126.576
57.66000 125.754
57.67000 125.285
57.68000 125.162
57.69000 125.070
57.70000 127.742
57.71000 132.200
57.72000 136.415
57.73000 134.353
57.74000 129.532
57.75000 124.989
57.76000 122.262
57.77000 120.264
57.78000 118.809
57.79000 121.328
57.80000 124.645
57.81000 127.250
57.82000 126.515
57.83000 125.352
57.84000 124.455
57.85000 132.469
57.86000 139.341
57.87000 142.564
57.88000 137.910
57.89000 132.987
57.90000 129.219
57.91000 127.143
57.92000 125.082
57.93000 125.263
57.94000 127.600
57.95000 129.916
57.96000 130.535
57.97000 130.075
57.98000 129.628
57.99000 129.501
58.00000 129.514
58.01000 129.525
58.02000 129.536
58.03000 129.544
58.04000 129.150
58.05000 125.856
58.06000 121.990
58.07000 119.310
58.08000 122.121
58.09000 125.620
58.10000 128.312
58.11000 127.139
58.12000 125.991
58.13000 126.609
58.14000 130.982
58.15000 135.478
58.16000 136.542
58.17000 132.652
58.18000 128.722
58.19000 125.332
58.20000 122.453
58.21000 119.627
58.22000 120.857
58.23000 124.629
58.24000 128.325
58.25000 130.170
58.26000 131.224
58.27000 132.214
58.28000 129.393
58.29000 125.807
58.30000 122.475
58.31000 120.941
58.32000 119.756
58.33000 119.412
58.34000 122.900
58.35000 126.860
58.36000 129.894
58.37000 132.757
58.38000 135.009
58.39000 135.792
58.40000 133.496
58.41000 131.103
58.42000 128.655
58.43000 126.129
58.44000 123.602
58.45000 123.443
58.46000 125.483
58.47000 127.490
58.48000 127.008
58.49000 124.989
58.50000 123.081
58.51000 123.753
58.52000 125.513
58.53000 127.163
58.54000 125.675
58.55000 123.500
58.56000 121.664
58.57000 122.184
58.58000 123.156
58.59000 123.765
58.60000 122.751
58.61000 121.540
58.62000 120.616
58.63000 121.314
58.64000 121.950
58.65000 122.695
58.66000 123.660
58.67000 124.632
58.68000 125.592
58.69000 126.535
58.70000 127.477
58.71000 127.570
58.72000 126.886
58.73000 126.167
58.74000 123.059
58.75000 118.499
58.76000 114.130
58.77000 114.098
58.78000 115.867
58.79000 117.522
58.80000 119.078
58.81000 120.467
58.82000 121.790
58.83000 122.669
58.84000 123.464
58.85000 123.849
58.86000 122.421
58.87000 120.779
58.88000 119.530
58.89000 118.837
58.90000 118.320
58.91000 118.596
58.92000 120.485
58.93000 122.421
58.94000 123.178
58.95000 122.309
58.96000 121.430
58.97000 121.111
58.98000 121.296
58.99000 121.443
59.00000 119.161
59.01000 115.424
59.02000 111.948
59.03000 114.221
59.04000 118.846
59.05000 123.168
59.06000 123.053
59.07000 121.825
59.08000 120.708
59.09000 120.330
59.10000 120.089
59.11000 120.110
59.12000 121.267
59.13000 122.557
59.14000 123.534
59.15000 118.437
59.16000 114.126
59.17000 111.568
59.18000 112.529
59.19000 113.589
59.20000 115.214
59.21000 117.605
59.22000 120.000
59.23000 121.037
59.24000 120.874
59.25000 120.730
59.26000 121.752
59.27000 123.462
59.28000 125.172
59.29000 126.883
59.30000 128.594
59.31000 130.190
59.32000 129.087
59.33000 127.417
59.34000 126.133
59.35000 127.395
59.36000 129.120
59.37000 130.115
59.38000 127.986
59.39000 125.502
59.40000 123.627
59.41000 123.524
59.42000 123.531
59.43000 121.763
59.44000 116.484
59.45000 111.110
59.46000 110.959
59.47000 117.792
59.48000 124.655
59.49000 126.870
59.50000 125.039
59.51000 123.230
59.52000 122.673
59.53000 122.844
59.54000 123.017
59.55000 123.225
59.56000 123.447
59.57000 123.653
59.58000 123.338
59.59000 122.926
59.60000 122.044
59.61000 118.129
59.62000 113.669
59.63000 109.839
59.64000 108.656
59.65000 107.769
59.66000 107.103
59.67000 119.480
59.68000 129.785
59.69000 134.258
59.70000 127.360
59.71000 120.167
59.72000 117.293
59.73000 120.103
59.74000 122.937
59.75000 124.999
59.76000 126.397
59.77000 127.770
59.78000 127.782
59.79000 127.013
59.80000 126.258
59.81000 125.769
59.82000 125.385
59.83000 125.028
59.84000 121.816
59.85000 118.228
59.86000 115.160
59.87000 115.388
59.88000 116.198
59.89000 117.231
59.90000 119.195
59.91000 121.260
59.92000 122.805
59.93000 118.463
59.94000 114.800
59.95000 113.234
59.96000 115.700
59.97000 118.265
59.98000 119.978
59.99000 120.586
60.00000 121.189
60.01000 121.979
60.02000 122.923
60.03000 123.797
60.04000 121.074
60.05000 116.317
60.06000 111.866
60.07000 113.396
60.08000 117.234
60.09000 120.798
60.10000 120.784
60.11000 119.926
60.12000 119.999
60.13000 125.886
60.14000 132.781
60.15000 137.560
60.16000 133.692
60.17000 128.898
60.18000 125.324
60.19000 122.129
60.20000 119.658
60.21000 118.436
60.22000 119.580
60.23000 120.780
60.24000 121.913
60.25000 122.961
60.26000 124.008
60.27000 120.978
60.28000 114.584
60.29000 108.321
60.30000 108.586
60.31000 112.484
60.32000 116.345
60.33000 119.518
60.34000 122.428
60.35000 125.126
60.36000 124.628
60.37000 123.436
60.38000 122.532
60.39000 123.389
60.40000 124.546
60.41000 125.074
60.42000 123.073
60.43000 120.806
60.44000 119.123
60.45000 118.888
60.46000 118.770
60.47000 118.719
60.48000 118.797
60.49000 118.877
60.50000 118.009
60.51000 115.950
60.52000 113.889
60.53000 116.519
60.54000 122.957
60.55000 129.180
60.56000 125.224
60.57000 115.686
60.58000 106.616
60.59000 106.183
60.60000 108.990
60.61000 111.587
60.62000 112.985
60.63000 113.968
60.64000 115.093
60.65000 117.078
60.66000 119.208
60.67000 120.368
60.68000 117.686
60.69000 114.608
60.70000 112.332
60.71000 116.578
60.72000 120.151
60.73000 121.271
60.74000 117.879
60.75000 114.390
60.76000 113.215
60.77000 114.900
60.78000 116.591
60.79000 117.206
60.80000 116.957
60.81000 116.748
60.82000 118.316
60.83000 120.846
60.84000 123.206
60.85000 122.534
60.86000 120.741
60.87000 119.086
60.88000 123.076
60.89000 127.924
60.90000 131.421
60.91000 126.904
60.92000 121.068
60.93000 116.873
60.94000 119.083
60.95000 121.938
60.96000 124.040
60.97000 122.649
60.98000 121.427
60.99000 120.241
61.00000 119.120
61.01000 118.001
61.02000 116.795
61.03000 115.485
61.04000 114.176
61.05000 114.638
61.06000 116.494
61.07000 118.358
61.08000 120.573
61.09000 122.976
61.10000 125.290
61.11000 126.058
61.12000 126.262
61.13000 126.451
61.14000 134.877
61.15000 144.243
61.16000 151.291
61.17000 144.828
61.18000 136.179
61.19000 128.551
61.20000 124.853
61.21000 121.544
61.22000 119.117
61.23000 119.310
61.24000 119.565
61.25000 121.223
61.26000 125.386
61.27000 129.598
61.28000 132.199
61.29000 132.870
61.30000 133.536
61.31000 132.633
61.32000 130.519
61.33000 128.421
61.34000 127.016
61.35000 125.973
61.36000 124.958
61.37000 124.422
61.38000 124.057
61.39000 123.722
61.40000 122.439
61.41000 121.086
61.42000 121.469
61.43000 131.801
61.44000 143.717
61.45000 152.273
61.46000 148.114
61.47000 142.726
61.48000 138.792
61.49000 151.386
61.50000 161.741
61.51000 173.316
61.52000 187.038
61.53000 200.800
61.54000 219.367
61.55000 243.593
61.56000 267.771
61.57000 289.776
61.58000 309.990
61.59000 330.175
61.60000 349.168
61.61000 367.545
61.62000 385.616
61.63000 398.632
61.64000 409.859
61.65000 420.169
61.66000 423.772
61.67000 425.554
61.68000 427.669
61.69000 431.663
61.70000 435.950
61.71000 438.568
61.72000 434.957
61.73000 430.757
61.74000 427.703
61.75000 412.830
61.76000 400.941
61.77000 387.225
61.78000 370.341
61.79000 353.401
61.80000 329.505
61.81000 297.546
61.82000 265.663
61.83000 243.759
61.84000 229.487
61.85000 215.212
61.86000 200.790
61.87000 186.293
61.88000 172.366
61.89000 167.611
61.90000 166.057
61.91000 164.632
61.92000 163.380
61.93000 162.301
61.94000 160.474
61.95000 154.503
61.96000 147.894
61.97000 142.415
61.98000 141.083
61.99000 140.135
62.00000 139.449
62.01000 133.533
62.02000 128.799
62.03000 126.654
62.04000 128.929
62.05000 131.280
62.06000 132.981
62.07000 133.941
62.08000 134.898
62.09000 135.640
62.10000 136.217
62.11000 136.800
62.12000 137.550
62.13000 138.384
62.14000 139.128
62.15000 138.442
62.16000 137.265
62.17000 136.189
62.18000 142.698
62.19000 150.052
62.20000 155.381
62.21000 149.669
62.22000 142.290
62.23000 136.381
62.24000 135.791
62.25000 135.684
62.26000 135.606
62.27000 138.668
62.28000 141.126
62.29000 142.924
62.30000 143.612
62.31000 144.282
62.32000 144.979
62.33000 145.706
62.34000 146.432
62.35000 146.910
62.36000 147.204
62.37000 147.423
62.38000 145.014
62.39000 141.303
62.40000 137.609
62.41000 134.159
62.42000 130.791
62.43000 127.717
62.44000 132.851
62.45000 139.074
62.46000 144.817
62.47000 147.984
62.48000 150.769
62.49000 152.047
62.50000 147.954
62.51000 143.386
62.52000 140.108
62.53000 150.261
62.54000 158.485
62.55000 159.935
62.56000 150.150
62.57000 140.194
62.58000 137.724
62.59000 143.517
62.60000 149.294
62.61000 149.524
62.62000 145.790
62.63000 142.194
62.64000 143.206
62.65000 146.466
62.66000 149.421
62.67000 147.823
62.68000 144.705
62.69000 141.864
62.70000 141.218
62.71000 141.084
62.72000 140.776
62.73000 139.553
62.74000 138.196
62.75000 137.802
62.76000 140.790
62.77000 144.072
62.78000 146.416
62.79000 143.531
62.80000 141.155
62.81000 140.301
62.82000 141.931
62.83000 143.596
62.84000 143.825
62.85000 142.493
62.86000 141.165
62.87000 141.025
62.88000 141.721
62.89000 142.284
62.90000 138.576
62.91000 132.813
62.92000 127.593
62.93000 130.261
62.94000 135.524
62.95000 140.311
62.96000 138.904
62.97000 136.445
62.98000 134.432
62.99000 134.736
63.00000 135.373
63.01000 136.429
63.02000 138.941
63.03000 141.576
63.04000 143.450
63.05000 141.415
63.06000 139.741
63.07000 139.436
63.08000 141.337
63.09000 143.267
63.10000 142.079
63.11000 137.562
63.12000 133.065
63.13000 134.165
63.14000 139.124
63.15000 143.867
63.16000 141.866
63.17000 136.667
63.18000 131.916
63.19000 133.515
63.20000 137.173
63.21000 140.493
63.22000 137.779
63.23000 134.221
63.24000 131.578
63.25000 133.611
63.26000 136.301
63.27000 138.046
63.28000 136.567
63.29000 134.821
63.30000 133.585
63.31000 138.789
63.32000 142.942
63.33000 145.400
63.34000 145.168
63.35000 144.902
63.36000 144.402
63.37000 143.655
63.38000 142.912
63.39000 142.994
63.40000 143.636
63.41000 144.310
63.42000 145.930
63.43000 147.992
63.44000 149.922
63.45000 150.034
63.46000 149.564
63.47000 149.138
63.48000 145.429
63.49000 141.538
63.50000 138.509
63.51000 139.806
63.52000 141.701
63.53000 143.431
63.54000 144.605
63.55000 145.735
63.56000 146.530
63.57000 155.243
63.58000 162.086
63.59000 164.391
63.60000 159.606
63.61000 154.738
63.62000 151.793
63.63000 150.834
63.64000 149.881
63.65000 147.763
63.66000 144.891
63.67000 142.167
63.68000 143.711
63.69000 147.223
63.70000 150.281
63.71000 147.219
63.72000 142.229
63.73000 137.719
63.74000 142.447
63.75000 148.325
63.76000 152.599
63.77000 148.938
63.78000 144.201
63.79000 140.816
63.80000 141.903
63.81000 143.344
63.82000 144.355
63.83000 150.061
63.84000 154.514
63.85000 153.830
63.86000 145.239
63.87000 136.561
63.88000 135.296
63.89000 141.560
63.90000 147.789
63.91000 153.256
63.92000 158.148
63.93000 162.837
63.94000 161.834
63.95000 158.246
63.96000 154.714
63.97000 151.907
63.98000 149.326
63.99000 146.998
64.00000 152.158
64.01000 158.059
64.02000 162.198
64.03000 157.766
64.04000 152.193
64.05000 149.146
64.06000 154.341
64.07000 160.173
64.08000 164.243
64.09000 162.490
64.10000 161.004
64.11000 160.613
64.12000 161.882
64.13000 163.169
64.14000 162.072
64.15000 158.596
64.16000 155.142
64.17000 153.885
64.18000 154.072
64.19000 154.319
64.20000 156.194
64.21000 158.797
64.22000 161.089
64.23000 159.363
64.24000 156.410
64.25000 153.751
64.26000 158.236
64.27000 163.451
64.28000 168.463
64.29000 172.500
64.30000 176.409
64.31000 178.261
64.32000 173.502
64.33000 168.242
64.34000 164.588
64.35000 170.819
64.36000 175.780
64.37000 176.103
64.38000 169.500
64.39000 162.832
64.40000 160.042
64.41000 161.061
64.42000 162.074
64.43000 165.389
64.44000 170.123
64.45000 174.760
64.46000 176.848
64.47000 177.812
64.48000 178.687
64.49000 178.429
64.50000 177.830
64.51000 177.292
64.52000 177.741
64.53000 178.307
64.54000 178.563
64.55000 177.359
64.56000 175.967
64.57000 176.140
64.58000 181.269
64.59000 186.762
64.60000 190.560
64.61000 179.896
64.62000 171.504
64.63000 168.536
64.64000 173.545
64.65000 178.624
64.66000 180.908
64.67000 180.493
64.68000 180.080
64.69000 180.368
64.70000 181.091
64.71000 181.902
64.72000 184.932
64.73000 188.927
64.74000 192.619
64.75000 192.582
64.76000 191.438
64.77000 190.412
64.78000 181.993
64.79000 173.357
64.80000 167.784
64.81000 176.425
64.82000 186.854
64.83000 195.640
64.84000 199.296
64.85000 202.583
64.86000 204.844
64.87000 205.763
64.88000 206.418
64.89000 208.156
64.90000 211.463
64.91000 214.782
64.92000 214.885
64.93000 211.938
64.94000 209.012
64.95000 213.820
64.96000 223.323
64.97000 232.445
64.98000 232.301
64.99000 228.187
65.00000 224.690
65.01000 228.609
65.02000 234.697
65.03000 240.143
65.04000 239.310
65.05000 237.516
65.06000 236.741
65.07000 240.620
65.08000 245.073
65.09000 250.222
65.10000 257.508
65.11000 264.945
65.12000 270.035
65.13000 271.458
65.14000 272.436
65.15000 276.847
65.16000 286.157
65.17000 295.503
65.18000 298.575
65.19000 295.791
65.20000 293.031
65.21000 297.416
65.22000 306.067
65.23000 315.063
65.24000 332.194
65.25000 352.761
65.26000 371.925
65.27000 374.616
65.28000 372.560
65.29000 370.726
65.30000 381.790
65.31000 393.577
65.32000 405.740
65.33000 419.594
65.34000 433.652
65.35000 446.404
65.36000 455.197
65.37000 463.719
65.38000 469.524
65.39000 478.037
65.40000 484.460
65.41000 492.977
65.42000 504.438
65.43000 515.919
65.44000 527.120
65.45000 538.063
65.46000 548.909
65.47000 558.811
65.48000 567.956
65.49000 576.903
65.50000 581.304
65.51000 583.811
65.52000 587.114
65.53000 599.541
65.54000 614.559
65.55000 627.932
65.56000 639.276
65.57000 648.799
65.58000 658.660
65.59000 670.019
65.60000 681.555
65.61000 696.738
65.62000 722.812
65.63000 749.613
65.64000 767.779
65.65000 828.900
65.66000 875.416
65.67000 939.592
65.68000 1028.200
65.69000 1116.983
65.70000 1237.252
65.71000 1385.959
65.72000 1533.260
65.73000 1722.137
65.74000 1931.648
65.75000 2140.319
65.76000 2330.389
65.77000 2512.826
65.78000 2692.669
65.79000 2843.373
65.80000 2985.925
65.81000 3112.581
65.82000 3219.895
65.83000 3309.853
65.84000 3384.755
65.85000 3394.027
65.86000 3395.649
65.87000 3395.923
65.88000 3392.226
65.89000 3388.271
65.90000 3385.603
65.91000 3298.967
65.92000 3232.738
65.93000 3139.373
65.94000 3009.040
65.95000 2878.450
65.96000 2697.633
65.97000 2472.188
65.98000 2249.007
65.99000 2030.526
66.00000 1819.463
66.01000 1610.200
66.02000 1439.613
66.03000 1284.669
66.04000 1132.346
66.05000 1008.844
66.06000 893.283
66.07000 790.842
66.08000 741.693
66.09000 707.576
66.10000 672.527
66.11000 633.477
66.12000 593.970
66.13000 562.306
66.14000 553.397
66.15000 545.933
66.16000 540.925
66.17000 526.512
66.18000 515.623
66.19000 511.873
66.20000 517.701
66.21000 523.580
66.22000 530.654
66.23000 538.774
66.24000 546.808
66.25000 569.593
66.26000 600.281
66.27000 631.246
66.28000 667.970
66.29000 706.991
66.30000 744.859
66.31000 770.336
66.32000 792.449
66.33000 812.006
66.34000 851.017
66.35000 887.754
66.36000 919.481
66.37000 930.037
66.38000 938.221
66.39000 942.629
66.40000 936.239
66.41000 929.181
66.42000 924.470
66.43000 940.314
66.44000 952.450
66.45000 955.367
66.46000 946.110
66.47000 936.785
66.48000 919.957
66.49000 896.674
66.50000 873.654
66.51000 842.101
66.52000 806.505
66.53000 770.882
66.54000 734.704
66.55000 698.308
66.56000 662.472
66.57000 632.529
66.58000 604.161
66.59000 579.130
66.60000 548.542
66.61000 521.308
66.62000 497.738
66.63000 489.416
66.64000 482.768
66.65000 476.739
66.66000 472.453
66.67000 468.272
66.68000 465.496
66.69000 472.809
66.70000 478.402
66.71000 481.953
66.72000 482.849
66.73000 483.730
66.74000 482.117
66.75000 478.394
66.76000 474.716
66.77000 469.226
66.78000 462.871
66.79000 456.826
66.80000 456.866
66.81000 459.261
66.82000 461.325
66.83000 459.961
66.84000 457.695
66.85000 455.700
66.86000 457.718
66.87000 460.058
66.88000 463.442
66.89000 471.105
66.90000 479.228
66.91000 482.855
66.92000 473.990
66.93000 464.394
66.94000 458.055
66.95000 461.852
66.96000 464.832
66.97000 469.141
66.98000 475.151
66.99000 481.152
67.00000 479.625
67.01000 471.828
67.02000 464.130
67.03000 470.255
67.04000 483.742
67.05000 496.306
67.06000 491.296
67.07000 479.576
67.08000 469.165
67.09000 471.961
67.10000 478.184
67.11000 483.650
67.12000 484.646
67.13000 484.845
67.14000 487.572
67.15000 500.503
67.16000 514.510
67.17000 521.427
67.18000 508.936
67.19000 495.338
67.20000 486.405
67.21000 491.126
67.22000 494.831
67.23000 496.135
67.24000 494.413
67.25000 492.699
67.26000 498.223
67.27000 509.679
67.28000 520.983
67.29000 523.189
67.30000 520.465
67.31000 517.523
67.32000 510.554
67.33000 502.069
67.34000 495.619
67.35000 509.279
67.36000 528.078
67.37000 544.548
67.38000 542.747
67.39000 538.566
67.40000 534.704
67.41000 532.108
67.42000 529.644
67.43000 527.941
67.44000 528.294
67.45000 528.761
67.46000 529.066
67.47000 532.556
67.48000 535.169
67.49000 540.705
67.50000 549.864
67.51000 559.016
67.52000 562.276
67.53000 560.781
67.54000 559.307
67.55000 558.099
67.56000 557.065
67.57000 556.078
67.58000 555.936
67.59000 556.108
67.60000 556.998
67.61000 564.847
67.62000 574.447
67.63000 582.838
67.64000 573.281
67.65000 562.557
67.66000 554.485
67.67000 556.797
67.68000 560.160
67.69000 564.596
67.70000 571.885
67.71000 579.328
67.72000 584.165
67.73000 599.731
67.74000 611.300
67.75000 615.309
67.76000 610.090
67.77000 604.862
67.78000 603.684
67.79000 605.722
67.80000 607.730
67.81000 606.857
67.82000 604.514
67.83000 602.444
67.84000 605.148
67.85000 609.596
67.86000 614.454
67.87000 623.199
67.88000 632.906
67.89000 641.369
67.90000 637.587
67.91000 632.653
67.92000 628.543
67.93000 627.609
67.94000 626.990
67.95000 626.609
67.96000 626.851
67.97000 627.125
67.98000 627.302
67.99000 643.050
68.00000 654.791
68.01000 662.966
68.02000 666.857
68.03000 670.712
68.04000 667.138
68.05000 657.758
68.06000 648.523
68.07000 657.206
68.08000 674.768
68.09000 691.080
68.10000 686.054
68.11000 673.341
68.12000 662.843
68.13000 672.927
68.14000 688.035
68.15000 701.175
68.16000 705.612
68.17000 708.211
68.18000 710.554
68.19000 711.919
68.20000 713.190
68.21000 715.120
68.22000 718.756
68.23000 722.478
68.24000 724.870
68.25000 724.212
68.26000 723.690
68.27000 727.537
68.28000 736.551
68.29000 745.565
68.30000 752.450
68.31000 757.698
68.32000 762.860
68.33000 771.286
68.34000 781.082
68.35000 790.691
68.36000 797.204
68.37000 802.617
68.38000 808.798
68.39000 821.965
68.40000 836.812
68.41000 849.691
68.42000 862.464
68.43000 873.328
68.44000 884.059
68.45000 894.294
68.46000 904.482
68.47000 911.569
68.48000 910.760
68.49000 909.560
68.50000 908.792
68.51000 938.593
68.52000 960.685
68.53000 981.396
68.54000 1000.501
68.55000 1019.644
68.56000 1047.590
68.57000 1082.205
68.58000 1116.233
68.59000 1146.214
68.60000 1173.197
68.61000 1202.333
68.62000 1266.297
68.63000 1342.448
68.64000 1416.370
68.65000 1470.392
68.66000 1519.703
68.67000 1562.370
68.68000 1647.945
68.69000 1726.321
68.70000 1805.960
68.71000 1890.250
68.72000 1974.974
68.73000 2056.454
68.74000 2129.790
68.75000 2202.735
68.76000 2249.091
68.77000 2347.845
68.78000 2420.213
68.79000 2506.245
68.80000 2607.917
68.81000 2709.668
68.82000 2823.660
68.83000 2946.782
68.84000 3067.714
68.85000 3250.626
68.86000 3457.400
68.87000 3672.731
68.88000 4022.935
68.89000 4419.652
68.90000 4864.165
68.91000 5727.150
68.92000 6687.686
68.93000 7516.686
68.94000 10128.210
68.95000 12573.548
68.96000 15491.552
68.97000 20125.629
68.98000 24915.982
68.99000 30106.455
69.00000 36286.680
69.01000 42513.039
69.02000 46447.117
69.03000 54417.438
69.04000 60240.055
69.05000 64994.602
69.06000 68546.414
69.07000 72090.578
69.08000 74483.523
69.09000 76030.984
69.10000 77549.672
69.11000 78776.141
69.12000 79818.781
69.13000 80877.016
69.14000 82174.883
69.15000 83554.195
69.16000 84834.711
69.17000 85266.992
69.18000 85504.586
69.19000 85709.109
69.20000 83590.641
69.21000 81503.242
69.22000 78937.344
69.23000 74659.938
69.24000 70230.047
69.25000 65792.828
69.26000 61337.738
69.27000 56881.840
69.28000 54082.730
69.29000 49474.469
69.30000 46122.863
69.31000 43691.313
69.32000 42278.996
69.33000 40870.109
69.34000 39899.563
69.35000 39246.008
69.36000 38605.152
69.37000 37418.633
69.38000 36018.738
69.39000 34560.828
69.40000 32234.232
69.41000 29616.656
69.42000 26954.525
69.43000 23917.217
69.44000 20795.127
69.45000 18114.598
69.46000 15038.068
69.47000 12388.065
69.48000 9927.219
69.49000 8132.910
69.50000 6396.690
69.51000 4952.940
69.52000 4212.048
69.53000 3501.948
69.54000 3058.490
69.55000 2613.690
69.56000 2292.834
69.57000 2056.609
69.58000 1912.606
69.59000 1768.899
69.60000 1661.769
69.61000 1580.688
69.62000 1501.250
69.63000 1427.093
69.64000 1358.228
69.65000 1290.727
69.66000 1243.144
69.67000 1202.135
69.68000 1162.033
69.69000 1129.414
69.70000 1098.461
69.71000 1071.955
69.72000 1039.997
69.73000 1012.367
69.74000 984.044
69.75000 953.320
69.76000 922.390
69.77000 895.044
69.78000 876.184
69.79000 857.684
69.80000 846.199
69.81000 823.271
69.82000 806.657
69.83000 791.844
69.84000 778.961
69.85000 766.037
69.86000 747.743
69.87000 725.681
69.88000 704.085
69.89000 691.080
69.90000 682.515
69.91000 674.364
69.92000 672.114
69.93000 671.784
69.94000 670.299
69.95000 659.452
69.96000 646.554
69.97000 635.540
69.98000 624.368
69.99000 614.939
70.00000 605.846
