20.00000 493.529
20.01000 488.183
20.02000 482.074
20.03000 478.047
20.04000 482.235
20.05000 487.262
20.06000 490.975
20.07000 484.048
20.08000 478.228
20.09000 473.814
20.10000 471.974
20.11000 470.190
20.12000 471.885
20.13000 477.858
20.14000 483.833
20.15000 484.630
20.16000 481.297
20.17000 477.931
20.18000 473.039
20.19000 467.325
20.20000 462.012
20.21000 463.799
20.22000 468.200
20.23000 472.261
20.24000 479.669
20.25000 487.058
20.26000 492.910
20.27000 489.697
20.28000 484.999
20.29000 482.483
20.30000 488.442
20.31000 495.251
20.32000 500.258
20.33000 499.047
20.34000 497.854
20.35000 495.512
20.36000 491.099
20.37000 486.643
20.38000 481.022
20.39000 473.992
20.40000 466.972
20.41000 464.470
20.42000 465.522
20.43000 466.680
20.44000 472.317
20.45000 480.329
20.46000 488.057
20.47000 490.859
20.48000 491.873
20.49000 492.808
20.50000 488.454
20.51000 483.394
20.52000 478.576
20.53000 475.161
20.54000 471.972
20.55000 469.704
20.56000 470.961
20.57000 472.564
20.58000 473.738
20.59000 470.414
20.60000 467.668
20.61000 468.234
20.62000 474.689
20.63000 481.259
20.64000 485.567
20.65000 487.181
20.66000 488.786
20.67000 486.144
20.68000 480.242
20.69000 474.419
20.70000 471.791
20.71000 470.834
20.72000 469.759
20.73000 466.705
20.74000 462.943
20.75000 459.483
20.76000 460.656
20.77000 462.706
20.78000 465.582
20.79000 473.169
20.80000 481.503
20.81000 486.384
20.82000 478.256
20.83000 468.879
20.84000 462.041
20.85000 468.190
20.86000 473.430
20.87000 476.443
20.88000 475.557
20.89000 474.599
20.90000 475.843
20.91000 479.669
20.92000 483.491
20.93000 481.180
20.94000 474.233
20.95000 467.529
20.96000 470.339
20.97000 478.050
20.98000 485.169
20.99000 482.584
21.00000 476.580
21.01000 471.070
21.02000 469.973
21.03000 469.933
21.04000 470.681
21.05000 475.847
21.06000 481.700
21.07000 484.808
21.08000 477.726
21.09000 469.685
21.10000 463.848
21.11000 464.836
21.12000 465.851
21.13000 467.118
21.14000 468.820
21.15000 470.529
21.16000 469.478
21.17000 465.244
21.18000 461.017
21.19000 465.668
21.20000 476.911
21.21000 487.935
21.22000 490.708
21.23000 489.294
21.24000 487.656
21.25000 482.453
21.26000 476.011
21.27000 470.110
21.28000 476.407
21.29000 484.562
21.30000 490.835
21.31000 486.725
21.32000 481.027
21.33000 475.081
21.34000 468.224
21.35000 461.283
21.36000 456.266
21.37000 454.945
21.38000 454.065
21.39000 457.807
21.40000 469.411
21.41000 481.145
21.42000 480.828
21.43000 466.834
21.44000 452.870
21.45000 456.901
21.46000 474.115
21.47000 490.921
21.48000 493.108
21.49000 487.981
21.50000 483.307
21.51000 485.699
21.52000 490.509
21.53000 494.906
21.54000 488.906
21.55000 481.437
21.56000 474.370
21.57000 469.480
21.58000 464.918
21.59000 461.690
21.60000 463.271
21.61000 465.285
21.62000 466.734
21.63000 471.318
21.64000 474.938
21.65000 478.181
21.66000 480.792
21.67000 483.394
21.68000 484.068
21.69000 482.591
21.70000 481.118
21.71000 480.187
21.72000 479.655
21.73000 479.282
21.74000 484.396
21.75000 492.215
21.76000 499.469
21.77000 498.160
21.78000 493.962
21.79000 490.131
21.80000 494.931
21.81000 500.932
21.82000 505.770
21.83000 504.396
21.84000 502.106
21.85000 500.083
21.86000 499.009
21.87000 498.019
21.88000 497.310
21.89000 504.870
21.90000 510.928
21.91000 515.614
21.92000 518.033
21.93000 520.418
21.94000 525.390
21.95000 533.203
21.96000 540.988
21.97000 547.031
21.98000 551.781
21.99000 556.252
22.00000 551.441
22.01000 542.119
22.02000 534.019
22.03000 543.978
22.04000 559.940
22.05000 574.478
22.06000 583.932
22.07000 591.295
22.08000 597.199
22.09000 595.440
22.10000 592.571
22.11000 591.374
22.12000 596.027
22.13000 601.183
22.14000 604.861
22.15000 602.922
22.16000 601.258
22.17000 602.911
22.18000 609.959
22.19000 617.083
22.20000 618.699
22.21000 614.364
22.22000 610.045
22.23000 598.928
22.24000 583.168
22.25000 567.877
22.26000 567.548
22.27000 574.386
22.28000 580.302
22.29000 572.921
22.30000 561.184
22.31000 550.515
22.32000 558.404
22.33000 568.999
22.34000 576.123
22.35000 565.317
22.36000 551.958
22.37000 538.471
22.38000 524.539
22.39000 510.570
22.40000 500.650
22.41000 502.653
22.42000 504.556
22.43000 505.834
22.44000 506.111
22.45000 506.375
22.46000 506.693
22.47000 507.067
22.48000 507.439
22.49000 507.229
22.50000 506.620
22.51000 505.754
22.52000 496.950
22.53000 484.398
22.54000 472.718
22.55000 473.292
22.56000 477.822
22.57000 481.931
22.58000 473.706
22.59000 464.082
22.60000 456.028
22.61000 455.948
22.62000 456.984
22.63000 458.621
22.64000 462.298
22.65000 466.145
22.66000 468.863
22.67000 458.859
22.68000 450.872
22.69000 447.242
22.70000 450.494
22.71000 453.830
22.72000 455.453
22.73000 455.285
22.74000 455.117
22.75000 455.612
22.76000 456.549
22.77000 457.378
22.78000 454.992
22.79000 451.110
22.80000 447.225
22.81000 443.300
22.82000 439.362
22.83000 435.797
22.84000 440.170
22.85000 445.517
22.86000 451.251
22.87000 458.918
22.88000 466.851
22.89000 470.308
22.90000 458.794
22.91000 446.076
22.92000 437.128
22.93000 438.646
22.94000 440.107
22.95000 441.864
22.96000 444.082
22.97000 446.305
22.98000 441.767
22.99000 430.281
23.00000 418.858
23.01000 419.643
23.02000 428.553
23.03000 437.479
23.04000 446.850
23.05000 456.425
23.06000 465.220
23.07000 463.554
23.08000 458.608
23.09000 454.141
23.10000 449.689
23.11000 445.777
23.12000 443.466
23.13000 449.031
23.14000 455.657
23.15000 459.975
23.16000 456.684
23.17000 452.795
23.18000 450.072
23.19000 441.266
23.20000 434.433
23.21000 432.414
23.22000 437.771
23.23000 443.208
23.24000 448.308
23.25000 453.066
23.26000 457.797
23.27000 457.052
23.28000 452.728
23.29000 448.526
23.30000 447.693
23.31000 448.383
23.32000 448.696
23.33000 444.095
23.34000 437.975
23.35000 432.458
23.36000 425.471
23.37000 419.070
23.38000 415.185
23.39000 423.487
23.40000 433.402
23.41000 441.389
23.42000 443.114
23.43000 444.358
23.44000 445.225
23.45000 447.440
23.46000 449.150
23.47000 449.341
23.48000 447.242
23.49000 445.119
23.50000 442.750
23.51000 440.135
23.52000 437.537
23.53000 437.356
23.54000 438.738
23.55000 439.807
23.56000 432.497
23.57000 421.453
23.58000 411.525
23.59000 415.852
23.60000 424.518
23.61000 432.315
23.62000 429.141
23.63000 424.401
23.64000 422.106
23.65000 431.473
23.66000 442.355
23.67000 448.163
23.68000 437.735
23.69000 426.089
23.70000 418.011
23.71000 420.905
23.72000 423.376
23.73000 425.263
23.74000 426.285
23.75000 427.298
23.76000 430.498
23.77000 435.834
23.78000 441.134
23.79000 440.043
23.80000 434.912
23.81000 430.011
23.82000 431.024
23.83000 434.635
23.84000 437.885
23.85000 436.646
23.86000 434.060
23.87000 431.738
23.88000 429.460
23.89000 427.474
23.90000 425.339
23.91000 422.499
23.92000 419.569
23.93000 419.019
23.94000 425.975
23.95000 433.480
23.96000 438.661
23.97000 429.181
23.98000 421.682
23.99000 418.040
24.00000 420.043
24.01000 422.096
24.02000 423.871
24.03000 425.380
24.04000 426.878
24.05000 422.914
24.06000 415.604
24.07000 408.808
24.08000 414.829
24.09000 426.398
24.10000 437.361
24.11000 440.939
24.12000 442.334
24.13000 443.584
24.14000 437.798
24.15000 431.534
24.16000 426.170
24.17000 424.962
24.18000 424.273
24.19000 424.424
24.20000 427.182
24.21000 430.127
24.22000 432.150
24.23000 439.509
24.24000 445.159
24.25000 446.681
24.26000 442.250
24.27000 437.772
24.28000 436.582
24.29000 438.497
24.30000 440.396
24.31000 443.608
24.32000 447.570
24.33000 450.960
24.34000 440.551
24.35000 424.255
24.36000 409.334
24.37000 410.824
24.38000 417.094
24.39000 422.697
24.40000 422.984
24.41000 422.333
24.42000 420.321
24.43000 412.117
24.44000 403.153
24.45000 397.156
24.46000 400.248
24.47000 403.974
24.48000 406.521
24.49000 407.991
24.50000 409.064
24.51000 412.422
24.52000 419.024
24.53000 425.649
24.54000 429.155
24.55000 429.765
24.56000 430.369
24.57000 431.515
24.58000 432.969
24.59000 434.218
24.60000 430.689
24.61000 425.152
24.62000 420.335
24.63000 423.931
24.64000 429.941
24.65000 435.301
24.66000 421.389
24.67000 406.080
24.68000 396.238
24.69000 410.858
24.70000 428.425
24.71000 439.106
24.72000 429.010
24.73000 417.499
24.74000 409.670
24.75000 406.401
24.76000 404.064
24.77000 404.357
24.78000 408.328
24.79000 412.323
24.80000 413.913
24.81000 413.305
24.82000 412.702
24.83000 409.518
24.84000 404.859
24.85000 400.448
24.86000 401.664
24.87000 405.212
24.88000 408.712
24.89000 411.670
24.90000 414.475
24.91000 416.972
24.92000 418.367
24.93000 419.400
24.94000 420.107
24.95000 419.380
24.96000 418.484
24.97000 416.923
24.98000 413.386
24.99000 409.718
25.00000 407.235
25.01000 414.028
25.02000 419.292
25.03000 421.564
25.04000 419.718
25.05000 417.848
25.06000 418.025
25.07000 420.043
25.08000 422.042
25.09000 417.817
25.10000 410.031
25.11000 402.568
25.12000 402.167
25.13000 404.652
25.14000 407.208
25.15000 410.565
25.16000 414.145
25.17000 417.323
25.18000 419.199
25.19000 420.617
25.20000 420.183
25.21000 411.719
25.22000 402.325
25.23000 396.861
25.24000 402.917
25.25000 409.719
25.26000 414.299
25.27000 410.878
25.28000 408.168
25.29000 407.741
25.30000 410.409
25.31000 413.090
25.32000 410.319
25.33000 402.729
25.34000 395.216
25.35000 394.384
25.36000 397.426
25.37000 400.405
25.38000 402.075
25.39000 403.216
25.40000 403.896
25.41000 399.533
25.42000 393.788
25.43000 388.698
25.44000 390.594
25.45000 393.335
25.46000 396.168
25.47000 399.392
25.48000 402.661
25.49000 403.776
25.50000 398.668
25.51000 393.168
25.52000 389.484
25.53000 397.537
25.54000 403.747
25.55000 408.066
25.56000 409.862
25.57000 411.647
25.58000 414.357
25.59000 417.873
25.60000 421.350
25.61000 415.452
25.62000 404.366
25.63000 393.775
25.64000 393.405
25.65000 397.092
25.66000 400.655
25.67000 402.897
25.68000 404.781
25.69000 406.446
25.70000 401.508
25.71000 396.223
25.72000 391.839
25.73000 391.243
25.74000 391.070
25.75000 390.967
25.76000 391.068
25.77000 391.181
25.78000 391.257
25.79000 390.715
25.80000 390.302
25.81000 390.836
25.82000 392.612
25.83000 394.389
25.84000 393.035
25.85000 388.999
25.86000 385.009
25.87000 385.193
25.88000 387.704
25.89000 390.106
25.90000 390.312
25.91000 389.660
25.92000 389.137
25.93000 389.964
25.94000 391.150
25.95000 392.195
25.96000 394.156
25.97000 395.985
25.98000 397.146
25.99000 395.537
26.00000 393.627
26.01000 392.199
26.02000 392.123
26.03000 392.128
26.04000 392.132
26.05000 390.810
26.06000 389.808
26.07000 389.879
26.08000 391.336
26.09000 392.794
26.10000 392.123
26.11000 389.659
26.12000 387.224
26.13000 388.241
26.14000 391.131
26.15000 393.885
26.16000 394.008
26.17000 393.117
26.18000 392.274
26.19000 391.920
26.20000 391.693
26.21000 391.495
26.22000 386.721
26.23000 381.932
26.24000 378.229
26.25000 378.958
26.26000 380.160
26.27000 382.801
26.28000 389.420
26.29000 396.270
26.30000 400.787
26.31000 398.915
26.32000 397.424
26.33000 396.238
26.34000 395.439
26.35000 394.646
26.36000 396.275
26.37000 399.911
26.38000 403.501
26.39000 404.853
26.40000 404.959
26.41000 405.072
26.42000 405.349
26.43000 405.688
26.44000 405.851
26.45000 404.252
26.46000 402.197
26.47000 400.394
26.48000 395.091
26.49000 390.024
26.50000 386.397
26.51000 388.552
26.52000 391.313
26.53000 392.815
26.54000 390.889
26.55000 388.769
26.56000 387.378
26.57000 385.014
26.58000 383.259
26.59000 383.966
26.60000 387.761
26.61000 391.556
26.62000 391.358
26.63000 387.902
26.64000 384.494
26.65000 382.126
26.66000 380.378
26.67000 378.983
26.68000 384.088
26.69000 391.628
26.70000 398.169
26.71000 394.895
26.72000 389.124
26.73000 384.071
26.74000 384.702
26.75000 386.058
26.76000 386.614
26.77000 384.003
26.78000 381.067
26.79000 379.614
26.80000 382.141
26.81000 384.889
26.82000 386.681
26.83000 390.392
26.84000 393.145
26.85000 394.822
26.86000 395.170
26.87000 395.502
26.88000 391.708
26.89000 384.599
26.90000 377.592
26.91000 379.891
26.92000 387.005
26.93000 393.746
26.94000 393.837
26.95000 391.471
26.96000 388.867
26.97000 383.972
26.98000 378.502
26.99000 373.726
27.00000 378.707
27.01000 384.345
27.02000 389.792
27.03000 394.495
27.04000 399.123
27.05000 398.980
27.06000 386.205
27.07000 372.754
27.08000 364.027
27.09000 371.762
27.10000 377.674
27.11000 378.199
27.12000 372.179
27.13000 366.168
27.14000 367.507
27.15000 374.652
27.16000 381.692
27.17000 385.262
27.18000 386.934
27.19000 388.322
27.20000 384.758
27.21000 379.392
27.22000 374.506
27.23000 374.150
27.24000 374.911
27.25000 375.575
27.26000 376.780
27.27000 377.885
27.28000 379.056
27.29000 380.482
27.30000 381.934
27.31000 383.323
27.32000 384.552
27.33000 385.772
27.34000 386.559
27.35000 385.240
27.36000 384.246
27.37000 384.699
27.38000 386.882
27.39000 389.060
27.40000 389.154
27.41000 387.627
27.42000 386.124
27.43000 381.029
27.44000 374.267
27.45000 367.898
27.46000 368.158
27.47000 370.797
27.48000 373.213
27.49000 373.566
27.50000 373.419
27.51000 373.290
27.52000 377.371
27.53000 381.422
27.54000 384.478
27.55000 383.774
27.56000 382.707
27.57000 381.173
27.58000 378.437
27.59000 375.641
27.60000 373.846
27.61000 367.401
27.62000 362.640
27.63000 362.003
27.64000 366.219
27.65000 370.428
27.66000 371.224
27.67000 369.404
27.68000 367.614
27.69000 371.908
27.70000 379.106
27.71000 385.655
27.72000 381.503
27.73000 373.568
27.74000 366.350
27.75000 365.633
27.76000 366.471
27.77000 367.197
27.78000 364.538
27.79000 361.825
27.80000 360.756
27.81000 365.815
27.82000 371.453
27.83000 376.729
27.84000 381.090
27.85000 385.406
27.86000 388.159
27.87000 391.373
27.88000 393.716
27.89000 389.989
27.90000 379.236
27.91000 368.507
27.92000 364.850
27.93000 366.525
27.94000 368.171
27.95000 369.906
27.96000 371.627
27.97000 373.057
27.98000 369.828
27.99000 364.975
28.00000 361.251
28.01000 367.554
28.02000 376.219
28.03000 383.711
28.04000 375.685
28.05000 366.842
28.06000 360.650
28.07000 364.184
28.08000 368.617
28.09000 371.920
28.10000 372.400
28.11000 372.746
28.12000 372.965
28.13000 375.931
28.14000 378.116
28.15000 379.506
28.16000 379.990
28.17000 380.499
28.18000 385.957
28.19000 395.087
28.20000 404.053
28.21000 400.847
28.22000 391.856
28.23000 383.214
28.24000 380.016
28.25000 378.687
28.26000 377.000
28.27000 372.197
28.28000 366.671
28.29000 361.906
28.30000 367.808
28.31000 374.178
28.32000 379.961
28.33000 383.622
28.34000 387.091
28.35000 387.254
28.36000 379.277
28.37000 370.924
28.38000 365.655
28.39000 388.016
28.40000 404.525
28.41000 407.328
28.42000 394.770
28.43000 382.218
28.44000 372.858
28.45000 365.830
28.46000 358.935
28.47000 357.864
28.48000 359.608
28.49000 361.320
28.50000 362.560
28.51000 363.640
28.52000 365.084
28.53000 369.634
28.54000 374.894
28.55000 379.419
28.56000 375.248
28.57000 370.626
28.58000 366.689
28.59000 365.191
28.60000 363.909
28.61000 360.614
28.62000 352.431
28.63000 344.029
28.64000 338.760
28.65000 347.056
28.66000 353.197
28.67000 357.234
28.68000 358.952
28.69000 360.674
28.70000 363.010
28.71000 365.789
28.72000 368.514
28.73000 368.826
28.74000 367.993
28.75000 367.308
28.76000 368.820
28.77000 371.065
28.78000 373.317
28.79000 375.622
28.80000 377.939
28.81000 379.927
28.82000 372.936
28.83000 365.925
28.84000 359.815
28.85000 356.867
28.86000 354.192
28.87000 352.395
28.88000 352.698
28.89000 353.092
28.90000 353.338
28.91000 361.337
28.92000 367.183
28.93000 370.121
28.94000 369.908
28.95000 369.692
28.96000 369.313
28.97000 368.819
28.98000 368.334
28.99000 365.427
29.00000 361.512
29.01000 358.293
29.02000 365.169
29.03000 375.362
29.04000 383.942
29.05000 379.280
29.06000 371.686
29.07000 365.189
29.08000 366.461
29.09000 368.471
29.10000 370.852
29.11000 374.513
29.12000 378.283
29.13000 379.393
29.14000 374.229
29.15000 368.802
29.16000 365.439
29.17000 365.526
29.18000 365.622
29.19000 362.263
29.20000 355.219
29.21000 348.221
29.22000 347.095
29.23000 350.070
29.24000 352.980
29.25000 354.117
29.26000 354.400
29.27000 354.897
29.28000 358.408
29.29000 362.894
29.30000 366.741
29.31000 365.430
29.32000 362.994
29.33000 360.916
29.34000 362.759
29.35000 364.775
29.36000 365.654
29.37000 362.661
29.38000 359.348
29.39000 356.283
29.40000 353.798
29.41000 351.336
29.42000 349.819
29.43000 356.774
29.44000 361.841
29.45000 364.341
29.46000 364.148
29.47000 363.926
29.48000 360.313
29.49000 354.368
29.50000 348.555
29.51000 350.568
29.52000 355.999
29.53000 361.071
29.54000 361.186
29.55000 359.720
29.56000 358.536
29.57000 359.582
29.58000 361.106
29.59000 362.403
29.60000 361.418
29.61000 360.326
29.62000 359.303
29.63000 358.509
29.64000 357.734
29.65000 359.257
29.66000 366.044
29.67000 373.039
29.68000 377.321
29.69000 378.324
29.70000 379.014
29.71000 381.317
29.72000 385.282
29.73000 389.169
29.74000 384.456
29.75000 373.920
29.76000 363.629
29.77000 363.641
29.78000 368.190
29.79000 372.903
29.80000 379.815
29.81000 387.419
29.82000 393.966
29.83000 392.305
29.84000 388.911
29.85000 386.030
29.86000 383.729
29.87000 381.866
29.88000 382.138
29.89000 389.474
29.90000 397.367
29.91000 403.718
29.92000 406.582
29.93000 409.313
29.94000 410.975
29.95000 421.998
29.96000 429.945
29.97000 433.910
29.98000 433.837
29.99000 433.744
30.00000 431.554
30.01000 427.966
30.02000 424.464
30.03000 431.480
30.04000 442.746
30.05000 452.964
30.06000 449.391
30.07000 441.544
30.08000 434.816
30.09000 436.610
30.10000 440.177
30.11000 443.195
30.12000 445.414
30.13000 447.184
30.14000 447.197
30.15000 441.488
30.16000 435.337
30.17000 430.536
30.18000 428.739
30.19000 427.053
30.20000 426.033
30.21000 425.702
30.22000 425.471
30.23000 420.796
30.24000 411.689
30.25000 402.667
30.26000 401.748
30.27000 406.152
30.28000 410.445
30.29000 409.009
30.30000 405.193
30.31000 401.297
30.32000 396.364
30.33000 391.113
30.34000 386.431
30.35000 385.995
30.36000 386.427
30.37000 386.792
30.38000 392.536
30.39000 397.923
30.40000 401.415
30.41000 398.828
30.42000 395.782
30.43000 393.951
30.44000 394.788
30.45000 395.719
30.46000 396.279
30.47000 395.194
30.48000 394.412
30.49000 395.656
30.50000 398.886
30.51000 402.131
30.52000 406.653
30.53000 412.001
30.54000 417.210
30.55000 413.282
30.56000 405.701
30.57000 398.284
30.58000 392.935
30.59000 388.207
30.60000 384.482
30.61000 388.115
30.62000 393.229
30.63000 397.533
30.64000 403.019
30.65000 407.721
30.66000 410.672
30.67000 408.085
30.68000 405.090
30.69000 402.719
30.70000 401.699
30.71000 400.725
30.72000 400.143
30.73000 405.159
30.74000 408.751
30.75000 408.798
30.76000 405.428
30.77000 402.101
30.78000 402.291
30.79000 404.724
30.80000 407.090
30.81000 411.554
30.82000 416.671
30.83000 421.476
30.84000 422.470
30.85000 422.334
30.86000 422.540
30.87000 425.203
30.88000 428.354
30.89000 430.998
30.90000 431.006
30.91000 430.737
30.92000 432.559
30.93000 440.896
30.94000 449.702
30.95000 457.435
30.96000 462.882
30.97000 468.254
30.98000 471.441
30.99000 491.656
31.00000 506.056
31.01000 511.725
31.02000 509.117
31.03000 506.700
31.04000 519.181
31.05000 541.016
31.06000 562.240
31.07000 578.071
31.08000 590.926
31.09000 604.237
31.10000 623.007
31.11000 643.372
31.12000 665.268
31.13000 697.997
31.14000 732.839
31.15000 761.992
31.16000 807.188
31.17000 846.385
31.18000 895.218
31.19000 973.652
31.20000 1054.163
31.21000 1130.816
31.22000 1199.365
31.23000 1267.658
31.24000 1307.910
31.25000 1444.993
31.26000 1542.267
31.27000 1646.457
31.28000 1757.093
31.29000 1867.689
31.30000 1975.307
31.31000 2081.083
31.32000 2183.789
31.33000 2264.962
31.34000 2333.391
31.35000 2402.746
31.36000 2482.968
31.37000 2566.317
31.38000 2642.327
31.39000 2667.314
31.40000 2682.515
31.41000 2695.198
31.42000 2727.271
31.43000 2755.816
31.44000 2768.903
31.45000 2735.196
31.46000 2698.290
31.47000 2653.543
31.48000 2592.566
31.49000 2531.091
31.50000 2495.095
31.51000 2375.245
31.52000 2290.443
31.53000 2197.575
31.54000 2097.311
31.55000 1997.077
31.56000 1898.941
31.57000 1802.083
31.58000 1708.136
31.59000 1619.727
31.60000 1538.114
31.61000 1456.152
31.62000 1370.179
31.63000 1283.070
31.64000 1198.524
31.65000 1131.477
31.66000 1067.732
31.67000 1014.706
31.68000 965.404
31.69000 924.959
31.70000 882.284
31.71000 832.956
31.72000 783.183
31.73000 738.134
31.74000 702.722
31.75000 667.595
31.76000 647.162
31.77000 633.583
31.78000 624.071
31.79000 608.880
31.80000 588.567
31.81000 568.280
31.82000 549.629
31.83000 531.962
31.84000 514.844
31.85000 501.196
31.86000 489.626
31.87000 477.267
31.88000 456.061
31.89000 432.384
31.90000 412.406
31.91000 417.239
31.92000 426.678
31.93000 434.506
31.94000 424.930
31.95000 415.345
31.96000 407.352
31.97000 404.038
31.98000 401.028
31.99000 399.906
32.00000 402.581
32.01000 405.363
32.02000 406.971
32.03000 381.448
32.04000 363.465
32.05000 358.438
32.06000 364.906
32.07000 371.311
32.08000 373.848
32.09000 374.098
32.10000 374.339
32.11000 367.299
32.12000 357.867
32.13000 349.519
32.14000 353.052
32.15000 359.855
32.16000 365.366
32.17000 362.355
32.18000 357.789
32.19000 354.013
32.20000 353.865
32.21000 354.084
32.22000 354.386
32.23000 354.928
32.24000 355.486
32.25000 354.880
32.26000 351.967
32.27000 348.992
32.28000 347.284
32.29000 345.880
32.30000 344.897
32.31000 342.221
32.32000 338.066
32.33000 334.021
32.34000 336.307
32.35000 342.284
32.36000 348.063
32.37000 344.112
32.38000 336.728
32.39000 329.931
32.40000 329.441
32.41000 330.661
32.42000 330.861
32.43000 324.449
32.44000 316.850
32.45000 310.586
32.46000 323.349
32.47000 335.607
32.48000 344.660
32.49000 344.560
32.50000 343.896
32.51000 342.902
32.52000 341.263
32.53000 339.606
32.54000 338.662
32.55000 335.996
32.56000 334.130
32.57000 331.769
32.58000 328.984
32.59000 326.277
32.60000 327.948
32.61000 332.133
32.62000 336.174
32.63000 336.804
32.64000 336.136
32.65000 335.730
32.66000 338.074
32.67000 341.152
32.68000 343.448
32.69000 340.767
32.70000 337.207
32.71000 334.281
32.72000 327.919
32.73000 322.384
32.74000 319.208
32.75000 322.671
32.76000 326.534
32.77000 330.279
32.78000 333.798
32.79000 337.311
32.80000 339.299
32.81000 333.266
32.82000 329.052
32.83000 327.702
32.84000 328.772
32.85000 329.751
32.86000 325.940
32.87000 319.417
32.88000 313.126
32.89000 314.419
32.90000 318.395
32.91000 321.650
32.92000 317.488
32.93000 311.376
32.94000 305.953
32.95000 304.848
32.96000 304.493
32.97000 304.201
32.98000 309.796
32.99000 314.902
33.00000 318.923
33.01000 319.931
33.02000 320.763
33.03000 322.130
33.04000 324.511
33.05000 326.916
33.06000 328.267
33.07000 321.716
33.08000 317.148
33.09000 311.075
33.10000 303.752
33.11000 296.507
33.12000 293.157
33.13000 291.981
33.14000 290.848
33.15000 292.489
33.16000 295.024
33.17000 297.453
33.18000 298.816
33.19000 299.902
33.20000 301.717
33.21000 308.018
33.22000 315.084
33.23000 320.856
33.24000 311.897
33.25000 303.297
33.26000 298.138
33.27000 302.388
33.28000 307.175
33.29000 306.934
33.30000 297.292
33.31000 287.435
33.32000 281.935
33.33000 293.497
33.34000 301.526
33.35000 304.668
33.36000 303.810
33.37000 302.938
33.38000 301.396
33.39000 299.487
33.40000 297.649
33.41000 295.289
33.42000 292.891
33.43000 291.001
33.44000 294.116
33.45000 298.509
33.46000 302.082
33.47000 300.699
33.48000 298.484
33.49000 296.681
33.50000 298.139
33.51000 299.604
33.52000 301.619
33.53000 305.115
33.54000 308.692
33.55000 310.377
33.56000 308.575
33.57000 306.696
33.58000 305.656
33.59000 302.011
33.60000 299.492
33.61000 297.972
33.62000 297.256
33.63000 296.567
33.64000 297.085
33.65000 298.257
33.66000 299.384
33.67000 293.112
33.68000 284.673
33.69000 277.179
33.70000 278.817
33.71000 282.751
33.72000 286.568
33.73000 289.683
33.74000 292.682
33.75000 295.116
33.76000 288.900
33.77000 283.119
33.78000 280.171
33.79000 284.749
33.80000 289.732
33.81000 292.895
33.82000 292.754
33.83000 292.544
33.84000 292.429
33.85000 292.768
33.86000 292.990
33.87000 289.801
33.88000 283.907
33.89000 278.135
33.90000 277.650
33.91000 279.987
33.92000 282.230
33.93000 284.571
33.94000 286.792
33.95000 288.931
33.96000 290.284
33.97000 291.442
33.98000 292.684
33.99000 294.422
34.00000 296.241
34.01000 297.712
34.02000 292.182
34.03000 287.118
34.04000 283.348
34.05000 282.963
34.06000 282.756
34.07000 284.035
34.08000 287.975
34.09000 291.967
34.10000 294.146
34.11000 286.742
34.12000 281.677
34.13000 285.649
34.14000 296.675
34.15000 307.436
34.16000 307.206
34.17000 301.193
34.18000 295.430
34.19000 292.310
34.20000 290.286
34.21000 288.157
34.22000 285.053
34.23000 281.711
34.24000 279.704
34.25000 285.371
34.26000 292.262
34.27000 297.818
34.28000 292.122
34.29000 286.609
34.30000 282.852
34.31000 283.624
34.32000 284.626
34.33000 286.075
34.34000 288.312
34.35000 290.564
34.36000 291.784
34.37000 292.941
34.38000 293.720
34.39000 291.289
34.40000 286.391
34.41000 281.680
34.42000 284.410
34.43000 290.996
34.44000 297.302
34.45000 295.960
34.46000 292.181
34.47000 288.598
34.48000 286.800
34.49000 285.430
34.50000 284.608
34.51000 286.883
34.52000 289.642
34.53000 291.860
34.54000 289.212
34.55000 286.691
34.56000 285.199
34.57000 286.327
34.58000 287.584
34.59000 286.298
34.60000 280.594
34.61000 274.811
34.62000 271.701
34.63000 278.517
34.64000 283.172
34.65000 285.438
34.66000 285.895
34.67000 286.226
34.68000 281.734
34.69000 274.779
34.70000 268.130
34.71000 268.086
34.72000 270.194
34.73000 272.790
34.74000 279.741
34.75000 287.721
34.76000 294.097
34.77000 291.561
34.78000 287.652
34.79000 284.521
34.80000 279.662
34.81000 275.601
34.82000 273.091
34.83000 274.468
34.84000 276.030
34.85000 276.094
34.86000 273.591
34.87000 271.045
34.88000 269.686
34.89000 264.525
34.90000 261.029
34.91000 262.112
34.92000 266.604
34.93000 270.980
34.94000 271.108
34.95000 269.096
34.96000 267.176
34.97000 271.301
34.98000 277.069
34.99000 281.953
35.00000 279.108
35.01000 274.463
35.02000 270.993
35.03000 273.945
35.04000 277.868
35.05000 281.000
35.06000 286.822
35.07000 291.720
35.08000 292.694
35.09000 283.972
35.10000 274.798
35.11000 269.359
35.12000 270.217
35.13000 271.177
35.14000 271.685
35.15000 270.859
35.16000 270.306
35.17000 271.435
35.18000 273.798
35.19000 276.132
35.20000 277.450
35.21000 278.263
35.22000 279.038
35.23000 280.104
35.24000 281.184
35.25000 281.468
35.26000 274.923
35.27000 266.812
35.28000 260.838
35.29000 266.346
35.30000 273.563
35.31000 279.304
35.32000 274.348
35.33000 269.587
35.34000 267.994
35.35000 274.113
35.36000 280.580
35.37000 283.861
35.38000 281.846
35.39000 279.750
35.40000 278.649
35.41000 271.466
35.42000 266.625
35.43000 266.534
35.44000 269.873
35.45000 273.233
35.46000 277.287
35.47000 281.680
35.48000 285.863
35.49000 282.153
35.50000 276.271
35.51000 270.428
35.52000 264.915
35.53000 259.477
35.54000 256.203
35.55000 264.377
35.56000 274.223
35.57000 282.028
35.58000 277.860
35.59000 273.670
35.60000 270.107
35.61000 268.052
35.62000 266.063
35.63000 265.713
35.64000 268.047
35.65000 270.419
35.66000 271.656
35.67000 266.850
35.68000 263.609
35.69000 261.673
35.70000 260.666
35.71000 259.573
35.72000 255.708
35.73000 250.506
35.74000 245.559
35.75000 251.069
35.76000 259.350
35.77000 267.159
35.78000 271.062
35.79000 274.098
35.80000 276.520
35.81000 275.747
35.82000 274.516
35.83000 273.543
35.84000 274.068
35.85000 274.592
35.86000 273.960
35.87000 270.593
35.88000 267.110
35.89000 264.709
35.90000 264.053
35.91000 263.421
35.92000 263.094
35.93000 261.000
35.94000 259.616
35.95000 261.915
35.96000 266.795
35.97000 271.499
35.98000 270.715
35.99000 267.324
36.00000 264.103
36.01000 261.351
36.02000 258.951
36.03000 257.320
36.04000 261.911
36.05000 267.862
36.06000 272.858
36.07000 272.960
36.08000 272.373
36.09000 271.911
36.10000 274.560
36.11000 276.891
36.12000 276.771
36.13000 270.936
36.14000 264.868
36.15000 261.461
36.16000 262.284
36.17000 263.162
36.18000 263.611
36.19000 271.585
36.20000 276.884
36.21000 274.629
36.22000 267.162
36.23000 259.896
36.24000 258.650
36.25000 260.224
36.26000 261.717
36.27000 260.987
36.28000 259.658
36.29000 258.636
36.30000 260.058
36.31000 262.005
36.32000 263.667
36.33000 263.888
36.34000 263.911
36.35000 263.928
36.36000 265.324
36.37000 266.531
36.38000 266.894
36.39000 265.318
36.40000 263.665
36.41000 262.726
36.42000 262.904
36.43000 263.096
36.44000 263.193
36.45000 264.194
36.46000 264.850
36.47000 263.786
36.48000 261.554
36.49000 259.441
36.50000 260.797
36.51000 263.754
36.52000 266.553
36.53000 268.230
36.54000 269.447
36.55000 270.076
36.56000 266.120
36.57000 261.192
36.58000 256.872
36.59000 255.565
36.60000 254.669
36.61000 253.968
36.62000 264.203
36.63000 273.065
36.64000 276.451
36.65000 267.433
36.66000 257.939
36.67000 252.783
36.68000 254.318
36.69000 255.928
36.70000 256.740
36.71000 263.223
36.72000 267.505
36.73000 266.230
36.74000 261.237
36.75000 256.315
36.76000 253.371
36.77000 251.327
36.78000 249.394
36.79000 254.032
36.80000 260.171
36.81000 265.535
36.82000 264.979
36.83000 263.189
36.84000 261.457
36.85000 260.013
36.86000 258.607
36.87000 257.512
36.88000 263.572
36.89000 268.840
36.90000 272.071
36.91000 270.750
36.92000 269.260
36.93000 268.778
36.94000 269.825
36.95000 270.889
36.96000 271.421
36.97000 277.144
36.98000 280.923
36.99000 281.101
37.00000 278.906
37.01000 276.729
37.02000 275.056
37.03000 273.609
37.04000 272.242
37.05000 274.866
37.06000 278.395
37.07000 282.353
37.08000 289.543
37.09000 297.397
37.10000 302.291
37.11000 292.983
37.12000 281.815
37.13000 273.148
37.14000 276.999
37.15000 280.815
37.16000 282.832
37.17000 280.892
37.18000 278.810
37.19000 275.322
37.20000 269.732
37.21000 264.122
37.22000 262.959
37.23000 266.172
37.24000 269.340
37.25000 268.560
37.26000 265.216
37.27000 261.949
37.28000 260.704
37.29000 260.353
37.30000 260.022
37.31000 270.057
37.32000 282.111
37.33000 291.837
37.34000 284.406
37.35000 273.510
37.36000 264.223
37.37000 262.538
37.38000 261.831
37.39000 261.284
37.40000 264.639
37.41000 267.530
37.42000 269.089
37.43000 267.757
37.44000 266.325
37.45000 264.384
37.46000 261.692
37.47000 258.994
37.48000 258.224
37.49000 259.319
37.50000 260.428
37.51000 262.724
37.52000 265.779
37.53000 268.511
37.54000 263.051
37.55000 254.023
37.56000 245.526
37.57000 245.082
37.58000 246.867
37.59000 248.443
37.60000 248.511
37.61000 248.279
37.62000 249.042
37.63000 254.430
37.64000 260.402
37.65000 265.002
37.66000 264.609
37.67000 264.012
37.68000 262.477
37.69000 258.934
37.70000 255.325
37.71000 254.865
37.72000 258.976
37.73000 263.125
37.74000 265.840
37.75000 267.190
37.76000 268.458
37.77000 263.174
37.78000 253.764
37.79000 244.797
37.80000 246.667
37.81000 253.189
37.82000 259.319
37.83000 257.728
37.84000 254.212
37.85000 251.141
37.86000 251.240
37.87000 251.958
37.88000 253.134
37.89000 256.406
37.90000 259.938
37.91000 262.648
37.92000 260.437
37.93000 258.416
37.94000 258.729
37.95000 263.962
37.96000 269.353
37.97000 270.903
37.98000 266.963
37.99000 262.982
38.00000 259.398
38.01000 256.189
38.02000 253.028
38.03000 253.406
38.04000 255.982
38.05000 258.526
38.06000 260.334
38.07000 261.831
38.08000 263.234
38.09000 258.370
38.10000 252.289
38.11000 247.037
38.12000 247.574
38.13000 249.225
38.14000 251.671
38.15000 257.694
38.16000 264.151
38.17000 269.088
38.18000 269.693
38.19000 269.935
38.20000 270.201
38.21000 270.514
38.22000 270.829
38.23000 269.823
38.24000 266.954
38.25000 264.073
38.26000 268.648
38.27000 280.075
38.28000 291.375
38.29000 293.771
38.30000 290.722
38.31000 287.814
38.32000 288.156
38.33000 289.854
38.34000 291.443
38.35000 294.552
38.36000 297.773
38.37000 300.819
38.38000 302.669
38.39000 304.292
38.40000 305.942
38.41000 307.712
38.42000 309.496
38.43000 310.855
38.44000 330.350
38.45000 346.652
38.46000 357.793
38.47000 358.366
38.48000 358.626
38.49000 368.054
38.50000 390.192
38.51000 412.405
38.52000 430.836
38.53000 445.832
38.54000 460.896
38.55000 480.506
38.56000 502.856
38.57000 525.648
38.58000 558.266
38.59000 594.925
38.60000 629.206
38.61000 654.858
38.62000 675.955
38.63000 698.854
38.64000 733.889
38.65000 771.184
38.66000 807.241
38.67000 837.886
38.68000 867.900
38.69000 890.667
38.70000 916.779
38.71000 937.464
38.72000 957.633
38.73000 976.765
38.74000 995.866
38.75000 1009.630
38.76000 1016.106
38.77000 1022.537
38.78000 1016.863
38.79000 1000.430
38.80000 983.944
38.81000 964.131
38.82000 942.343
38.83000 920.553
38.84000 898.723
38.85000 876.876
38.86000 856.479
38.87000 818.608
38.88000 779.900
38.89000 742.887
38.90000 717.089
38.91000 693.347
38.92000 666.747
38.93000 627.857
38.94000 587.560
38.95000 557.110
38.96000 527.570
38.97000 504.456
38.98000 482.281
38.99000 461.972
39.00000 441.715
39.01000 419.464
39.02000 394.535
39.03000 369.606
39.04000 357.704
39.05000 357.216
39.06000 356.530
39.07000 344.203
39.08000 325.067
39.09000 306.470
39.10000 299.157
39.11000 296.351
39.12000 293.735
39.13000 293.612
39.14000 294.113
39.15000 294.101
39.16000 290.741
39.17000 286.779
39.18000 283.009
39.19000 280.051
39.20000 277.184
39.21000 275.026
39.22000 265.909
39.23000 258.437
39.24000 254.653
39.25000 258.096
39.26000 261.729
39.27000 260.201
39.28000 251.843
39.29000 243.459
39.30000 239.389
39.31000 239.037
39.32000 238.734
39.33000 241.170
39.34000 245.184
39.35000 248.968
39.36000 248.068
39.37000 245.324
39.38000 242.771
39.39000 244.031
39.40000 246.092
39.41000 247.306
39.42000 243.107
39.43000 237.950
39.44000 234.932
39.45000 240.832
39.46000 247.715
39.47000 252.875
39.48000 242.794
39.49000 234.203
39.50000 231.171
39.51000 238.874
39.52000 246.849
39.53000 249.907
39.54000 246.561
39.55000 243.191
39.56000 241.773
39.57000 242.010
39.58000 242.209
39.59000 240.385
39.60000 237.413
39.61000 234.686
39.62000 236.806
39.63000 240.807
39.64000 244.524
39.65000 243.935
39.66000 242.379
39.67000 240.648
39.68000 237.828
39.69000 234.817
39.70000 232.304
39.71000 231.830
39.72000 231.576
39.73000 231.387
39.74000 225.546
39.75000 220.735
39.76000 219.579
39.77000 225.378
39.78000 231.345
39.79000 233.001
39.80000 229.127
39.81000 225.237
39.82000 221.643
39.83000 218.306
39.84000 215.127
39.85000 219.986
39.86000 229.341
39.87000 238.342
39.88000 240.558
39.89000 240.178
39.90000 239.827
39.91000 237.058
39.92000 234.000
39.93000 231.431
39.94000 231.883
39.95000 232.852
39.96000 234.403
39.97000 238.301
39.98000 242.448
39.99000 245.531
40.00000 237.180
40.01000 230.175
40.02000 226.168
40.03000 227.783
40.04000 229.528
40.05000 230.439
40.06000 230.299
40.07000 230.156
40.08000 229.218
40.09000 227.634
40.10000 226.062
40.11000 225.036
40.12000 224.313
40.13000 223.696
40.14000 225.076
40.15000 227.209
40.16000 229.183
40.17000 232.542
40.18000 235.879
40.19000 238.532
40.20000 237.029
40.21000 234.826
40.22000 231.753
40.23000 225.214
40.24000 218.315
40.25000 213.207
40.26000 224.840
40.27000 234.594
40.28000 238.844
40.29000 232.920
40.30000 226.772
40.31000 221.273
40.32000 216.579
40.33000 211.895
40.34000 213.171
40.35000 219.242
40.36000 225.262
40.37000 228.944
40.38000 231.356
40.39000 233.618
40.40000 233.173
40.41000 231.721
40.42000 230.380
40.43000 225.816
40.44000 220.990
40.45000 216.429
40.46000 213.455
40.47000 210.744
40.48000 209.083
40.49000 211.545
40.50000 214.426
40.51000 216.550
40.52000 217.758
40.53000 218.656
40.54000 218.064
40.55000 214.755
40.56000 211.390
40.57000 212.141
40.58000 217.926
40.59000 223.713
40.60000 225.159
40.61000 223.160
40.62000 221.217
40.63000 221.757
40.64000 223.628
40.65000 225.253
40.66000 222.569
40.67000 218.308
40.68000 214.377
40.69000 217.815
40.70000 222.534
40.71000 226.948
40.72000 229.571
40.73000 231.903
40.74000 232.053
40.75000 223.771
40.76000 214.652
40.77000 207.955
40.78000 216.930
40.79000 224.505
40.80000 226.526
40.81000 218.574
40.82000 210.422
40.83000 207.433
40.84000 210.660
40.85000 213.894
40.86000 214.749
40.87000 213.747
40.88000 212.750
40.89000 211.963
40.90000 211.287
40.91000 210.884
40.92000 215.175
40.93000 221.159
40.94000 226.669
40.95000 223.395
40.96000 218.547
40.97000 213.673
40.98000 208.659
40.99000 203.623
41.00000 201.163
41.01000 208.506
41.02000 216.804
41.03000 222.871
41.04000 224.635
41.05000 225.826
41.06000 224.959
41.07000 220.449
41.08000 215.870
41.09000 214.472
41.10000 216.844
41.11000 219.217
41.12000 220.130
41.13000 219.920
41.14000 219.605
41.15000 215.092
41.16000 208.394
41.17000 202.273
41.18000 205.750
41.19000 212.641
41.20000 218.973
41.21000 220.387
41.22000 220.592
41.23000 220.791
41.24000 220.957
41.25000 221.118
41.26000 221.339
41.27000 221.788
41.28000 222.259
41.29000 222.602
41.30000 212.890
41.31000 205.029
41.32000 201.308
41.33000 204.805
41.34000 208.432
41.35000 210.215
41.36000 209.848
41.37000 209.479
41.38000 208.233
41.39000 206.336
41.40000 204.576
41.41000 208.149
41.42000 214.455
41.43000 220.432
41.44000 221.079
41.45000 219.856
41.46000 218.735
41.47000 211.003
41.48000 202.714
41.49000 196.550
41.50000 202.232
41.51000 209.746
41.52000 215.729
41.53000 216.059
41.54000 215.861
41.55000 215.717
41.56000 208.346
41.57000 202.415
41.58000 199.395
41.59000 201.376
41.60000 203.443
41.61000 208.044
41.62000 215.551
41.63000 223.040
41.64000 222.816
41.65000 216.870
41.66000 211.028
41.67000 209.037
41.68000 208.991
41.69000 208.962
41.70000 209.193
41.71000 209.514
41.72000 209.808
41.73000 208.801
41.74000 207.634
41.75000 207.117
41.76000 210.168
41.77000 213.761
41.78000 215.467
41.79000 210.308
41.80000 204.521
41.81000 200.344
41.82000 203.234
41.83000 205.704
41.84000 207.039
41.85000 206.454
41.86000 205.839
41.87000 208.359
41.88000 214.418
41.89000 220.462
41.90000 219.446
41.91000 213.286
41.92000 207.284
41.93000 206.887
41.94000 209.281
41.95000 211.549
41.96000 211.874
41.97000 211.538
41.98000 211.230
41.99000 205.417
42.00000 199.130
42.01000 194.379
42.02000 197.915
42.03000 202.687
42.04000 206.616
42.05000 207.522
42.06000 208.157
42.07000 208.614
42.08000 206.700
42.09000 205.154
42.10000 205.068
42.11000 207.416
42.12000 209.803
42.13000 212.950
42.14000 216.943
42.15000 220.922
42.16000 221.751
42.17000 220.310
42.18000 218.710
42.19000 211.686
42.20000 202.001
42.21000 193.119
42.22000 196.306
42.23000 203.544
42.24000 210.145
42.25000 206.422
42.26000 201.049
42.27000 196.615
42.28000 197.159
42.29000 198.433
42.30000 200.014
42.31000 202.681
42.32000 205.442
42.33000 207.417
42.34000 210.954
42.35000 213.707
42.36000 214.132
42.37000 210.732
42.38000 207.277
42.39000 204.880
42.40000 203.638
42.41000 202.402
42.42000 205.818
42.43000 212.489
42.44000 218.816
42.45000 213.859
42.46000 203.445
42.47000 193.896
42.48000 197.021
42.49000 204.339
42.50000 210.998
42.51000 210.491
42.52000 208.627
42.53000 207.487
42.54000 210.121
42.55000 213.300
42.56000 214.841
42.57000 210.687
42.58000 206.046
42.59000 202.741
42.60000 201.359
42.61000 200.368
42.62000 199.266
42.63000 197.983
42.64000 196.698
42.65000 197.346
42.66000 200.068
42.67000 202.780
42.68000 203.968
42.69000 204.083
42.70000 204.177
42.71000 203.588
42.72000 202.672
42.73000 202.046
42.74000 205.559
42.75000 210.420
42.76000 214.836
42.77000 210.610
42.78000 205.201
42.79000 200.520
42.80000 199.583
42.81000 199.175
42.82000 199.874
42.83000 204.367
42.84000 209.178
42.85000 212.589
42.86000 209.341
42.87000 206.662
42.88000 205.619
42.89000 207.182
42.90000 208.780
42.91000 207.690
42.92000 203.760
42.93000 199.849
42.94000 199.826
42.95000 202.465
42.96000 204.939
42.97000 202.391
42.98000 197.483
42.99000 193.183
43.00000 197.347
43.01000 204.229
43.02000 210.468
43.03000 210.401
43.04000 209.141
43.05000 207.401
43.06000 203.239
43.07000 198.741
43.08000 195.063
43.09000 194.155
43.10000 193.474
43.11000 192.993
43.12000 200.172
43.13000 205.852
43.14000 208.036
43.15000 204.730
43.16000 201.358
43.17000 199.475
43.18000 199.140
43.19000 198.806
43.20000 196.471
43.21000 192.814
43.22000 189.272
43.23000 189.062
43.24000 190.396
43.25000 191.863
43.26000 195.155
43.27000 199.024
43.28000 202.524
43.29000 208.996
43.30000 215.249
43.31000 218.970
43.32000 210.095
43.33000 199.501
43.34000 191.341
43.35000 191.276
43.36000 191.857
43.37000 192.265
43.38000 193.858
43.39000 195.098
43.40000 197.967
43.41000 203.356
43.42000 208.773
43.43000 208.747
43.44000 203.162
43.45000 197.608
43.46000 196.616
43.47000 198.661
43.48000 200.635
43.49000 200.596
43.50000 199.638
43.51000 198.610
43.52000 196.643
43.53000 194.382
43.54000 192.342
43.55000 194.377
43.56000 196.915
43.57000 198.842
43.58000 197.781
43.59000 196.319
43.60000 195.260
43.61000 195.523
43.62000 195.890
43.63000 196.146
43.64000 196.330
43.65000 196.466
43.66000 197.903
43.67000 201.323
43.68000 204.763
43.69000 205.354
43.70000 203.082
43.71000 200.824
43.72000 195.880
43.73000 189.253
43.74000 182.892
43.75000 183.776
43.76000 187.917
43.77000 192.061
43.78000 196.223
43.79000 200.392
43.80000 204.147
43.81000 205.811
43.82000 206.893
43.83000 207.923
43.84000 208.703
43.85000 209.450
43.86000 209.378
43.87000 206.658
43.88000 203.736
43.89000 201.703
43.90000 198.999
43.91000 196.942
43.92000 195.431
43.93000 194.741
43.94000 194.059
43.95000 194.750
43.96000 196.799
43.97000 198.834
43.98000 199.020
43.99000 198.018
44.00000 197.022
44.01000 196.210
44.02000 195.480
44.03000 195.214
44.04000 200.839
44.05000 208.248
44.06000 214.908
44.07000 208.097
44.08000 199.741
44.09000 192.236
44.10000 188.766
44.11000 185.816
44.12000 184.376
44.13000 187.745
44.14000 191.471
44.15000 194.051
44.16000 184.972
44.17000 177.836
44.18000 176.774
44.19000 184.696
44.20000 192.701
44.21000 196.699
44.22000 196.808
44.23000 196.917
44.24000 198.914
44.25000 202.071
44.26000 205.161
44.27000 206.544
44.28000 207.180
44.29000 207.447
44.30000 203.140
44.31000 197.468
44.32000 192.380
44.33000 196.400
44.34000 201.501
44.35000 204.704
44.36000 199.045
44.37000 192.264
44.38000 187.558
44.39000 189.363
44.40000 191.640
44.41000 193.209
44.42000 199.082
44.43000 203.600
44.44000 204.148
44.45000 198.913
44.46000 193.630
44.47000 192.284
44.48000 194.699
44.49000 197.095
44.50000 199.205
44.51000 201.101
44.52000 202.834
44.53000 200.570
44.54000 196.584
44.55000 192.725
44.56000 190.391
44.57000 188.505
44.58000 186.818
44.59000 190.548
44.60000 194.731
44.61000 199.199
44.62000 204.972
44.63000 210.908
44.64000 215.094
44.65000 213.871
44.66000 212.265
44.67000 211.164
44.68000 203.023
44.69000 196.752
44.70000 195.458
44.71000 201.303
44.72000 207.203
44.73000 211.318
44.74000 213.757
44.75000 216.176
44.76000 215.927
44.77000 214.049
44.78000 212.209
44.79000 211.249
44.80000 210.663
44.81000 210.811
44.82000 219.638
44.83000 230.979
44.84000 241.108
44.85000 236.005
44.86000 228.998
44.87000 223.657
44.88000 225.848
44.89000 228.958
44.90000 230.293
44.91000 226.224
44.92000 221.781
44.93000 218.749
44.94000 229.338
44.95000 237.573
44.96000 241.580
44.97000 239.614
44.98000 237.607
44.99000 239.164
45.00000 244.014
45.01000 248.822
45.02000 254.570
45.03000 260.774
45.04000 266.895
45.05000 271.082
45.06000 274.459
45.07000 277.764
45.08000 280.227
45.09000 282.451
45.10000 284.432
45.11000 277.484
45.12000 269.967
45.13000 265.443
45.14000 274.244
45.15000 284.639
45.16000 292.086
45.17000 290.686
45.18000 288.689
45.19000 287.333
45.20000 287.058
45.21000 286.876
45.22000 285.734
45.23000 283.255
45.24000 280.768
45.25000 279.022
45.26000 277.951
45.27000 276.890
45.28000 279.745
45.29000 284.863
45.30000 289.757
45.31000 289.632
45.32000 287.437
45.33000 285.001
45.34000 279.850
45.35000 273.934
45.36000 268.674
45.37000 263.094
45.38000 258.199
45.39000 255.280
45.40000 261.025
45.41000 267.787
45.42000 272.779
45.43000 272.535
45.44000 271.948
45.45000 271.551
45.46000 263.210
45.47000 256.829
45.48000 254.369
45.49000 257.279
45.50000 260.217
45.51000 256.445
45.52000 246.679
45.53000 237.008
45.54000 236.619
45.55000 241.647
45.56000 246.521
45.57000 248.025
45.58000 248.160
45.59000 248.002
45.60000 244.611
45.61000 240.324
45.62000 236.521
45.63000 234.089
45.64000 232.201
45.65000 230.315
45.66000 228.436
45.67000 226.559
45.68000 224.564
45.69000 222.226
45.70000 219.865
45.71000 218.279
45.72000 222.426
45.73000 225.624
45.74000 227.106
45.75000 226.272
45.76000 225.424
45.77000 222.634
45.78000 218.136
45.79000 213.686
45.80000 211.804
45.81000 211.438
45.82000 211.284
45.83000 215.599
45.84000 221.705
45.85000 226.968
45.86000 223.111
45.87000 216.764
45.88000 211.146
45.89000 210.976
45.90000 211.681
45.91000 211.266
45.92000 206.096
45.93000 200.389
45.94000 195.580
45.95000 193.353
45.96000 191.287
45.97000 189.906
45.98000 200.075
45.99000 207.840
46.00000 209.385
46.01000 202.667
46.02000 195.915
46.03000 193.277
46.04000 194.197
46.05000 195.108
46.06000 190.980
46.07000 184.102
46.08000 177.784
46.09000 182.900
46.10000 192.533
46.11000 201.318
46.12000 201.122
46.13000 198.512
46.14000 196.207
46.15000 193.007
46.16000 190.108
46.17000 187.883
46.18000 188.485
46.19000 189.399
46.20000 188.998
46.21000 184.869
46.22000 180.514
46.23000 177.617
46.24000 187.093
46.25000 194.335
46.26000 196.764
46.27000 192.897
46.28000 189.004
46.29000 185.495
46.30000 182.313
46.31000 179.168
46.32000 179.532
46.33000 181.837
46.34000 183.951
46.35000 182.263
46.36000 179.095
46.37000 176.365
46.38000 178.174
46.39000 181.185
46.40000 183.837
46.41000 178.567
46.42000 172.833
46.43000 168.380
46.44000 169.207
46.45000 170.607
46.46000 172.164
46.47000 174.159
46.48000 176.180
46.49000 177.517
46.50000 168.297
46.51000 161.301
46.52000 158.542
46.53000 161.234
46.54000 163.949
46.55000 167.313
46.56000 171.222
46.57000 175.082
46.58000 177.741
46.59000 179.676
46.60000 181.344
46.61000 177.877
46.62000 172.440
46.63000 167.774
46.64000 170.944
46.65000 176.159
46.66000 180.742
46.67000 183.562
46.68000 185.727
46.69000 186.699
46.70000 182.827
46.71000 178.440
46.72000 175.307
46.73000 175.621
46.74000 176.133
46.75000 176.471
46.76000 168.019
46.77000 161.643
46.78000 160.525
46.79000 166.068
46.80000 171.623
46.81000 172.757
46.82000 170.247
46.83000 167.769
46.84000 170.209
46.85000 175.231
46.86000 180.002
46.87000 180.064
46.88000 178.344
46.89000 176.627
46.90000 174.929
46.91000 173.235
46.92000 171.750
46.93000 172.930
46.94000 174.329
46.95000 174.643
46.96000 170.621
46.97000 166.147
46.98000 163.635
46.99000 166.444
47.00000 169.552
47.01000 171.586
47.02000 165.002
47.03000 160.023
47.04000 160.369
47.05000 167.357
47.06000 174.352
47.07000 176.243
47.08000 173.995
47.09000 171.777
47.10000 169.697
47.11000 167.746
47.12000 165.898
47.13000 165.910
47.14000 166.617
47.15000 167.357
47.16000 168.420
47.17000 169.565
47.18000 170.567
47.19000 172.614
47.20000 174.517
47.21000 176.252
47.22000 177.323
47.23000 178.326
47.24000 178.440
47.25000 176.180
47.26000 173.791
47.27000 172.235
47.28000 163.313
47.29000 156.656
47.30000 155.360
47.31000 160.646
47.32000 165.942
47.33000 169.336
47.34000 171.212
47.35000 173.060
47.36000 168.826
47.37000 161.543
47.38000 154.984
47.39000 161.234
47.40000 172.189
47.41000 181.842
47.42000 179.058
47.43000 173.175
47.44000 168.041
47.45000 166.312
47.46000 165.310
47.47000 164.505
47.48000 164.470
47.49000 164.512
47.50000 165.704
47.51000 169.922
47.52000 174.301
47.53000 177.136
47.54000 171.339
47.55000 166.969
47.56000 165.452
47.57000 167.381
47.58000 169.310
47.59000 169.391
47.60000 168.017
47.61000 166.665
47.62000 164.770
47.63000 162.654
47.64000 160.685
47.65000 161.258
47.66000 162.751
47.67000 164.183
47.68000 165.050
47.69000 165.778
47.70000 166.412
47.71000 165.559
47.72000 164.627
47.73000 163.689
47.74000 162.727
47.75000 161.762
47.76000 161.382
47.77000 162.524
47.78000 163.743
47.79000 164.529
47.80000 167.526
47.81000 169.746
47.82000 168.456
47.83000 162.996
47.84000 157.544
47.85000 156.296
47.86000 158.300
47.87000 160.272
47.88000 161.061
47.89000 161.227
47.90000 161.317
47.91000 160.134
47.92000 158.496
47.93000 157.262
47.94000 159.744
47.95000 163.124
47.96000 166.058
47.97000 165.621
47.98000 164.795
47.99000 163.856
48.00000 162.492
48.01000 161.087
48.02000 160.623
48.03000 162.564
48.04000 164.625
48.05000 165.945
48.06000 160.468
48.07000 156.387
48.08000 154.697
48.09000 155.804
48.10000 156.908
48.11000 156.394
48.12000 154.649
48.13000 152.932
48.14000 153.269
48.15000 154.615
48.16000 156.029
48.17000 158.543
48.18000 161.443
48.19000 163.802
48.20000 161.289
48.21000 157.616
48.22000 154.435
48.23000 160.974
48.24000 167.821
48.25000 171.878
48.26000 165.602
48.27000 158.357
48.28000 154.180
48.29000 157.742
48.30000 161.680
48.31000 164.187
48.32000 160.971
48.33000 158.561
48.34000 158.540
48.35000 161.270
48.36000 163.983
48.37000 162.552
48.38000 158.012
48.39000 153.551
48.40000 154.151
48.41000 157.207
48.42000 159.997
48.43000 158.551
48.44000 155.637
48.45000 153.668
48.46000 160.036
48.47000 168.358
48.48000 175.547
48.49000 169.652
48.50000 162.953
48.51000 158.126
48.52000 160.135
48.53000 162.770
48.54000 164.499
48.55000 163.975
48.56000 163.345
48.57000 162.946
48.58000 159.955
48.59000 157.755
48.60000 158.408
48.61000 162.292
48.62000 166.165
48.63000 167.506
48.64000 166.978
48.65000 166.458
48.66000 160.743
48.67000 152.725
48.68000 145.272
48.69000 146.562
48.70000 150.839
48.71000 154.629
48.72000 154.210
48.73000 152.820
48.74000 151.623
48.75000 154.316
48.76000 157.092
48.77000 159.193
48.78000 158.868
48.79000 158.324
48.80000 157.440
48.81000 155.723
48.82000 153.968
48.83000 152.863
48.84000 157.902
48.85000 161.617
48.86000 162.831
48.87000 161.257
48.88000 159.668
48.89000 155.997
48.90000 150.811
48.91000 145.724
48.92000 148.910
48.93000 155.903
48.94000 162.436
48.95000 162.032
48.96000 159.291
48.97000 157.031
48.98000 158.843
48.99000 161.580
49.00000 163.932
49.01000 161.060
49.02000 157.979
49.03000 155.615
49.04000 155.791
49.05000 156.191
49.06000 156.879
49.07000 158.266
49.08000 159.684
49.09000 160.571
49.10000 160.852
49.11000 161.049
49.12000 160.443
49.13000 158.956
49.14000 157.457
49.15000 154.193
49.16000 149.664
49.17000 145.226
49.18000 146.144
49.19000 149.526
49.20000 152.869
49.21000 155.631
49.22000 158.199
49.23000 160.757
49.24000 163.230
49.25000 165.685
49.26000 167.789
49.27000 168.831
49.28000 169.581
49.29000 168.760
49.30000 162.452
49.31000 155.673
49.32000 150.790
49.33000 150.423
49.34000 150.249
49.35000 150.141
49.36000 151.787
49.37000 152.990
49.38000 154.340
49.39000 155.850
49.40000 157.375
49.41000 161.100
49.42000 166.375
49.43000 171.540
49.44000 170.181
49.45000 165.878
49.46000 161.705
49.47000 159.394
49.48000 157.691
49.49000 156.172
49.50000 156.156
49.51000 156.472
49.52000 156.742
49.53000 155.350
49.54000 153.977
49.55000 153.054
49.56000 153.678
49.57000 154.431
49.58000 155.116
49.59000 155.640
49.60000 156.157
49.61000 156.477
49.62000 161.192
49.63000 164.621
49.64000 164.057
49.65000 159.258
49.66000 154.475
49.67000 151.737
49.68000 150.420
49.69000 149.132
49.70000 149.034
49.71000 149.478
49.72000 149.841
49.73000 149.064
49.74000 147.921
49.75000 146.959
49.76000 147.446
49.77000 148.247
49.78000 148.929
49.79000 146.211
49.80000 143.525
49.81000 142.845
49.82000 148.960
49.83000 155.633
49.84000 159.344
49.85000 156.205
49.86000 152.790
49.87000 150.692
49.88000 155.444
49.89000 158.912
49.90000 160.367
49.91000 159.722
49.92000 159.072
49.93000 157.817
49.94000 156.148
49.95000 154.516
49.96000 154.291
49.97000 154.701
49.98000 155.314
49.99000 158.707
50.00000 162.981
50.01000 166.086
50.02000 160.002
50.03000 151.957
50.04000 145.118
50.05000 140.844
50.06000 137.550
50.07000 136.353
50.08000 142.155
50.09000 148.518
50.10000 153.577
50.11000 155.662
50.12000 157.631
50.13000 158.835
50.14000 155.540
50.15000 153.147
50.16000 153.737
50.17000 157.386
50.18000 161.024
50.19000 163.496
50.20000 165.183
50.21000 166.829
50.22000 165.750
50.23000 163.524
50.24000 161.245
50.25000 158.275
50.26000 155.088
50.27000 152.145
50.28000 151.089
50.29000 150.430
50.30000 149.871
50.31000 148.697
50.32000 147.643
50.33000 147.794
50.34000 151.907
50.35000 156.330
50.36000 159.399
50.37000 159.426
50.38000 159.339
50.39000 159.286
50.40000 160.501
50.41000 161.378
50.42000 162.031
50.43000 162.457
50.44000 162.884
50.45000 163.377
50.46000 163.914
50.47000 164.438
50.48000 167.269
50.49000 170.967
50.50000 174.534
50.51000 176.385
50.52000 177.708
50.53000 179.092
50.54000 180.942
50.55000 182.889
50.56000 184.535
50.57000 186.471
50.58000 188.123
50.59000 190.124
50.60000 193.256
50.61000 196.475
50.62000 199.061
50.63000 200.248
50.64000 201.384
50.65000 202.070
50.66000 211.374
50.67000 218.059
50.68000 220.318
50.69000 218.189
50.70000 216.082
50.71000 215.963
50.72000 217.143
50.73000 218.293
50.74000 222.916
50.75000 228.801
50.76000 234.038
50.77000 231.010
50.78000 225.471
50.79000 220.581
50.80000 220.520
50.81000 221.440
50.82000 222.216
50.83000 223.152
50.84000 223.951
50.85000 224.150
50.86000 222.430
50.87000 220.567
50.88000 218.754
50.89000 217.049
50.90000 215.347
50.91000 214.327
50.92000 214.475
50.93000 214.587
50.94000 209.297
50.95000 198.740
50.96000 188.292
50.97000 187.196
50.98000 192.120
50.99000 196.915
51.00000 195.706
51.01000 192.046
51.02000 188.334
51.03000 183.955
51.04000 179.377
51.05000 175.438
51.06000 176.164
51.07000 177.823
51.08000 179.218
51.09000 174.839
51.10000 170.577
51.11000 166.641
51.12000 163.731
51.13000 160.896
51.14000 159.909
51.15000 162.900
51.16000 166.025
51.17000 167.887
51.18000 167.252
51.19000 166.787
51.20000 164.898
51.21000 161.645
51.22000 158.364
51.23000 152.742
51.24000 145.636
51.25000 138.723
51.26000 144.247
51.27000 154.615
51.28000 164.157
51.29000 163.646
51.30000 160.170
51.31000 156.975
51.32000 155.786
51.33000 154.992
51.34000 154.327
51.35000 154.007
51.36000 153.777
51.37000 153.354
51.38000 152.334
51.39000 151.271
51.40000 150.851
51.41000 151.793
51.42000 152.779
51.43000 153.363
51.44000 153.899
51.45000 154.278
51.46000 155.889
51.47000 158.662
51.48000 161.392
51.49000 160.853
51.50000 158.273
51.51000 155.766
51.52000 155.218
51.53000 155.490
51.54000 155.851
51.55000 157.270
51.56000 158.996
51.57000 159.981
51.58000 155.760
51.59000 150.530
51.60000 146.158
51.61000 149.173
51.62000 152.427
51.63000 153.659
51.64000 148.714
51.65000 143.339
51.66000 141.628
51.67000 147.575
51.68000 153.763
51.69000 157.402
51.70000 148.398
51.71000 141.985
51.72000 139.277
51.73000 140.005
51.74000 140.748
51.75000 142.585
51.76000 145.094
51.77000 147.529
51.78000 148.189
51.79000 148.109
51.80000 147.984
51.81000 147.346
51.82000 146.560
51.83000 145.536
51.84000 142.870
51.85000 139.890
51.86000 137.407
51.87000 142.493
51.88000 147.463
51.89000 150.150
51.90000 145.962
51.91000 141.309
51.92000 138.131
51.93000 137.995
51.94000 137.950
51.95000 137.924
51.96000 144.963
51.97000 149.946
51.98000 150.492
51.99000 146.991
52.00000 143.544
52.01000 143.749
52.02000 146.169
52.03000 148.515
52.04000 146.920
52.05000 143.865
52.06000 141.111
52.07000 141.786
52.08000 143.428
52.09000 144.499
52.10000 141.694
52.11000 138.161
52.12000 135.226
52.13000 139.159
52.14000 143.082
52.15000 146.093
52.16000 146.398
52.17000 146.523
52.18000 147.824
52.19000 151.512
52.20000 155.270
52.21000 157.451
52.22000 152.704
52.23000 149.344
52.24000 146.455
52.25000 143.989
52.26000 141.543
52.27000 140.426
52.28000 140.101
52.29000 139.787
52.30000 139.046
52.31000 138.181
52.32000 137.371
52.33000 137.162
52.34000 137.121
52.35000 137.165
52.36000 137.780
52.37000 138.501
52.38000 139.098
52.39000 137.177
52.40000 135.351
52.41000 134.969
52.42000 138.809
52.43000 142.922
52.44000 145.067
52.45000 143.275
52.46000 141.373
52.47000 140.277
52.48000 142.021
52.49000 143.254
52.50000 144.594
52.51000 146.028
52.52000 147.443
52.53000 147.696
52.54000 147.266
52.55000 146.849
52.56000 147.767
52.57000 149.141
52.58000 150.307
52.59000 149.214
52.60000 147.502
52.61000 146.019
52.62000 146.035
52.63000 146.323
52.64000 146.561
52.65000 143.662
52.66000 140.981
52.67000 138.331
52.68000 135.773
52.69000 133.222
52.70000 133.431
52.71000 139.085
52.72000 144.885
52.73000 148.206
52.74000 137.687
52.75000 130.300
52.76000 129.034
52.77000 133.082
52.78000 137.117
52.79000 140.399
52.80000 143.244
52.81000 145.994
52.82000 147.695
52.83000 148.907
52.84000 149.808
52.85000 147.394
52.86000 144.087
52.87000 141.061
52.88000 139.845
52.89000 138.952
52.90000 138.217
52.91000 136.605
52.92000 135.199
52.93000 134.480
52.94000 135.712
52.95000 137.064
52.96000 138.944
52.97000 141.851
52.98000 144.784
52.99000 146.451
53.00000 143.168
53.01000 140.867
53.02000 139.221
53.03000 138.136
53.04000 137.087
53.05000 138.013
53.06000 140.069
53.07000 142.053
53.08000 142.374
53.09000 142.064
53.10000 141.682
53.11000 140.538
53.12000 139.193
53.13000 138.050
53.14000 138.189
53.15000 138.554
53.16000 138.853
53.17000 137.791
53.18000 136.798
53.19000 136.666
53.20000 138.945
53.21000 141.367
53.22000 143.247
53.23000 144.088
53.24000 144.903
53.25000 145.363
53.26000 145.888
53.27000 146.250
53.28000 145.300
53.29000 143.245
53.30000 141.257
53.31000 142.694
53.32000 146.061
53.33000 149.306
53.34000 147.845
53.35000 144.767
53.36000 142.763
53.37000 151.733
53.38000 163.573
53.39000 173.239
53.40000 169.382
53.41000 163.190
53.42000 158.122
53.43000 154.941
53.44000 152.498
53.45000 150.697
53.46000 150.662
53.47000 150.730
53.48000 151.823
53.49000 154.850
53.50000 157.923
53.51000 159.645
53.52000 151.867
53.53000 146.456
53.54000 143.228
53.55000 141.805
53.56000 140.482
53.57000 144.113
53.58000 150.493
53.59000 156.636
53.60000 155.949
53.61000 152.872
53.62000 150.017
53.63000 149.389
53.64000 149.334
53.65000 149.460
53.66000 150.687
53.67000 152.101
53.68000 153.254
53.69000 152.331
53.70000 151.399
53.71000 149.834
53.72000 146.550
53.73000 143.169
53.74000 142.263
53.75000 145.961
53.76000 149.762
53.77000 151.878
53.78000 148.429
53.79000 146.030
53.80000 142.359
53.81000 137.654
53.82000 133.054
53.83000 133.357
53.84000 136.341
53.85000 139.211
53.86000 143.688
53.87000 148.447
53.88000 152.341
53.89000 147.765
53.90000 141.039
53.91000 135.029
53.92000 133.322
53.93000 132.334
53.94000 131.531
53.95000 131.537
53.96000 131.609
53.97000 132.433
53.98000 135.272
53.99000 138.221
54.00000 139.595
54.01000 138.081
54.02000 136.506
54.03000 135.635
54.04000 140.617
54.05000 144.057
54.06000 144.994
54.07000 143.925
54.08000 142.841
54.09000 141.118
54.10000 139.049
54.11000 137.062
54.12000 137.111
54.13000 137.859
54.14000 138.802
54.15000 141.621
54.16000 144.908
54.17000 147.365
54.18000 144.913
54.19000 141.656
54.20000 139.016
54.21000 133.392
54.22000 128.566
54.23000 126.245
54.24000 130.544
54.25000 135.197
54.26000 137.711
54.27000 136.360
54.28000 134.930
54.29000 134.146
54.30000 135.910
54.31000 137.127
54.32000 137.909
54.33000 138.349
54.34000 138.759
54.35000 137.904
54.36000 136.379
54.37000 134.915
54.38000 137.454
54.39000 141.185
54.40000 144.418
54.41000 142.981
54.42000 140.392
54.43000 138.124
54.44000 137.713
54.45000 137.602
54.46000 137.513
54.47000 139.677
54.48000 141.617
54.49000 142.033
54.50000 138.479
54.51000 134.720
54.52000 134.845
54.53000 141.886
54.54000 149.061
54.55000 152.968
54.56000 149.594
54.57000 147.270
54.58000 145.061
54.59000 142.941
54.60000 140.838
54.61000 139.441
54.62000 138.413
54.63000 137.427
54.64000 138.947
54.65000 141.201
54.66000 143.087
54.67000 141.588
54.68000 139.268
54.69000 137.402
54.70000 138.127
54.71000 139.264
54.72000 140.179
54.73000 141.543
54.74000 142.685
54.75000 143.956
54.76000 145.560
54.77000 147.181
54.78000 146.327
54.79000 141.134
54.80000 135.860
54.81000 133.009
54.82000 134.431
54.83000 135.414
54.84000 137.658
54.85000 140.864
54.86000 144.003
54.87000 144.513
54.88000 143.667
54.89000 142.858
54.90000 141.185
54.91000 139.342
54.92000 137.537
54.93000 136.072
54.94000 134.689
54.95000 133.862
54.96000 136.164
54.97000 138.954
54.98000 141.193
54.99000 144.268
55.00000 146.823
55.01000 147.919
55.02000 145.326
55.03000 142.553
55.04000 142.033
55.05000 145.407
55.06000 148.849
55.07000 150.695
55.08000 146.218
55.09000 143.158
55.10000 140.376
55.11000 137.804
55.12000 135.347
55.13000 137.251
55.14000 141.370
55.15000 145.307
55.16000 145.060
55.17000 143.478
55.18000 142.231
55.19000 143.960
55.20000 146.390
55.21000 148.455
55.22000 148.505
55.23000 148.246
55.24000 148.039
55.25000 145.877
55.26000 143.982
55.27000 143.375
55.28000 145.975
55.29000 148.728
55.30000 149.422
55.31000 146.611
55.32000 143.742
55.33000 142.214
55.34000 146.250
55.35000 148.993
55.36000 150.214
55.37000 150.308
55.38000 150.438
55.39000 151.895
55.40000 154.017
55.41000 156.041
55.42000 155.414
55.43000 153.986
55.44000 152.847
55.45000 154.206
55.46000 156.144
55.47000 157.916
55.48000 158.792
55.49000 159.534
55.50000 160.125
55.51000 165.196
55.52000 169.614
55.53000 172.398
55.54000 171.164
55.55000 169.746
55.56000 170.325
55.57000 174.252
55.58000 178.233
55.59000 180.335
55.60000 179.236
55.61000 178.516
55.62000 182.514
55.63000 189.952
55.64000 197.326
55.65000 202.448
55.66000 206.459
55.67000 210.282
55.68000 210.638
55.69000 209.883
55.70000 209.621
55.71000 213.562
55.72000 218.460
55.73000 224.527
55.74000 236.837
55.75000 250.069
55.76000 260.583
55.77000 271.295
55.78000 279.937
55.79000 290.626
55.80000 306.279
55.81000 322.154
55.82000 337.118
55.83000 350.576
55.84000 364.011
55.85000 371.050
55.86000 389.590
55.87000 402.161
55.88000 416.428
55.89000 431.913
55.90000 447.283
55.91000 458.836
55.92000 468.532
55.93000 477.761
55.94000 492.995
55.95000 508.946
55.96000 523.818
55.97000 529.677
55.98000 533.513
55.99000 538.086
56.00000 546.541
56.01000 555.559
56.02000 562.700
56.03000 557.361
56.04000 552.204
56.05000 546.558
56.06000 539.743
56.07000 532.878
56.08000 526.562
56.09000 521.141
56.10000 515.733
56.11000 512.922
56.12000 506.691
56.13000 502.442
56.14000 492.602
56.15000 478.806
56.16000 465.226
56.17000 458.544
56.18000 455.172
56.19000 451.967
56.20000 436.585
56.21000 418.678
56.22000 401.354
56.23000 388.801
56.24000 377.302
56.25000 364.856
56.26000 347.512
56.27000 329.470
56.28000 315.234
56.29000 303.476
56.30000 294.211
56.31000 284.414
56.32000 273.362
56.33000 262.258
56.34000 255.870
56.35000 257.053
56.36000 258.336
56.37000 258.998
56.38000 237.368
56.39000 222.849
56.40000 215.234
56.41000 212.429
56.42000 209.576
56.43000 205.265
56.44000 200.264
56.45000 195.517
56.46000 192.579
56.47000 190.408
56.48000 188.637
56.49000 190.081
56.50000 192.224
56.51000 192.719
56.52000 184.826
56.53000 175.758
56.54000 168.628
56.55000 167.445
56.56000 166.891
56.57000 166.061
56.58000 164.594
56.59000 163.101
56.60000 162.014
56.61000 161.571
56.62000 161.136
56.63000 160.914
56.64000 153.773
56.65000 149.028
56.66000 150.482
56.67000 156.189
56.68000 161.694
56.69000 161.214
56.70000 157.946
56.71000 154.849
56.72000 154.159
56.73000 154.229
56.74000 154.002
56.75000 151.420
56.76000 148.335
56.77000 145.925
56.78000 146.896
56.79000 148.332
56.80000 149.456
56.81000 148.935
56.82000 148.412
56.83000 148.078
56.84000 148.177
56.85000 148.293
56.86000 147.746
56.87000 146.167
56.88000 144.575
56.89000 143.768
56.90000 139.497
56.91000 136.643
56.92000 134.676
56.93000 133.308
56.94000 132.035
56.95000 133.517
56.96000 136.264
56.97000 138.863
56.98000 137.833
56.99000 135.839
57.00000 134.097
57.01000 134.308
57.02000 134.932
57.03000 135.496
57.04000 135.769
57.05000 136.002
57.06000 136.184
57.07000 139.877
57.08000 143.043
57.09000 143.454
57.10000 137.653
57.11000 131.617
57.12000 128.589
57.13000 130.176
57.14000 131.813
57.15000 132.636
57.16000 129.273
57.17000 127.046
57.18000 126.791
57.19000 127.849
57.20000 128.897
57.21000 129.665
57.22000 130.307
57.23000 130.914
57.24000 128.902
57.25000 126.310
57.26000 123.948
57.27000 123.326
57.28000 123.064
57.29000 123.325
57.30000 126.115
57.31000 129.241
57.32000 131.672
57.33000 131.562
57.34000 131.319
57.35000 129.523
57.36000 124.274
57.37000 118.899
57.38000 117.187
57.39000 121.012
57.40000 124.893
57.41000 126.466
57.42000 125.743
57.43000 125.050
57.44000 127.176
57.45000 131.151
57.46000 134.932
57.47000 133.526
57.48000 129.807
57.49000 126.297
57.50000 125.191
57.51000 124.848
57.52000 124.363
57.53000 122.818
57.54000 121.057
57.55000 119.941
57.56000 121.902
57.57000 124.263
57.58000 126.093
57.59000 127.411
57.60000 128.428
57.61000 130.359
57.62000 134.294
57.63000 138.300
57.64000 139.977
57.65000 138.190
57.66000 136.370
57.67000 133.667
57.68000 130.101
57.69000 126.544
57.70000 123.793
57.71000 121.564
57.72000 119.487
57.73000 121.353
57.74000 124.953
57.75000 128.344
57.76000 129.823
57.77000 130.651
57.78000 131.031
57.79000 128.131
57.80000 124.572
57.81000 121.646
57.82000 121.695
57.83000 122.124
57.84000 122.455
57.85000 127.028
57.86000 130.900
57.87000 132.071
57.88000 127.413
57.89000 122.555
57.90000 119.402
57.91000 118.748
57.92000 118.116
57.93000 118.994
57.94000 121.324
57.95000 123.615
57.96000 122.621
57.97000 119.538
57.98000 116.568
57.99000 116.418
58.00000 117.490
58.01000 118.498
58.02000 120.063
58.03000 121.644
58.04000 122.971
58.05000 122.472
58.06000 121.612
58.07000 121.456
58.08000 124.559
58.09000 128.069
58.10000 130.770
58.11000 130.817
58.12000 130.705
58.13000 130.014
58.14000 128.092
58.15000 126.129
58.16000 126.003
58.17000 128.530
58.18000 131.077
58.19000 129.898
58.20000 125.196
58.21000 120.559
58.22000 121.020
58.23000 124.675
58.24000 128.176
58.25000 127.945
58.26000 126.121
58.27000 124.408
58.28000 124.077
58.29000 124.143
58.30000 124.421
58.31000 126.198
58.32000 128.266
58.33000 129.903
58.34000 129.572
58.35000 129.000
58.36000 128.561
58.37000 122.873
58.38000 118.091
58.39000 115.343
58.40000 116.861
58.41000 118.514
58.42000 119.377
58.43000 119.115
58.44000 118.846
58.45000 120.420
58.46000 123.707
58.47000 126.956
58.48000 127.397
58.49000 126.104
58.50000 124.983
58.51000 127.901
58.52000 132.519
58.53000 136.849
58.54000 133.753
58.55000 128.992
58.56000 125.309
58.57000 129.103
58.58000 134.328
58.59000 137.729
58.60000 132.954
58.61000 127.192
58.62000 122.794
58.63000 120.609
58.64000 119.006
58.65000 117.515
58.66000 116.259
58.67000 115.009
58.68000 114.842
58.69000 116.190
58.70000 117.548
58.71000 120.415
58.72000 124.658
58.73000 128.818
58.74000 127.239
58.75000 122.167
58.76000 117.335
58.77000 117.927
58.78000 120.770
58.79000 123.431
58.80000 123.759
58.81000 123.456
58.82000 123.314
58.83000 124.269
58.84000 125.430
58.85000 126.351
58.86000 126.209
58.87000 125.942
58.88000 125.739
58.89000 122.258
58.90000 119.348
58.91000 118.912
58.92000 123.513
58.93000 128.262
58.94000 130.946
58.95000 130.784
58.96000 130.604
58.97000 130.104
58.98000 129.316
58.99000 128.527
59.00000 127.718
59.01000 126.896
59.02000 126.057
59.03000 124.835
59.04000 123.455
59.05000 122.166
59.06000 124.143
59.07000 126.764
59.08000 128.707
59.09000 126.116
59.10000 122.686
59.11000 120.299
59.12000 122.452
59.13000 125.131
59.14000 127.160
59.15000 123.074
59.16000 119.554
59.17000 117.597
59.18000 118.775
59.19000 120.041
59.20000 120.872
59.21000 121.113
59.22000 121.351
59.23000 120.715
59.24000 119.309
59.25000 117.930
59.26000 118.268
59.27000 119.619
59.28000 120.954
59.29000 121.926
59.30000 122.753
59.31000 123.524
59.32000 124.212
59.33000 124.815
59.34000 124.958
59.35000 122.074
59.36000 118.638
59.37000 115.775
59.38000 115.366
59.39000 115.237
59.40000 115.139
59.41000 118.232
59.42000 120.814
59.43000 121.006
59.44000 116.471
59.45000 111.808
59.46000 110.985
59.47000 115.298
59.48000 119.634
59.49000 120.437
59.50000 118.166
59.51000 115.949
59.52000 116.835
59.53000 119.526
59.54000 122.179
59.55000 124.041
59.56000 125.589
59.57000 127.030
59.58000 125.914
59.59000 124.278
59.60000 122.361
59.61000 118.629
59.62000 114.571
59.63000 111.592
59.64000 113.158
59.65000 115.232
59.66000 116.791
59.67000 115.646
59.68000 114.622
59.69000 114.423
59.70000 115.836
59.71000 117.290
59.72000 118.095
59.73000 118.043
59.74000 117.988
59.75000 117.772
59.76000 117.419
59.77000 117.085
59.78000 117.778
59.79000 119.059
59.80000 120.254
59.81000 119.718
59.82000 118.503
59.83000 117.373
59.84000 120.119
59.85000 123.532
59.86000 126.277
59.87000 124.786
59.88000 122.549
59.89000 120.065
59.90000 116.563
59.91000 112.949
59.92000 110.243
59.93000 120.184
59.94000 128.531
59.95000 131.724
59.96000 125.012
59.97000 118.055
59.98000 114.663
59.99000 115.892
60.00000 117.138
60.01000 118.411
60.02000 119.704
60.03000 120.983
60.04000 121.538
60.05000 121.683
60.06000 121.843
60.07000 122.279
60.08000 122.823
60.09000 123.327
60.10000 124.047
60.11000 124.746
60.12000 125.473
60.13000 126.375
60.14000 127.307
60.15000 127.731
60.16000 126.077
60.17000 124.201
60.18000 122.802
60.19000 125.326
60.20000 127.470
60.21000 127.700
60.22000 124.304
60.23000 120.822
60.24000 118.971
60.25000 119.201
60.26000 119.438
60.27000 116.615
60.28000 111.270
60.29000 106.103
60.30000 109.825
60.31000 118.496
60.32000 126.790
60.33000 127.949
60.34000 126.392
60.35000 124.949
60.36000 127.379
60.37000 130.467
60.38000 132.367
60.39000 126.982
60.40000 120.356
60.41000 114.924
60.42000 114.291
60.43000 114.162
60.44000 114.066
60.45000 117.505
60.46000 120.333
60.47000 122.171
60.48000 122.161
60.49000 122.110
60.50000 121.287
60.51000 119.496
60.52000 117.705
60.53000 116.426
60.54000 115.569
60.55000 114.719
60.56000 114.196
60.57000 113.852
60.58000 113.524
60.59000 113.462
60.60000 113.500
60.61000 113.535
60.62000 118.591
60.63000 124.282
60.64000 128.890
60.65000 126.969
60.66000 123.955
60.67000 121.106
60.68000 118.911
60.69000 116.784
60.70000 115.212
60.71000 116.879
60.72000 118.311
60.73000 119.636
60.74000 120.763
60.75000 121.885
60.76000 121.777
60.77000 120.150
60.78000 118.521
60.79000 119.262
60.80000 121.896
60.81000 124.555
60.82000 128.324
60.83000 132.693
60.84000 136.839
60.85000 137.010
60.86000 135.710
60.87000 134.511
60.88000 128.017
60.89000 121.002
60.90000 115.315
60.91000 117.497
60.92000 120.974
60.93000 124.038
60.94000 125.487
60.95000 126.774
60.96000 127.722
60.97000 127.344
60.98000 126.996
60.99000 126.277
61.00000 124.883
61.01000 123.476
61.02000 122.274
61.03000 121.320
61.04000 120.369
61.05000 119.835
61.06000 119.631
61.07000 119.488
61.08000 121.994
61.09000 125.910
61.10000 129.462
61.11000 126.671
61.12000 121.567
61.13000 116.864
61.14000 117.967
61.15000 120.239
61.16000 122.017
61.17000 120.906
61.18000 119.329
61.19000 118.642
61.20000 121.377
61.21000 124.450
61.22000 126.703
61.23000 122.307
61.24000 118.642
61.25000 116.584
61.26000 117.392
61.27000 118.257
61.28000 119.776
61.29000 122.079
61.30000 124.379
61.31000 124.981
61.32000 124.263
61.33000 123.545
61.34000 122.803
61.35000 122.048
61.36000 121.308
61.37000 120.830
61.38000 120.445
61.39000 120.091
61.40000 126.630
61.41000 133.973
61.42000 140.155
61.43000 139.681
61.44000 138.148
61.45000 136.470
61.46000 134.241
61.47000 131.960
61.48000 130.294
61.49000 139.056
61.50000 146.218
61.51000 154.076
61.52000 163.158
61.53000 172.263
61.54000 185.577
61.55000 203.849
61.56000 222.086
61.57000 233.985
61.58000 240.980
61.59000 248.165
61.60000 262.873
61.61000 281.474
61.62000 299.524
61.63000 308.487
61.64000 314.235
61.65000 319.513
61.66000 323.149
61.67000 326.042
61.68000 329.171
61.69000 333.631
61.70000 338.300
61.71000 339.959
61.72000 330.397
61.73000 319.772
61.74000 312.048
61.75000 307.762
61.76000 304.595
61.77000 294.869
61.78000 273.768
61.79000 252.465
61.80000 230.474
61.81000 207.687
61.82000 184.961
61.83000 173.995
61.84000 171.925
61.85000 169.678
61.86000 160.751
61.87000 148.418
61.88000 136.736
61.89000 135.536
61.90000 137.992
61.91000 140.243
61.92000 141.058
61.93000 141.482
61.94000 141.443
61.95000 138.834
61.96000 135.831
61.97000 133.472
61.98000 133.485
61.99000 133.717
62.00000 133.885
62.01000 138.281
62.02000 141.811
62.03000 141.839
62.04000 135.880
62.05000 129.820
62.06000 126.401
62.07000 125.993
62.08000 125.589
62.09000 126.120
62.10000 127.337
62.11000 128.551
62.12000 129.654
62.13000 130.702
62.14000 131.740
62.15000 132.616
62.16000 133.436
62.17000 134.186
62.18000 133.007
62.19000 131.560
62.20000 130.447
62.21000 131.155
62.22000 132.139
62.23000 133.099
62.24000 133.977
62.25000 134.848
62.26000 135.475
62.27000 134.429
62.28000 133.568
62.29000 132.783
62.30000 132.125
62.31000 131.469
62.32000 129.878
62.33000 127.237
62.34000 124.604
62.35000 125.423
62.36000 128.741
62.37000 131.986
62.38000 132.649
62.39000 132.035
62.40000 131.327
62.41000 129.191
62.42000 126.570
62.43000 124.178
62.44000 127.446
62.45000 131.496
62.46000 135.290
62.47000 137.713
62.48000 139.931
62.49000 141.718
62.50000 141.962
62.51000 142.069
62.52000 142.147
62.53000 141.651
62.54000 141.252
62.55000 141.369
62.56000 142.340
62.57000 143.324
62.58000 140.747
62.59000 134.239
62.60000 127.754
62.61000 125.761
62.62000 126.996
62.63000 128.237
62.64000 129.699
62.65000 131.267
62.66000 132.765
62.67000 133.218
62.68000 133.321
62.69000 133.415
62.70000 133.960
62.71000 134.534
62.72000 134.956
62.73000 134.577
62.74000 134.080
62.75000 134.117
62.76000 136.027
62.77000 138.099
62.78000 139.578
62.79000 140.076
62.80000 140.423
62.81000 140.848
62.82000 141.400
62.83000 141.954
62.84000 140.936
62.85000 138.210
62.86000 135.495
62.87000 134.161
62.88000 133.810
62.89000 133.484
62.90000 133.918
62.91000 134.719
62.92000 135.440
62.93000 135.014
62.94000 134.209
62.95000 133.477
62.96000 132.819
62.97000 132.251
62.98000 131.893
62.99000 132.619
63.00000 133.501
63.01000 134.420
63.02000 135.470
63.03000 136.530
63.04000 137.284
63.05000 138.261
63.06000 139.012
63.07000 138.223
63.08000 134.952
63.09000 131.648
63.10000 132.551
63.11000 137.946
63.12000 143.319
63.13000 142.554
63.14000 137.555
63.15000 132.629
63.16000 130.014
63.17000 128.496
63.18000 127.281
63.19000 130.359
63.20000 134.830
63.21000 138.888
63.22000 137.418
63.23000 135.056
63.24000 133.609
63.25000 136.846
63.26000 140.742
63.27000 143.004
63.28000 139.698
63.29000 135.930
63.30000 133.263
63.31000 129.116
63.32000 125.919
63.33000 124.057
63.34000 124.312
63.35000 124.594
63.36000 127.919
63.37000 134.439
63.38000 140.927
63.39000 142.346
63.40000 140.300
63.41000 138.357
63.42000 139.486
63.43000 142.050
63.44000 144.323
63.45000 142.560
63.46000 139.507
63.47000 136.741
63.48000 138.778
63.49000 141.482
63.50000 143.649
63.51000 143.108
63.52000 142.193
63.53000 141.095
63.54000 139.381
63.55000 137.617
63.56000 136.375
63.57000 145.297
63.58000 152.368
63.59000 155.953
63.60000 154.095
63.61000 152.173
63.62000 149.191
63.63000 145.116
63.64000 141.063
63.65000 139.730
63.66000 140.236
63.67000 140.685
63.68000 139.485
63.69000 137.525
63.70000 135.780
63.71000 136.931
63.72000 138.993
63.73000 140.858
63.74000 140.797
63.75000 140.385
63.76000 139.752
63.77000 138.027
63.78000 136.153
63.79000 134.992
63.80000 136.191
63.81000 137.577
63.82000 138.548
63.83000 140.395
63.84000 141.818
63.85000 142.807
63.86000 143.128
63.87000 143.441
63.88000 143.751
63.89000 144.059
63.90000 144.364
63.91000 144.515
63.92000 144.561
63.93000 144.619
63.94000 144.984
63.95000 145.490
63.96000 145.778
63.97000 143.190
63.98000 139.710
63.99000 136.570
64.00000 140.684
64.01000 145.623
64.02000 150.601
64.03000 155.770
64.04000 160.965
64.05000 163.220
64.06000 155.885
64.07000 147.808
64.08000 142.171
64.09000 140.012
64.10000 138.478
64.11000 141.120
64.12000 150.091
64.13000 159.127
64.14000 160.676
64.15000 154.751
64.16000 148.862
64.17000 147.249
64.18000 148.430
64.19000 149.521
64.20000 148.164
64.21000 145.712
64.22000 143.645
64.23000 146.554
64.24000 150.983
64.25000 154.971
64.26000 157.127
64.27000 158.689
64.28000 160.066
64.29000 160.561
64.30000 160.941
64.31000 160.358
64.32000 156.678
64.33000 152.764
64.34000 150.045
64.35000 153.810
64.36000 156.822
64.37000 159.132
64.38000 160.395
64.39000 161.648
64.40000 162.061
64.41000 161.650
64.42000 161.242
64.43000 162.095
64.44000 163.740
64.45000 165.393
64.46000 167.260
64.47000 169.222
64.48000 170.805
64.49000 167.634
64.50000 163.031
64.51000 158.896
64.52000 156.500
64.53000 154.710
64.54000 154.037
64.55000 158.630
64.56000 163.899
64.57000 168.614
64.58000 171.579
64.59000 174.415
64.60000 176.375
64.61000 174.592
64.62000 173.154
64.63000 172.224
64.64000 172.042
64.65000 171.866
64.66000 170.405
64.67000 167.703
64.68000 165.021
64.69000 163.539
64.70000 162.834
64.71000 162.270
64.72000 165.269
64.73000 169.817
64.74000 174.120
64.75000 175.414
64.76000 175.815
64.77000 176.175
64.78000 178.098
64.79000 180.049
64.80000 181.607
64.81000 181.340
64.82000 180.843
64.83000 179.851
64.84000 177.311
64.85000 174.661
64.86000 172.837
64.87000 174.033
64.88000 175.005
64.89000 177.345
64.90000 181.670
64.91000 186.009
64.92000 187.116
64.93000 185.154
64.94000 183.207
64.95000 185.160
64.96000 189.489
64.97000 193.785
64.98000 197.255
64.99000 200.372
65.00000 203.256
65.01000 203.334
65.02000 202.592
65.03000 201.928
65.04000 202.144
65.05000 202.482
65.06000 202.530
65.07000 201.255
65.08000 199.815
65.09000 199.837
65.10000 204.352
65.11000 209.182
65.12000 212.489
65.13000 209.026
65.14000 206.272
65.15000 207.328
65.16000 213.821
65.17000 220.355
65.18000 223.521
65.19000 223.544
65.20000 223.567
65.21000 224.996
65.22000 227.254
65.23000 229.496
65.24000 231.355
65.25000 233.053
65.26000 234.971
65.27000 239.464
65.28000 244.700
65.29000 249.372
65.30000 250.132
65.31000 250.139
65.32000 251.075
65.33000 256.191
65.34000 261.813
65.35000 267.481
65.36000 273.289
65.37000 279.106
65.38000 283.068
65.39000 306.246
65.40000 324.005
65.41000 332.486
65.42000 327.933
65.43000 323.293
65.44000 327.777
65.45000 340.639
65.46000 353.387
65.47000 361.743
65.48000 367.310
65.49000 373.009
65.50000 381.744
65.51000 391.744
65.52000 402.131
65.53000 416.963
65.54000 433.058
65.55000 447.390
65.56000 454.832
65.57000 460.168
65.58000 466.544
65.59000 477.528
65.60000 489.059
65.61000 502.434
65.62000 521.315
65.63000 540.563
65.64000 553.609
65.65000 601.127
65.66000 637.314
65.67000 683.715
65.68000 744.247
65.69000 804.891
65.70000 899.656
65.71000 1025.241
65.72000 1149.638
65.73000 1284.818
65.74000 1423.593
65.75000 1562.075
65.76000 1694.097
65.77000 1823.468
65.78000 1948.949
65.79000 2030.753
65.80000 2100.338
65.81000 2162.164
65.82000 2200.793
65.83000 2230.557
65.84000 2256.756
65.85000 2267.411
65.86000 2276.255
65.87000 2280.212
65.88000 2269.782
65.89000 2258.415
65.90000 2250.749
65.91000 2191.614
65.92000 2146.532
65.93000 2078.747
65.94000 1980.036
65.95000 1881.115
65.96000 1745.519
65.97000 1577.338
65.98000 1410.846
65.99000 1264.256
66.00000 1132.351
66.01000 1001.944
66.02000 903.710
66.03000 818.490
66.04000 735.178
66.05000 672.836
66.06000 616.273
66.07000 566.132
66.08000 536.054
66.09000 513.189
66.10000 490.370
66.11000 467.744
66.12000 445.141
66.13000 426.420
66.14000 418.961
66.15000 412.217
66.16000 407.692
66.17000 412.836
66.18000 416.850
66.19000 419.590
66.20000 420.621
66.21000 421.644
66.22000 424.224
66.23000 428.163
66.24000 432.061
66.25000 444.596
66.26000 461.777
66.27000 479.156
66.28000 500.666
66.29000 523.821
66.30000 547.343
66.31000 574.791
66.32000 603.306
66.33000 628.526
66.34000 656.491
66.35000 681.086
66.36000 699.771
66.37000 693.480
66.38000 684.390
66.39000 681.246
66.40000 695.104
66.41000 710.013
66.42000 719.965
66.43000 710.935
66.44000 703.879
66.45000 695.491
66.46000 685.345
66.47000 675.185
66.48000 660.738
66.49000 642.603
66.50000 624.673
66.51000 604.004
66.52000 582.287
66.53000 560.415
66.54000 535.409
66.55000 509.171
66.56000 483.679
66.57000 466.035
66.58000 450.490
66.59000 436.774
66.60000 426.106
66.61000 417.369
66.62000 408.305
66.63000 397.884
66.64000 387.313
66.65000 379.492
66.66000 379.424
66.67000 379.822
66.68000 380.087
66.69000 370.345
66.70000 362.959
66.71000 359.157
66.72000 360.014
66.73000 360.889
66.74000 361.204
66.75000 361.044
66.76000 360.887
66.77000 362.872
66.78000 365.993
66.79000 369.088
66.80000 371.676
66.81000 374.068
66.82000 376.272
66.83000 376.541
66.84000 376.300
66.85000 376.088
66.86000 379.521
66.87000 383.023
66.88000 385.303
66.89000 382.575
66.90000 379.308
66.91000 378.081
66.92000 382.522
66.93000 387.296
66.94000 390.449
66.95000 381.675
66.96000 374.992
66.97000 372.709
66.98000 376.057
66.99000 379.434
67.00000 386.467
67.01000 396.546
67.02000 406.497
67.03000 409.075
67.04000 407.575
67.05000 406.312
67.06000 409.560
67.07000 414.529
67.08000 418.812
67.09000 416.171
67.10000 411.732
67.11000 407.834
67.12000 412.696
67.13000 418.162
67.14000 422.699
67.15000 423.482
67.16000 423.868
67.17000 423.555
67.18000 421.326
67.19000 418.987
67.20000 417.451
67.21000 424.408
67.22000 429.672
67.23000 429.630
67.24000 422.902
67.25000 416.164
67.26000 413.800
67.27000 415.021
67.28000 416.226
67.29000 419.746
67.30000 424.409
67.31000 429.017
67.32000 432.620
67.33000 435.844
67.34000 438.829
67.35000 439.461
67.36000 439.491
67.37000 439.517
67.38000 434.715
67.39000 429.899
67.40000 428.500
67.41000 440.687
67.42000 454.279
67.43000 462.657
67.44000 456.970
67.45000 450.502
67.46000 446.276
67.47000 438.578
67.48000 432.869
67.49000 433.759
67.50000 442.835
67.51000 451.927
67.52000 459.001
67.53000 464.445
67.54000 469.813
67.55000 467.612
67.56000 461.484
67.57000 455.799
67.58000 458.103
67.59000 463.371
67.60000 468.795
67.61000 475.741
67.62000 483.069
67.63000 489.474
67.64000 480.911
67.65000 471.459
67.66000 464.415
67.67000 466.796
67.68000 470.131
67.69000 475.099
67.70000 484.405
67.71000 493.946
67.72000 500.147
67.73000 487.059
67.74000 477.174
67.75000 476.076
67.76000 485.703
67.77000 495.332
67.78000 497.667
67.79000 494.208
67.80000 490.801
67.81000 493.061
67.82000 498.193
67.83000 502.920
67.84000 500.527
67.85000 495.532
67.86000 491.313
67.87000 494.462
67.88000 499.436
67.89000 503.773
67.90000 501.210
67.91000 498.060
67.92000 497.280
67.93000 505.643
67.94000 514.913
67.95000 520.970
67.96000 518.607
67.97000 515.803
67.98000 513.991
67.99000 516.462
68.00000 518.331
68.01000 524.614
68.02000 536.201
68.03000 547.788
68.04000 556.415
68.05000 562.729
68.06000 568.945
68.07000 567.680
68.08000 562.635
68.09000 558.011
68.10000 560.570
68.11000 565.717
68.12000 570.591
68.13000 572.923
68.14000 574.634
68.15000 576.122
68.16000 579.248
68.17000 582.139
68.18000 583.729
68.19000 580.378
68.20000 576.547
68.21000 576.534
68.22000 586.382
68.23000 596.732
68.24000 603.384
68.25000 588.452
68.26000 577.261
68.27000 578.856
68.28000 595.566
68.29000 612.271
68.30000 621.464
68.31000 624.876
68.32000 628.233
68.33000 632.409
68.34000 636.862
68.35000 641.556
68.36000 650.232
68.37000 660.321
68.38000 669.773
68.39000 673.410
68.40000 675.649
68.41000 677.591
68.42000 682.933
68.43000 687.937
68.44000 693.276
68.45000 699.867
68.46000 706.577
68.47000 714.004
68.48000 723.256
68.49000 732.598
68.50000 738.569
68.51000 759.789
68.52000 775.434
68.53000 793.078
68.54000 813.046
68.55000 833.034
68.56000 856.585
68.57000 882.835
68.58000 908.640
68.59000 935.171
68.60000 961.180
68.61000 988.512
68.62000 1037.240
68.63000 1093.457
68.64000 1147.727
68.65000 1184.621
68.66000 1217.401
68.67000 1245.765
68.68000 1300.410
68.69000 1350.311
68.70000 1399.483
68.71000 1445.968
68.72000 1492.203
68.73000 1543.054
68.74000 1605.488
68.75000 1668.479
68.76000 1708.508
68.77000 1785.111
68.78000 1841.197
68.79000 1900.080
68.80000 1962.165
68.81000 2024.390
68.82000 2112.869
68.83000 2220.929
68.84000 2327.069
68.85000 2436.437
68.86000 2543.606
68.87000 2659.010
68.88000 2904.226
68.89000 3194.210
68.90000 3525.738
68.91000 4221.002
68.92000 5001.058
68.93000 5674.292
68.94000 7826.490
68.95000 9843.012
68.96000 12171.329
68.97000 15631.661
68.98000 19195.082
68.99000 22972.506
69.00000 27279.299
69.01000 31610.770
69.02000 34347.574
69.03000 38996.781
69.04000 42388.008
69.05000 45017.617
69.06000 46789.578
69.07000 48557.613
69.08000 49771.813
69.09000 50579.258
69.10000 51371.688
69.11000 52110.613
69.12000 52797.500
69.13000 53495.211
69.14000 54359.156
69.15000 55279.609
69.16000 56129.898
69.17000 56377.793
69.18000 56487.430
69.19000 56581.805
69.20000 54653.191
69.21000 52764.457
69.22000 50506.371
69.23000 46927.207
69.24000 43230.344
69.25000 39755.504
69.26000 36821.988
69.27000 33912.941
69.28000 32085.535
69.29000 30045.813
69.30000 28568.828
69.31000 27523.578
69.32000 26956.605
69.33000 26390.432
69.34000 25901.613
69.35000 25468.740
69.36000 25044.275
69.37000 24223.789
69.38000 23246.939
69.39000 22221.104
69.40000 20461.732
69.41000 18456.654
69.42000 16426.135
69.43000 14181.378
69.44000 11888.208
69.45000 9919.365
69.46000 8086.503
69.47000 6553.750
69.48000 5167.953
69.49000 4299.997
69.50000 3477.171
69.51000 2790.506
69.52000 2431.060
69.53000 2085.948
69.54000 1870.426
69.55000 1691.417
69.56000 1562.675
69.57000 1448.755
69.58000 1350.987
69.59000 1253.405
69.60000 1181.699
69.61000 1128.422
69.62000 1076.225
69.63000 1033.031
69.64000 995.671
69.65000 958.779
69.66000 928.717
69.67000 900.911
69.68000 874.729
69.69000 861.964
69.70000 852.184
69.71000 843.810
69.72000 813.803
69.73000 785.858
69.74000 760.270
69.75000 742.867
69.76000 726.162
69.77000 710.925
69.78000 699.165
69.79000 687.553
69.80000 680.343
69.81000 682.601
69.82000 684.318
69.83000 673.471
69.84000 649.156
69.85000 624.888
69.86000 607.331
69.87000 594.479
69.88000 581.899
69.89000 577.093
69.90000 576.030
69.91000 574.988
69.92000 574.247
69.93000 573.604
69.94000 571.731
69.95000 559.893
69.96000 545.871
69.97000 533.897
69.98000 521.535
69.99000 511.076
70.00000 505.382
