20.00000 485.136
20.01000 489.833
20.02000 495.200
20.03000 498.915
20.04000 496.107
20.05000 492.633
20.06000 490.067
20.07000 490.428
20.08000 490.832
20.09000 492.505
20.10000 496.502
20.11000 500.549
20.12000 500.463
20.13000 495.294
20.14000 490.121
20.15000 489.391
20.16000 492.204
20.17000 494.929
20.18000 493.724
20.19000 490.404
20.20000 487.030
20.21000 482.703
20.22000 478.025
20.23000 473.708
20.24000 475.373
20.25000 478.204
20.26000 480.497
20.27000 479.615
20.28000 478.214
20.29000 477.038
20.30000 476.738
20.31000 476.526
20.32000 476.370
20.33000 477.366
20.34000 478.184
20.35000 475.973
20.36000 468.299
20.37000 460.512
20.38000 460.352
20.39000 469.423
20.40000 478.498
20.41000 480.470
20.42000 476.867
20.43000 473.280
20.44000 470.409
20.45000 467.917
20.46000 465.729
20.47000 468.801
20.48000 473.780
20.49000 478.367
20.50000 474.117
20.51000 468.368
20.52000 463.966
20.53000 467.369
20.54000 472.030
20.55000 474.625
20.56000 469.316
20.57000 463.232
20.58000 458.776
20.59000 463.389
20.60000 467.312
20.61000 471.018
20.62000 474.336
20.63000 477.647
20.64000 476.895
20.65000 471.304
20.66000 465.717
20.67000 467.006
20.68000 473.590
20.69000 480.035
20.70000 480.817
20.71000 478.640
20.72000 476.659
20.73000 477.986
20.74000 480.496
20.75000 482.804
20.76000 474.166
20.77000 464.081
20.78000 456.398
20.79000 462.409
20.80000 470.589
20.81000 477.941
20.82000 482.176
20.83000 486.113
20.84000 488.983
20.85000 475.234
20.86000 463.998
20.87000 456.269
20.88000 454.685
20.89000 453.215
20.90000 453.553
20.91000 456.011
20.92000 458.467
20.93000 462.318
20.94000 467.206
20.95000 472.074
20.96000 476.193
20.97000 479.928
20.98000 483.422
20.99000 482.980
21.00000 481.151
21.01000 479.471
21.02000 468.502
21.03000 456.743
21.04000 446.599
21.05000 445.512
21.06000 445.834
21.07000 447.448
21.08000 453.861
21.09000 460.726
21.10000 465.710
21.11000 476.385
21.12000 484.805
21.13000 487.078
21.14000 478.739
21.15000 470.214
21.16000 467.417
21.17000 471.230
21.18000 475.040
21.19000 477.896
21.20000 480.020
21.21000 482.104
21.22000 482.670
21.23000 482.465
21.24000 482.336
21.25000 483.402
21.26000 484.884
21.27000 486.241
21.28000 481.027
21.29000 475.012
21.30000 470.128
21.31000 471.487
21.32000 473.801
21.33000 474.941
21.34000 471.789
21.35000 468.242
21.36000 465.678
21.37000 475.226
21.38000 482.991
21.39000 485.999
21.40000 480.914
21.41000 475.695
21.42000 476.959
21.43000 485.583
21.44000 494.186
21.45000 490.305
21.46000 477.287
21.47000 464.656
21.48000 465.935
21.49000 474.174
21.50000 482.077
21.51000 484.762
21.52000 485.661
21.53000 486.484
21.54000 481.341
21.55000 475.545
21.56000 469.968
21.57000 465.576
21.58000 461.363
21.59000 460.597
21.60000 472.251
21.61000 485.022
21.62000 494.215
21.63000 480.420
21.64000 469.051
21.65000 464.557
21.66000 471.587
21.67000 478.799
21.68000 479.217
21.69000 472.051
21.70000 464.904
21.71000 459.249
21.72000 454.720
21.73000 450.534
21.74000 458.199
21.75000 471.708
21.76000 484.921
21.77000 493.646
21.78000 500.858
21.79000 507.439
21.80000 497.375
21.81000 485.084
21.82000 477.587
21.83000 495.677
21.84000 517.542
21.85000 533.518
21.86000 528.588
21.87000 521.817
21.88000 516.965
21.89000 521.278
21.90000 524.885
21.91000 527.878
21.92000 529.855
21.93000 531.818
21.94000 536.016
21.95000 542.672
21.96000 549.302
21.97000 555.570
21.98000 561.522
21.99000 567.294
22.00000 567.066
22.01000 563.924
22.02000 561.466
22.03000 569.130
22.04000 580.158
22.05000 590.202
22.06000 595.153
22.07000 598.525
22.08000 600.413
22.09000 594.505
22.10000 587.468
22.11000 584.409
22.12000 595.267
22.13000 607.323
22.14000 615.922
22.15000 607.572
22.16000 600.648
22.17000 594.910
22.18000 591.101
22.19000 587.319
22.20000 584.921
22.21000 584.019
22.22000 583.122
22.23000 578.772
22.24000 572.052
22.25000 565.618
22.26000 568.324
22.27000 575.410
22.28000 581.715
22.29000 576.768
22.30000 568.135
22.31000 560.288
22.32000 553.759
22.33000 548.245
22.34000 542.766
22.35000 537.464
22.36000 532.187
22.37000 526.268
22.38000 518.140
22.39000 509.825
22.40000 503.921
22.41000 512.007
22.42000 518.604
22.43000 519.728
22.44000 512.079
22.45000 504.314
22.46000 498.249
22.47000 493.990
22.48000 489.752
22.49000 487.783
22.50000 487.397
22.51000 486.937
22.52000 484.186
22.53000 480.354
22.54000 476.713
22.55000 475.768
22.56000 475.694
22.57000 475.626
22.58000 473.414
22.59000 471.050
22.60000 467.921
22.61000 460.904
22.62000 453.344
22.63000 447.624
22.64000 448.153
22.65000 449.196
22.66000 449.933
22.67000 455.300
22.68000 459.517
22.69000 460.725
22.70000 457.180
22.71000 453.577
22.72000 456.956
22.73000 467.630
22.74000 478.251
22.75000 478.573
22.76000 471.918
22.77000 465.196
22.78000 456.536
22.79000 446.974
22.80000 438.314
22.81000 442.028
22.82000 449.680
22.83000 456.608
22.84000 446.092
22.85000 433.543
22.86000 423.006
22.87000 422.530
22.88000 423.436
22.89000 426.699
22.90000 437.847
22.91000 449.629
22.92000 457.919
22.93000 451.427
22.94000 446.070
22.95000 443.811
22.96000 446.368
22.97000 448.981
22.98000 448.248
22.99000 444.077
23.00000 439.928
23.01000 438.156
23.02000 437.989
23.03000 437.908
23.04000 440.278
23.05000 443.773
23.06000 446.560
23.07000 439.865
23.08000 430.198
23.09000 421.464
23.10000 425.064
23.11000 430.513
23.12000 434.483
23.13000 431.178
23.14000 426.892
23.15000 424.478
23.16000 428.234
23.17000 432.475
23.18000 435.445
23.19000 444.325
23.20000 451.209
23.21000 452.166
23.22000 444.045
23.23000 435.824
23.24000 432.140
23.25000 433.038
23.26000 433.930
23.27000 431.081
23.28000 425.818
23.29000 420.929
23.30000 426.386
23.31000 436.521
23.32000 446.221
23.33000 450.237
23.34000 452.497
23.35000 454.535
23.36000 452.350
23.37000 449.665
23.38000 447.534
23.39000 448.093
23.40000 449.008
23.41000 449.512
23.42000 448.685
23.43000 447.755
23.44000 447.106
23.45000 450.499
23.46000 453.170
23.47000 452.187
23.48000 445.690
23.49000 439.137
23.50000 435.721
23.51000 435.420
23.52000 435.121
23.53000 430.803
23.54000 423.956
23.55000 417.559
23.56000 423.143
23.57000 434.067
23.58000 444.216
23.59000 444.471
23.60000 441.714
23.61000 439.233
23.62000 441.235
23.63000 443.789
23.64000 445.476
23.65000 443.022
23.66000 440.032
23.67000 437.323
23.68000 435.520
23.69000 433.785
23.70000 432.581
23.71000 428.600
23.72000 425.528
23.73000 423.191
23.74000 421.946
23.75000 420.711
23.76000 418.503
23.77000 415.345
23.78000 412.209
23.79000 413.973
23.80000 418.820
23.81000 423.750
23.82000 430.820
23.83000 438.829
23.84000 446.561
23.85000 450.827
23.86000 454.054
23.87000 456.951
23.88000 446.827
23.89000 435.686
23.90000 425.134
23.91000 417.345
23.92000 409.907
23.93000 407.109
23.94000 418.939
23.95000 431.841
23.96000 440.747
23.97000 435.360
23.98000 430.947
23.99000 428.052
24.00000 427.379
24.01000 426.725
24.02000 422.985
24.03000 416.281
24.04000 409.628
24.05000 411.044
24.06000 417.481
24.07000 423.719
24.08000 425.017
24.09000 424.176
24.10000 423.512
24.11000 425.014
24.12000 427.155
24.13000 429.072
24.14000 424.414
24.15000 419.213
24.16000 415.356
24.17000 417.712
24.18000 420.844
24.19000 422.416
24.20000 419.139
24.21000 415.516
24.22000 413.026
24.23000 412.402
24.24000 411.980
24.25000 411.664
24.26000 411.501
24.27000 411.341
24.28000 414.569
24.29000 420.999
24.30000 427.377
24.31000 422.630
24.32000 411.124
24.33000 400.344
24.34000 407.066
24.35000 421.255
24.36000 434.094
24.37000 430.826
24.38000 422.868
24.39000 415.754
24.40000 419.765
24.41000 425.144
24.42000 430.376
24.43000 434.935
24.44000 439.411
24.45000 439.863
24.46000 427.991
24.47000 415.260
24.48000 406.557
24.49000 416.794
24.50000 424.900
24.51000 426.196
24.52000 417.817
24.53000 409.369
24.54000 406.452
24.55000 408.672
24.56000 410.873
24.57000 415.539
24.58000 421.610
24.59000 427.373
24.60000 425.950
24.61000 421.504
24.62000 417.726
24.63000 421.730
24.64000 427.966
24.65000 433.528
24.66000 428.934
24.67000 423.248
24.68000 419.445
24.69000 424.066
24.70000 429.702
24.71000 433.719
24.72000 432.855
24.73000 431.659
24.74000 430.845
24.75000 416.903
24.76000 406.196
24.77000 400.260
24.78000 400.997
24.79000 401.778
24.80000 401.468
24.81000 400.162
24.82000 398.867
24.83000 403.840
24.84000 412.450
24.85000 420.818
24.86000 423.734
24.87000 424.389
24.88000 424.600
24.89000 419.744
24.90000 413.455
24.91000 407.858
24.92000 404.894
24.93000 402.750
24.94000 401.989
24.95000 407.326
24.96000 413.383
24.97000 418.195
24.98000 419.304
24.99000 420.167
25.00000 420.751
25.01000 412.641
25.02000 406.410
25.03000 402.637
25.04000 402.252
25.05000 401.887
25.06000 400.029
25.07000 396.829
25.08000 393.660
25.09000 397.592
25.10000 405.605
25.11000 413.235
25.12000 412.453
25.13000 408.235
25.14000 404.790
25.15000 409.966
25.16000 417.543
25.17000 424.270
25.18000 424.182
25.19000 423.013
25.20000 421.310
25.21000 417.293
25.22000 413.007
25.23000 410.080
25.24000 411.136
25.25000 412.449
25.26000 413.333
25.27000 409.327
25.28000 406.246
25.29000 407.086
25.30000 413.242
25.31000 419.421
25.32000 417.652
25.33000 408.857
25.34000 400.152
25.35000 404.410
25.36000 416.055
25.37000 426.990
25.38000 422.821
25.39000 412.570
25.40000 402.911
25.41000 399.713
25.42000 398.288
25.43000 397.026
25.44000 394.052
25.45000 391.209
25.46000 388.955
25.47000 389.217
25.48000 389.763
25.49000 390.591
25.50000 392.228
25.51000 393.916
25.52000 395.048
25.53000 403.204
25.54000 409.395
25.55000 411.623
25.56000 408.558
25.57000 405.467
25.58000 402.595
25.59000 399.916
25.60000 397.265
25.61000 395.139
25.62000 393.359
25.63000 391.753
25.64000 393.733
25.65000 397.138
25.66000 400.790
25.67000 407.088
25.68000 414.102
25.69000 420.301
25.70000 410.573
25.71000 399.710
25.72000 391.788
25.73000 396.239
25.74000 402.069
25.75000 404.638
25.76000 397.929
25.77000 390.650
25.78000 385.799
25.79000 391.236
25.80000 395.459
25.81000 396.916
25.82000 394.739
25.83000 392.549
25.84000 392.874
25.85000 395.351
25.86000 397.800
25.87000 396.543
25.88000 393.245
25.89000 390.129
25.90000 390.660
25.91000 392.618
25.92000 394.168
25.93000 391.453
25.94000 387.603
25.95000 384.208
25.96000 383.187
25.97000 382.668
25.98000 384.033
25.99000 393.204
26.00000 403.228
26.01000 411.383
26.02000 414.295
26.03000 416.893
26.04000 418.616
26.05000 407.387
26.06000 398.855
26.07000 391.162
26.08000 384.552
26.09000 377.963
26.10000 380.391
26.11000 390.415
26.12000 400.318
26.13000 402.771
26.14000 401.065
26.15000 399.047
26.16000 390.971
26.17000 380.557
26.18000 371.797
26.19000 379.971
26.20000 392.585
26.21000 403.681
26.22000 400.075
26.23000 394.782
26.24000 390.512
26.25000 390.410
26.26000 390.754
26.27000 391.443
26.28000 393.085
26.29000 394.783
26.30000 395.902
26.31000 398.633
26.32000 400.673
26.33000 399.768
26.34000 395.109
26.35000 390.440
26.36000 387.296
26.37000 385.415
26.38000 383.559
26.39000 384.830
26.40000 387.761
26.41000 390.745
26.42000 394.732
26.43000 399.101
26.44000 402.963
26.45000 401.738
26.46000 399.198
26.47000 396.970
26.48000 400.544
26.49000 404.462
26.50000 405.654
26.51000 395.892
26.52000 384.982
26.53000 376.157
26.54000 373.012
26.55000 370.189
26.56000 368.337
26.57000 374.895
26.58000 379.857
26.59000 382.917
26.60000 383.591
26.61000 384.267
26.62000 389.014
26.63000 397.083
26.64000 405.043
26.65000 402.661
26.66000 394.835
26.67000 387.145
26.68000 381.957
26.69000 377.707
26.70000 374.215
26.71000 378.156
26.72000 383.989
26.73000 389.095
26.74000 390.792
26.75000 391.758
26.76000 391.598
26.77000 386.981
26.78000 381.907
26.79000 379.673
26.80000 385.071
26.81000 390.889
26.82000 394.684
26.83000 388.489
26.84000 383.783
26.85000 381.065
26.86000 380.798
26.87000 380.547
26.88000 383.036
26.89000 387.727
26.90000 392.352
26.91000 394.002
26.92000 394.046
26.93000 393.935
26.94000 391.049
26.95000 387.139
26.96000 383.493
26.97000 382.382
26.98000 381.907
26.99000 381.493
27.00000 374.409
27.01000 367.407
27.02000 364.157
27.03000 375.531
27.04000 388.377
27.05000 396.052
27.06000 390.040
27.07000 383.294
27.08000 378.917
27.09000 375.579
27.10000 373.150
27.11000 372.185
27.12000 372.996
27.13000 373.811
27.14000 374.146
27.15000 374.104
27.16000 374.061
27.17000 376.591
27.18000 380.372
27.19000 383.892
27.20000 382.856
27.21000 380.162
27.22000 378.431
27.23000 385.779
27.24000 395.367
27.25000 403.720
27.26000 397.626
27.27000 390.425
27.28000 385.022
27.29000 386.523
27.30000 388.706
27.31000 388.488
27.32000 382.008
27.33000 375.202
27.34000 370.811
27.35000 374.484
27.36000 377.284
27.37000 377.387
27.38000 374.266
27.39000 371.146
27.40000 370.073
27.41000 370.592
27.42000 371.103
27.43000 370.604
27.44000 369.606
27.45000 368.865
27.46000 372.463
27.47000 377.618
27.48000 381.393
27.49000 372.425
27.50000 360.359
27.51000 349.874
27.52000 361.886
27.53000 375.179
27.54000 385.221
27.55000 382.970
27.56000 379.533
27.57000 376.801
27.58000 375.878
27.59000 375.047
27.60000 374.514
27.61000 382.726
27.62000 388.831
27.63000 390.061
27.64000 385.557
27.65000 381.050
27.66000 377.937
27.67000 375.893
27.68000 373.883
27.69000 369.502
27.70000 364.079
27.71000 359.350
27.72000 366.076
27.73000 376.852
27.74000 386.261
27.75000 383.290
27.76000 377.358
27.77000 372.215
27.78000 373.579
27.79000 375.605
27.80000 376.817
27.81000 374.995
27.82000 372.887
27.83000 371.743
27.84000 373.046
27.85000 374.468
27.86000 375.376
27.87000 374.439
27.88000 373.734
27.89000 373.862
27.90000 374.956
27.91000 376.049
27.92000 376.852
27.93000 377.435
27.94000 378.007
27.95000 378.232
27.96000 378.277
27.97000 378.189
27.98000 375.946
27.99000 372.953
28.00000 370.570
28.01000 373.605
28.02000 377.916
28.03000 381.644
28.04000 375.068
28.05000 368.136
28.06000 362.043
28.07000 359.022
28.08000 356.285
28.09000 356.157
28.10000 362.550
28.11000 369.253
28.12000 373.505
28.13000 381.779
28.14000 387.833
28.15000 389.776
28.16000 387.038
28.17000 384.282
28.18000 378.864
28.19000 371.471
28.20000 364.211
28.21000 362.330
28.22000 363.119
28.23000 364.012
28.24000 366.519
28.25000 369.581
28.26000 372.410
28.27000 373.217
28.28000 373.555
28.29000 373.846
28.30000 380.258
28.31000 386.479
28.32000 391.303
28.33000 391.080
28.34000 390.400
28.35000 387.018
28.36000 376.980
28.37000 366.634
28.38000 360.109
28.39000 357.697
28.40000 355.997
28.41000 357.219
28.42000 361.714
28.43000 366.199
28.44000 368.483
28.45000 369.157
28.46000 369.818
28.47000 369.249
28.48000 368.115
28.49000 366.889
28.50000 364.280
28.51000 361.203
28.52000 358.904
28.53000 363.246
28.54000 369.105
28.55000 374.145
28.56000 371.145
28.57000 367.598
28.58000 364.541
28.59000 363.231
28.60000 362.076
28.61000 363.445
28.62000 370.941
28.63000 378.713
28.64000 383.586
28.65000 376.044
28.66000 370.460
28.67000 366.392
28.68000 363.994
28.69000 361.618
28.70000 362.391
28.71000 365.432
28.72000 368.413
28.73000 369.632
28.74000 369.979
28.75000 370.246
28.76000 369.316
28.77000 367.989
28.78000 366.688
28.79000 365.620
28.80000 364.603
28.81000 363.731
28.82000 362.270
28.83000 360.962
28.84000 359.871
28.85000 359.536
28.86000 359.267
28.87000 358.947
28.88000 358.505
28.89000 358.058
28.90000 357.779
28.91000 360.759
28.92000 362.941
28.93000 365.637
28.94000 368.890
28.95000 372.108
28.96000 370.342
28.97000 365.045
28.98000 359.856
28.99000 361.511
29.00000 366.264
29.01000 370.541
29.02000 367.931
29.03000 363.057
29.04000 358.749
29.05000 359.097
29.06000 360.475
29.07000 361.655
29.08000 361.789
29.09000 361.776
29.10000 361.243
29.11000 358.912
29.12000 356.429
29.13000 355.218
29.14000 357.006
29.15000 358.920
29.16000 360.107
29.17000 365.785
29.18000 369.911
29.19000 371.617
29.20000 370.741
29.21000 369.851
29.22000 367.349
29.23000 363.721
29.24000 360.171
29.25000 365.619
29.26000 374.941
29.27000 383.405
29.28000 379.744
29.29000 372.156
29.30000 364.906
29.31000 360.382
29.32000 356.451
29.33000 353.098
29.34000 355.712
29.35000 358.619
29.36000 360.326
29.37000 357.950
29.38000 355.236
29.39000 353.126
29.40000 352.419
29.41000 351.769
29.42000 351.369
29.43000 359.202
29.44000 364.897
29.45000 370.211
29.46000 375.127
29.47000 379.983
29.48000 377.735
29.49000 370.602
29.50000 363.629
29.51000 365.246
29.52000 370.642
29.53000 375.600
29.54000 374.525
29.55000 371.525
29.56000 368.625
29.57000 366.528
29.58000 364.603
29.59000 362.964
29.60000 362.855
29.61000 362.941
29.62000 363.815
29.63000 367.336
29.64000 371.070
29.65000 373.514
29.66000 373.000
29.67000 372.370
29.68000 371.984
29.69000 365.529
29.70000 360.856
29.71000 360.584
29.72000 364.849
29.73000 369.097
29.74000 371.409
29.75000 372.410
29.76000 373.387
29.77000 371.262
29.78000 367.861
29.79000 364.932
29.80000 368.359
29.81000 373.785
29.82000 378.288
29.83000 375.626
29.84000 371.450
29.85000 367.907
29.86000 383.244
29.87000 398.251
29.88000 409.911
29.89000 410.505
29.90000 410.224
29.91000 410.293
29.92000 411.150
29.93000 412.038
29.94000 412.578
29.95000 417.132
29.96000 420.416
29.97000 423.754
29.98000 427.144
29.99000 430.504
30.00000 430.716
30.01000 428.828
30.02000 426.986
30.03000 432.236
30.04000 440.329
30.05000 447.946
30.06000 449.294
30.07000 448.699
30.08000 447.718
30.09000 443.802
30.10000 439.275
30.11000 435.445
30.12000 433.423
30.13000 431.932
30.14000 432.839
30.15000 441.559
30.16000 450.883
30.17000 456.689
30.18000 454.667
30.19000 452.358
30.20000 450.961
30.21000 421.875
30.22000 400.947
30.23000 394.890
30.24000 403.659
30.25000 412.375
30.26000 415.993
30.27000 416.261
30.28000 416.522
30.29000 416.733
30.30000 416.912
30.31000 416.976
30.32000 415.565
30.33000 413.702
30.34000 411.754
30.35000 409.170
30.36000 406.455
30.37000 404.164
30.38000 400.187
30.39000 396.681
30.40000 393.930
30.41000 393.603
30.42000 393.458
30.43000 393.693
30.44000 394.758
30.45000 395.852
30.46000 396.510
30.47000 401.626
30.48000 405.293
30.49000 403.709
30.50000 396.978
30.51000 390.264
30.52000 385.074
30.53000 380.872
30.54000 376.779
30.55000 374.212
30.56000 372.405
30.57000 371.735
30.58000 385.337
30.59000 403.234
30.60000 418.871
30.61000 417.917
30.62000 413.622
30.63000 410.007
30.64000 405.105
30.65000 400.878
30.66000 398.517
30.67000 402.057
30.68000 406.031
30.69000 409.250
30.70000 410.834
30.71000 412.363
30.72000 413.275
30.73000 413.001
30.74000 412.799
30.75000 412.540
30.76000 412.227
30.77000 411.894
30.78000 409.835
30.79000 406.678
30.80000 403.605
30.81000 407.245
30.82000 413.486
30.83000 419.967
30.84000 429.391
30.85000 439.688
30.86000 448.747
30.87000 448.887
30.88000 447.260
30.89000 445.894
30.90000 445.112
30.91000 444.521
30.92000 446.885
30.93000 458.458
30.94000 470.692
30.95000 477.632
30.96000 473.289
30.97000 468.573
30.98000 465.776
30.99000 498.127
31.00000 521.216
31.01000 530.816
31.02000 527.629
31.03000 524.537
31.04000 528.918
31.05000 537.990
31.06000 546.809
31.07000 567.733
31.08000 592.548
31.09000 617.120
31.10000 638.764
31.11000 659.554
31.12000 683.838
31.13000 732.849
31.14000 786.680
31.15000 831.722
31.16000 900.767
31.17000 960.594
31.18000 1018.921
31.19000 1072.638
31.20000 1126.032
31.21000 1187.436
31.22000 1265.666
31.23000 1344.431
31.24000 1390.857
31.25000 1549.556
31.26000 1662.163
31.27000 1761.523
31.28000 1848.534
31.29000 1935.999
31.30000 2056.651
31.31000 2197.837
31.32000 2334.924
31.33000 2436.203
31.34000 2517.997
31.35000 2599.362
31.36000 2675.693
31.37000 2750.574
31.38000 2821.065
31.39000 2861.032
31.40000 2895.145
31.41000 2923.605
31.42000 2929.449
31.43000 2932.027
31.44000 2924.683
31.45000 2887.308
31.46000 2847.878
31.47000 2791.442
31.48000 2699.793
31.49000 2607.066
31.50000 2552.770
31.51000 2477.531
31.52000 2424.432
31.53000 2330.625
31.54000 2199.493
31.55000 2068.761
31.56000 1965.599
31.57000 1879.240
31.58000 1795.478
31.59000 1688.807
31.60000 1578.673
31.61000 1470.773
31.62000 1388.478
31.63000 1313.444
31.64000 1239.563
31.65000 1173.555
31.66000 1109.033
31.67000 1055.362
31.68000 986.548
31.69000 928.100
31.70000 873.215
31.71000 828.959
31.72000 785.412
31.73000 750.634
31.74000 733.748
31.75000 717.390
31.76000 707.874
31.77000 657.416
31.78000 621.800
31.79000 600.058
31.80000 590.829
31.81000 581.439
31.82000 561.497
31.83000 535.218
31.84000 509.757
31.85000 499.699
31.86000 496.155
31.87000 492.189
31.88000 483.495
31.89000 473.480
31.90000 463.940
31.91000 457.589
31.92000 451.830
31.93000 447.054
31.94000 440.997
31.95000 435.869
31.96000 429.761
31.97000 420.769
31.98000 411.590
31.99000 404.047
32.00000 399.795
32.01000 395.636
32.02000 393.233
32.03000 390.078
32.04000 387.865
32.05000 387.155
32.06000 387.779
32.07000 388.391
32.08000 388.306
32.09000 387.809
32.10000 387.327
32.11000 385.704
32.12000 383.733
32.13000 381.454
32.14000 375.796
32.15000 369.207
32.16000 363.271
32.17000 361.641
32.18000 360.798
32.19000 360.100
32.20000 347.078
32.21000 335.179
32.22000 328.808
32.23000 338.452
32.24000 349.111
32.25000 356.682
32.26000 358.133
32.27000 359.417
32.28000 360.154
32.29000 358.163
32.30000 356.760
32.31000 354.456
32.32000 351.366
32.33000 348.325
32.34000 348.182
32.35000 349.727
32.36000 351.221
32.37000 346.350
32.38000 339.362
32.39000 332.555
32.40000 327.684
32.41000 323.338
32.42000 319.736
32.43000 320.954
32.44000 323.038
32.45000 324.756
32.46000 325.771
32.47000 326.543
32.48000 327.965
32.49000 331.245
32.50000 334.641
32.51000 335.983
32.52000 333.313
32.53000 330.539
32.54000 328.958
32.55000 333.063
32.56000 335.941
32.57000 337.871
32.58000 338.984
32.59000 340.057
32.60000 338.965
32.61000 336.629
32.62000 334.373
32.63000 333.760
32.64000 333.790
32.65000 333.591
32.66000 330.979
32.67000 327.723
32.68000 325.648
32.69000 331.088
32.70000 337.855
32.71000 343.416
32.72000 334.551
32.73000 325.969
32.74000 318.173
32.75000 312.592
32.76000 307.143
32.77000 306.111
32.78000 313.585
32.79000 321.270
32.80000 325.620
32.81000 324.080
32.82000 322.994
32.83000 323.240
32.84000 324.611
32.85000 325.925
32.86000 324.264
32.87000 320.917
32.88000 317.689
32.89000 315.644
32.90000 314.150
32.91000 313.427
32.92000 320.631
32.93000 329.920
32.94000 337.145
32.95000 331.458
32.96000 323.528
32.97000 317.031
32.98000 312.698
32.99000 309.335
33.00000 310.079
33.01000 322.211
33.02000 335.009
33.03000 339.556
33.04000 328.443
33.05000 316.956
33.06000 310.501
33.07000 314.834
33.08000 317.849
33.09000 312.101
33.10000 299.063
33.11000 286.224
33.12000 283.374
33.13000 286.093
33.14000 288.713
33.15000 290.879
33.16000 292.749
33.17000 294.571
33.18000 295.901
33.19000 297.102
33.20000 298.377
33.21000 300.103
33.22000 301.905
33.23000 303.378
33.24000 302.341
33.25000 301.277
33.26000 302.432
33.27000 309.655
33.28000 317.224
33.29000 319.496
33.30000 311.862
33.31000 304.002
33.32000 299.616
33.33000 309.483
33.34000 316.327
33.35000 316.614
33.36000 311.533
33.37000 306.431
33.38000 300.372
33.39000 293.786
33.40000 287.449
33.41000 287.841
33.42000 290.582
33.43000 293.164
33.44000 294.190
33.45000 294.819
33.46000 295.656
33.47000 297.748
33.48000 300.052
33.49000 301.927
33.50000 298.621
33.51000 295.484
33.52000 293.547
33.53000 294.840
33.54000 296.313
33.55000 295.753
33.56000 291.448
33.57000 287.062
33.58000 284.631
33.59000 297.390
33.60000 306.209
33.61000 308.612
33.62000 305.847
33.63000 303.104
33.64000 301.378
33.65000 300.203
33.66000 299.073
33.67000 298.600
33.68000 298.385
33.69000 297.965
33.70000 295.570
33.71000 292.678
33.72000 290.309
33.73000 291.051
33.74000 292.307
33.75000 293.326
33.76000 289.258
33.77000 285.522
33.78000 282.392
33.79000 280.870
33.80000 279.435
33.81000 282.198
33.82000 292.583
33.83000 303.126
33.84000 308.925
33.85000 291.982
33.86000 280.316
33.87000 280.527
33.88000 290.157
33.89000 299.605
33.90000 301.133
33.91000 298.435
33.92000 295.846
33.93000 299.760
33.94000 305.641
33.95000 310.088
33.96000 300.970
33.97000 288.493
33.98000 278.778
33.99000 285.197
34.00000 294.234
34.01000 301.543
34.02000 293.415
34.03000 285.558
34.04000 279.676
34.05000 278.966
34.06000 278.526
34.07000 278.986
34.08000 281.054
34.09000 283.154
34.10000 284.301
34.11000 286.750
34.12000 288.434
34.13000 289.908
34.14000 291.219
34.15000 292.437
34.16000 289.774
34.17000 285.070
34.18000 280.560
34.19000 281.206
34.20000 283.540
34.21000 285.427
34.22000 283.162
34.23000 279.884
34.24000 277.687
34.25000 281.700
34.26000 286.704
34.27000 290.738
34.28000 293.915
34.29000 296.427
34.30000 297.087
34.31000 292.967
34.32000 288.603
34.33000 284.816
34.34000 282.045
34.35000 279.293
34.36000 277.802
34.37000 284.295
34.38000 288.740
34.39000 290.332
34.40000 289.730
34.41000 289.137
34.42000 288.901
34.43000 288.848
34.44000 288.798
34.45000 293.077
34.46000 298.496
34.47000 302.934
34.48000 298.445
34.49000 291.813
34.50000 286.047
34.51000 285.173
34.52000 285.066
34.53000 284.979
34.54000 278.082
34.55000 271.967
34.56000 271.897
34.57000 287.202
34.58000 303.265
34.59000 309.555
34.60000 298.867
34.61000 287.873
34.62000 281.961
34.63000 288.676
34.64000 293.253
34.65000 292.920
34.66000 288.873
34.67000 284.999
34.68000 287.730
34.69000 293.837
34.70000 299.675
34.71000 298.771
34.72000 295.737
34.73000 292.685
34.74000 289.471
34.75000 286.219
34.76000 283.362
34.77000 282.698
34.78000 282.371
34.79000 282.109
34.80000 280.090
34.81000 278.325
34.82000 279.220
34.83000 286.786
34.84000 294.671
34.85000 296.864
34.86000 289.311
34.87000 281.592
34.88000 277.473
34.89000 287.221
34.90000 293.840
34.91000 293.990
34.92000 289.321
34.93000 284.737
34.94000 283.284
34.95000 283.407
34.96000 283.524
34.97000 281.214
34.98000 278.292
34.99000 275.698
35.00000 275.977
35.01000 276.924
35.02000 276.810
35.03000 270.897
35.04000 264.107
35.05000 258.687
35.06000 265.459
35.07000 271.822
35.08000 275.947
35.09000 274.543
35.10000 272.882
35.11000 273.364
35.12000 277.460
35.13000 281.614
35.14000 283.813
35.15000 268.005
35.16000 257.326
35.17000 259.659
35.18000 271.538
35.19000 283.170
35.20000 286.119
35.21000 284.761
35.22000 283.465
35.23000 279.421
35.24000 274.803
35.25000 271.043
35.26000 274.631
35.27000 279.903
35.28000 284.341
35.29000 284.298
35.30000 283.588
35.31000 283.023
35.32000 282.767
35.33000 282.584
35.34000 280.653
35.35000 274.466
35.36000 268.088
35.37000 264.562
35.38000 265.777
35.39000 267.064
35.40000 267.740
35.41000 270.009
35.42000 271.547
35.43000 272.966
35.44000 274.298
35.45000 275.571
35.46000 274.842
35.47000 273.134
35.48000 271.507
35.49000 270.688
35.50000 270.180
35.51000 269.982
35.52000 272.388
35.53000 275.381
35.54000 277.484
35.55000 274.880
35.56000 271.588
35.57000 268.978
35.58000 270.585
35.59000 272.172
35.60000 271.888
35.61000 267.111
35.62000 262.138
35.63000 262.308
35.64000 270.898
35.65000 279.610
35.66000 284.151
35.67000 284.831
35.68000 285.251
35.69000 280.132
35.70000 271.072
35.71000 262.140
35.72000 257.351
35.73000 254.560
35.74000 251.906
35.75000 253.424
35.76000 256.100
35.77000 258.791
35.78000 261.603
35.79000 264.441
35.80000 266.760
35.81000 266.374
35.82000 265.599
35.83000 264.987
35.84000 271.585
35.85000 277.373
35.86000 279.575
35.87000 273.294
35.88000 266.653
35.89000 261.267
35.90000 257.905
35.91000 254.571
35.92000 252.847
35.93000 255.118
35.94000 256.670
35.95000 260.795
35.96000 266.722
35.97000 272.402
35.98000 270.320
35.99000 264.551
36.00000 259.073
36.01000 259.632
36.02000 261.958
36.03000 263.928
36.04000 263.006
36.05000 261.451
36.06000 261.013
36.07000 266.285
36.08000 272.362
36.09000 277.146
36.10000 275.366
36.11000 273.502
36.12000 270.857
36.13000 266.394
36.14000 261.855
36.15000 259.147
36.16000 259.348
36.17000 259.586
36.18000 259.708
36.19000 259.199
36.20000 258.832
36.21000 255.448
36.22000 249.984
36.23000 244.796
36.24000 247.922
36.25000 254.942
36.26000 261.599
36.27000 264.411
36.28000 265.869
36.29000 267.320
36.30000 268.725
36.31000 270.119
36.32000 270.906
36.33000 268.632
36.34000 265.935
36.35000 263.818
36.36000 260.918
36.37000 258.547
36.38000 257.092
36.39000 257.737
36.40000 258.466
36.41000 259.243
36.42000 260.093
36.43000 260.944
36.44000 261.376
36.45000 259.292
36.46000 257.900
36.47000 257.150
36.48000 256.836
36.49000 256.526
36.50000 256.308
36.51000 256.133
36.52000 255.967
36.53000 254.127
36.54000 251.949
36.55000 250.032
36.56000 250.150
36.57000 250.701
36.58000 250.899
36.59000 249.354
36.60000 247.573
36.61000 246.180
36.62000 251.231
36.63000 255.671
36.64000 257.880
36.65000 255.036
36.66000 251.998
36.67000 254.157
36.68000 264.333
36.69000 274.598
36.70000 279.775
36.71000 277.636
36.72000 276.198
36.73000 273.950
36.74000 271.158
36.75000 268.375
36.76000 265.808
36.77000 263.339
36.78000 261.004
36.79000 258.790
36.80000 256.790
36.81000 255.496
36.82000 259.593
36.83000 264.815
36.84000 269.589
36.85000 272.176
36.86000 274.471
36.87000 276.258
36.88000 272.474
36.89000 269.115
36.90000 267.216
36.91000 268.574
36.92000 270.053
36.93000 273.217
36.94000 278.943
36.95000 284.696
36.96000 287.573
36.97000 276.559
36.98000 269.261
36.99000 266.364
37.00000 266.369
37.01000 266.516
37.02000 270.518
37.03000 276.249
37.04000 281.660
37.05000 280.128
37.06000 276.773
37.07000 273.139
37.08000 267.411
37.09000 261.254
37.10000 257.359
37.11000 264.325
37.12000 272.714
37.13000 279.224
37.14000 278.397
37.15000 277.298
37.16000 278.172
37.17000 283.387
37.18000 288.757
37.19000 290.633
37.20000 287.281
37.21000 283.879
37.22000 278.630
37.23000 271.565
37.24000 264.579
37.25000 264.643
37.26000 269.284
37.27000 273.850
37.28000 276.457
37.29000 278.198
37.30000 279.840
37.31000 274.889
37.32000 268.533
37.33000 263.050
37.34000 264.000
37.35000 266.250
37.36000 268.469
37.37000 270.540
37.38000 272.591
37.39000 274.177
37.40000 276.245
37.41000 277.913
37.42000 277.227
37.43000 271.432
37.44000 265.462
37.45000 259.450
37.46000 253.378
37.47000 247.305
37.48000 247.057
37.49000 252.443
37.50000 257.781
37.51000 259.095
37.52000 257.836
37.53000 256.618
37.54000 256.456
37.55000 256.753
37.56000 257.033
37.57000 256.604
37.58000 256.019
37.59000 255.945
37.60000 259.569
37.61000 263.927
37.62000 267.172
37.63000 265.233
37.64000 262.640
37.65000 260.642
37.66000 267.543
37.67000 273.517
37.68000 275.457
37.69000 268.774
37.70000 261.804
37.71000 258.274
37.72000 259.739
37.73000 261.245
37.74000 261.210
37.75000 259.708
37.76000 258.238
37.77000 259.294
37.78000 261.940
37.79000 264.435
37.80000 263.244
37.81000 260.470
37.82000 257.863
37.83000 250.735
37.84000 243.021
37.85000 237.119
37.86000 244.091
37.87000 253.581
37.88000 261.529
37.89000 262.414
37.90000 262.425
37.91000 262.434
37.92000 252.069
37.93000 243.301
37.94000 240.951
37.95000 252.125
37.96000 263.734
37.97000 268.682
37.98000 264.109
37.99000 259.464
38.00000 259.305
38.01000 263.341
38.02000 267.277
38.03000 263.684
38.04000 255.419
38.05000 247.662
38.06000 251.946
38.07000 261.325
38.08000 270.125
38.09000 275.983
38.10000 280.545
38.11000 284.530
38.12000 284.479
38.13000 283.652
38.14000 282.094
38.15000 277.243
38.16000 271.992
38.17000 267.979
38.18000 269.821
38.19000 271.591
38.20000 271.172
38.21000 266.205
38.22000 261.098
38.23000 260.930
38.24000 267.715
38.25000 274.548
38.26000 280.006
38.27000 284.196
38.28000 288.371
38.29000 291.435
38.30000 293.820
38.31000 296.090
38.32000 295.710
38.33000 294.223
38.34000 292.831
38.35000 297.018
38.36000 302.270
38.37000 306.745
38.38000 305.892
38.39000 304.031
38.40000 305.491
38.41000 321.684
38.42000 339.633
38.43000 353.301
38.44000 348.081
38.45000 342.974
38.46000 344.993
38.47000 361.598
38.48000 378.636
38.49000 392.564
38.50000 402.182
38.51000 411.770
38.52000 429.563
38.53000 454.762
38.54000 480.000
38.55000 507.781
38.56000 537.094
38.57000 566.237
38.58000 591.586
38.59000 615.375
38.60000 637.622
38.61000 679.645
38.62000 722.840
38.63000 764.478
38.64000 795.630
38.65000 824.830
38.66000 853.480
38.67000 879.732
38.68000 905.705
38.69000 925.407
38.70000 963.635
38.71000 994.617
38.72000 1023.622
38.73000 1048.638
38.74000 1073.539
38.75000 1086.211
38.76000 1082.188
38.77000 1078.069
38.78000 1074.390
38.79000 1071.108
38.80000 1067.516
38.81000 1044.630
38.82000 1010.292
38.83000 976.017
38.84000 943.108
38.85000 910.751
38.86000 880.543
38.87000 843.464
38.88000 808.128
38.89000 773.860
38.90000 746.655
38.91000 720.745
38.92000 691.170
38.93000 645.840
38.94000 598.704
38.95000 563.087
38.96000 538.569
38.97000 519.903
38.98000 498.549
38.99000 471.853
39.00000 445.010
39.01000 422.556
39.02000 406.001
39.03000 389.487
39.04000 374.062
39.05000 359.614
39.06000 345.243
39.07000 335.424
39.08000 328.267
39.09000 320.969
39.10000 310.738
39.11000 299.334
39.12000 288.706
39.13000 288.273
39.14000 290.392
39.15000 291.366
39.16000 284.903
39.17000 277.100
39.18000 270.441
39.19000 268.629
39.20000 267.360
39.21000 266.406
39.22000 267.641
39.23000 268.713
39.24000 267.672
39.25000 262.490
39.26000 257.198
39.27000 256.790
39.28000 262.842
39.29000 268.921
39.30000 266.293
39.31000 256.181
39.32000 246.297
39.33000 249.195
39.34000 259.459
39.35000 268.828
39.36000 260.007
39.37000 244.026
39.38000 229.156
39.39000 233.834
39.40000 242.793
39.41000 250.810
39.42000 252.809
39.43000 253.741
39.44000 254.158
39.45000 252.426
39.46000 250.457
39.47000 248.982
39.48000 239.475
39.49000 231.673
39.50000 228.838
39.51000 235.596
39.52000 242.597
39.53000 244.695
39.54000 240.406
39.55000 236.094
39.56000 234.516
39.57000 235.256
39.58000 235.995
39.59000 236.700
39.60000 237.387
39.61000 237.779
39.62000 232.377
39.63000 224.727
39.64000 217.621
39.65000 223.946
39.66000 232.850
39.67000 240.109
39.68000 237.035
39.69000 232.160
39.70000 227.943
39.71000 226.428
39.72000 225.205
39.73000 224.293
39.74000 225.156
39.75000 225.910
39.76000 227.366
39.77000 230.159
39.78000 232.984
39.79000 235.432
39.80000 237.396
39.81000 239.356
39.82000 240.384
39.83000 240.634
39.84000 240.919
39.85000 242.973
39.86000 246.017
39.87000 248.681
39.88000 244.068
39.89000 236.672
39.90000 229.813
39.91000 230.235
39.92000 232.319
39.93000 234.154
39.94000 234.443
39.95000 234.469
39.96000 235.573
39.97000 241.041
39.98000 246.972
39.99000 251.381
40.00000 252.060
40.01000 252.422
40.02000 248.822
40.03000 237.790
40.04000 226.587
40.05000 222.154
40.06000 226.268
40.07000 230.405
40.08000 233.065
40.09000 234.508
40.10000 235.852
40.11000 232.452
40.12000 226.435
40.13000 221.015
40.14000 226.702
40.15000 236.576
40.16000 245.716
40.17000 243.323
40.18000 238.516
40.19000 234.126
40.20000 232.261
40.21000 230.821
40.22000 228.596
40.23000 223.241
40.24000 217.561
40.25000 213.355
40.26000 220.215
40.27000 226.017
40.28000 229.731
40.29000 229.582
40.30000 229.349
40.31000 229.701
40.32000 230.780
40.33000 231.860
40.34000 229.476
40.35000 224.311
40.36000 219.266
40.37000 219.752
40.38000 223.244
40.39000 226.383
40.40000 223.146
40.41000 217.541
40.42000 212.362
40.43000 216.980
40.44000 223.340
40.45000 228.748
40.46000 228.471
40.47000 227.253
40.48000 224.824
40.49000 217.647
40.50000 209.989
40.51000 204.342
40.52000 212.533
40.53000 219.459
40.54000 222.820
40.55000 219.685
40.56000 216.414
40.57000 214.744
40.58000 215.033
40.59000 215.326
40.60000 217.370
40.61000 220.792
40.62000 224.171
40.63000 225.674
40.64000 226.171
40.65000 226.597
40.66000 225.762
40.67000 224.464
40.68000 223.268
40.69000 228.005
40.70000 233.570
40.71000 237.532
40.72000 232.097
40.73000 225.130
40.74000 218.898
40.75000 215.504
40.76000 212.392
40.77000 210.106
40.78000 212.306
40.79000 214.188
40.80000 215.344
40.81000 215.195
40.82000 215.020
40.83000 214.767
40.84000 214.420
40.85000 214.074
40.86000 214.728
40.87000 216.158
40.88000 217.619
40.89000 220.350
40.90000 223.752
40.91000 226.787
40.92000 223.520
40.93000 217.980
40.94000 212.880
40.95000 215.332
40.96000 219.178
40.97000 221.740
40.98000 216.895
40.99000 210.865
41.00000 206.639
41.01000 209.276
41.02000 212.581
41.03000 214.998
41.04000 214.573
41.05000 214.132
41.06000 214.650
41.07000 216.860
41.08000 219.103
41.09000 219.665
41.10000 218.236
41.11000 216.806
41.12000 216.718
41.13000 217.658
41.14000 218.540
41.15000 217.120
41.16000 214.501
41.17000 212.279
41.18000 216.669
41.19000 223.412
41.20000 229.608
41.21000 223.057
41.22000 214.467
41.23000 208.144
41.24000 214.675
41.25000 223.229
41.26000 229.074
41.27000 224.770
41.28000 219.497
41.29000 215.659
41.30000 211.322
41.31000 207.964
41.32000 206.152
41.33000 207.034
41.34000 207.964
41.35000 208.753
41.36000 209.375
41.37000 209.996
41.38000 211.884
41.39000 214.714
41.40000 217.395
41.41000 214.289
41.42000 208.218
41.43000 202.768
41.44000 207.394
41.45000 215.554
41.46000 223.038
41.47000 219.869
41.48000 214.793
41.49000 211.180
41.50000 215.724
41.51000 221.529
41.52000 225.018
41.53000 219.950
41.54000 214.083
41.55000 209.830
41.56000 203.063
41.57000 197.772
41.58000 196.642
41.59000 202.661
41.60000 208.802
41.61000 212.479
41.62000 213.329
41.63000 214.173
41.64000 213.658
41.65000 212.138
41.66000 210.619
41.67000 209.112
41.68000 207.611
41.69000 206.236
41.70000 206.858
41.71000 208.169
41.72000 209.369
41.73000 207.301
41.74000 204.781
41.75000 203.361
41.76000 207.969
41.77000 213.493
41.78000 217.466
41.79000 215.798
41.80000 213.615
41.81000 212.039
41.82000 213.963
41.83000 215.563
41.84000 215.649
41.85000 213.173
41.86000 210.655
41.87000 207.882
41.88000 204.822
41.89000 201.773
41.90000 199.459
41.91000 197.703
41.92000 195.985
41.93000 195.655
41.94000 196.016
41.95000 196.497
41.96000 198.827
41.97000 201.788
41.98000 204.493
41.99000 204.626
42.00000 204.219
42.01000 204.435
42.02000 208.011
42.03000 212.089
42.04000 215.072
42.05000 214.131
42.06000 212.840
42.07000 211.913
42.08000 207.667
42.09000 204.303
42.10000 200.712
42.11000 196.743
42.12000 192.767
42.13000 193.359
42.14000 199.021
42.15000 204.666
42.16000 207.367
42.17000 207.930
42.18000 208.480
42.19000 208.599
42.20000 208.507
42.21000 208.419
42.22000 208.400
42.23000 208.404
42.24000 208.407
42.25000 207.805
42.26000 207.149
42.27000 206.210
42.28000 203.770
42.29000 201.110
42.30000 199.109
42.31000 199.435
42.32000 199.964
42.33000 200.342
42.34000 195.661
42.35000 191.917
42.36000 192.987
42.37000 201.968
42.38000 211.063
42.39000 215.267
42.40000 214.128
42.41000 212.991
42.42000 210.359
42.43000 206.696
42.44000 203.048
42.45000 199.923
42.46000 197.049
42.47000 194.488
42.48000 196.519
42.49000 200.068
42.50000 203.298
42.51000 202.139
42.52000 200.249
42.53000 199.367
42.54000 203.757
42.55000 208.907
42.56000 212.178
42.57000 208.919
42.58000 205.100
42.59000 202.381
42.60000 203.462
42.61000 204.409
42.62000 205.107
42.63000 205.402
42.64000 205.690
42.65000 203.169
42.66000 197.631
42.67000 192.115
42.68000 191.029
42.69000 193.035
42.70000 195.032
42.71000 196.743
42.72000 198.317
42.73000 199.996
42.74000 203.168
42.75000 206.827
42.76000 210.150
42.77000 209.244
42.78000 207.623
42.79000 205.945
42.80000 203.972
42.81000 201.957
42.82000 200.512
42.83000 201.019
42.84000 201.689
42.85000 202.163
42.86000 200.725
42.87000 199.570
42.88000 198.889
42.89000 198.962
42.90000 199.044
42.91000 201.626
42.92000 206.848
42.93000 212.046
42.94000 211.855
42.95000 207.978
42.96000 204.289
42.97000 206.289
42.98000 210.962
42.99000 215.354
43.00000 215.842
43.01000 215.075
43.02000 214.381
43.03000 210.016
43.04000 205.467
43.05000 201.584
43.06000 201.063
43.07000 201.009
43.08000 200.677
43.09000 199.405
43.10000 198.056
43.11000 197.104
43.12000 205.264
43.13000 211.732
43.14000 212.984
43.15000 206.043
43.16000 199.003
43.17000 199.358
43.18000 207.395
43.19000 215.391
43.20000 213.992
43.21000 206.282
43.22000 198.904
43.23000 201.196
43.24000 207.967
43.25000 214.117
43.26000 211.807
43.27000 206.819
43.28000 202.307
43.29000 203.706
43.30000 206.044
43.31000 207.548
43.32000 204.903
43.33000 201.691
43.34000 199.143
43.35000 198.803
43.36000 198.638
43.37000 198.523
43.38000 199.835
43.39000 200.870
43.40000 198.824
43.41000 192.009
43.42000 185.140
43.43000 183.773
43.44000 188.027
43.45000 192.257
43.46000 194.031
43.47000 194.155
43.48000 194.437
43.49000 199.182
43.50000 205.962
43.51000 212.197
43.52000 211.171
43.53000 207.880
43.54000 204.909
43.55000 201.635
43.56000 198.701
43.57000 196.633
43.58000 198.797
43.59000 201.529
43.60000 203.355
43.61000 202.215
43.62000 200.844
43.63000 199.885
43.64000 198.711
43.65000 197.818
43.66000 198.970
43.67000 203.238
43.68000 207.538
43.69000 205.675
43.70000 197.621
43.71000 189.617
43.72000 187.600
43.73000 189.517
43.74000 191.387
43.75000 192.020
43.76000 192.096
43.77000 192.399
43.78000 195.645
43.79000 199.795
43.80000 203.535
43.81000 201.055
43.82000 197.756
43.83000 195.550
43.84000 198.607
43.85000 202.355
43.86000 202.975
43.87000 193.485
43.88000 183.225
43.89000 176.086
43.90000 186.536
43.91000 194.894
43.92000 199.776
43.93000 199.440
43.94000 199.052
43.95000 200.434
43.96000 203.563
43.97000 206.672
43.98000 204.354
43.99000 198.590
44.00000 193.036
44.01000 193.043
44.02000 195.515
44.03000 197.790
44.04000 197.561
44.05000 196.574
44.06000 195.687
44.07000 193.080
44.08000 190.492
44.09000 188.586
44.10000 189.917
44.11000 191.666
44.12000 193.018
44.13000 193.107
44.14000 193.101
44.15000 193.098
44.16000 192.287
44.17000 191.656
44.18000 191.743
44.19000 192.893
44.20000 194.052
44.21000 193.407
44.22000 191.010
44.23000 188.629
44.24000 187.793
44.25000 187.944
44.26000 188.099
44.27000 188.338
44.28000 188.614
44.29000 189.000
44.30000 190.736
44.31000 192.876
44.32000 194.795
44.33000 195.572
44.34000 196.051
44.35000 196.092
44.36000 194.092
44.37000 191.833
44.38000 191.009
44.39000 194.688
44.40000 198.693
44.41000 201.453
44.42000 201.606
44.43000 201.656
44.44000 203.981
44.45000 209.621
44.46000 215.289
44.47000 212.118
44.48000 200.508
44.49000 188.987
44.50000 186.672
44.51000 190.116
44.52000 193.478
44.53000 194.801
44.54000 195.246
44.55000 195.795
44.56000 197.611
44.57000 199.800
44.58000 201.759
44.59000 198.143
44.60000 194.033
44.61000 191.430
44.62000 195.749
44.63000 200.929
44.64000 204.673
44.65000 203.979
44.66000 202.970
44.67000 202.278
44.68000 195.274
44.69000 189.873
44.70000 191.649
44.71000 203.720
44.72000 215.869
44.73000 219.510
44.74000 215.160
44.75000 210.846
44.76000 212.260
44.77000 217.152
44.78000 221.820
44.79000 221.135
44.80000 218.179
44.81000 215.544
44.82000 216.708
44.83000 218.973
44.84000 220.996
44.85000 224.346
44.86000 227.487
44.87000 229.893
44.88000 228.972
44.89000 227.646
44.90000 229.716
44.91000 242.133
44.92000 255.265
44.93000 264.226
44.94000 250.482
44.95000 239.676
44.96000 236.049
44.97000 242.562
44.98000 249.145
44.99000 252.038
45.00000 251.522
45.01000 251.010
45.02000 255.126
45.03000 261.948
45.04000 268.653
45.05000 272.652
45.06000 275.519
45.07000 278.141
45.08000 277.926
45.09000 276.903
45.10000 275.991
45.11000 282.204
45.12000 288.783
45.13000 294.618
45.14000 297.140
45.15000 299.265
45.16000 301.494
45.17000 304.038
45.18000 306.602
45.19000 308.343
45.20000 300.576
45.21000 294.568
45.22000 291.473
45.23000 292.431
45.24000 293.416
45.25000 295.587
45.26000 298.836
45.27000 302.055
45.28000 303.620
45.29000 304.174
45.30000 304.440
45.31000 298.244
45.32000 289.384
45.33000 280.921
45.34000 276.957
45.35000 274.259
45.36000 271.860
45.37000 270.254
45.38000 268.989
45.39000 268.187
45.40000 269.415
45.41000 270.881
45.42000 272.193
45.43000 273.054
45.44000 273.884
45.45000 274.445
45.46000 274.597
45.47000 274.701
45.48000 270.181
45.49000 259.330
45.50000 248.446
45.51000 244.520
45.52000 246.812
45.53000 249.082
45.54000 250.329
45.55000 250.954
45.56000 251.578
45.57000 252.205
45.58000 252.832
45.59000 252.907
45.60000 246.859
45.61000 239.114
45.62000 232.243
45.63000 232.452
45.64000 233.760
45.65000 234.040
45.66000 229.883
45.67000 225.215
45.68000 222.154
45.69000 223.779
45.70000 225.704
45.71000 226.998
45.72000 237.143
45.73000 244.862
45.74000 244.449
45.75000 233.069
45.76000 221.634
45.77000 214.709
45.78000 211.751
45.79000 208.823
45.80000 207.988
45.81000 208.373
45.82000 208.818
45.83000 210.541
45.84000 212.777
45.85000 214.267
45.86000 207.681
45.87000 198.891
45.88000 191.111
45.89000 194.998
45.90000 200.184
45.91000 203.584
45.92000 199.395
45.93000 194.350
45.94000 191.780
45.95000 196.326
45.96000 201.316
45.97000 204.653
45.98000 198.547
45.99000 193.835
46.00000 191.649
46.01000 192.819
46.02000 194.005
46.03000 194.556
46.04000 194.560
46.05000 194.563
46.06000 192.356
46.07000 188.952
46.08000 185.720
46.09000 186.015
46.10000 187.703
46.11000 189.132
46.12000 187.825
46.13000 185.782
46.14000 183.978
46.15000 183.800
46.16000 183.896
46.17000 183.751
46.18000 182.595
46.19000 181.329
46.20000 180.942
46.21000 183.048
46.22000 185.305
46.23000 186.807
46.24000 192.691
46.25000 197.127
46.26000 197.930
46.27000 193.984
46.28000 190.022
46.29000 188.381
46.30000 188.718
46.31000 189.050
46.32000 184.259
46.33000 176.738
46.34000 169.581
46.35000 169.660
46.36000 172.556
46.37000 175.208
46.38000 175.327
46.39000 174.775
46.40000 174.289
46.41000 179.096
46.42000 184.036
46.43000 187.205
46.44000 183.077
46.45000 178.157
46.46000 175.349
46.47000 178.438
46.48000 181.876
46.49000 184.150
46.50000 176.151
46.51000 170.061
46.52000 169.000
46.53000 174.412
46.54000 179.838
46.55000 180.068
46.56000 175.945
46.57000 171.874
46.58000 173.962
46.59000 179.366
46.60000 184.456
46.61000 183.488
46.62000 180.196
46.63000 177.156
46.64000 176.673
46.65000 176.858
46.66000 177.020
46.67000 177.193
46.68000 177.344
46.69000 177.098
46.70000 175.245
46.71000 173.221
46.72000 173.014
46.73000 177.806
46.74000 182.887
46.75000 186.231
46.76000 176.692
46.77000 169.445
46.78000 165.456
46.79000 165.594
46.80000 165.750
46.81000 167.648
46.82000 170.981
46.83000 174.270
46.84000 170.562
46.85000 163.186
46.86000 156.266
46.87000 157.871
46.88000 162.701
46.89000 166.970
46.90000 165.667
46.91000 162.931
46.92000 160.532
46.93000 166.996
46.94000 173.831
46.95000 179.652
46.96000 181.418
46.97000 182.762
46.98000 183.588
46.99000 183.008
47.00000 182.348
47.01000 181.917
47.02000 176.063
47.03000 171.672
47.04000 169.180
47.05000 169.058
47.06000 168.947
47.07000 170.414
47.08000 173.163
47.09000 175.873
47.10000 175.544
47.11000 173.614
47.12000 171.933
47.13000 174.797
47.14000 179.354
47.15000 183.447
47.16000 183.005
47.17000 181.415
47.18000 180.025
47.19000 175.395
47.20000 170.966
47.21000 167.122
47.22000 165.579
47.23000 164.271
47.24000 164.112
47.25000 167.023
47.26000 170.101
47.27000 172.105
47.28000 173.782
47.29000 175.007
47.30000 175.856
47.31000 176.242
47.32000 176.623
47.33000 175.255
47.34000 172.491
47.35000 169.767
47.36000 167.538
47.37000 165.633
47.38000 163.974
47.39000 166.684
47.40000 170.998
47.41000 174.691
47.42000 172.448
47.43000 168.725
47.44000 165.476
47.45000 168.557
47.46000 172.077
47.47000 174.359
47.48000 171.840
47.49000 168.841
47.50000 166.590
47.51000 166.310
47.52000 166.134
47.53000 166.021
47.54000 170.298
47.55000 173.493
47.56000 174.496
47.57000 172.850
47.58000 171.199
47.59000 169.324
47.60000 167.275
47.61000 165.257
47.62000 164.313
47.63000 163.949
47.64000 163.518
47.65000 161.945
47.66000 159.959
47.67000 158.089
47.68000 157.308
47.69000 156.794
47.70000 156.347
47.71000 160.306
47.72000 164.290
47.73000 167.777
47.74000 169.365
47.75000 170.767
47.76000 171.766
47.77000 171.716
47.78000 171.613
47.79000 171.546
47.80000 166.989
47.81000 163.599
47.82000 163.469
47.83000 167.215
47.84000 170.956
47.85000 171.520
47.86000 169.627
47.87000 167.764
47.88000 165.461
47.89000 163.009
47.90000 160.758
47.91000 161.865
47.92000 164.170
47.93000 165.804
47.94000 161.273
47.95000 155.252
47.96000 150.024
47.97000 155.236
47.98000 161.083
47.99000 165.906
48.00000 166.877
48.01000 167.479
48.02000 167.311
48.03000 165.173
48.04000 162.936
48.05000 161.504
48.06000 161.747
48.07000 161.946
48.08000 161.051
48.09000 158.876
48.10000 156.714
48.11000 157.672
48.12000 161.008
48.13000 164.289
48.14000 166.183
48.15000 167.325
48.16000 168.211
48.17000 164.921
48.18000 160.161
48.19000 155.785
48.20000 154.857
48.21000 154.749
48.22000 154.656
48.23000 153.458
48.24000 152.294
48.25000 151.212
48.26000 150.435
48.27000 149.686
48.28000 150.769
48.29000 156.472
48.30000 162.400
48.31000 166.174
48.32000 166.826
48.33000 167.261
48.34000 165.472
48.35000 161.122
48.36000 156.786
48.37000 155.656
48.38000 156.931
48.39000 158.184
48.40000 160.057
48.41000 162.170
48.42000 164.179
48.43000 164.546
48.44000 164.343
48.45000 163.574
48.46000 157.808
48.47000 150.872
48.48000 144.880
48.49000 148.411
48.50000 152.642
48.51000 155.767
48.52000 154.859
48.53000 153.580
48.54000 154.324
48.55000 160.098
48.56000 166.108
48.57000 169.913
48.58000 166.297
48.59000 163.585
48.60000 162.419
48.61000 163.003
48.62000 163.589
48.63000 164.220
48.64000 164.885
48.65000 165.538
48.66000 165.097
48.67000 164.145
48.68000 163.267
48.69000 163.532
48.70000 164.188
48.71000 164.443
48.72000 161.232
48.73000 157.220
48.74000 153.764
48.75000 155.942
48.76000 158.505
48.77000 160.467
48.78000 160.272
48.79000 159.883
48.80000 160.077
48.81000 161.698
48.82000 163.384
48.83000 164.446
48.84000 162.049
48.85000 160.276
48.86000 160.488
48.87000 162.911
48.88000 165.331
48.89000 167.028
48.90000 168.201
48.91000 169.351
48.92000 169.188
48.93000 168.407
48.94000 167.735
48.95000 168.701
48.96000 170.219
48.97000 171.286
48.98000 168.536
48.99000 164.918
49.00000 161.808
49.01000 159.294
49.02000 157.242
49.03000 156.146
49.04000 158.439
49.05000 161.030
49.06000 162.661
49.07000 161.972
49.08000 161.181
49.09000 160.685
49.10000 156.713
49.11000 153.809
49.12000 152.630
49.13000 153.341
49.14000 154.065
49.15000 156.510
49.16000 160.188
49.17000 163.793
49.18000 163.636
49.19000 161.729
49.20000 159.917
49.21000 159.495
49.22000 159.535
49.23000 159.179
49.24000 155.523
49.25000 151.129
49.26000 147.363
49.27000 149.435
49.28000 151.897
49.29000 153.784
49.30000 153.666
49.31000 153.375
49.32000 153.999
49.33000 156.802
49.34000 159.699
49.35000 161.501
49.36000 155.241
49.37000 150.651
49.38000 148.470
49.39000 148.884
49.40000 149.302
49.41000 150.038
49.42000 150.999
49.43000 151.939
49.44000 151.994
49.45000 151.640
49.46000 151.573
49.47000 155.644
49.48000 161.068
49.49000 165.941
49.50000 166.324
49.51000 165.717
49.52000 165.199
49.53000 167.393
49.54000 169.567
49.55000 169.958
49.56000 164.215
49.57000 157.958
49.58000 153.082
49.59000 151.447
49.60000 149.946
49.61000 149.018
49.62000 154.367
49.63000 158.269
49.64000 161.307
49.65000 163.427
49.66000 165.517
49.67000 163.716
49.68000 159.214
49.69000 154.810
49.70000 153.755
49.71000 154.256
49.72000 154.675
49.73000 153.935
49.74000 152.821
49.75000 151.964
49.76000 153.167
49.77000 154.815
49.78000 156.220
49.79000 156.384
49.80000 156.376
49.81000 156.183
49.82000 155.368
49.83000 154.501
49.84000 153.548
49.85000 152.398
49.86000 151.240
49.87000 150.528
49.88000 149.442
49.89000 148.661
49.90000 148.769
49.91000 149.805
49.92000 150.832
49.93000 150.828
49.94000 150.117
49.95000 149.423
49.96000 154.211
49.97000 161.238
49.98000 167.806
49.99000 168.095
50.00000 166.390
50.01000 164.146
50.02000 157.672
50.03000 150.295
50.04000 144.023
50.05000 150.635
50.06000 157.669
50.07000 163.314
50.08000 164.322
50.09000 164.959
50.10000 164.652
50.11000 162.195
50.12000 159.655
50.13000 158.103
50.14000 160.175
50.15000 161.688
50.16000 160.896
50.17000 157.742
50.18000 154.583
50.19000 150.898
50.20000 146.859
50.21000 142.915
50.22000 144.982
50.23000 149.592
50.24000 154.029
50.25000 156.144
50.26000 157.532
50.27000 158.625
50.28000 157.448
50.29000 155.794
50.30000 154.391
50.31000 154.270
50.32000 154.314
50.33000 155.102
50.34000 158.340
50.35000 161.771
50.36000 164.978
50.37000 167.682
50.38000 170.367
50.39000 171.998
50.40000 167.343
50.41000 163.973
50.42000 164.246
50.43000 168.193
50.44000 172.070
50.45000 169.091
50.46000 161.564
50.47000 154.220
50.48000 154.941
50.49000 159.106
50.50000 163.363
50.51000 168.801
50.52000 174.603
50.53000 180.144
50.54000 183.705
50.55000 186.857
50.56000 189.522
50.57000 193.104
50.58000 196.203
50.59000 198.842
50.60000 199.996
50.61000 201.036
50.62000 202.227
50.63000 203.756
50.64000 205.298
50.65000 206.228
50.66000 210.702
50.67000 213.913
50.68000 214.238
50.69000 211.703
50.70000 209.229
50.71000 212.411
50.72000 219.290
50.73000 225.994
50.74000 227.632
50.75000 227.046
50.76000 226.510
50.77000 226.618
50.78000 226.921
50.79000 226.915
50.80000 224.604
50.81000 221.824
50.82000 219.480
50.83000 229.528
50.84000 239.259
50.85000 245.003
50.86000 238.014
50.87000 230.073
50.88000 223.451
50.89000 219.711
50.90000 216.071
50.91000 213.889
50.92000 210.070
50.93000 207.346
50.94000 204.256
50.95000 200.807
50.96000 197.376
50.97000 195.391
50.98000 194.337
50.99000 193.311
51.00000 189.272
51.01000 184.164
51.02000 179.438
51.03000 179.457
51.04000 180.895
51.05000 182.577
51.06000 186.028
51.07000 189.834
51.08000 193.034
51.09000 189.467
51.10000 185.777
51.11000 182.187
51.12000 178.910
51.13000 175.656
51.14000 172.547
51.15000 169.746
51.16000 166.956
51.17000 165.294
51.18000 164.563
51.19000 164.050
51.20000 163.528
51.21000 162.997
51.22000 162.503
51.23000 165.029
51.24000 169.470
51.25000 173.790
51.26000 174.614
51.27000 173.960
51.28000 173.210
51.29000 171.292
51.30000 169.030
51.31000 167.068
51.32000 167.257
51.33000 167.868
51.34000 168.381
51.35000 158.793
51.36000 149.768
51.37000 144.647
51.38000 151.634
51.39000 159.483
51.40000 164.529
51.41000 163.633
51.42000 162.544
51.43000 161.899
51.44000 153.219
51.45000 147.039
51.46000 146.015
51.47000 149.851
51.48000 153.663
51.49000 155.732
51.50000 156.712
51.51000 157.665
51.52000 154.214
51.53000 149.153
51.54000 144.508
51.55000 144.808
51.56000 146.544
51.57000 148.294
51.58000 150.136
51.59000 151.996
51.60000 153.551
51.61000 146.938
51.62000 140.617
51.63000 137.415
51.64000 143.746
51.65000 150.740
51.66000 154.130
51.67000 149.989
51.68000 145.611
51.69000 143.037
51.70000 149.159
51.71000 153.520
51.72000 152.978
51.73000 147.892
51.74000 142.841
51.75000 140.261
51.76000 139.202
51.77000 138.175
51.78000 141.157
51.79000 145.584
51.80000 149.728
51.81000 150.585
51.82000 150.500
51.83000 150.346
51.84000 149.717
51.85000 148.997
51.86000 148.397
51.87000 143.104
51.88000 138.250
51.89000 135.957
51.90000 141.376
51.91000 147.318
51.92000 150.311
51.93000 147.230
51.94000 143.965
51.95000 142.058
51.96000 143.060
51.97000 143.778
51.98000 143.505
51.99000 142.328
52.00000 141.161
52.01000 140.687
52.02000 140.632
52.03000 140.579
52.04000 141.972
52.05000 143.858
52.06000 145.476
52.07000 144.052
52.08000 141.769
52.09000 139.872
52.10000 140.596
52.11000 141.811
52.12000 142.821
52.13000 146.053
52.14000 148.943
52.15000 150.399
52.16000 147.596
52.17000 144.511
52.18000 141.758
52.19000 139.678
52.20000 137.617
52.21000 136.421
52.22000 141.576
52.23000 145.220
52.24000 147.105
52.25000 147.413
52.26000 147.678
52.27000 145.142
52.28000 140.934
52.29000 136.857
52.30000 137.694
52.31000 140.380
52.32000 142.858
52.33000 143.012
52.34000 142.520
52.35000 142.076
52.36000 141.951
52.37000 141.884
52.38000 141.829
52.39000 141.778
52.40000 141.736
52.41000 141.469
52.42000 140.541
52.43000 139.572
52.44000 139.956
52.45000 143.052
52.46000 146.223
52.47000 148.051
52.48000 148.261
52.49000 148.400
52.50000 147.302
52.51000 145.110
52.52000 142.905
52.53000 139.886
52.54000 136.387
52.55000 133.002
52.56000 133.134
52.57000 134.592
52.58000 136.158
52.59000 138.886
52.60000 141.933
52.61000 144.478
52.62000 143.743
52.63000 142.411
52.64000 141.311
52.65000 141.846
52.66000 142.439
52.67000 142.568
52.68000 141.356
52.69000 140.060
52.70000 139.314
52.71000 139.654
52.72000 140.024
52.73000 140.235
52.74000 139.446
52.75000 138.893
52.76000 139.805
52.77000 141.988
52.78000 144.125
52.79000 143.589
52.80000 141.504
52.81000 139.488
52.82000 138.212
52.83000 137.285
52.84000 136.249
52.85000 134.053
52.86000 131.544
52.87000 129.355
52.88000 129.225
52.89000 129.462
52.90000 129.658
52.91000 135.615
52.92000 141.041
52.93000 143.379
52.94000 136.943
52.95000 129.971
52.96000 126.541
52.97000 129.997
52.98000 133.629
52.99000 135.695
53.00000 142.184
53.01000 146.711
53.02000 145.725
53.03000 140.030
53.04000 134.429
53.05000 133.873
53.06000 136.199
53.07000 138.445
53.08000 139.915
53.09000 141.015
53.10000 141.815
53.11000 139.488
53.12000 136.329
53.13000 133.920
53.14000 136.253
53.15000 139.417
53.16000 142.015
53.17000 142.350
53.18000 142.423
53.19000 142.099
53.20000 140.664
53.21000 139.163
53.22000 138.769
53.23000 140.494
53.24000 142.271
53.25000 143.275
53.26000 148.001
53.27000 151.292
53.28000 152.333
53.29000 151.484
53.30000 150.628
53.31000 149.462
53.32000 148.120
53.33000 146.827
53.34000 147.484
53.35000 148.806
53.36000 149.846
53.37000 148.000
53.38000 145.400
53.39000 143.479
53.40000 145.785
53.41000 148.822
53.42000 151.307
53.43000 153.073
53.44000 154.457
53.45000 154.551
53.46000 151.083
53.47000 147.409
53.48000 147.060
53.49000 152.990
53.50000 159.067
53.51000 162.474
53.52000 153.590
53.53000 147.413
53.54000 146.417
53.55000 149.707
53.56000 152.928
53.57000 152.810
53.58000 150.839
53.59000 148.940
53.60000 146.331
53.61000 143.628
53.62000 141.186
53.63000 141.349
53.64000 142.183
53.65000 142.282
53.66000 137.879
53.67000 132.713
53.68000 128.498
53.69000 136.769
53.70000 144.602
53.71000 149.871
53.72000 148.167
53.73000 146.070
53.74000 143.987
53.75000 141.930
53.76000 139.874
53.77000 138.730
53.78000 137.438
53.79000 136.552
53.80000 138.794
53.81000 143.582
53.82000 148.255
53.83000 147.512
53.84000 143.810
53.85000 140.248
53.86000 141.101
53.87000 143.448
53.88000 145.396
53.89000 143.431
53.90000 140.473
53.91000 138.322
53.92000 141.016
53.93000 144.520
53.94000 147.368
53.95000 145.908
53.96000 144.356
53.97000 143.283
53.98000 143.493
53.99000 143.774
54.00000 143.250
54.01000 141.249
54.02000 139.217
54.03000 138.094
54.04000 140.401
54.05000 141.995
54.06000 142.206
54.07000 141.309
54.08000 140.426
54.09000 140.182
54.10000 140.282
54.11000 140.378
54.12000 139.414
54.13000 138.145
54.14000 136.959
54.15000 136.558
54.16000 136.354
54.17000 136.310
54.18000 137.217
54.19000 138.281
54.20000 139.143
54.21000 137.680
54.22000 136.298
54.23000 135.641
54.24000 136.899
54.25000 138.260
54.26000 137.615
54.27000 133.348
54.28000 129.008
54.29000 126.627
54.30000 133.477
54.31000 138.189
54.32000 138.410
54.33000 135.089
54.34000 131.843
54.35000 131.767
54.36000 133.375
54.37000 134.918
54.38000 132.652
54.39000 129.241
54.40000 126.209
54.41000 126.744
54.42000 128.157
54.43000 129.757
54.44000 132.444
54.45000 135.306
54.46000 137.619
54.47000 139.711
54.48000 141.395
54.49000 142.488
54.50000 142.044
54.51000 141.521
54.52000 141.115
54.53000 140.920
54.54000 140.729
54.55000 140.624
54.56000 140.184
54.57000 139.877
54.58000 138.336
54.59000 135.837
54.60000 133.342
54.61000 131.058
54.62000 128.884
54.63000 126.800
54.64000 130.004
54.65000 134.759
54.66000 139.381
54.67000 142.786
54.68000 145.895
54.69000 147.693
54.70000 141.999
54.71000 135.117
54.72000 129.576
54.73000 139.371
54.74000 148.519
54.75000 153.110
54.76000 146.003
54.77000 138.307
54.78000 134.702
54.79000 138.275
54.80000 141.980
54.81000 143.983
54.82000 140.272
54.83000 137.732
54.84000 136.438
54.85000 136.097
54.86000 135.794
54.87000 136.999
54.88000 138.981
54.89000 140.877
54.90000 139.306
54.91000 136.701
54.92000 134.294
54.93000 133.670
54.94000 133.471
54.95000 133.085
54.96000 131.649
54.97000 130.049
54.98000 128.765
54.99000 131.967
55.00000 134.903
55.01000 138.203
55.02000 142.424
55.03000 146.691
55.04000 147.350
55.05000 141.776
55.06000 136.092
55.07000 133.043
55.08000 139.731
55.09000 144.301
55.10000 147.841
55.11000 150.606
55.12000 153.238
55.13000 150.840
55.14000 145.885
55.15000 141.151
55.16000 139.430
55.17000 138.804
55.18000 138.348
55.19000 139.392
55.20000 140.788
55.21000 142.284
55.22000 144.333
55.23000 146.466
55.24000 148.173
55.25000 146.860
55.26000 145.573
55.27000 145.618
55.28000 148.983
55.29000 152.506
55.30000 154.909
55.31000 155.408
55.32000 155.874
55.33000 156.123
55.34000 150.802
55.35000 147.199
55.36000 147.921
55.37000 151.847
55.38000 155.623
55.39000 153.949
55.40000 149.545
55.41000 145.342
55.42000 149.258
55.43000 155.478
55.44000 160.774
55.45000 158.051
55.46000 153.470
55.47000 150.244
55.48000 154.376
55.49000 159.615
55.50000 163.792
55.51000 168.668
55.52000 172.652
55.53000 176.043
55.54000 177.974
55.55000 179.838
55.56000 179.820
55.57000 176.647
55.58000 173.424
55.59000 171.722
55.60000 181.295
55.61000 187.787
55.62000 191.905
55.63000 194.291
55.64000 196.595
55.65000 196.102
55.66000 194.227
55.67000 192.439
55.68000 207.105
55.69000 225.855
55.70000 243.279
55.71000 249.412
55.72000 252.972
55.73000 257.148
55.74000 264.617
55.75000 272.574
55.76000 278.895
55.77000 286.978
55.78000 293.612
55.79000 301.571
55.80000 312.741
55.81000 324.053
55.82000 338.127
55.83000 356.765
55.84000 375.472
55.85000 385.273
55.86000 394.970
55.87000 401.603
55.88000 418.308
55.89000 442.248
55.90000 465.744
55.91000 474.473
55.92000 476.016
55.93000 477.484
55.94000 488.084
55.95000 500.711
55.96000 512.538
55.97000 517.695
55.98000 521.355
55.99000 526.992
56.00000 543.022
56.01000 560.560
56.02000 574.448
56.03000 569.125
56.04000 563.513
56.05000 556.775
56.06000 547.346
56.07000 537.800
56.08000 532.855
56.09000 535.403
56.10000 538.057
56.11000 539.437
56.12000 502.328
56.13000 477.340
56.14000 464.290
56.15000 459.684
56.16000 454.954
56.17000 446.259
56.18000 435.663
56.19000 425.593
56.20000 410.551
56.21000 395.143
56.22000 379.650
56.23000 363.464
56.24000 347.126
56.25000 332.188
56.26000 324.498
56.27000 317.842
56.28000 312.590
56.29000 310.835
56.30000 309.664
56.31000 305.477
56.32000 294.187
56.33000 282.601
56.34000 274.026
56.35000 270.285
56.36000 266.609
56.37000 264.713
56.38000 245.226
56.39000 232.142
56.40000 224.834
56.41000 221.548
56.42000 218.212
56.43000 213.288
56.44000 207.614
56.45000 202.229
56.46000 202.500
56.47000 204.437
56.48000 205.014
56.49000 194.662
56.50000 181.932
56.51000 171.104
56.52000 169.958
56.53000 170.167
56.54000 170.332
56.55000 171.575
56.56000 172.641
56.57000 172.214
56.58000 168.325
56.59000 164.295
56.60000 162.571
56.61000 164.493
56.62000 166.459
56.63000 167.465
56.64000 158.394
56.65000 152.347
56.66000 151.902
56.67000 155.301
56.68000 158.584
56.69000 158.441
56.70000 156.701
56.71000 155.052
56.72000 151.039
56.73000 146.648
56.74000 142.901
56.75000 144.224
56.76000 146.633
56.77000 148.704
56.78000 149.079
56.79000 149.221
56.80000 149.333
56.81000 144.578
56.82000 140.466
56.83000 138.125
56.84000 139.837
56.85000 141.707
56.86000 142.389
56.87000 141.223
56.88000 140.035
56.89000 139.432
56.90000 142.102
56.91000 143.868
56.92000 143.201
56.93000 140.889
56.94000 138.719
56.95000 140.594
56.96000 144.328
56.97000 147.862
56.98000 147.965
56.99000 147.070
57.00000 145.930
57.01000 142.890
57.02000 139.450
57.03000 136.681
57.04000 137.224
57.05000 138.214
57.06000 138.987
57.07000 137.951
57.08000 137.011
57.09000 135.990
57.10000 134.787
57.11000 133.577
57.12000 131.779
57.13000 129.080
57.14000 126.370
57.15000 125.007
57.16000 123.964
57.17000 123.293
57.18000 125.230
57.19000 128.902
57.20000 132.459
57.21000 132.780
57.22000 131.638
57.23000 130.559
57.24000 130.881
57.25000 131.574
57.26000 131.778
57.27000 128.260
57.28000 123.971
57.29000 120.981
57.30000 124.295
57.31000 128.445
57.32000 131.674
57.33000 128.088
57.34000 124.816
57.35000 123.088
57.36000 124.789
57.37000 126.615
57.38000 127.331
57.39000 126.371
57.40000 125.393
57.41000 125.904
57.42000 127.896
57.43000 129.886
57.44000 131.677
57.45000 133.338
57.46000 134.846
57.47000 132.261
57.48000 127.851
57.49000 123.690
57.50000 122.967
57.51000 123.265
57.52000 123.535
57.53000 123.599
57.54000 123.620
57.55000 123.951
57.56000 125.764
57.57000 127.771
57.58000 129.325
57.59000 129.939
57.60000 130.370
57.61000 130.598
57.62000 130.382
57.63000 130.149
57.64000 129.700
57.65000 128.929
57.66000 128.155
57.67000 125.783
57.68000 121.847
57.69000 117.943
57.70000 116.797
57.71000 117.433
57.72000 118.139
57.73000 120.637
57.74000 123.923
57.75000 127.019
57.76000 128.526
57.77000 129.467
57.78000 129.741
57.79000 125.123
57.80000 119.522
57.81000 115.276
57.82000 117.394
57.83000 120.325
57.84000 122.589
57.85000 124.358
57.86000 125.731
57.87000 126.578
57.88000 126.285
57.89000 125.954
57.90000 126.289
57.91000 127.600
57.92000 128.920
57.93000 127.967
57.94000 124.828
57.95000 121.727
57.96000 121.769
57.97000 123.810
57.98000 125.772
57.99000 125.752
58.00000 124.871
58.01000 124.043
58.02000 122.858
58.03000 121.678
58.04000 120.860
58.05000 122.637
58.06000 124.928
58.07000 127.120
58.08000 128.856
58.09000 130.535
58.10000 131.827
58.11000 121.991
58.12000 113.577
58.13000 109.986
58.14000 116.652
58.15000 123.656
58.16000 124.732
58.17000 117.248
58.18000 109.697
58.19000 108.937
58.20000 114.600
58.21000 120.246
58.22000 124.653
58.23000 128.281
58.24000 131.751
58.25000 131.395
58.26000 129.403
58.27000 127.532
58.28000 128.312
58.29000 129.728
58.30000 130.313
58.31000 125.026
58.32000 118.597
58.33000 113.509
58.34000 114.521
58.35000 116.283
58.36000 117.633
58.37000 121.710
58.38000 125.079
58.39000 126.378
58.40000 123.337
58.41000 120.158
58.42000 119.594
58.43000 122.747
58.44000 125.928
58.45000 126.087
58.46000 123.438
58.47000 120.853
58.48000 122.957
58.49000 127.955
58.50000 132.658
58.51000 130.449
58.52000 125.331
58.53000 120.531
58.54000 122.159
58.55000 125.322
58.56000 127.776
58.57000 125.312
58.58000 121.907
58.59000 118.923
58.60000 117.824
58.61000 116.954
58.62000 116.289
58.63000 116.078
58.64000 115.936
58.65000 117.054
58.66000 120.776
58.67000 124.577
58.68000 126.136
58.69000 124.555
58.70000 122.952
58.71000 121.403
58.72000 119.903
58.73000 118.424
58.74000 118.324
58.75000 119.063
58.76000 119.839
58.77000 121.466
58.78000 123.446
58.79000 125.299
58.80000 122.520
58.81000 118.802
58.82000 115.251
58.83000 112.840
58.84000 110.644
58.85000 109.990
58.86000 116.141
58.87000 123.096
58.88000 128.386
58.89000 126.738
58.90000 125.079
58.91000 123.662
58.92000 122.738
58.93000 121.828
58.94000 123.162
58.95000 127.591
58.96000 132.037
58.97000 130.581
58.98000 123.819
58.99000 117.137
59.00000 115.680
59.01000 117.354
59.02000 118.995
59.03000 119.916
59.04000 120.543
59.05000 121.129
59.06000 120.109
59.07000 118.777
59.08000 117.252
59.09000 114.435
59.10000 111.379
59.11000 109.554
59.12000 113.074
59.13000 117.215
59.14000 120.352
59.15000 119.865
59.16000 119.299
59.17000 117.071
59.18000 111.506
59.19000 105.847
59.20000 103.042
59.21000 104.111
59.22000 105.202
59.23000 109.151
59.24000 115.622
59.25000 122.040
59.26000 125.186
59.27000 126.401
59.28000 127.531
59.29000 126.867
59.30000 125.481
59.31000 124.187
59.32000 121.636
59.33000 119.012
59.34000 116.828
59.35000 117.528
59.36000 118.755
59.37000 119.778
59.38000 119.930
59.39000 119.983
59.40000 120.023
59.41000 120.243
59.42000 120.425
59.43000 120.262
59.44000 119.416
59.45000 118.552
59.46000 117.119
59.47000 114.927
59.48000 112.733
59.49000 111.194
59.50000 110.226
59.51000 109.306
59.52000 111.104
59.53000 114.483
59.54000 117.758
59.55000 118.875
59.56000 119.133
59.57000 119.374
59.58000 118.319
59.59000 117.047
59.60000 116.009
59.61000 116.478
59.62000 117.217
59.63000 116.984
59.64000 112.659
59.65000 107.878
59.66000 104.284
59.67000 112.026
59.68000 118.625
59.69000 122.287
59.70000 120.225
59.71000 118.014
59.72000 116.983
59.73000 117.506
59.74000 118.035
59.75000 120.512
59.76000 124.650
59.77000 128.686
59.78000 127.112
59.79000 122.322
59.80000 117.852
59.81000 119.805
59.82000 124.274
59.83000 128.430
59.84000 122.468
59.85000 114.650
59.86000 108.163
59.87000 110.120
59.88000 113.566
59.89000 115.921
59.90000 113.754
59.91000 111.092
59.92000 109.099
59.93000 113.773
59.94000 117.731
59.95000 119.605
59.96000 117.474
59.97000 115.243
59.98000 112.821
59.99000 110.152
60.00000 107.484
60.01000 107.416
60.02000 109.534
60.03000 111.678
60.04000 115.176
60.05000 119.439
60.06000 123.445
60.07000 122.453
60.08000 119.532
60.09000 116.820
60.10000 116.961
60.11000 117.764
60.12000 118.295
60.13000 117.133
60.14000 115.677
60.15000 114.904
60.16000 116.918
60.17000 119.232
60.18000 120.956
60.19000 117.941
60.20000 115.378
60.21000 113.235
60.22000 111.888
60.23000 110.560
60.24000 111.511
60.25000 115.370
60.26000 119.235
60.27000 121.340
60.28000 121.984
60.29000 122.595
60.30000 121.632
60.31000 119.792
60.32000 118.035
60.33000 117.840
60.34000 118.241
60.35000 118.612
60.36000 119.751
60.37000 120.954
60.38000 122.332
60.39000 124.780
60.40000 127.410
60.41000 128.993
60.42000 126.364
60.43000 123.292
60.44000 121.012
60.45000 116.395
60.46000 112.704
60.47000 109.797
60.48000 108.356
60.49000 106.948
60.50000 108.253
60.51000 112.966
60.52000 117.683
60.53000 120.735
60.54000 122.420
60.55000 124.039
60.56000 122.509
60.57000 119.253
60.58000 116.165
60.59000 116.181
60.60000 117.362
60.61000 118.455
60.62000 118.252
60.63000 117.774
60.64000 117.178
60.65000 115.870
60.66000 114.443
60.67000 113.711
60.68000 115.738
60.69000 118.049
60.70000 119.758
60.71000 117.935
60.72000 116.369
60.73000 116.108
60.74000 118.245
60.75000 120.434
60.76000 120.734
60.77000 118.701
60.78000 116.664
60.79000 115.064
60.80000 113.818
60.81000 112.640
60.82000 114.459
60.83000 117.900
60.84000 121.124
60.85000 120.477
60.86000 118.399
60.87000 116.479
60.88000 115.618
60.89000 115.083
60.90000 115.124
60.91000 118.578
60.92000 122.594
60.93000 124.938
60.94000 120.758
60.95000 115.920
60.96000 112.357
60.97000 119.838
60.98000 126.087
60.99000 129.238
61.00000 126.771
61.01000 124.188
61.02000 123.798
61.03000 126.076
61.04000 128.357
61.05000 127.532
61.06000 124.266
61.07000 121.106
61.08000 122.497
61.09000 126.313
61.10000 129.851
61.11000 128.530
61.12000 125.439
61.13000 122.589
61.14000 122.976
61.15000 124.039
61.16000 124.720
61.17000 123.177
61.18000 121.274
61.19000 119.742
61.20000 119.640
61.21000 119.680
61.22000 119.708
61.23000 121.335
61.24000 122.656
61.25000 124.109
61.26000 125.800
61.27000 127.495
61.28000 129.116
61.29000 130.649
61.30000 132.179
61.31000 133.746
61.32000 135.333
61.33000 136.777
61.34000 132.273
61.35000 124.645
61.36000 117.511
61.37000 118.731
61.38000 122.952
61.39000 126.836
61.40000 128.950
61.41000 130.454
61.42000 131.339
61.43000 128.682
61.44000 125.460
61.45000 124.012
61.46000 129.278
61.47000 135.194
61.48000 139.512
61.49000 149.385
61.50000 157.212
61.51000 165.832
61.52000 175.847
61.53000 185.887
61.54000 197.760
61.55000 211.789
61.56000 225.789
61.57000 241.574
61.58000 258.624
61.59000 275.446
61.60000 283.245
61.61000 286.374
61.62000 289.858
61.63000 299.195
61.64000 310.604
61.65000 321.081
61.66000 319.270
61.67000 315.027
61.68000 312.449
61.69000 319.252
61.70000 327.522
61.71000 333.387
61.72000 330.286
61.73000 326.337
61.74000 323.465
61.75000 313.121
61.76000 304.880
61.77000 293.856
61.78000 278.008
61.79000 262.073
61.80000 243.304
61.81000 221.250
61.82000 199.250
61.83000 185.076
61.84000 176.864
61.85000 168.717
61.86000 162.975
61.87000 158.459
61.88000 154.050
61.89000 151.355
61.90000 149.258
61.91000 147.336
61.92000 144.709
61.93000 142.221
61.94000 139.766
61.95000 137.494
61.96000 135.250
61.97000 133.213
61.98000 131.937
61.99000 130.732
62.00000 129.859
62.01000 128.271
62.02000 127.026
62.03000 125.878
62.04000 124.898
62.05000 123.920
62.06000 123.696
62.07000 124.330
62.08000 124.964
62.09000 125.296
62.10000 125.403
62.11000 125.562
62.12000 127.643
62.13000 130.690
62.14000 133.625
62.15000 134.808
62.16000 135.389
62.17000 135.920
62.18000 133.646
62.19000 131.045
62.20000 129.476
62.21000 133.529
62.22000 138.432
62.23000 141.177
62.24000 136.113
62.25000 130.341
62.26000 126.182
62.27000 127.870
62.28000 129.372
62.29000 129.018
62.30000 125.541
62.31000 122.014
62.32000 120.376
62.33000 120.857
62.34000 121.338
62.35000 123.969
62.36000 128.140
62.37000 132.228
62.38000 133.423
62.39000 133.183
62.40000 133.140
62.41000 136.083
62.42000 140.038
62.43000 143.649
62.44000 144.090
62.45000 143.839
62.46000 143.136
62.47000 140.011
62.48000 136.527
62.49000 133.499
62.50000 132.096
62.51000 130.837
62.52000 129.934
62.53000 129.251
62.54000 128.736
62.55000 127.618
62.56000 125.500
62.57000 123.367
62.58000 125.752
62.59000 133.126
62.60000 140.474
62.61000 141.112
62.62000 136.952
62.63000 132.905
62.64000 132.680
62.65000 134.319
62.66000 135.831
62.67000 135.443
62.68000 134.420
62.69000 133.489
62.70000 134.138
62.71000 135.028
62.72000 135.794
62.73000 135.900
62.74000 135.910
62.75000 136.620
62.76000 139.786
62.77000 143.165
62.78000 145.578
62.79000 141.947
62.80000 138.976
62.81000 135.445
62.82000 130.999
62.83000 126.540
62.84000 124.200
62.85000 124.162
62.86000 124.125
62.87000 124.619
62.88000 125.479
62.89000 126.437
62.90000 130.521
62.91000 136.111
62.92000 141.276
62.93000 140.287
62.94000 137.273
62.95000 134.532
62.96000 131.566
62.97000 128.899
62.98000 126.957
62.99000 128.780
63.00000 131.142
63.01000 133.169
63.02000 134.039
63.03000 134.811
63.04000 135.359
63.05000 134.285
63.06000 133.415
63.07000 133.026
63.08000 133.413
63.09000 133.811
63.10000 135.416
63.11000 138.312
63.12000 141.194
63.13000 141.807
63.14000 140.842
63.15000 139.764
63.16000 135.121
63.17000 128.789
63.18000 122.946
63.19000 124.049
63.20000 127.404
63.21000 130.450
63.22000 137.246
63.23000 143.969
63.24000 149.630
63.25000 149.867
63.26000 149.340
63.27000 149.061
63.28000 149.624
63.29000 150.256
63.30000 150.704
63.31000 146.805
63.32000 143.707
63.33000 139.449
63.34000 133.352
63.35000 127.232
63.36000 127.710
63.37000 135.119
63.38000 142.492
63.39000 145.682
63.40000 145.989
63.41000 146.266
63.42000 145.640
63.43000 144.591
63.44000 143.491
63.45000 141.683
63.46000 139.649
63.47000 137.806
63.48000 137.505
63.49000 137.532
63.50000 137.875
63.51000 139.803
63.52000 141.950
63.53000 142.796
63.54000 139.272
63.55000 135.394
63.56000 132.662
63.57000 138.135
63.58000 142.530
63.59000 144.248
63.60000 141.781
63.61000 139.264
63.62000 138.219
63.63000 138.693
63.64000 139.166
63.65000 141.516
63.66000 145.096
63.67000 148.568
63.68000 148.939
63.69000 147.883
63.70000 147.013
63.71000 148.665
63.72000 151.112
63.73000 153.324
63.74000 152.019
63.75000 150.216
63.76000 148.311
63.77000 145.904
63.78000 143.429
63.79000 141.272
63.80000 140.166
63.81000 139.144
63.82000 138.427
63.83000 136.387
63.84000 134.805
63.85000 135.368
63.86000 139.231
63.87000 143.132
63.88000 143.786
63.89000 141.143
63.90000 138.516
63.91000 138.079
63.92000 139.089
63.93000 140.161
63.94000 142.923
63.95000 146.454
63.96000 149.900
63.97000 152.227
63.98000 154.208
63.99000 155.995
64.00000 152.905
64.01000 149.298
64.02000 146.281
64.03000 146.132
64.04000 146.364
64.05000 146.754
64.06000 147.661
64.07000 148.607
64.08000 149.268
64.09000 152.228
64.10000 154.527
64.11000 155.264
64.12000 153.631
64.13000 151.973
64.14000 152.209
64.15000 154.336
64.16000 156.449
64.17000 154.523
64.18000 150.004
64.19000 145.803
64.20000 150.152
64.21000 158.328
64.22000 165.891
64.23000 165.563
64.24000 162.822
64.25000 160.355
64.26000 165.779
64.27000 171.952
64.28000 176.138
64.29000 170.806
64.30000 164.230
64.31000 158.289
64.32000 154.392
64.33000 150.650
64.34000 148.050
64.35000 156.737
64.36000 163.585
64.37000 167.112
64.38000 165.676
64.39000 164.193
64.40000 164.950
64.41000 167.904
64.42000 170.839
64.43000 167.570
64.44000 160.393
64.45000 153.560
64.46000 155.688
64.47000 161.768
64.48000 167.527
64.49000 169.250
64.50000 169.756
64.51000 170.211
64.52000 168.923
64.53000 167.488
64.54000 166.168
64.55000 165.388
64.56000 164.677
64.57000 163.828
64.58000 162.541
64.59000 161.223
64.60000 160.311
64.61000 157.426
64.62000 155.205
64.63000 156.722
64.64000 163.735
64.65000 170.798
64.66000 173.098
64.67000 170.803
64.68000 168.525
64.69000 168.206
64.70000 169.125
64.71000 169.909
64.72000 167.330
64.73000 163.288
64.74000 159.794
64.75000 163.029
64.76000 168.262
64.77000 172.953
64.78000 173.527
64.79000 173.316
64.80000 173.034
64.81000 172.423
64.82000 171.772
64.83000 172.249
64.84000 176.248
64.85000 180.502
64.86000 183.428
64.87000 196.089
64.88000 205.832
64.89000 206.597
64.90000 194.357
64.91000 182.012
64.92000 181.202
64.93000 191.340
64.94000 201.400
64.95000 204.305
64.96000 202.740
64.97000 201.192
64.98000 200.074
64.99000 199.139
65.00000 198.187
65.01000 197.039
65.02000 195.834
65.03000 194.756
65.04000 192.930
65.05000 191.210
65.06000 190.662
65.07000 195.465
65.08000 200.928
65.09000 204.433
65.10000 201.914
65.11000 198.972
65.12000 196.958
65.13000 200.883
65.14000 203.964
65.15000 208.345
65.16000 214.580
65.17000 220.829
65.18000 223.451
65.19000 222.687
65.20000 221.930
65.21000 227.539
65.22000 236.918
65.23000 245.964
65.24000 247.153
65.25000 245.025
65.26000 243.325
65.27000 246.668
65.28000 251.465
65.29000 255.745
65.30000 255.467
65.31000 254.463
65.32000 254.369
65.33000 258.369
65.34000 262.865
65.35000 268.902
65.36000 279.607
65.37000 290.632
65.38000 298.143
65.39000 306.380
65.40000 312.552
65.41000 318.654
65.42000 324.659
65.43000 330.663
65.44000 337.241
65.45000 344.347
65.46000 351.390
65.47000 360.878
65.48000 371.647
65.49000 382.354
65.50000 391.654
65.51000 400.369
65.52000 409.735
65.53000 426.587
65.54000 445.564
65.55000 462.463
65.56000 479.397
65.57000 494.116
65.58000 506.351
65.59000 507.586
65.60000 507.513
65.61000 512.020
65.62000 530.206
65.63000 549.306
65.64000 562.251
65.65000 608.714
65.66000 644.094
65.67000 695.423
65.68000 768.817
65.69000 842.365
65.70000 937.111
65.71000 1051.003
65.72000 1163.817
65.73000 1304.458
65.74000 1458.620
65.75000 1611.587
65.76000 1738.084
65.77000 1853.719
65.78000 1968.147
65.79000 2069.012
65.80000 2166.083
65.81000 2252.329
65.82000 2304.251
65.83000 2343.750
65.84000 2372.028
65.85000 2351.386
65.86000 2325.043
65.87000 2306.327
65.88000 2310.064
65.89000 2315.263
65.90000 2318.770
65.91000 2263.801
65.92000 2221.670
65.93000 2153.896
65.94000 2051.188
65.95000 1948.252
65.96000 1814.200
65.97000 1652.499
65.98000 1492.424
65.99000 1334.960
66.00000 1182.393
66.01000 1031.664
66.02000 920.406
66.03000 825.112
66.04000 733.026
66.05000 676.199
66.06000 629.087
66.07000 587.325
66.08000 554.511
66.09000 527.517
66.10000 501.826
66.11000 481.725
66.12000 462.263
66.13000 445.117
66.14000 434.689
66.15000 424.687
66.16000 417.976
66.17000 417.689
66.18000 417.606
66.19000 420.098
66.20000 426.046
66.21000 432.013
66.22000 438.843
66.23000 446.428
66.24000 453.932
66.25000 468.991
66.26000 488.020
66.27000 507.193
66.28000 529.361
66.29000 552.724
66.30000 576.089
66.31000 599.484
66.32000 622.886
66.33000 643.584
66.34000 663.223
66.35000 680.031
66.36000 695.479
66.37000 705.178
66.38000 714.234
66.39000 722.706
66.40000 729.513
66.41000 736.216
66.42000 740.690
66.43000 721.349
66.44000 706.561
66.45000 699.424
66.46000 702.394
66.47000 705.383
66.48000 688.456
66.49000 654.397
66.50000 620.724
66.51000 598.920
66.52000 584.298
66.53000 569.173
66.54000 543.888
66.55000 514.611
66.56000 486.860
66.57000 475.170
66.58000 467.776
66.59000 461.251
66.60000 440.262
66.61000 419.949
66.62000 403.755
66.63000 404.700
66.64000 407.528
66.65000 407.094
66.66000 397.471
66.67000 387.294
66.68000 380.537
66.69000 378.653
66.70000 377.350
66.71000 376.258
66.72000 375.438
66.73000 374.624
66.74000 376.886
66.75000 381.752
66.76000 386.560
66.77000 390.204
66.78000 393.114
66.79000 395.639
66.80000 390.595
66.81000 382.619
66.82000 375.230
66.83000 373.894
66.84000 374.151
66.85000 374.378
66.86000 380.286
66.87000 386.223
66.88000 391.138
66.89000 391.860
66.90000 392.130
66.91000 392.717
66.92000 394.184
66.93000 395.701
66.94000 396.704
66.95000 399.585
66.96000 401.744
66.97000 399.549
66.98000 391.781
66.99000 384.010
67.00000 384.386
67.01000 391.550
67.02000 398.623
67.03000 402.614
67.04000 404.825
67.05000 407.102
67.06000 410.643
67.07000 414.666
67.08000 418.655
67.09000 422.292
67.10000 425.838
67.11000 428.952
67.12000 423.151
67.13000 416.855
67.14000 412.238
67.15000 414.402
67.16000 417.281
67.17000 418.808
67.18000 416.634
67.19000 414.249
67.20000 412.682
67.21000 409.977
67.22000 407.967
67.23000 407.121
67.24000 407.742
67.25000 408.386
67.26000 417.017
67.27000 432.194
67.28000 447.170
67.29000 450.051
67.30000 446.379
67.31000 442.697
67.32000 438.816
67.33000 434.861
67.34000 431.724
67.35000 436.668
67.36000 443.678
67.37000 449.819
67.38000 434.973
67.39000 419.208
67.40000 409.077
67.41000 421.336
67.42000 435.910
67.43000 447.659
67.44000 451.785
67.45000 455.488
67.46000 457.907
67.47000 456.071
67.48000 454.654
67.49000 456.309
67.50000 461.772
67.51000 467.227
67.52000 465.885
67.53000 459.058
67.54000 452.327
67.55000 458.828
67.56000 472.115
67.57000 484.734
67.58000 485.298
67.59000 481.390
67.60000 477.810
67.61000 477.394
67.62000 477.774
67.63000 478.107
67.64000 486.853
67.65000 495.533
67.66000 501.560
67.67000 497.196
67.68000 491.780
67.69000 485.863
67.70000 478.614
67.71000 471.292
67.72000 466.534
67.73000 475.572
67.74000 482.406
67.75000 486.200
67.76000 486.285
67.77000 486.377
67.78000 491.770
67.79000 501.372
67.80000 510.833
67.81000 510.932
67.82000 506.174
67.83000 501.774
67.84000 503.655
67.85000 507.833
67.86000 511.899
67.87000 514.904
67.88000 517.646
67.89000 520.036
67.90000 523.286
67.91000 526.183
67.92000 529.143
67.93000 532.349
67.94000 535.579
67.95000 537.739
67.96000 537.095
67.97000 536.305
67.98000 535.794
67.99000 537.122
68.00000 538.120
68.01000 541.451
68.02000 547.585
68.03000 553.710
68.04000 555.956
68.05000 555.168
68.06000 554.392
68.07000 557.134
68.08000 561.588
68.09000 566.163
68.10000 572.827
68.11000 580.242
68.12000 586.792
68.13000 585.287
68.14000 581.817
68.15000 578.799
68.16000 584.872
68.17000 591.292
68.18000 597.029
68.19000 600.172
68.20000 603.064
68.21000 606.519
68.22000 611.433
68.23000 616.420
68.24000 619.626
68.25000 622.323
68.26000 624.283
68.27000 626.699
68.28000 629.654
68.29000 632.597
68.30000 632.434
68.31000 629.879
68.32000 627.365
68.33000 629.139
68.34000 633.011
68.35000 637.054
68.36000 643.947
68.37000 651.853
68.38000 659.665
68.39000 666.632
68.40000 673.395
68.41000 679.262
68.42000 684.875
68.43000 689.622
68.44000 698.367
68.45000 722.069
68.46000 747.193
68.47000 767.915
68.48000 777.430
68.49000 786.390
68.50000 792.117
68.51000 790.284
68.52000 788.851
68.53000 799.602
68.54000 824.528
68.55000 849.434
68.56000 865.609
68.57000 875.170
68.58000 884.569
68.59000 915.951
68.60000 957.161
68.61000 998.676
68.62000 1045.121
68.63000 1093.291
68.64000 1140.642
68.65000 1180.678
68.66000 1218.981
68.67000 1252.125
68.68000 1324.690
68.69000 1391.550
68.70000 1453.010
68.71000 1494.567
68.72000 1534.272
68.73000 1578.464
68.74000 1633.920
68.75000 1689.918
68.76000 1725.503
68.77000 1829.766
68.78000 1906.338
68.79000 1971.650
68.80000 2024.075
68.81000 2076.615
68.82000 2154.217
68.83000 2250.512
68.84000 2345.095
68.85000 2470.873
68.86000 2607.499
68.87000 2750.437
68.88000 2992.875
68.89000 3269.627
68.90000 3590.745
68.91000 4300.304
68.92000 5100.414
68.93000 5790.956
68.94000 7878.039
68.95000 9828.704
68.96000 12125.319
68.97000 15677.950
68.98000 19344.961
68.99000 23219.063
69.00000 27605.426
69.01000 32015.670
69.02000 34802.250
69.03000 39798.242
69.04000 43444.242
69.05000 46292.625
69.06000 48242.832
69.07000 50188.371
69.08000 51456.402
69.09000 52226.859
69.10000 52982.992
69.11000 53786.664
69.12000 54584.391
69.13000 55381.418
69.14000 56167.703
69.15000 56950.336
69.16000 57690.219
69.17000 58063.066
69.18000 58351.672
69.19000 58600.109
69.20000 56772.355
69.21000 54962.344
69.22000 52752.473
69.23000 49112.418
69.24000 45344.941
69.25000 41773.082
69.26000 38678.180
69.27000 35604.840
69.28000 33674.227
69.29000 31401.379
69.30000 29754.420
69.31000 28577.410
69.32000 27921.012
69.33000 27265.660
69.34000 26722.652
69.35000 26260.893
69.36000 25808.102
69.37000 24945.779
69.38000 23922.271
69.39000 22857.535
69.40000 21175.418
69.41000 19286.500
69.42000 17352.668
69.43000 15040.604
69.44000 12643.069
69.45000 10584.622
69.46000 8638.345
69.47000 7006.760
69.48000 5527.749
69.49000 4586.370
69.50000 3691.847
69.51000 2952.190
69.52000 2584.705
69.53000 2233.525
69.54000 2014.213
69.55000 1782.391
69.56000 1615.044
69.57000 1483.531
69.58000 1391.065
69.59000 1298.764
69.60000 1227.611
69.61000 1171.520
69.62000 1116.566
69.63000 1076.202
69.64000 1044.156
69.65000 1012.341
69.66000 983.875
69.67000 956.514
69.68000 929.225
69.69000 902.522
69.70000 875.950
69.71000 853.196
69.72000 825.530
69.73000 801.588
69.74000 779.663
69.75000 764.743
69.76000 750.419
69.77000 735.673
69.78000 719.924
69.79000 704.132
69.80000 694.329
69.81000 681.864
69.82000 672.868
69.83000 662.652
69.84000 651.128
69.85000 639.590
69.86000 626.230
69.87000 611.591
69.88000 597.262
69.89000 593.070
69.90000 593.675
69.91000 593.402
69.92000 580.606
69.93000 563.736
69.94000 547.776
69.95000 539.177
69.96000 532.190
69.97000 526.224
69.98000 534.917
69.99000 543.983
70.00000 549.611
