20.00000 484.686
20.01000 483.083
20.02000 481.250
20.03000 479.829
20.04000 480.029
20.05000 480.395
20.06000 480.666
20.07000 479.353
20.08000 478.268
20.09000 478.727
20.10000 482.011
20.11000 485.357
20.12000 485.763
20.13000 482.556
20.14000 479.345
20.15000 476.947
20.16000 475.207
20.17000 473.674
20.18000 481.357
20.19000 494.000
20.20000 505.993
20.21000 506.453
20.22000 502.666
20.23000 499.172
20.24000 498.813
20.25000 499.193
20.26000 499.274
20.27000 497.591
20.28000 495.618
20.29000 491.502
20.30000 479.057
20.31000 465.777
20.32000 456.011
20.33000 466.510
20.34000 475.467
20.35000 484.757
20.36000 494.651
20.37000 504.557
20.38000 505.826
20.39000 496.638
20.40000 487.445
20.41000 479.961
20.42000 473.853
20.43000 467.841
20.44000 465.912
20.45000 466.149
20.46000 466.518
20.47000 469.183
20.48000 472.681
20.49000 475.903
20.50000 478.425
20.51000 480.528
20.52000 481.833
20.53000 478.513
20.54000 474.448
20.55000 471.307
20.56000 471.706
20.57000 472.452
20.58000 472.999
20.59000 473.412
20.60000 473.725
20.61000 472.836
20.62000 469.809
20.63000 466.741
20.64000 464.600
20.65000 463.563
20.66000 462.530
20.67000 463.819
20.68000 466.891
20.69000 470.017
20.70000 475.368
20.71000 481.882
20.72000 487.930
20.73000 486.121
20.74000 481.504
20.75000 477.258
20.76000 474.247
20.77000 471.824
20.78000 469.917
20.79000 470.953
20.80000 472.455
20.81000 473.467
20.82000 472.630
20.83000 471.615
20.84000 470.874
20.85000 482.281
20.86000 491.539
20.87000 495.743
20.88000 491.091
20.89000 486.276
20.90000 486.041
20.91000 491.175
20.92000 496.305
20.93000 491.494
20.94000 479.175
20.95000 467.152
20.96000 466.746
20.97000 472.324
20.98000 477.476
20.99000 475.645
21.00000 471.352
21.01000 467.412
21.02000 473.011
21.03000 480.033
21.04000 485.496
21.05000 482.208
21.06000 477.559
21.07000 473.525
21.08000 471.770
21.09000 470.230
21.10000 469.111
21.11000 466.852
21.12000 465.071
21.13000 469.035
21.14000 482.915
21.15000 496.969
21.16000 498.183
21.17000 484.586
21.18000 471.008
21.19000 466.357
21.20000 468.401
21.21000 470.546
21.22000 476.514
21.23000 484.421
21.24000 491.789
21.25000 490.554
21.26000 486.330
21.27000 482.460
21.28000 479.120
21.29000 476.257
21.30000 473.578
21.31000 471.921
21.32000 470.420
21.33000 472.129
21.34000 485.573
21.35000 500.097
21.36000 510.596
21.37000 502.612
21.38000 495.815
21.39000 488.997
21.40000 482.145
21.41000 475.292
21.42000 471.763
21.43000 472.007
21.44000 472.253
21.45000 471.879
21.46000 471.053
21.47000 470.304
21.48000 472.345
21.49000 475.782
21.50000 479.122
21.51000 480.970
21.52000 482.308
21.53000 483.531
21.54000 485.215
21.55000 486.806
21.56000 488.839
21.57000 493.267
21.58000 498.056
21.59000 500.429
21.60000 494.102
21.61000 486.991
21.62000 481.874
21.63000 489.411
21.64000 495.627
21.65000 498.028
21.66000 494.034
21.67000 489.939
21.68000 483.155
21.69000 473.366
21.70000 463.610
21.71000 466.693
21.72000 479.027
21.73000 491.047
21.74000 492.252
21.75000 488.124
21.76000 484.440
21.77000 487.484
21.78000 492.799
21.79000 497.648
21.80000 506.396
21.81000 514.944
21.82000 521.594
21.83000 518.122
21.84000 513.155
21.85000 510.074
21.86000 513.686
21.87000 517.887
21.88000 520.897
21.89000 524.433
21.90000 527.152
21.91000 532.796
21.92000 543.267
21.93000 553.811
21.94000 558.119
21.95000 555.577
21.96000 553.042
21.97000 557.893
21.98000 567.950
21.99000 577.983
22.00000 587.235
22.01000 596.108
22.02000 604.571
22.03000 606.988
22.04000 607.394
22.05000 607.764
22.06000 608.958
22.07000 610.178
22.08000 609.699
22.09000 600.291
22.10000 589.588
22.11000 581.734
22.12000 583.839
22.13000 586.803
22.14000 588.917
22.15000 604.449
22.16000 616.734
22.17000 623.943
22.18000 622.895
22.19000 621.730
22.20000 616.128
22.21000 605.731
22.22000 595.376
22.23000 588.685
22.24000 584.623
22.25000 580.671
22.26000 580.231
22.27000 581.475
22.28000 582.444
22.29000 579.462
22.30000 575.186
22.31000 571.299
22.32000 565.345
22.33000 559.678
22.34000 553.780
22.35000 546.685
22.36000 539.420
22.37000 533.633
22.38000 532.938
22.39000 532.672
22.40000 532.483
22.41000 520.415
22.42000 510.855
22.43000 506.920
22.44000 512.001
22.45000 517.201
22.46000 513.946
22.47000 501.707
22.48000 489.523
22.49000 485.859
22.50000 488.097
22.51000 490.218
22.52000 488.719
22.53000 485.511
22.54000 482.167
22.55000 476.907
22.56000 471.029
22.57000 465.696
22.58000 464.142
22.59000 463.494
22.60000 463.184
22.61000 464.584
22.62000 466.223
22.63000 467.416
22.64000 467.094
22.65000 466.648
22.66000 466.333
22.67000 445.317
22.68000 428.723
22.69000 422.798
22.70000 433.718
22.71000 444.847
22.72000 446.184
22.73000 437.289
22.74000 428.438
22.75000 430.005
22.76000 438.609
22.77000 447.020
22.78000 449.699
22.79000 449.711
22.80000 449.561
22.81000 447.181
22.82000 444.092
22.83000 441.296
22.84000 434.990
22.85000 428.774
22.86000 425.064
22.87000 433.882
22.88000 444.422
22.89000 452.489
22.90000 452.290
22.91000 451.425
22.92000 450.817
22.93000 450.781
22.94000 450.771
22.95000 451.089
22.96000 451.920
22.97000 452.757
22.98000 450.953
22.99000 446.437
23.00000 441.945
23.01000 445.277
23.02000 453.780
23.03000 461.866
23.04000 458.001
23.05000 448.657
23.06000 440.375
23.07000 446.338
23.08000 456.767
23.09000 466.188
23.10000 461.347
23.11000 454.450
23.12000 448.270
23.13000 445.621
23.14000 443.447
23.15000 440.567
23.16000 435.359
23.17000 429.967
23.18000 426.192
23.19000 435.072
23.20000 442.148
23.21000 446.328
23.22000 446.068
23.23000 445.760
23.24000 444.431
23.25000 442.070
23.26000 439.724
23.27000 437.674
23.28000 435.846
23.29000 434.179
23.30000 436.977
23.31000 441.792
23.32000 446.315
23.33000 447.017
23.34000 446.538
23.35000 446.106
23.36000 441.247
23.37000 436.177
23.38000 432.145
23.39000 433.137
23.40000 434.795
23.41000 436.039
23.42000 435.940
23.43000 435.738
23.44000 435.598
23.45000 433.471
23.46000 431.811
23.47000 429.267
23.48000 425.387
23.49000 421.494
23.50000 422.876
23.51000 429.499
23.52000 436.079
23.53000 441.871
23.54000 447.069
23.55000 452.000
23.56000 449.788
23.57000 444.393
23.58000 438.589
23.59000 427.550
23.60000 414.916
23.61000 403.551
23.62000 414.081
23.63000 427.218
23.64000 438.186
23.65000 438.814
23.66000 438.098
23.67000 435.428
23.68000 426.507
23.69000 417.117
23.70000 410.603
23.71000 408.475
23.72000 406.989
23.73000 408.535
23.74000 414.588
23.75000 420.684
23.76000 428.471
23.77000 437.910
23.78000 447.284
23.79000 445.410
23.80000 436.424
23.81000 427.675
23.82000 425.041
23.83000 425.094
23.84000 425.456
23.85000 429.681
23.86000 435.066
23.87000 439.899
23.88000 441.995
23.89000 443.348
23.90000 443.109
23.91000 435.398
23.92000 426.734
23.93000 420.575
23.94000 422.318
23.95000 424.639
23.96000 426.241
23.97000 427.305
23.98000 428.091
23.99000 432.760
24.00000 443.116
24.01000 453.519
24.02000 456.311
24.03000 451.793
24.04000 447.308
24.05000 439.613
24.06000 430.041
24.07000 420.849
24.08000 421.170
24.09000 425.607
24.10000 429.737
24.11000 430.102
24.12000 429.355
24.13000 428.686
24.14000 424.413
24.15000 420.060
24.16000 416.677
24.17000 417.771
24.18000 419.425
24.19000 421.663
24.20000 425.712
24.21000 429.890
24.22000 432.760
24.23000 425.427
24.24000 419.677
24.25000 416.808
24.26000 418.092
24.27000 419.409
24.28000 418.623
24.29000 415.851
24.30000 413.100
24.31000 413.511
24.32000 415.859
24.33000 418.153
24.34000 419.157
24.35000 419.609
24.36000 420.145
24.37000 421.669
24.38000 423.482
24.39000 425.102
24.40000 423.178
24.41000 420.902
24.42000 418.346
24.43000 414.523
24.44000 410.544
24.45000 408.558
24.46000 412.670
24.47000 417.208
24.48000 420.309
24.49000 416.853
24.50000 414.112
24.51000 413.264
24.52000 415.104
24.53000 416.965
24.54000 420.077
24.55000 424.351
24.56000 428.589
24.57000 425.773
24.58000 418.739
24.59000 411.757
24.60000 405.968
24.61000 400.681
24.62000 395.991
24.63000 398.275
24.64000 402.559
24.65000 406.380
24.66000 405.700
24.67000 404.361
24.68000 404.522
24.69000 411.400
24.70000 419.087
24.71000 425.040
24.72000 425.765
24.73000 426.134
24.74000 426.385
24.75000 417.584
24.76000 410.808
24.77000 407.238
24.78000 408.155
24.79000 409.102
24.80000 410.034
24.81000 410.953
24.82000 411.864
24.83000 414.116
24.84000 417.122
24.85000 419.780
24.86000 414.545
24.87000 406.037
24.88000 398.911
24.89000 407.536
24.90000 420.614
24.91000 432.251
24.92000 427.300
24.93000 420.291
24.94000 413.514
24.95000 407.757
24.96000 402.121
24.97000 400.507
24.98000 410.854
24.99000 421.994
25.00000 429.534
25.01000 414.688
25.02000 403.140
25.03000 399.130
25.04000 405.503
25.05000 411.935
25.06000 412.290
25.07000 407.182
25.08000 402.124
25.09000 404.430
25.10000 411.005
25.11000 417.400
25.12000 419.859
25.13000 420.709
25.14000 421.307
25.15000 419.089
25.16000 416.086
25.17000 413.420
25.18000 407.202
25.19000 401.243
25.20000 396.643
25.21000 397.945
25.22000 399.930
25.23000 401.223
25.24000 400.484
25.25000 399.613
25.26000 399.027
25.27000 403.832
25.28000 407.517
25.29000 410.398
25.30000 412.186
25.31000 413.962
25.32000 409.493
25.33000 399.500
25.34000 389.610
25.35000 388.908
25.36000 393.521
25.37000 398.051
25.38000 400.806
25.39000 402.847
25.40000 404.744
25.41000 405.070
25.42000 404.965
25.43000 404.873
25.44000 399.260
25.45000 393.535
25.46000 390.558
25.47000 399.322
25.48000 409.421
25.49000 416.702
25.50000 415.844
25.51000 414.474
25.52000 413.555
25.53000 403.872
25.54000 396.513
25.55000 389.877
25.56000 384.205
25.57000 378.545
25.58000 378.589
25.59000 383.595
25.60000 388.546
25.61000 400.423
25.62000 415.961
25.63000 430.942
25.64000 434.441
25.65000 433.383
25.66000 431.668
25.67000 422.940
25.68000 412.317
25.69000 402.928
25.70000 399.536
25.71000 397.534
25.72000 397.039
25.73000 402.885
25.74000 409.437
25.75000 414.595
25.76000 415.783
25.77000 416.728
25.78000 417.357
25.79000 413.672
25.80000 410.861
25.81000 404.685
25.82000 394.088
25.83000 383.487
25.84000 383.996
25.85000 394.016
25.86000 403.921
25.87000 408.600
25.88000 410.245
25.89000 412.012
25.90000 416.220
25.91000 421.382
25.92000 426.063
25.93000 425.702
25.94000 424.000
25.95000 422.499
25.96000 417.583
25.97000 412.827
25.98000 408.642
25.99000 406.821
26.00000 405.259
26.01000 403.810
26.02000 402.676
26.03000 401.561
26.04000 400.822
26.05000 404.201
26.06000 406.772
26.07000 405.220
26.08000 398.330
26.09000 391.427
26.10000 388.739
26.11000 389.602
26.12000 390.454
26.13000 390.340
26.14000 389.698
26.15000 388.988
26.16000 386.944
26.17000 384.387
26.18000 382.024
26.19000 381.645
26.20000 381.787
26.21000 381.911
26.22000 386.269
26.23000 390.649
26.24000 393.182
26.25000 388.177
26.26000 382.365
26.27000 377.860
26.28000 376.967
26.29000 376.285
26.30000 375.835
26.31000 381.617
26.32000 385.988
26.33000 390.709
26.34000 395.878
26.35000 401.033
26.36000 398.905
26.37000 390.741
26.38000 382.681
26.39000 384.528
26.40000 391.689
26.41000 398.233
26.42000 393.110
26.43000 383.552
26.44000 374.306
26.45000 368.185
26.46000 362.872
26.47000 358.210
26.48000 361.491
26.49000 365.470
26.50000 369.800
26.51000 375.541
26.52000 381.430
26.53000 389.271
26.54000 402.433
26.55000 415.895
26.56000 424.725
26.57000 399.943
26.58000 381.157
26.59000 372.392
26.60000 376.194
26.61000 380.031
26.62000 382.548
26.63000 383.986
26.64000 385.404
26.65000 384.378
26.66000 382.078
26.67000 380.136
26.68000 384.776
26.69000 391.882
26.70000 397.818
26.71000 392.262
26.72000 383.782
26.73000 376.359
26.74000 381.368
26.75000 387.446
26.76000 391.684
26.77000 388.645
26.78000 384.859
26.79000 383.503
26.80000 388.677
26.81000 394.210
26.82000 397.820
26.83000 399.614
26.84000 400.901
26.85000 400.320
26.86000 397.435
26.87000 394.538
26.88000 390.131
26.89000 384.510
26.90000 378.968
26.91000 379.495
26.92000 383.187
26.93000 386.719
26.94000 387.372
26.95000 386.962
26.96000 386.478
26.97000 385.286
26.98000 383.917
26.99000 382.721
27.00000 383.596
27.01000 384.635
27.02000 385.911
27.03000 388.104
27.04000 390.390
27.05000 391.949
27.06000 391.583
27.07000 391.113
27.08000 390.808
27.09000 390.832
27.10000 390.854
27.11000 388.078
27.12000 381.901
27.13000 375.745
27.14000 377.996
27.15000 386.890
27.16000 395.651
27.17000 392.197
27.18000 382.542
27.19000 373.374
27.20000 372.689
27.21000 375.091
27.22000 377.969
27.23000 385.344
27.24000 393.829
27.25000 401.220
27.26000 392.595
27.27000 383.014
27.28000 375.997
27.29000 378.826
27.30000 382.624
27.31000 385.147
27.32000 384.341
27.33000 383.362
27.34000 382.731
27.35000 382.590
27.36000 382.494
27.37000 383.568
27.38000 386.040
27.39000 388.504
27.40000 388.015
27.41000 385.228
27.42000 382.485
27.43000 379.479
27.44000 376.433
27.45000 373.422
27.46000 371.004
27.47000 368.798
27.48000 367.206
27.49000 371.289
27.50000 376.750
27.51000 381.496
27.52000 385.742
27.53000 389.295
27.54000 390.913
27.55000 385.217
27.56000 378.815
27.57000 374.809
27.58000 376.967
27.59000 379.436
27.60000 381.021
27.61000 378.679
27.62000 376.918
27.63000 378.522
27.64000 384.085
27.65000 389.631
27.66000 389.909
27.67000 386.151
27.68000 382.456
27.69000 386.033
27.70000 393.133
27.71000 399.489
27.72000 393.595
27.73000 383.371
27.74000 374.028
27.75000 372.665
27.76000 373.212
27.77000 373.685
27.78000 374.900
27.79000 376.033
27.80000 375.243
27.81000 367.293
27.82000 358.666
27.83000 354.386
27.84000 361.127
27.85000 368.409
27.86000 373.054
27.87000 368.092
27.88000 364.358
27.89000 365.972
27.90000 373.777
27.91000 381.557
27.92000 382.308
27.93000 377.761
27.94000 373.292
27.95000 370.453
27.96000 368.511
27.97000 366.746
27.98000 367.814
27.99000 369.869
28.00000 371.845
28.01000 373.118
28.02000 374.226
28.03000 375.183
28.04000 382.190
28.05000 388.932
28.06000 393.526
28.07000 390.238
28.08000 386.221
28.09000 383.779
28.10000 385.272
28.11000 386.954
28.12000 388.020
28.13000 380.663
28.14000 375.221
28.15000 376.366
28.16000 385.013
28.17000 393.611
28.18000 391.276
28.19000 380.824
28.20000 370.561
28.21000 368.115
28.22000 369.539
28.23000 370.878
28.24000 370.878
28.25000 370.418
28.26000 369.851
28.27000 368.363
28.28000 366.662
28.29000 365.194
28.30000 364.927
28.31000 364.855
28.32000 365.827
28.33000 370.576
28.34000 375.666
28.35000 377.391
28.36000 370.825
28.37000 363.877
28.38000 359.494
28.39000 369.004
28.40000 376.051
28.41000 379.921
28.42000 380.231
28.43000 380.507
28.44000 375.682
28.45000 367.126
28.46000 358.732
28.47000 363.348
28.48000 374.002
28.49000 383.835
28.50000 381.183
28.51000 374.305
28.52000 368.204
28.53000 368.732
28.54000 370.774
28.55000 372.531
28.56000 376.073
28.57000 379.295
28.58000 381.261
28.59000 378.758
28.60000 375.858
28.61000 374.547
28.62000 377.090
28.63000 379.805
28.64000 381.507
28.65000 377.163
28.66000 373.958
28.67000 371.859
28.68000 370.976
28.69000 370.103
28.70000 370.500
28.71000 371.811
28.72000 373.097
28.73000 373.044
28.74000 372.365
28.75000 371.679
28.76000 370.879
28.77000 370.043
28.78000 368.889
28.79000 365.085
28.80000 360.684
28.81000 356.908
28.82000 362.372
28.83000 368.125
28.84000 371.583
28.85000 366.989
28.86000 361.699
28.87000 357.710
28.88000 356.837
28.89000 356.099
28.90000 355.639
28.91000 357.322
28.92000 358.556
28.93000 362.462
28.94000 369.265
28.95000 376.035
28.96000 377.991
28.97000 376.534
28.98000 375.108
28.99000 374.291
29.00000 373.787
29.01000 373.053
29.02000 368.978
29.03000 363.806
29.04000 359.248
29.05000 359.733
29.06000 361.334
29.07000 362.704
29.08000 366.413
29.09000 369.823
29.10000 372.495
29.11000 372.616
29.12000 372.521
29.13000 371.647
29.14000 368.934
29.15000 366.143
29.16000 364.414
29.17000 372.202
29.18000 377.894
29.19000 378.153
29.20000 372.619
29.21000 367.081
29.22000 361.356
29.23000 355.501
29.24000 349.771
29.25000 352.946
29.26000 360.043
29.27000 366.957
29.28000 371.286
29.29000 374.776
29.30000 377.139
29.31000 370.410
29.32000 361.701
29.33000 354.269
29.34000 362.743
29.35000 371.757
29.36000 378.178
29.37000 375.771
29.38000 372.634
29.39000 370.268
29.40000 369.698
29.41000 369.200
29.42000 368.894
29.43000 367.904
29.44000 367.188
29.45000 364.131
29.46000 358.621
29.47000 353.166
29.48000 354.319
29.49000 360.017
29.50000 365.587
29.51000 366.086
29.52000 364.295
29.53000 362.949
29.54000 367.737
29.55000 374.483
29.56000 379.741
29.57000 373.225
29.58000 364.183
29.59000 356.488
29.60000 356.816
29.61000 358.021
29.62000 358.335
29.63000 355.661
29.64000 352.745
29.65000 353.602
29.66000 363.106
29.67000 372.950
29.68000 378.977
29.69000 375.883
29.70000 373.591
29.71000 371.579
29.72000 369.855
29.73000 368.164
29.74000 370.048
29.75000 374.353
29.76000 378.559
29.77000 380.319
29.78000 380.928
29.79000 381.291
29.80000 378.341
29.81000 374.349
29.82000 371.822
29.83000 380.661
29.84000 391.900
29.85000 401.439
29.86000 404.601
29.87000 406.529
29.88000 409.648
29.89000 416.704
29.90000 424.072
29.91000 427.699
29.92000 422.878
29.93000 417.736
29.94000 414.607
29.95000 426.422
29.96000 434.978
29.97000 438.840
29.98000 437.943
29.99000 437.089
30.00000 440.709
30.01000 447.313
30.02000 453.758
30.03000 453.495
30.04000 450.336
30.05000 447.710
30.06000 452.086
30.07000 458.634
30.08000 464.258
30.09000 462.852
30.10000 459.984
30.11000 457.557
30.12000 455.368
30.13000 453.563
30.14000 450.348
30.15000 442.541
30.16000 434.381
30.17000 430.222
30.18000 434.971
30.19000 440.048
30.20000 443.118
30.21000 444.832
30.22000 446.043
30.23000 442.485
30.24000 434.171
30.25000 425.893
30.26000 421.015
30.27000 418.371
30.28000 415.792
30.29000 417.141
30.30000 420.103
30.31000 422.707
30.32000 420.704
30.33000 417.294
30.34000 413.982
30.35000 411.400
30.36000 408.967
30.37000 406.914
30.38000 405.186
30.39000 403.778
30.40000 402.880
30.41000 403.619
30.42000 404.481
30.43000 402.917
30.44000 396.028
30.45000 388.950
30.46000 384.697
30.47000 393.806
30.48000 400.372
30.49000 404.530
30.50000 406.329
30.51000 408.115
30.52000 408.838
30.53000 408.872
30.54000 408.906
30.55000 405.129
30.56000 399.929
30.57000 394.982
30.58000 393.213
30.59000 392.401
30.60000 392.160
30.61000 396.115
30.62000 400.913
30.63000 404.952
30.64000 403.975
30.65000 402.625
30.66000 401.691
30.67000 402.074
30.68000 402.553
30.69000 405.264
30.70000 412.800
30.71000 420.502
30.72000 425.100
30.73000 429.300
30.74000 432.275
30.75000 431.467
30.76000 427.012
30.77000 422.596
30.78000 421.407
30.79000 422.277
30.80000 423.123
30.81000 428.138
30.82000 434.635
30.83000 440.857
30.84000 443.693
30.85000 445.525
30.86000 447.246
30.87000 448.166
30.88000 448.928
30.89000 449.568
30.90000 458.483
30.91000 466.770
30.92000 473.814
30.93000 476.981
30.94000 479.869
30.95000 484.998
30.96000 494.905
30.97000 504.970
30.98000 510.940
30.99000 520.494
31.00000 527.275
31.01000 536.370
31.02000 547.657
31.03000 558.929
31.04000 569.003
31.05000 578.325
31.06000 587.385
31.07000 611.646
31.08000 640.893
31.09000 670.765
31.10000 708.141
31.11000 747.709
31.12000 787.539
31.13000 829.218
31.14000 871.257
31.15000 906.433
31.16000 976.075
31.17000 1037.471
31.18000 1102.511
31.19000 1178.745
31.20000 1255.763
31.21000 1337.201
31.22000 1427.923
31.23000 1518.940
31.24000 1572.587
31.25000 1762.277
31.26000 1896.886
31.27000 2021.680
31.28000 2137.324
31.29000 2252.958
31.30000 2367.850
31.31000 2482.284
31.32000 2593.396
31.33000 2686.462
31.34000 2767.574
31.35000 2847.458
31.36000 2912.943
31.37000 2974.285
31.38000 3034.198
31.39000 3084.187
31.40000 3132.272
31.41000 3172.389
31.42000 3146.468
31.43000 3118.347
31.44000 3088.674
31.45000 3054.305
31.46000 3019.614
31.47000 2964.116
31.48000 2865.535
31.49000 2765.634
31.50000 2707.138
31.51000 2555.767
31.52000 2448.726
31.53000 2336.025
31.54000 2218.134
31.55000 2100.186
31.56000 1978.307
31.57000 1854.032
31.58000 1733.493
31.59000 1632.928
31.60000 1545.485
31.61000 1458.220
31.62000 1372.996
31.63000 1288.351
31.64000 1206.073
31.65000 1139.956
31.66000 1076.889
31.67000 1024.428
31.68000 961.609
31.69000 908.593
31.70000 856.717
31.71000 808.247
31.72000 760.004
31.73000 719.534
31.74000 694.926
31.75000 670.786
31.76000 656.745
31.77000 612.687
31.78000 581.614
31.79000 562.555
31.80000 554.332
31.81000 546.022
31.82000 532.018
31.83000 514.595
31.84000 497.713
31.85000 489.795
31.86000 485.779
31.87000 481.263
31.88000 471.151
31.89000 459.476
31.90000 449.159
31.91000 447.950
31.92000 448.432
31.93000 448.832
31.94000 440.928
31.95000 433.600
31.96000 423.892
31.97000 407.189
31.98000 390.031
31.99000 380.976
32.00000 388.221
32.01000 395.928
32.02000 400.380
32.03000 393.181
32.04000 388.093
32.05000 386.217
32.06000 387.192
32.07000 388.043
32.08000 381.243
32.09000 369.917
32.10000 358.956
32.11000 363.755
32.12000 374.308
32.13000 383.728
32.14000 380.712
32.15000 374.273
32.16000 368.565
32.17000 367.674
32.18000 367.663
32.19000 367.654
32.20000 360.475
32.21000 353.880
32.22000 349.542
32.23000 351.742
32.24000 354.356
32.25000 355.077
32.26000 352.046
32.27000 348.912
32.28000 347.114
32.29000 341.363
32.30000 337.332
32.31000 335.627
32.32000 335.955
32.33000 336.228
32.34000 333.309
32.35000 328.530
32.36000 323.910
32.37000 332.872
32.38000 346.433
32.39000 358.446
32.40000 353.861
32.41000 344.774
32.42000 336.990
32.43000 337.642
32.44000 339.809
32.45000 341.596
32.46000 338.136
32.47000 334.805
32.48000 331.128
32.49000 326.465
32.50000 321.741
32.51000 319.949
32.52000 323.886
32.53000 327.973
32.54000 330.302
32.55000 336.092
32.56000 340.138
32.57000 342.178
32.58000 342.496
32.59000 342.782
32.60000 341.283
32.61000 338.759
32.62000 336.321
32.63000 334.679
32.64000 333.425
32.65000 332.150
32.66000 330.644
32.67000 329.076
32.68000 327.717
32.69000 327.694
32.70000 327.907
32.71000 328.081
32.72000 333.051
32.73000 337.566
32.74000 337.590
32.75000 324.976
32.76000 311.602
32.77000 306.540
32.78000 317.480
32.79000 328.820
32.80000 335.237
32.81000 330.109
32.82000 326.514
32.83000 325.890
32.84000 327.777
32.85000 329.595
32.86000 327.753
32.87000 323.839
32.88000 320.064
32.89000 322.886
32.90000 327.942
32.91000 332.193
32.92000 328.170
32.93000 321.969
32.94000 316.541
32.95000 315.948
32.96000 316.194
32.97000 316.395
32.98000 310.000
32.99000 304.174
33.00000 301.213
33.01000 306.194
33.02000 311.641
33.03000 316.539
33.04000 320.397
33.05000 324.230
33.06000 326.385
33.07000 312.018
33.08000 302.025
33.09000 300.538
33.10000 306.126
33.11000 311.590
33.12000 310.815
33.13000 306.559
33.14000 302.459
33.15000 302.765
33.16000 304.631
33.17000 306.906
33.18000 313.310
33.19000 320.784
33.20000 326.548
33.21000 321.803
33.22000 315.262
33.23000 309.921
33.24000 306.181
33.25000 303.258
33.26000 301.805
33.27000 304.370
33.28000 307.164
33.29000 307.571
33.30000 303.516
33.31000 299.358
33.32000 297.038
33.33000 305.728
33.34000 311.755
33.35000 313.098
33.36000 310.608
33.37000 308.116
33.38000 305.540
33.39000 302.919
33.40000 300.396
33.41000 298.377
33.42000 296.661
33.43000 294.898
33.44000 292.667
33.45000 290.318
33.46000 288.816
33.47000 292.438
33.48000 296.920
33.49000 300.569
33.50000 306.940
33.51000 312.374
33.52000 316.647
33.53000 317.792
33.54000 318.764
33.55000 319.844
33.56000 321.123
33.57000 322.405
33.58000 323.116
33.59000 302.235
33.60000 287.814
33.61000 285.941
33.62000 294.177
33.63000 302.220
33.64000 301.485
33.65000 295.996
33.66000 290.721
33.67000 291.220
33.68000 293.689
33.69000 296.222
33.70000 299.361
33.71000 302.652
33.72000 305.218
33.73000 303.466
33.74000 301.003
33.75000 299.004
33.76000 294.620
33.77000 290.849
33.78000 290.266
33.79000 298.149
33.80000 306.488
33.81000 309.000
33.82000 300.928
33.83000 292.636
33.84000 288.076
33.85000 294.042
33.86000 298.163
33.87000 301.080
33.88000 303.040
33.89000 304.915
33.90000 303.113
33.91000 299.347
33.92000 295.732
33.93000 296.120
33.94000 297.848
33.95000 299.198
33.96000 296.963
33.97000 293.841
33.98000 290.870
33.99000 288.781
34.00000 286.837
34.01000 285.263
34.02000 286.195
34.03000 287.154
34.04000 288.071
34.05000 288.875
34.06000 289.673
34.07000 291.722
34.08000 296.008
34.09000 300.338
34.10000 302.702
34.11000 293.479
34.12000 287.151
34.13000 286.923
34.14000 291.458
34.15000 295.919
34.16000 297.310
34.17000 297.086
34.18000 296.871
34.19000 290.020
34.20000 281.395
34.21000 273.664
34.22000 274.231
34.23000 276.822
34.24000 279.578
34.25000 283.283
34.26000 287.140
34.27000 290.249
34.28000 287.951
34.29000 285.660
34.30000 285.050
34.31000 288.779
34.32000 292.729
34.33000 293.448
34.34000 288.474
34.35000 283.391
34.36000 280.637
34.37000 279.783
34.38000 279.220
34.39000 283.492
34.40000 291.480
34.41000 299.263
34.42000 298.875
34.43000 294.252
34.44000 289.826
34.45000 286.210
34.46000 283.108
34.47000 280.242
34.48000 279.524
34.49000 279.321
34.50000 279.414
34.51000 281.176
34.52000 283.200
34.53000 284.826
34.54000 281.610
34.55000 278.631
34.56000 277.507
34.57000 281.105
34.58000 284.936
34.59000 285.825
34.60000 281.603
34.61000 277.289
34.62000 274.970
34.63000 276.862
34.64000 278.160
34.65000 279.563
34.66000 281.046
34.67000 282.508
34.68000 283.172
34.69000 283.427
34.70000 283.672
34.71000 285.427
34.72000 287.550
34.73000 289.197
34.74000 286.594
34.75000 282.985
34.76000 279.685
34.77000 278.101
34.78000 276.781
34.79000 275.725
34.80000 279.783
34.81000 283.451
34.82000 285.771
34.83000 284.714
34.84000 283.495
34.85000 283.242
34.86000 284.643
34.87000 286.072
34.88000 286.835
34.89000 289.952
34.90000 292.060
34.91000 290.702
34.92000 286.760
34.93000 282.744
34.94000 276.026
34.95000 267.948
34.96000 260.234
34.97000 266.608
34.98000 277.040
34.99000 286.380
35.00000 286.178
35.01000 283.754
35.02000 281.260
35.03000 278.381
35.04000 275.444
35.05000 273.100
35.06000 275.742
35.07000 278.242
35.08000 278.696
35.09000 274.094
35.10000 269.258
35.11000 267.738
35.12000 271.815
35.13000 275.982
35.14000 278.188
35.15000 276.224
35.16000 274.903
35.17000 276.437
35.18000 280.066
35.19000 283.570
35.20000 282.716
35.21000 279.701
35.22000 276.825
35.23000 275.326
35.24000 274.370
35.25000 273.458
35.26000 272.925
35.27000 272.479
35.28000 272.702
35.29000 276.516
35.30000 280.865
35.31000 284.324
35.32000 273.239
35.33000 263.264
35.34000 258.908
35.35000 268.239
35.36000 278.187
35.37000 281.181
35.38000 272.617
35.39000 263.877
35.40000 259.285
35.41000 263.602
35.42000 266.524
35.43000 268.359
35.44000 269.408
35.45000 270.410
35.46000 269.852
35.47000 268.530
35.48000 267.271
35.49000 266.638
35.50000 266.245
35.51000 266.305
35.52000 270.165
35.53000 274.884
35.54000 278.425
35.55000 275.741
35.56000 272.147
35.57000 269.299
35.58000 269.309
35.59000 269.518
35.60000 269.687
35.61000 269.761
35.62000 269.831
35.63000 269.979
35.64000 270.255
35.65000 270.533
35.66000 270.677
35.67000 275.665
35.68000 279.040
35.69000 282.636
35.70000 286.390
35.71000 289.836
35.72000 283.255
35.73000 271.841
35.74000 260.987
35.75000 257.705
35.76000 256.979
35.77000 256.665
35.78000 259.750
35.79000 263.591
35.80000 266.685
35.81000 265.893
35.82000 264.544
35.83000 263.479
35.84000 262.898
35.85000 262.466
35.86000 262.103
35.87000 261.904
35.88000 261.712
35.89000 262.018
35.90000 263.126
35.91000 264.246
35.92000 264.825
35.93000 264.144
35.94000 263.699
35.95000 265.231
35.96000 268.146
35.97000 270.971
35.98000 270.954
35.99000 269.588
36.00000 268.290
36.01000 264.717
36.02000 260.736
36.03000 257.161
36.04000 256.862
36.05000 257.281
36.06000 258.099
36.07000 260.959
36.08000 264.107
36.09000 266.586
36.10000 267.259
36.11000 267.679
36.12000 268.635
36.13000 270.841
36.14000 273.098
36.15000 272.276
36.16000 266.562
36.17000 260.786
36.18000 257.823
36.19000 247.285
36.20000 240.286
36.21000 243.723
36.22000 254.361
36.23000 264.743
36.24000 267.425
36.25000 266.502
36.26000 265.627
36.27000 267.606
36.28000 270.273
36.29000 272.076
36.30000 267.026
36.31000 260.500
36.32000 254.389
36.33000 250.373
36.34000 246.646
36.35000 243.723
36.36000 248.270
36.37000 252.393
36.38000 256.770
36.39000 261.732
36.40000 266.717
36.41000 268.454
36.42000 265.108
36.43000 261.701
36.44000 259.968
36.45000 254.156
36.46000 250.287
36.47000 249.498
36.48000 250.803
36.49000 252.153
36.50000 254.844
36.51000 258.155
36.52000 261.289
36.53000 259.537
36.54000 256.506
36.55000 254.331
36.56000 258.819
36.57000 264.720
36.58000 268.297
36.59000 260.363
36.60000 250.863
36.61000 243.438
36.62000 255.579
36.63000 266.509
36.64000 271.769
36.65000 264.184
36.66000 256.107
36.67000 253.209
36.68000 258.297
36.69000 263.475
36.70000 266.086
36.71000 271.723
36.72000 275.455
36.73000 275.277
36.74000 272.482
36.75000 269.578
36.76000 263.603
36.77000 256.231
36.78000 249.261
36.79000 249.769
36.80000 252.371
36.81000 255.150
36.82000 259.275
36.83000 263.681
36.84000 267.942
36.85000 271.498
36.86000 274.959
36.87000 277.655
36.88000 279.468
36.89000 280.857
36.90000 280.397
36.91000 275.807
36.92000 271.063
36.93000 269.116
36.94000 271.416
36.95000 273.761
36.96000 274.933
36.97000 276.847
36.98000 278.120
36.99000 279.121
37.00000 279.942
37.01000 280.793
37.02000 282.481
37.03000 284.544
37.04000 286.491
37.05000 285.451
37.06000 283.659
37.07000 282.086
37.08000 282.160
37.09000 282.572
37.10000 282.956
37.11000 283.203
37.12000 283.433
37.13000 283.611
37.14000 282.839
37.15000 282.169
37.16000 282.679
37.17000 285.788
37.18000 288.989
37.19000 288.370
37.20000 282.034
37.21000 275.643
37.22000 271.952
37.23000 270.917
37.24000 269.883
37.25000 268.862
37.26000 267.849
37.27000 266.846
37.28000 266.110
37.29000 265.492
37.30000 264.910
37.31000 266.176
37.32000 267.846
37.33000 269.100
37.34000 267.282
37.35000 264.844
37.36000 262.792
37.37000 262.564
37.38000 262.572
37.39000 262.577
37.40000 263.511
37.41000 264.306
37.42000 263.612
37.43000 259.691
37.44000 255.657
37.45000 252.462
37.46000 250.501
37.47000 248.551
37.48000 250.357
37.49000 255.795
37.50000 261.218
37.51000 265.345
37.52000 268.644
37.53000 271.620
37.54000 266.419
37.55000 257.658
37.56000 249.412
37.57000 250.964
37.58000 255.047
37.59000 259.046
37.60000 262.446
37.61000 265.726
37.62000 267.806
37.63000 264.305
37.64000 260.100
37.65000 256.861
37.66000 256.162
37.67000 255.753
37.68000 254.401
37.69000 251.030
37.70000 247.593
37.71000 245.389
37.72000 244.977
37.73000 244.580
37.74000 245.824
37.75000 248.627
37.76000 251.418
37.77000 253.173
37.78000 254.277
37.79000 255.304
37.80000 254.469
37.81000 252.834
37.82000 251.298
37.83000 253.762
37.84000 257.081
37.85000 260.453
37.86000 264.200
37.87000 268.021
37.88000 270.328
37.89000 265.707
37.90000 260.229
37.91000 256.024
37.92000 260.001
37.93000 263.600
37.94000 266.463
37.95000 267.776
37.96000 269.040
37.97000 264.522
37.98000 251.741
37.99000 238.899
38.00000 237.154
38.01000 245.790
38.02000 254.349
38.03000 257.233
38.04000 256.596
38.05000 256.030
38.06000 257.136
38.07000 258.951
38.08000 260.654
38.09000 259.767
38.10000 258.277
38.11000 257.713
38.12000 263.611
38.13000 270.753
38.14000 277.042
38.15000 279.489
38.16000 281.470
38.17000 282.984
38.18000 281.403
38.19000 279.988
38.20000 279.513
38.21000 280.988
38.22000 282.523
38.23000 281.413
38.24000 276.579
38.25000 271.720
38.26000 273.130
38.27000 280.305
38.28000 287.448
38.29000 292.360
38.30000 295.908
38.31000 299.276
38.32000 298.519
38.33000 296.042
38.34000 293.721
38.35000 300.282
38.36000 308.549
38.37000 317.200
38.38000 328.481
38.39000 340.260
38.40000 350.407
38.41000 353.310
38.42000 355.350
38.43000 356.903
38.44000 377.624
38.45000 394.945
38.46000 409.042
38.47000 416.537
38.48000 423.836
38.49000 432.584
38.50000 443.342
38.51000 454.109
38.52000 472.246
38.53000 497.031
38.54000 521.883
38.55000 551.149
38.56000 583.074
38.57000 614.937
38.58000 645.434
38.59000 675.369
38.60000 703.362
38.61000 729.138
38.62000 751.980
38.63000 777.424
38.64000 820.387
38.65000 866.615
38.66000 908.831
38.67000 933.526
38.68000 956.174
38.69000 973.354
38.70000 1008.235
38.71000 1036.545
38.72000 1052.719
38.73000 1044.406
38.74000 1035.395
38.75000 1037.672
38.76000 1055.361
38.77000 1073.132
38.78000 1064.571
38.79000 1032.601
38.80000 1000.702
38.81000 973.152
38.82000 948.185
38.83000 922.897
38.84000 890.688
38.85000 855.674
38.86000 822.985
38.87000 790.211
38.88000 760.477
38.89000 729.530
38.90000 690.545
38.91000 650.087
38.92000 610.665
38.93000 575.693
38.94000 541.231
38.95000 515.191
38.96000 481.289
38.97000 454.317
38.98000 429.135
38.99000 407.514
39.00000 385.991
39.01000 369.421
39.02000 359.508
39.03000 349.637
39.04000 342.233
39.05000 336.999
39.06000 331.757
39.07000 326.025
39.08000 320.006
39.09000 313.898
39.10000 305.922
39.11000 297.200
39.12000 289.070
39.13000 290.517
39.14000 294.183
39.15000 297.098
39.16000 295.125
39.17000 292.271
39.18000 288.306
39.19000 279.635
39.20000 270.434
39.21000 263.509
39.22000 262.645
39.23000 262.263
39.24000 262.527
39.25000 264.056
39.26000 265.619
39.27000 264.458
39.28000 259.693
39.29000 254.913
39.30000 253.627
39.31000 255.347
39.32000 257.041
39.33000 257.281
39.34000 256.682
39.35000 256.172
39.36000 257.483
39.37000 259.510
39.38000 261.396
39.39000 256.344
39.40000 250.100
39.41000 245.312
39.42000 249.830
39.43000 255.997
39.44000 261.017
39.45000 261.255
39.46000 260.965
39.47000 260.748
39.48000 247.188
39.49000 235.969
39.50000 230.633
39.51000 236.660
39.52000 242.973
39.53000 246.754
39.54000 247.235
39.55000 247.702
39.56000 247.497
39.57000 246.724
39.58000 245.908
39.59000 242.745
39.60000 238.251
39.61000 233.986
39.62000 234.242
39.63000 236.253
39.64000 238.120
39.65000 242.038
39.66000 246.061
39.67000 249.543
39.68000 249.628
39.69000 249.122
39.70000 247.923
39.71000 243.880
39.72000 239.529
39.73000 236.281
39.74000 237.877
39.75000 239.343
39.76000 240.311
39.77000 240.332
39.78000 240.330
39.79000 240.407
39.80000 240.585
39.81000 240.763
39.82000 239.029
39.83000 235.708
39.84000 232.441
39.85000 231.899
39.86000 232.882
39.87000 233.684
39.88000 230.997
39.89000 226.977
39.90000 223.249
39.91000 224.243
39.92000 226.243
39.93000 228.417
39.94000 231.664
39.95000 235.095
39.96000 238.023
39.97000 238.915
39.98000 239.593
39.99000 240.096
40.00000 224.473
40.01000 211.605
40.02000 207.291
40.03000 219.025
40.04000 231.130
40.05000 239.476
40.06000 243.076
40.07000 246.656
40.08000 241.441
40.09000 229.045
40.10000 216.954
40.11000 219.633
40.12000 230.455
40.13000 240.694
40.14000 240.086
40.15000 235.389
40.16000 231.042
40.17000 227.037
40.18000 223.517
40.19000 220.686
40.20000 222.039
40.21000 224.098
40.22000 226.203
40.23000 228.491
40.24000 230.797
40.25000 232.506
40.26000 235.389
40.27000 237.677
40.28000 238.274
40.29000 235.744
40.30000 233.144
40.31000 230.994
40.32000 229.402
40.33000 227.814
40.34000 225.092
40.35000 221.467
40.36000 217.831
40.37000 213.667
40.38000 209.217
40.39000 205.131
40.40000 207.638
40.41000 212.595
40.42000 217.175
40.43000 220.730
40.44000 223.688
40.45000 226.034
40.46000 224.727
40.47000 222.814
40.48000 221.138
40.49000 220.389
40.50000 219.733
40.51000 219.250
40.52000 218.342
40.53000 217.621
40.54000 217.668
40.55000 219.117
40.56000 220.595
40.57000 221.756
40.58000 222.529
40.59000 223.299
40.60000 223.957
40.61000 224.522
40.62000 225.053
40.63000 224.090
40.64000 222.328
40.65000 220.721
40.66000 221.847
40.67000 223.974
40.68000 225.935
40.69000 225.457
40.70000 224.486
40.71000 223.826
40.72000 224.987
40.73000 226.444
40.74000 227.883
40.75000 229.247
40.76000 230.605
40.77000 231.601
40.78000 226.677
40.79000 222.630
40.80000 220.252
40.81000 220.870
40.82000 221.547
40.83000 223.089
40.84000 225.669
40.85000 228.247
40.86000 226.233
40.87000 220.651
40.88000 215.075
40.89000 209.756
40.90000 204.572
40.91000 199.666
40.92000 199.517
40.93000 201.085
40.94000 202.528
40.95000 207.997
40.96000 213.769
40.97000 218.682
40.98000 218.648
40.99000 217.822
41.00000 216.621
41.01000 213.994
41.02000 211.228
41.03000 209.205
41.04000 217.360
41.05000 224.053
41.06000 226.869
41.07000 222.827
41.08000 218.654
41.09000 217.328
41.10000 219.374
41.11000 221.421
41.12000 223.123
41.13000 224.551
41.14000 225.879
41.15000 223.191
41.16000 218.416
41.17000 213.657
41.18000 209.180
41.19000 204.802
41.20000 200.780
41.21000 206.678
41.22000 214.077
41.23000 220.307
41.24000 219.907
41.25000 218.464
41.26000 217.163
41.27000 216.392
41.28000 215.672
41.29000 215.147
41.30000 214.846
41.31000 214.623
41.32000 214.117
41.33000 213.118
41.34000 212.109
41.35000 212.005
41.36000 212.956
41.37000 213.907
41.38000 214.793
41.39000 215.626
41.40000 216.480
41.41000 218.129
41.42000 220.187
41.43000 222.057
41.44000 220.898
41.45000 218.676
41.46000 216.637
41.47000 214.837
41.48000 213.283
41.49000 212.058
41.50000 212.671
41.51000 213.567
41.52000 214.339
41.53000 214.651
41.54000 214.921
41.55000 215.116
41.56000 210.857
41.57000 207.419
41.58000 206.036
41.59000 208.181
41.60000 210.387
41.61000 214.194
41.62000 219.839
41.63000 225.468
41.64000 224.167
41.65000 217.732
41.66000 211.357
41.67000 207.250
41.68000 204.287
41.69000 201.579
41.70000 202.885
41.71000 205.578
41.72000 208.044
41.73000 207.348
41.74000 206.072
41.75000 205.284
41.76000 207.174
41.77000 209.471
41.78000 211.536
41.79000 212.758
41.80000 213.904
41.81000 214.731
41.82000 220.253
41.83000 224.656
41.84000 225.431
41.85000 220.066
41.86000 214.602
41.87000 211.405
41.88000 210.767
41.89000 210.134
41.90000 210.569
41.91000 211.779
41.92000 212.957
41.93000 212.977
41.94000 212.421
41.95000 211.878
41.96000 211.543
41.97000 211.278
41.98000 211.036
41.99000 211.201
42.00000 211.430
42.01000 210.588
42.02000 203.963
42.03000 196.476
42.04000 193.272
42.05000 205.421
42.06000 218.942
42.07000 228.658
42.08000 223.220
42.09000 218.532
42.10000 213.463
42.11000 207.758
42.12000 202.044
42.13000 200.893
42.14000 204.810
42.15000 208.717
42.16000 208.449
42.17000 205.186
42.18000 202.021
42.19000 202.223
42.20000 204.076
42.21000 205.809
42.22000 205.746
42.23000 205.081
42.24000 204.474
42.25000 206.851
42.26000 209.556
42.27000 211.345
42.28000 208.270
42.29000 204.483
42.30000 201.316
42.31000 200.341
42.32000 199.557
42.33000 198.996
42.34000 196.911
42.35000 195.267
42.36000 195.655
42.37000 199.379
42.38000 203.153
42.39000 205.400
42.40000 205.980
42.41000 206.557
42.42000 206.049
42.43000 204.780
42.44000 203.612
42.45000 205.783
42.46000 209.567
42.47000 213.106
42.48000 213.058
42.49000 211.822
42.50000 210.698
42.51000 211.550
42.52000 212.694
42.53000 213.847
42.54000 215.043
42.55000 216.246
42.56000 216.001
42.57000 210.720
42.58000 205.008
42.59000 200.940
42.60000 196.179
42.61000 192.529
42.62000 189.714
42.63000 188.249
42.64000 186.802
42.65000 189.469
42.66000 196.554
42.67000 203.610
42.68000 202.463
42.69000 195.623
42.70000 189.040
42.71000 190.587
42.72000 196.007
42.73000 200.879
42.74000 197.900
42.75000 192.362
42.76000 187.331
42.77000 194.123
42.78000 202.415
42.79000 208.630
42.80000 204.169
42.81000 198.197
42.82000 193.834
42.83000 194.980
42.84000 196.587
42.85000 197.726
42.86000 203.620
42.87000 208.250
42.88000 209.909
42.89000 206.829
42.90000 203.689
42.91000 202.368
42.92000 202.971
42.93000 203.571
42.94000 203.816
42.95000 203.815
42.96000 203.858
42.97000 205.267
42.98000 207.316
42.99000 209.227
43.00000 209.198
43.01000 208.545
43.02000 207.954
43.03000 201.340
43.04000 194.360
43.05000 189.188
43.06000 193.153
43.07000 198.387
43.08000 202.344
43.09000 201.988
43.10000 201.279
43.11000 200.779
43.12000 201.243
43.13000 201.624
43.14000 204.416
43.15000 210.994
43.16000 217.617
43.17000 219.302
43.18000 215.855
43.19000 212.426
43.20000 211.118
43.21000 211.255
43.22000 211.388
43.23000 211.394
43.24000 211.342
43.25000 210.962
43.26000 206.117
43.27000 199.858
43.28000 194.197
43.29000 196.928
43.30000 200.904
43.31000 203.381
43.32000 198.407
43.33000 192.417
43.34000 188.128
43.35000 189.501
43.36000 191.326
43.37000 192.608
43.38000 186.655
43.39000 181.936
43.40000 181.269
43.41000 186.872
43.42000 192.547
43.43000 195.361
43.44000 195.253
43.45000 195.145
43.46000 195.988
43.47000 197.449
43.48000 198.893
43.49000 199.859
43.50000 200.607
43.51000 201.161
43.52000 199.133
43.53000 196.300
43.54000 193.743
43.55000 194.676
43.56000 196.137
43.57000 197.219
43.58000 196.443
43.59000 195.417
43.60000 194.954
43.61000 196.335
43.62000 197.860
43.63000 198.926
43.64000 188.202
43.65000 179.765
43.66000 176.971
43.67000 182.777
43.68000 188.674
43.69000 194.166
43.70000 199.249
43.71000 204.301
43.72000 206.926
43.73000 207.931
43.74000 208.860
43.75000 207.699
43.76000 205.599
43.77000 203.576
43.78000 202.562
43.79000 201.857
43.80000 201.222
43.81000 201.523
43.82000 201.956
43.83000 202.286
43.84000 202.122
43.85000 201.893
43.86000 200.346
43.87000 194.545
43.88000 188.419
43.89000 184.157
43.90000 192.348
43.91000 198.863
43.92000 202.152
43.93000 200.596
43.94000 198.992
43.95000 198.041
43.96000 197.734
43.97000 197.429
43.98000 197.398
43.99000 197.543
44.00000 197.744
44.01000 199.415
44.02000 201.739
44.03000 203.655
44.04000 200.405
44.05000 195.590
44.06000 191.262
44.07000 191.105
44.08000 191.707
44.09000 192.202
44.10000 192.185
44.11000 192.102
44.12000 192.494
44.13000 194.399
44.14000 196.416
44.15000 197.813
44.16000 198.664
44.17000 199.290
44.18000 200.240
44.19000 201.669
44.20000 203.102
44.21000 204.535
44.22000 205.969
44.23000 207.392
44.24000 203.730
44.25000 196.915
44.26000 190.355
44.27000 190.295
44.28000 193.075
44.29000 195.675
44.30000 196.036
44.31000 195.730
44.32000 195.456
44.33000 194.212
44.34000 192.957
44.35000 191.816
44.36000 191.212
44.37000 190.675
44.38000 190.346
44.39000 190.667
44.40000 191.035
44.41000 191.289
44.42000 193.887
44.43000 195.898
44.44000 198.079
44.45000 200.508
44.46000 202.939
44.47000 201.886
44.48000 197.506
44.49000 193.159
44.50000 192.444
44.51000 193.998
44.52000 195.506
44.53000 195.868
44.54000 195.737
44.55000 195.851
44.56000 198.931
44.57000 202.882
44.58000 206.419
44.59000 204.015
44.60000 200.900
44.61000 198.272
44.62000 197.878
44.63000 197.763
44.64000 198.261
44.65000 200.654
44.66000 203.182
44.67000 204.915
44.68000 206.204
44.69000 207.160
44.70000 206.129
44.71000 202.249
44.72000 198.347
44.73000 198.448
44.74000 202.308
44.75000 206.137
44.76000 212.746
44.77000 220.936
44.78000 228.842
44.79000 229.966
44.80000 228.212
44.81000 226.673
44.82000 227.692
44.83000 229.452
44.84000 231.024
44.85000 236.230
44.86000 241.376
44.87000 246.187
44.88000 249.484
44.89000 252.597
44.90000 253.614
44.91000 248.247
44.92000 242.439
44.93000 238.475
44.94000 251.108
44.95000 260.941
44.96000 266.805
44.97000 267.065
44.98000 267.285
44.99000 269.327
45.00000 273.050
45.01000 276.742
45.02000 278.101
45.03000 278.031
45.04000 278.207
45.05000 284.045
45.06000 292.253
45.07000 300.429
45.08000 308.237
45.09000 315.939
45.10000 322.803
45.11000 315.801
45.12000 307.422
45.13000 300.875
45.14000 302.487
45.15000 305.074
45.16000 307.083
45.17000 307.354
45.18000 307.508
45.19000 307.613
45.20000 300.467
45.21000 294.974
45.22000 295.356
45.23000 303.913
45.24000 312.517
45.25000 312.183
45.26000 303.728
45.27000 295.351
45.28000 291.783
45.29000 291.136
45.30000 290.379
45.31000 287.157
45.32000 282.920
45.33000 279.164
45.34000 280.865
45.35000 284.100
45.36000 286.977
45.37000 287.288
45.38000 287.141
45.39000 286.010
45.40000 280.559
45.41000 274.601
45.42000 268.601
45.43000 262.473
45.44000 256.337
45.45000 252.191
45.46000 257.676
45.47000 261.967
45.48000 264.736
45.49000 265.422
45.50000 266.094
45.51000 263.681
45.52000 258.512
45.53000 253.395
45.54000 250.813
45.55000 249.764
45.56000 248.673
45.57000 246.655
45.58000 244.261
45.59000 241.866
45.60000 239.457
45.61000 237.044
45.62000 234.904
45.63000 231.653
45.64000 228.660
45.65000 225.964
45.66000 224.549
45.67000 223.281
45.68000 222.696
45.69000 224.100
45.70000 225.632
45.71000 226.661
45.72000 225.758
45.73000 225.047
45.74000 221.536
45.75000 214.248
45.76000 206.947
45.77000 207.462
45.78000 214.849
45.79000 222.158
45.80000 223.629
45.81000 221.719
45.82000 219.728
45.83000 216.057
45.84000 211.712
45.85000 207.693
45.86000 207.196
45.87000 207.661
45.88000 208.073
45.89000 206.957
45.90000 205.754
45.91000 203.496
45.92000 196.753
45.93000 189.505
45.94000 185.326
45.95000 189.972
45.96000 195.168
45.97000 198.642
45.98000 205.637
45.99000 210.892
46.00000 210.182
46.01000 201.550
46.02000 192.890
46.03000 192.250
46.04000 198.545
46.05000 204.772
46.06000 205.928
46.07000 204.195
46.08000 202.283
46.09000 196.719
46.10000 189.713
46.11000 183.100
46.12000 180.645
46.13000 179.308
46.14000 178.127
46.15000 185.503
46.16000 193.183
46.17000 197.575
46.18000 188.209
46.19000 177.321
46.20000 172.239
46.21000 183.602
46.22000 195.965
46.23000 204.188
46.24000 198.696
46.25000 194.375
46.26000 188.209
46.27000 179.631
46.28000 171.057
46.29000 170.883
46.30000 177.861
46.31000 184.756
46.32000 185.982
46.33000 184.028
46.34000 182.080
46.35000 180.273
46.36000 178.521
46.37000 177.053
46.38000 178.528
46.39000 180.782
46.40000 182.768
46.41000 180.069
46.42000 177.036
46.43000 175.157
46.44000 178.029
46.45000 181.416
46.46000 183.621
46.47000 182.525
46.48000 181.234
46.49000 180.380
46.50000 178.815
46.51000 177.647
46.52000 177.083
46.53000 177.295
46.54000 177.512
46.55000 178.723
46.56000 180.767
46.57000 182.785
46.58000 185.357
46.59000 188.166
46.60000 190.456
46.61000 182.771
46.62000 171.258
46.63000 161.211
46.64000 166.059
46.65000 174.793
46.66000 182.470
46.67000 176.498
46.68000 169.343
46.69000 164.612
46.70000 169.713
46.71000 175.859
46.72000 179.539
46.73000 176.436
46.74000 172.942
46.75000 170.642
46.76000 168.314
46.77000 166.598
46.78000 165.521
46.79000 165.252
46.80000 164.989
46.81000 166.309
46.82000 168.934
46.83000 171.524
46.84000 171.696
46.85000 170.560
46.86000 169.367
46.87000 167.098
46.88000 164.424
46.89000 162.101
46.90000 163.276
46.91000 165.351
46.92000 167.171
46.93000 167.111
46.94000 166.787
46.95000 165.692
46.96000 161.513
46.97000 157.013
46.98000 155.609
46.99000 162.602
47.00000 170.065
47.01000 174.951
47.02000 168.446
47.03000 163.478
47.04000 163.235
47.05000 168.884
47.06000 174.542
47.07000 177.121
47.08000 177.200
47.09000 177.279
47.10000 178.680
47.11000 180.742
47.12000 182.561
47.13000 179.948
47.14000 175.683
47.15000 171.602
47.16000 169.314
47.17000 167.480
47.18000 165.876
47.19000 164.626
47.20000 163.605
47.21000 163.608
47.22000 167.639
47.23000 172.082
47.24000 174.579
47.25000 171.877
47.26000 168.891
47.27000 166.947
47.28000 170.658
47.29000 173.467
47.30000 173.898
47.31000 171.411
47.32000 168.923
47.33000 168.664
47.34000 170.184
47.35000 171.682
47.36000 169.038
47.37000 164.313
47.38000 159.901
47.39000 161.046
47.40000 164.232
47.41000 166.629
47.42000 161.498
47.43000 154.490
47.44000 148.374
47.45000 155.839
47.46000 164.122
47.47000 170.660
47.48000 170.434
47.49000 169.531
47.50000 168.004
47.51000 164.832
47.52000 161.573
47.53000 159.463
47.54000 168.907
47.55000 175.988
47.56000 177.131
47.57000 171.101
47.58000 165.075
47.59000 164.634
47.60000 168.583
47.61000 172.472
47.62000 174.438
47.63000 175.356
47.64000 176.039
47.65000 172.661
47.66000 167.813
47.67000 163.690
47.68000 166.356
47.69000 170.690
47.70000 174.462
47.71000 166.340
47.72000 157.773
47.73000 150.735
47.74000 149.535
47.75000 148.906
47.76000 148.903
47.77000 150.524
47.78000 152.229
47.79000 153.327
47.80000 152.375
47.81000 151.652
47.82000 152.703
47.83000 155.865
47.84000 159.034
47.85000 163.268
47.86000 168.326
47.87000 173.303
47.88000 171.047
47.89000 165.208
47.90000 159.798
47.91000 161.580
47.92000 165.929
47.93000 169.866
47.94000 170.026
47.95000 169.273
47.96000 168.619
47.97000 167.287
47.98000 166.062
47.99000 165.115
48.00000 165.220
48.01000 165.425
48.02000 166.169
48.03000 168.292
48.04000 170.485
48.05000 171.889
48.06000 169.512
48.07000 167.730
48.08000 166.827
48.09000 166.951
48.10000 167.082
48.11000 168.354
48.12000 170.494
48.13000 172.599
48.14000 168.995
48.15000 162.670
48.16000 156.861
48.17000 159.480
48.18000 165.064
48.19000 169.735
48.20000 166.203
48.21000 160.718
48.22000 155.969
48.23000 154.382
48.24000 153.450
48.25000 153.083
48.26000 154.810
48.27000 156.733
48.28000 157.408
48.29000 154.937
48.30000 152.314
48.31000 150.643
48.32000 154.142
48.33000 156.750
48.34000 157.693
48.35000 156.719
48.36000 155.752
48.37000 156.781
48.38000 159.305
48.39000 161.786
48.40000 164.791
48.41000 167.950
48.42000 170.863
48.43000 169.843
48.44000 167.460
48.45000 165.143
48.46000 163.408
48.47000 161.809
48.48000 160.428
48.49000 164.800
48.50000 169.257
48.51000 171.883
48.52000 167.825
48.53000 163.153
48.54000 159.565
48.55000 158.672
48.56000 157.906
48.57000 157.421
48.58000 159.309
48.59000 160.707
48.60000 162.090
48.61000 163.454
48.62000 164.807
48.63000 164.299
48.64000 162.415
48.65000 160.566
48.66000 159.966
48.67000 159.989
48.68000 160.026
48.69000 160.268
48.70000 160.580
48.71000 161.005
48.72000 162.407
48.73000 164.036
48.74000 165.438
48.75000 166.776
48.76000 167.902
48.77000 167.117
48.78000 159.458
48.79000 151.183
48.80000 146.544
48.81000 150.816
48.82000 155.494
48.83000 158.440
48.84000 157.260
48.85000 156.360
48.86000 155.035
48.87000 153.235
48.88000 151.442
48.89000 150.907
48.90000 151.286
48.91000 151.659
48.92000 152.856
48.93000 154.401
48.94000 155.959
48.95000 157.720
48.96000 159.550
48.97000 161.207
48.98000 161.401
48.99000 161.264
49.00000 161.145
49.01000 157.130
49.02000 153.248
49.03000 150.295
49.04000 150.630
49.05000 151.253
49.06000 152.067
49.07000 153.342
49.08000 154.637
49.09000 155.448
49.10000 154.628
49.11000 154.019
49.12000 153.008
49.13000 151.557
49.14000 150.129
49.15000 152.282
49.16000 157.000
49.17000 161.623
49.18000 162.009
49.19000 160.403
49.20000 158.731
49.21000 156.090
49.22000 153.127
49.23000 150.479
49.24000 150.456
49.25000 151.021
49.26000 151.504
49.27000 150.167
49.28000 148.816
49.29000 148.552
49.30000 152.085
49.31000 155.945
49.32000 158.674
49.33000 158.713
49.34000 158.637
49.35000 158.590
49.36000 159.718
49.37000 160.543
49.38000 158.615
49.39000 153.719
49.40000 148.870
49.41000 150.648
49.42000 157.099
49.43000 163.415
49.44000 162.224
49.45000 157.630
49.46000 153.344
49.47000 153.484
49.48000 155.072
49.49000 156.469
49.50000 156.314
49.51000 155.818
49.52000 155.393
49.53000 156.394
49.54000 157.409
49.55000 157.132
49.56000 152.411
49.57000 147.317
49.58000 144.778
49.59000 148.233
49.60000 151.937
49.61000 154.227
49.62000 152.517
49.63000 151.251
49.64000 151.020
49.65000 151.886
49.66000 152.753
49.67000 153.606
49.68000 154.450
49.69000 155.276
49.70000 156.278
49.71000 157.319
49.72000 158.086
49.73000 155.018
49.74000 150.715
49.75000 146.883
49.76000 146.832
49.77000 147.601
49.78000 148.256
49.79000 147.119
49.80000 145.952
49.81000 146.483
49.82000 152.769
49.83000 159.527
49.84000 163.434
49.85000 160.748
49.86000 157.797
49.87000 155.983
49.88000 155.080
49.89000 154.440
49.90000 155.776
49.91000 159.172
49.92000 162.526
49.93000 161.086
49.94000 156.369
49.95000 151.758
49.96000 153.094
49.97000 157.022
49.98000 160.479
49.99000 157.503
50.00000 152.485
50.01000 148.235
50.02000 150.021
50.03000 153.095
50.04000 155.708
50.05000 159.102
50.06000 162.041
50.07000 164.582
50.08000 165.791
50.09000 166.892
50.10000 167.670
50.11000 167.708
50.12000 167.717
50.13000 167.723
50.14000 158.323
50.15000 151.523
50.16000 147.782
50.17000 147.178
50.18000 146.611
50.19000 149.949
50.20000 155.915
50.21000 161.742
50.22000 160.271
50.23000 155.668
50.24000 151.559
50.25000 154.057
50.26000 158.623
50.27000 163.081
50.28000 166.719
50.29000 170.183
50.30000 173.121
50.31000 167.419
50.32000 161.666
50.33000 158.013
50.34000 161.271
50.35000 165.070
50.36000 167.042
50.37000 164.909
50.38000 162.622
50.39000 161.234
50.40000 172.382
50.41000 180.434
50.42000 181.951
50.43000 176.881
50.44000 171.855
50.45000 171.201
50.46000 173.447
50.47000 175.639
50.48000 177.360
50.49000 178.802
50.50000 180.238
50.51000 181.606
50.52000 182.952
50.53000 184.645
50.54000 188.955
50.55000 193.807
50.56000 197.908
50.57000 198.936
50.58000 199.456
50.59000 200.198
50.60000 201.659
50.61000 203.174
50.62000 203.546
50.63000 201.383
50.64000 199.129
50.65000 197.769
50.66000 208.812
50.67000 216.762
50.68000 218.371
50.69000 213.696
50.70000 209.103
50.71000 212.167
50.72000 220.236
50.73000 228.101
50.74000 234.518
50.75000 240.028
50.76000 244.678
50.77000 238.364
50.78000 228.720
50.79000 220.506
50.80000 222.921
50.81000 227.497
50.82000 231.355
50.83000 228.837
50.84000 226.044
50.85000 223.838
50.86000 223.506
50.87000 223.314
50.88000 222.386
50.89000 219.853
50.90000 217.263
50.91000 215.710
50.92000 203.113
50.93000 194.093
50.94000 191.966
50.95000 196.557
50.96000 201.083
50.97000 200.055
50.98000 195.451
50.99000 190.969
51.00000 187.221
51.01000 183.956
51.02000 181.155
51.03000 184.137
51.04000 188.849
51.05000 192.796
51.06000 191.160
51.07000 188.407
51.08000 186.092
51.09000 183.936
51.10000 182.155
51.11000 179.494
51.12000 174.062
51.13000 168.429
51.14000 164.480
51.15000 164.157
51.16000 163.957
51.17000 163.837
51.18000 164.035
51.19000 164.177
51.20000 164.380
51.21000 164.641
51.22000 164.864
51.23000 162.056
51.24000 157.325
51.25000 152.724
51.26000 152.048
51.27000 153.019
51.28000 153.869
51.29000 153.254
51.30000 152.207
51.31000 151.468
51.32000 152.942
51.33000 154.851
51.34000 156.451
51.35000 153.785
51.36000 151.125
51.37000 149.717
51.38000 152.195
51.39000 154.949
51.40000 155.911
51.41000 153.070
51.42000 150.106
51.43000 148.351
51.44000 147.079
51.45000 146.182
51.46000 143.843
51.47000 140.145
51.48000 136.525
51.49000 138.795
51.50000 144.746
51.51000 150.528
51.52000 147.458
51.53000 140.960
51.54000 134.984
51.55000 135.224
51.56000 137.269
51.57000 139.355
51.58000 141.722
51.59000 144.144
51.60000 146.168
51.61000 144.842
51.62000 143.400
51.63000 142.272
51.64000 142.105
51.65000 142.004
51.66000 142.988
51.67000 146.236
51.68000 149.556
51.69000 151.508
51.70000 146.660
51.71000 143.207
51.72000 143.207
51.73000 146.408
51.74000 149.538
51.75000 147.630
51.76000 142.621
51.77000 137.759
51.78000 138.896
51.79000 142.363
51.80000 145.572
51.81000 145.787
51.82000 145.145
51.83000 144.675
51.84000 145.400
51.85000 146.352
51.86000 147.146
51.87000 151.634
51.88000 155.722
51.89000 158.148
51.90000 155.570
51.91000 152.652
51.92000 149.643
51.93000 146.446
51.94000 143.243
51.95000 141.372
51.96000 148.781
51.97000 154.035
51.98000 154.235
51.99000 149.828
52.00000 145.418
52.01000 140.816
52.02000 136.098
52.03000 131.523
52.04000 134.889
52.05000 141.189
52.06000 146.995
52.07000 147.181
52.08000 145.782
52.09000 144.180
52.10000 141.202
52.11000 137.966
52.12000 135.276
52.13000 136.028
52.14000 136.984
52.15000 138.898
52.16000 143.653
52.17000 148.595
52.18000 151.602
52.19000 150.681
52.20000 149.646
52.21000 149.045
52.22000 144.009
52.23000 140.457
52.24000 138.264
52.25000 137.288
52.26000 136.287
52.27000 133.688
52.28000 130.133
52.29000 126.691
52.30000 129.162
52.31000 133.782
52.32000 138.099
52.33000 139.047
52.34000 139.058
52.35000 139.529
52.36000 143.064
52.37000 147.164
52.38000 150.562
52.39000 147.906
52.40000 145.135
52.41000 141.340
52.42000 134.544
52.43000 127.556
52.44000 126.306
52.45000 136.539
52.46000 147.092
52.47000 153.175
52.48000 147.731
52.49000 143.876
52.50000 142.067
52.51000 142.064
52.52000 142.097
52.53000 144.394
52.54000 148.022
52.55000 151.533
52.56000 148.641
52.57000 143.480
52.58000 138.624
52.59000 137.098
52.60000 136.484
52.61000 135.889
52.62000 135.414
52.63000 134.961
52.64000 134.587
52.65000 136.939
52.66000 139.132
52.67000 140.259
52.68000 138.315
52.69000 136.178
52.70000 136.027
52.71000 139.792
52.72000 143.662
52.73000 145.877
52.74000 146.695
52.75000 147.260
52.76000 147.232
52.77000 146.689
52.78000 146.110
52.79000 143.459
52.80000 139.608
52.81000 135.887
52.82000 139.515
52.83000 145.683
52.84000 151.101
52.85000 148.531
52.86000 143.807
52.87000 139.747
52.88000 139.961
52.89000 140.939
52.90000 141.743
52.91000 143.472
52.92000 144.978
52.93000 145.740
52.94000 144.390
52.95000 142.910
52.96000 141.123
52.97000 138.736
52.98000 136.335
52.99000 134.969
53.00000 141.437
53.01000 145.963
53.02000 147.863
53.03000 147.521
53.04000 147.159
53.05000 145.754
53.06000 143.751
53.07000 141.818
53.08000 144.855
53.09000 149.543
53.10000 153.871
53.11000 154.436
53.12000 154.003
53.13000 153.214
53.14000 150.177
53.15000 146.746
53.16000 143.929
53.17000 143.529
53.18000 143.416
53.19000 144.603
53.20000 149.425
53.21000 154.464
53.22000 155.467
53.23000 148.737
53.24000 141.817
53.25000 137.910
53.26000 148.694
53.27000 156.217
53.28000 157.817
53.29000 154.439
53.30000 151.155
53.31000 152.772
53.32000 157.148
53.33000 161.368
53.34000 158.114
53.35000 152.349
53.36000 147.323
53.37000 149.840
53.38000 154.332
53.39000 158.470
53.40000 160.416
53.41000 161.982
53.42000 163.264
53.43000 156.871
53.44000 150.962
53.45000 147.549
53.46000 151.024
53.47000 154.898
53.48000 157.363
53.49000 157.168
53.50000 156.910
53.51000 156.766
53.52000 154.844
53.53000 153.510
53.54000 153.223
53.55000 153.801
53.56000 154.354
53.57000 153.677
53.58000 152.318
53.59000 151.008
53.60000 151.709
53.61000 153.083
53.62000 154.480
53.63000 156.116
53.64000 157.813
53.65000 158.533
53.66000 153.276
53.67000 147.005
53.68000 141.889
53.69000 141.090
53.70000 140.805
53.71000 140.864
53.72000 141.857
53.73000 142.903
53.74000 142.678
53.75000 140.089
53.76000 137.447
53.77000 135.977
53.78000 134.376
53.79000 133.273
53.80000 134.204
53.81000 136.789
53.82000 139.324
53.83000 139.468
53.84000 138.305
53.85000 137.187
53.86000 140.746
53.87000 145.723
53.88000 150.288
53.89000 150.818
53.90000 150.325
53.91000 149.489
53.92000 146.594
53.93000 143.355
53.94000 140.721
53.95000 142.308
53.96000 143.957
53.97000 145.492
53.98000 146.720
53.99000 147.932
54.00000 147.258
54.01000 143.128
54.02000 138.923
54.03000 136.599
54.04000 144.059
54.05000 149.217
54.06000 152.916
54.07000 155.445
54.08000 157.834
54.09000 153.941
54.10000 146.664
54.11000 139.673
54.12000 134.760
54.13000 130.878
54.14000 127.665
54.15000 130.873
54.16000 135.686
54.17000 139.954
54.18000 141.005
54.19000 141.528
54.20000 141.953
54.21000 140.007
54.22000 138.228
54.23000 137.220
54.24000 138.249
54.25000 139.387
54.26000 137.866
54.27000 131.541
54.28000 125.118
54.29000 121.595
54.30000 133.358
54.31000 141.451
54.32000 142.628
54.33000 138.350
54.34000 134.226
54.35000 136.713
54.36000 142.711
54.37000 148.465
54.38000 147.575
54.39000 144.489
54.40000 141.413
54.41000 138.425
54.42000 135.460
54.43000 133.476
54.44000 137.187
54.45000 141.817
54.46000 145.558
54.47000 143.647
54.48000 141.642
54.49000 139.686
54.50000 137.859
54.51000 136.039
54.52000 136.203
54.53000 139.900
54.54000 143.666
54.55000 145.717
54.56000 141.732
54.57000 138.993
54.58000 137.211
54.59000 136.171
54.60000 135.161
54.61000 135.415
54.62000 136.331
54.63000 137.208
54.64000 138.906
54.65000 140.764
54.66000 142.537
54.67000 143.516
54.68000 144.302
54.69000 145.267
54.70000 147.251
54.71000 149.396
54.72000 151.124
54.73000 147.112
54.74000 143.409
54.75000 140.696
54.76000 140.527
54.77000 140.486
54.78000 141.382
54.79000 143.920
54.80000 146.490
54.81000 147.878
54.82000 143.390
54.83000 140.316
54.84000 138.331
54.85000 137.179
54.86000 136.010
54.87000 134.188
54.88000 132.029
54.89000 129.962
54.90000 132.418
54.91000 136.193
54.92000 139.906
54.93000 143.066
54.94000 146.094
54.95000 149.027
54.96000 151.430
54.97000 153.750
54.98000 155.613
54.99000 152.102
55.00000 148.848
55.01000 145.588
55.02000 142.311
55.03000 139.032
55.04000 137.173
55.05000 137.768
55.06000 138.406
55.07000 138.748
55.08000 141.599
55.09000 143.536
55.10000 143.164
55.11000 141.056
55.12000 139.012
55.13000 139.359
55.14000 140.921
55.15000 142.414
55.16000 143.356
55.17000 144.053
55.18000 144.541
55.19000 143.179
55.20000 141.383
55.21000 139.879
55.22000 139.995
55.23000 140.359
55.24000 140.650
55.25000 145.383
55.26000 149.541
55.27000 152.119
55.28000 150.758
55.29000 149.211
55.30000 148.970
55.31000 150.953
55.32000 152.974
55.33000 154.050
55.34000 151.128
55.35000 149.147
55.36000 149.119
55.37000 150.539
55.38000 151.972
55.39000 153.891
55.40000 156.054
55.41000 158.117
55.42000 157.773
55.43000 156.686
55.44000 155.616
55.45000 154.687
55.46000 153.791
55.47000 154.133
55.48000 161.199
55.49000 169.276
55.50000 175.716
55.51000 171.263
55.52000 166.877
55.53000 165.406
55.54000 171.101
55.55000 177.125
55.56000 181.487
55.57000 183.058
55.58000 184.585
55.59000 185.391
55.60000 193.452
55.61000 198.922
55.62000 203.198
55.63000 206.602
55.64000 209.955
55.65000 211.531
55.66000 212.229
55.67000 212.894
55.68000 220.500
55.69000 229.724
55.70000 239.196
55.71000 250.770
55.72000 262.822
55.73000 274.028
55.74000 280.705
55.75000 286.712
55.76000 291.485
55.77000 303.774
55.78000 314.205
55.79000 325.555
55.80000 339.132
55.81000 352.809
55.82000 366.997
55.83000 382.032
55.84000 397.079
55.85000 404.963
55.86000 419.928
55.87000 430.065
55.88000 440.183
55.89000 450.289
55.90000 460.618
55.91000 478.379
55.92000 499.757
55.93000 520.104
55.94000 529.380
55.95000 534.556
55.96000 540.059
55.97000 548.288
55.98000 557.129
55.99000 564.086
56.00000 561.142
56.01000 556.760
56.02000 553.290
56.03000 551.747
56.04000 550.640
56.05000 548.676
56.06000 544.665
56.07000 540.565
56.08000 530.970
56.09000 512.426
56.10000 493.756
56.11000 484.052
56.12000 476.391
56.13000 471.179
56.14000 460.616
56.15000 446.268
56.16000 431.892
56.17000 416.634
56.18000 400.952
56.19000 386.046
56.20000 376.955
56.21000 370.316
56.22000 362.606
56.23000 346.116
56.24000 327.686
56.25000 311.341
56.26000 305.783
56.27000 301.763
56.28000 298.591
56.29000 281.890
56.30000 267.576
56.31000 256.096
56.32000 251.288
56.33000 246.759
56.34000 244.047
56.35000 244.250
56.36000 244.492
56.37000 244.616
56.38000 229.134
56.39000 218.728
56.40000 211.583
56.41000 206.709
56.42000 201.855
56.43000 197.585
56.44000 193.591
56.45000 189.801
56.46000 189.688
56.47000 190.681
56.48000 190.864
56.49000 184.536
56.50000 176.792
56.51000 170.252
56.52000 169.838
56.53000 170.282
56.54000 170.631
56.55000 169.031
56.56000 167.621
56.57000 168.048
56.58000 172.737
56.59000 177.598
56.60000 178.104
56.61000 171.723
56.62000 165.257
56.63000 161.950
56.64000 160.703
56.65000 159.850
56.66000 157.169
56.67000 153.233
56.68000 149.322
56.69000 146.119
56.70000 143.246
56.71000 140.523
56.72000 142.860
56.73000 146.498
56.74000 149.563
56.75000 148.110
56.76000 145.689
56.77000 143.436
56.78000 142.026
56.79000 140.731
56.80000 139.717
56.81000 138.012
56.82000 136.605
56.83000 136.198
56.84000 138.079
56.85000 140.049
56.86000 142.203
56.87000 144.644
56.88000 147.089
56.89000 148.328
56.90000 143.500
56.91000 140.279
56.92000 138.474
56.93000 137.628
56.94000 136.808
56.95000 136.742
56.96000 137.022
56.97000 137.286
56.98000 135.887
56.99000 134.120
57.00000 132.727
57.01000 134.231
57.02000 136.345
57.03000 137.828
57.04000 136.200
57.05000 134.153
57.06000 132.554
57.07000 132.234
57.08000 132.060
57.09000 131.191
57.10000 128.759
57.11000 126.267
57.12000 124.890
57.13000 125.222
57.14000 125.573
57.15000 125.749
57.16000 129.581
57.17000 132.133
57.18000 133.986
57.19000 135.374
57.20000 136.667
57.21000 135.319
57.22000 132.776
57.23000 130.373
57.24000 134.287
57.25000 139.675
57.26000 143.508
57.27000 135.523
57.28000 125.088
57.29000 116.650
57.30000 117.902
57.31000 120.440
57.32000 122.413
57.33000 128.716
57.34000 133.997
57.35000 136.672
57.36000 133.556
57.37000 130.227
57.38000 129.855
57.39000 133.951
57.40000 138.092
57.41000 139.167
57.42000 137.193
57.43000 135.194
57.44000 130.900
57.45000 125.102
57.46000 119.495
57.47000 119.020
57.48000 120.835
57.49000 122.548
57.50000 123.667
57.51000 124.527
57.52000 125.377
57.53000 126.156
57.54000 126.920
57.55000 127.753
57.56000 128.912
57.57000 130.114
57.58000 131.045
57.59000 134.586
57.60000 137.556
57.61000 138.395
57.62000 134.570
57.63000 130.581
57.64000 126.430
57.65000 122.036
57.66000 117.641
57.67000 117.641
57.68000 121.939
57.69000 126.206
57.70000 127.683
57.71000 127.360
57.72000 127.169
57.73000 130.400
57.74000 135.136
57.75000 139.598
57.76000 134.811
57.77000 127.889
57.78000 122.152
57.79000 125.096
57.80000 129.784
57.81000 133.343
57.82000 131.594
57.83000 129.168
57.84000 127.295
57.85000 127.982
57.86000 128.676
57.87000 127.619
57.88000 122.783
57.89000 117.818
57.90000 117.956
57.91000 125.575
57.92000 133.258
57.93000 134.279
57.94000 128.893
57.95000 123.581
57.96000 124.421
57.97000 129.174
57.98000 133.734
57.99000 133.482
58.00000 131.146
58.01000 128.947
58.02000 127.848
58.03000 127.142
58.04000 126.735
58.05000 128.484
58.06000 130.661
58.07000 132.673
58.08000 133.929
58.09000 135.090
58.10000 135.983
58.11000 130.623
58.12000 126.028
58.13000 122.762
58.14000 122.322
58.15000 121.976
58.16000 123.289
58.17000 126.997
58.18000 130.725
58.19000 129.745
58.20000 124.312
58.21000 118.934
58.22000 117.735
58.23000 119.157
58.24000 120.442
58.25000 118.454
58.26000 115.066
58.27000 111.885
58.28000 113.328
58.29000 115.875
58.30000 118.127
58.31000 118.307
58.32000 118.083
58.33000 118.463
58.34000 121.597
58.35000 125.070
58.36000 127.732
58.37000 124.733
58.38000 122.053
58.39000 121.488
58.40000 125.360
58.41000 129.372
58.42000 132.889
58.43000 135.704
58.44000 138.513
58.45000 136.806
58.46000 130.903
58.47000 125.061
58.48000 123.709
58.49000 125.128
58.50000 126.580
58.51000 128.818
58.52000 131.387
58.53000 133.796
58.54000 130.233
58.55000 125.427
58.56000 121.048
58.57000 119.634
58.58000 118.788
58.59000 118.491
58.60000 120.654
58.61000 123.114
58.62000 124.992
58.63000 125.312
58.64000 125.480
58.65000 125.867
58.66000 126.705
58.67000 127.557
58.68000 127.023
58.69000 124.549
58.70000 122.062
58.71000 120.294
58.72000 119.183
58.73000 118.103
58.74000 119.056
58.75000 121.247
58.76000 123.391
58.77000 124.461
58.78000 125.086
58.79000 125.671
58.80000 121.896
58.81000 117.342
58.82000 113.807
58.83000 117.215
58.84000 121.931
58.85000 125.074
58.86000 121.278
58.87000 116.662
58.88000 113.151
58.89000 116.439
58.90000 119.380
58.91000 119.793
58.92000 115.056
58.93000 110.168
58.94000 109.417
58.95000 114.369
58.96000 119.355
58.97000 121.937
58.98000 122.355
58.99000 122.756
59.00000 122.088
59.01000 120.779
59.02000 119.646
59.03000 122.384
59.04000 126.706
59.05000 130.745
59.06000 124.800
59.07000 116.878
59.08000 110.511
59.09000 114.546
59.10000 120.508
59.11000 124.747
59.12000 121.501
59.13000 117.387
59.14000 114.270
59.15000 114.659
59.16000 115.143
59.17000 115.316
59.18000 114.864
59.19000 114.395
59.20000 114.178
59.21000 114.306
59.22000 114.435
59.23000 116.077
59.24000 119.054
59.25000 121.994
59.26000 122.642
59.27000 121.937
59.28000 121.211
59.29000 120.035
59.30000 118.677
59.31000 117.411
59.32000 114.260
59.33000 110.937
59.34000 108.260
59.35000 109.833
59.36000 112.182
59.37000 114.862
59.38000 118.960
59.39000 123.221
59.40000 126.435
59.41000 126.911
59.42000 127.148
59.43000 126.096
59.44000 122.496
59.45000 118.826
59.46000 115.650
59.47000 113.133
59.48000 110.621
59.49000 110.722
59.50000 113.095
59.51000 115.435
59.52000 115.909
59.53000 115.296
59.54000 114.872
59.55000 118.355
59.56000 123.392
59.57000 128.083
59.58000 126.655
59.59000 123.864
59.60000 121.292
59.61000 120.131
59.62000 119.223
59.63000 118.256
59.64000 117.040
59.65000 115.796
59.66000 114.861
59.67000 118.468
59.68000 121.507
59.69000 122.639
59.70000 120.054
59.71000 117.371
59.72000 117.600
59.73000 121.658
59.74000 125.732
59.75000 126.622
59.76000 124.787
59.77000 122.952
59.78000 121.042
59.79000 119.089
59.80000 117.225
59.81000 117.139
59.82000 117.749
59.83000 118.316
59.84000 117.476
59.85000 116.380
59.86000 116.198
59.87000 121.824
59.88000 128.472
59.89000 133.119
59.90000 129.463
59.91000 124.899
59.92000 121.482
59.93000 118.045
59.94000 115.363
59.95000 112.216
59.96000 108.177
59.97000 104.116
59.98000 104.490
59.99000 110.611
60.00000 116.749
60.01000 118.872
60.02000 117.610
60.03000 116.338
60.04000 114.536
60.05000 112.436
60.06000 110.364
60.07000 108.844
60.08000 107.536
60.09000 106.323
60.10000 107.978
60.11000 110.149
60.12000 112.352
60.13000 114.750
60.14000 117.182
60.15000 119.030
60.16000 118.488
60.17000 117.690
60.18000 117.095
60.19000 116.763
60.20000 116.517
60.21000 116.810
60.22000 118.123
60.23000 119.461
60.24000 119.595
60.25000 118.193
60.26000 116.787
60.27000 117.388
60.28000 119.647
60.29000 121.807
60.30000 119.000
60.31000 113.430
60.32000 108.263
60.33000 110.740
60.34000 116.127
60.35000 121.119
60.36000 122.622
60.37000 123.162
60.38000 123.506
60.39000 122.653
60.40000 121.596
60.41000 120.175
60.42000 117.290
60.43000 114.252
60.44000 111.995
60.45000 114.188
60.46000 116.089
60.47000 117.644
60.48000 118.554
60.49000 119.450
60.50000 120.758
60.51000 122.584
60.52000 124.410
60.53000 125.846
60.54000 126.962
60.55000 127.990
60.56000 124.883
60.57000 119.509
60.58000 114.408
60.59000 114.357
60.60000 116.201
60.61000 117.906
60.62000 117.394
60.63000 116.426
60.64000 115.484
60.65000 114.693
60.66000 113.927
60.67000 113.396
60.68000 113.799
60.69000 114.297
60.70000 114.666
60.71000 115.622
60.72000 116.388
60.73000 116.667
60.74000 116.051
60.75000 115.414
60.76000 115.404
60.77000 116.167
60.78000 116.931
60.79000 117.888
60.80000 118.997
60.81000 120.057
60.82000 118.912
60.83000 116.575
60.84000 114.482
60.85000 116.760
60.86000 120.653
60.87000 124.249
60.88000 128.319
60.89000 132.076
60.90000 134.694
60.91000 130.556
60.92000 125.306
60.93000 121.459
60.94000 123.093
60.95000 125.280
60.96000 126.890
60.97000 122.837
60.98000 119.465
60.99000 118.147
61.00000 120.550
61.01000 123.030
61.02000 124.991
61.03000 126.322
61.04000 127.650
61.05000 128.026
61.06000 127.652
61.07000 127.300
61.08000 127.945
61.09000 129.120
61.10000 130.278
61.11000 131.132
61.12000 131.875
61.13000 132.559
61.14000 129.201
61.15000 125.301
61.16000 122.245
61.17000 124.114
61.18000 126.780
61.19000 128.855
61.20000 128.658
61.21000 128.238
61.22000 127.929
61.23000 124.931
61.24000 122.507
61.25000 120.691
61.26000 119.962
61.27000 119.254
61.28000 119.257
61.29000 120.112
61.30000 120.967
61.31000 121.910
61.32000 122.915
61.33000 123.927
61.34000 125.206
61.35000 126.626
61.36000 127.924
61.37000 127.143
61.38000 125.617
61.39000 124.212
61.40000 128.155
61.41000 132.842
61.42000 136.560
61.43000 134.724
61.44000 132.005
61.45000 130.693
61.46000 134.709
61.47000 139.239
61.48000 142.547
61.49000 142.145
61.50000 141.690
61.51000 147.229
61.52000 163.316
61.53000 179.601
61.54000 197.159
61.55000 216.217
61.56000 235.231
61.57000 252.902
61.58000 269.442
61.59000 285.936
61.60000 300.588
61.61000 314.286
61.62000 327.345
61.63000 329.845
61.64000 328.607
61.65000 327.471
61.66000 331.761
61.67000 336.748
61.68000 340.366
61.69000 336.258
61.70000 330.943
61.71000 326.923
61.72000 327.738
61.73000 329.010
61.74000 329.934
61.75000 313.708
61.76000 300.576
61.77000 288.048
61.78000 276.570
61.79000 265.110
61.80000 250.022
61.81000 230.730
61.82000 211.484
61.83000 192.568
61.84000 174.029
61.85000 155.785
61.86000 148.759
61.87000 147.453
61.88000 146.141
61.89000 144.717
61.90000 143.256
61.91000 141.916
61.92000 141.030
61.93000 140.335
61.94000 138.880
61.95000 133.201
61.96000 126.874
61.97000 122.499
61.98000 125.294
61.99000 128.754
62.00000 131.258
62.01000 133.683
62.02000 135.542
62.03000 136.440
62.04000 135.694
62.05000 134.920
62.06000 133.051
62.07000 129.932
62.08000 126.822
62.09000 126.845
62.10000 129.180
62.11000 131.459
62.12000 131.715
62.13000 130.953
62.14000 130.153
62.15000 128.749
62.16000 127.138
62.17000 125.664
62.18000 127.310
62.19000 129.419
62.20000 131.525
62.21000 133.619
62.22000 135.711
62.23000 137.280
62.24000 136.956
62.25000 136.462
62.26000 136.105
62.27000 136.666
62.28000 137.129
62.29000 135.660
62.30000 130.941
62.31000 126.169
62.32000 125.018
62.33000 127.930
62.34000 130.836
62.35000 132.798
62.36000 134.060
62.37000 135.290
62.38000 135.399
62.39000 134.951
62.40000 134.623
62.41000 136.106
62.42000 138.204
62.43000 140.119
62.44000 138.396
62.45000 136.127
62.46000 134.831
62.47000 138.749
62.48000 143.441
62.49000 147.413
62.50000 148.814
62.51000 149.987
62.52000 150.828
62.53000 144.645
62.54000 139.677
62.55000 137.271
62.56000 139.116
62.57000 141.025
62.58000 141.754
62.59000 141.182
62.60000 140.610
62.61000 135.382
62.62000 126.874
62.63000 118.691
62.64000 121.432
62.65000 129.506
62.66000 137.093
62.67000 137.412
62.68000 135.304
62.69000 133.384
62.70000 133.096
62.71000 133.166
62.72000 133.234
62.73000 133.284
62.74000 133.331
62.75000 133.271
62.76000 132.834
62.77000 132.364
62.78000 132.028
62.79000 136.204
62.80000 139.541
62.81000 138.594
62.82000 130.649
62.83000 122.605
62.84000 122.577
62.85000 131.255
62.86000 139.900
62.87000 140.111
62.88000 134.391
62.89000 128.851
62.90000 129.116
62.91000 132.175
62.92000 135.019
62.93000 134.749
62.94000 133.455
62.95000 132.277
62.96000 133.101
62.97000 134.221
62.98000 135.256
62.99000 135.846
63.00000 136.373
63.01000 136.750
63.02000 136.612
63.03000 136.429
63.04000 136.299
63.05000 140.755
63.06000 144.294
63.07000 145.301
63.08000 142.229
63.09000 139.102
63.10000 137.769
63.11000 138.350
63.12000 138.928
63.13000 137.512
63.14000 134.730
63.15000 132.167
63.16000 136.422
63.17000 143.909
63.18000 150.883
63.19000 150.575
63.20000 147.905
63.21000 145.483
63.22000 143.925
63.23000 142.716
63.24000 141.696
63.25000 141.636
63.26000 141.711
63.27000 141.627
63.28000 141.000
63.29000 140.329
63.30000 139.854
63.31000 142.668
63.32000 144.909
63.33000 144.229
63.34000 138.920
63.35000 133.551
63.36000 131.894
63.37000 134.134
63.38000 136.363
63.39000 136.267
63.40000 134.591
63.41000 133.019
63.42000 134.563
63.43000 137.564
63.44000 140.601
63.45000 144.145
63.46000 147.851
63.47000 151.207
63.48000 147.152
63.49000 142.174
63.50000 138.101
63.51000 138.572
63.52000 139.671
63.53000 140.800
63.54000 142.032
63.55000 143.271
63.56000 144.145
63.57000 139.302
63.58000 135.458
63.59000 134.187
63.60000 136.935
63.61000 139.730
63.62000 137.977
63.63000 131.525
63.64000 125.107
63.65000 128.435
63.66000 138.247
63.67000 147.856
63.68000 151.605
63.69000 152.654
63.70000 153.438
63.71000 150.632
63.72000 146.697
63.73000 143.140
63.74000 141.027
63.75000 139.438
63.76000 139.089
63.77000 144.878
63.78000 151.499
63.79000 155.151
63.80000 148.975
63.81000 142.020
63.82000 137.143
63.83000 140.439
63.84000 143.168
63.85000 144.841
63.86000 144.885
63.87000 144.911
63.88000 144.909
63.89000 144.878
63.90000 144.847
63.91000 144.197
63.92000 143.148
63.93000 142.160
63.94000 142.862
63.95000 144.332
63.96000 145.607
63.97000 144.324
63.98000 142.247
63.99000 140.373
64.00000 145.139
64.01000 150.537
64.02000 155.440
64.03000 157.933
64.04000 160.105
64.05000 161.064
64.06000 158.068
64.07000 154.765
64.08000 152.460
64.09000 150.579
64.10000 149.171
64.11000 149.730
64.12000 153.272
64.13000 156.845
64.14000 156.957
64.15000 153.614
64.16000 150.292
64.17000 148.439
64.18000 147.566
64.19000 146.748
64.20000 147.448
64.21000 148.826
64.22000 150.400
64.23000 154.506
64.24000 159.385
64.25000 163.777
64.26000 157.216
64.27000 149.497
64.28000 142.948
64.29000 142.001
64.30000 141.786
64.31000 143.048
64.32000 149.055
64.33000 155.421
64.34000 159.842
64.35000 161.948
64.36000 163.472
64.37000 163.320
64.38000 160.665
64.39000 157.985
64.40000 159.355
64.41000 164.699
64.42000 170.007
64.43000 173.617
64.44000 176.088
64.45000 178.466
64.46000 178.430
64.47000 177.328
64.48000 175.993
64.49000 171.723
64.50000 166.569
64.51000 161.940
64.52000 161.074
64.53000 160.981
64.54000 161.382
64.55000 164.111
64.56000 167.139
64.57000 170.401
64.58000 174.406
64.59000 178.466
64.60000 181.272
64.61000 174.261
64.62000 168.736
64.63000 168.327
64.64000 175.441
64.65000 182.623
64.66000 183.138
64.67000 177.220
64.68000 171.344
64.69000 166.399
64.70000 162.119
64.71000 158.072
64.72000 159.915
64.73000 164.319
64.74000 168.391
64.75000 168.396
64.76000 167.194
64.77000 166.117
64.78000 170.763
64.79000 175.815
64.80000 179.690
64.81000 178.112
64.82000 175.847
64.83000 174.347
64.84000 175.234
64.85000 176.293
64.86000 177.022
64.87000 178.242
64.88000 179.170
64.89000 181.254
64.90000 185.013
64.91000 188.785
64.92000 189.165
64.93000 186.326
64.94000 183.508
64.95000 187.632
64.96000 195.973
64.97000 203.838
64.98000 200.101
64.99000 191.393
65.00000 183.948
65.01000 191.692
65.02000 203.878
65.03000 214.777
65.04000 205.541
65.05000 194.061
65.06000 185.180
65.07000 188.177
65.08000 192.640
65.09000 198.144
65.10000 206.847
65.11000 215.775
65.12000 221.887
65.13000 220.392
65.14000 219.092
65.15000 218.178
65.16000 217.817
65.17000 217.460
65.18000 220.236
65.19000 225.936
65.20000 231.589
65.21000 234.975
65.22000 236.920
65.23000 239.034
65.24000 245.144
65.25000 252.942
65.26000 260.144
65.27000 260.363
65.28000 258.568
65.29000 256.967
65.30000 259.791
65.31000 262.990
65.32000 266.895
65.33000 273.982
65.34000 281.455
65.35000 289.544
65.36000 299.501
65.37000 309.586
65.38000 316.456
65.39000 323.101
65.40000 328.060
65.41000 336.817
65.42000 350.908
65.43000 365.034
65.44000 374.821
65.45000 380.623
65.46000 386.373
65.47000 390.342
65.48000 393.168
65.49000 396.423
65.50000 409.470
65.51000 426.594
65.52000 443.051
65.53000 451.835
65.54000 458.442
65.55000 464.325
65.56000 484.206
65.57000 503.779
65.58000 522.056
65.59000 534.596
65.60000 546.455
65.61000 562.257
65.62000 589.835
65.63000 618.200
65.64000 637.426
65.65000 673.366
65.66000 700.530
65.67000 750.681
65.68000 832.636
65.69000 914.800
65.70000 1009.169
65.71000 1114.562
65.72000 1218.958
65.73000 1346.336
65.74000 1484.650
65.75000 1623.294
65.76000 1769.211
65.77000 1918.114
65.78000 2061.607
65.79000 2144.333
65.80000 2210.061
65.81000 2268.459
65.82000 2318.510
65.83000 2360.574
65.84000 2395.335
65.85000 2398.258
65.86000 2397.470
65.87000 2395.187
65.88000 2388.500
65.89000 2381.527
65.90000 2376.825
65.91000 2301.613
65.92000 2244.167
65.93000 2152.060
65.94000 2012.732
65.95000 1873.131
65.96000 1732.775
65.97000 1591.746
65.98000 1452.135
65.99000 1307.001
66.00000 1161.783
66.01000 1018.040
66.02000 905.946
66.03000 806.654
66.04000 711.499
66.05000 661.804
66.06000 624.635
66.07000 591.687
66.08000 549.694
66.09000 511.906
66.10000 478.925
66.11000 466.572
66.12000 456.578
66.13000 447.711
66.14000 442.112
66.15000 436.721
66.16000 433.104
66.17000 438.505
66.18000 442.697
66.19000 445.362
66.20000 445.977
66.21000 446.581
66.22000 445.694
66.23000 443.504
66.24000 441.338
66.25000 457.401
66.26000 483.501
66.27000 509.548
66.28000 534.491
66.29000 558.994
66.30000 583.548
66.31000 608.643
66.32000 633.886
66.33000 656.211
66.34000 668.876
66.35000 678.320
66.36000 688.513
66.37000 701.873
66.38000 715.588
66.39000 726.476
66.40000 729.283
66.41000 731.590
66.42000 733.130
66.43000 730.373
66.44000 728.248
66.45000 723.819
66.46000 716.350
66.47000 708.854
66.48000 692.981
66.49000 669.903
66.50000 647.085
66.51000 622.330
66.52000 597.074
66.53000 571.410
66.54000 537.498
66.55000 500.347
66.56000 465.070
66.57000 449.537
66.58000 439.282
66.59000 430.234
66.60000 420.324
66.61000 411.643
66.62000 406.227
66.63000 414.399
66.64000 424.063
66.65000 425.478
66.66000 403.646
66.67000 380.413
66.68000 364.986
66.69000 378.147
66.70000 388.405
66.71000 391.659
66.72000 385.808
66.73000 379.925
66.74000 378.217
66.75000 380.041
66.76000 381.843
66.77000 382.105
66.78000 381.509
66.79000 381.029
66.80000 382.815
66.81000 385.479
66.82000 387.502
66.83000 382.924
66.84000 376.608
66.85000 371.049
66.86000 376.645
66.87000 383.135
66.88000 388.779
66.89000 390.959
66.90000 392.766
66.91000 392.462
66.92000 386.294
66.93000 379.783
66.94000 375.483
66.95000 392.535
66.96000 405.490
66.97000 411.566
66.98000 408.839
66.99000 406.086
67.00000 406.613
67.01000 409.873
67.02000 413.091
67.03000 413.526
67.04000 412.435
67.05000 411.536
67.06000 414.275
67.07000 418.404
67.08000 421.650
67.09000 415.995
67.10000 408.031
67.11000 401.037
67.12000 405.871
67.13000 411.765
67.14000 417.595
67.15000 423.174
67.16000 428.727
67.17000 430.382
67.18000 421.367
67.19000 411.744
67.20000 405.422
67.21000 420.941
67.22000 432.732
67.23000 435.273
67.24000 426.160
67.25000 417.032
67.26000 417.022
67.27000 424.488
67.28000 431.854
67.29000 436.745
67.30000 440.177
67.31000 443.138
67.32000 437.357
67.33000 428.285
67.34000 420.335
67.35000 423.463
67.36000 429.423
67.37000 434.643
67.38000 436.872
67.39000 438.353
67.40000 441.246
67.41000 449.753
67.42000 458.841
67.43000 465.382
67.44000 465.050
67.45000 464.336
67.46000 463.870
67.47000 464.540
67.48000 465.050
67.49000 463.511
67.50000 459.430
67.51000 455.355
67.52000 456.335
67.53000 461.393
67.54000 466.380
67.55000 469.939
67.56000 472.643
67.57000 474.939
67.58000 469.848
67.59000 462.019
67.60000 454.994
67.61000 455.760
67.62000 458.486
67.63000 460.869
67.64000 470.798
67.65000 480.370
67.66000 486.477
67.67000 479.018
67.68000 470.185
67.69000 466.176
67.70000 474.995
67.71000 484.507
67.72000 490.688
67.73000 493.973
67.74000 496.335
67.75000 496.833
67.76000 495.057
67.77000 493.286
67.78000 495.208
67.79000 500.060
67.80000 504.841
67.81000 506.832
67.82000 507.319
67.83000 507.951
67.84000 511.141
67.85000 515.265
67.86000 518.991
67.87000 518.939
67.88000 517.951
67.89000 517.089
67.90000 521.602
67.91000 526.206
67.92000 529.510
67.93000 527.795
67.94000 525.584
67.95000 524.777
67.96000 527.652
67.97000 530.721
67.98000 532.705
67.99000 535.048
68.00000 536.767
68.01000 540.465
68.02000 546.541
68.03000 552.620
68.04000 558.127
68.05000 563.189
68.06000 568.172
68.07000 567.900
68.08000 564.954
68.09000 562.262
68.10000 563.910
68.11000 567.122
68.12000 570.151
68.13000 571.481
68.14000 572.396
68.15000 573.192
68.16000 579.464
68.17000 585.562
68.18000 591.750
68.19000 598.279
68.20000 604.841
68.21000 609.990
68.22000 611.490
68.23000 612.805
68.24000 613.649
68.25000 618.158
68.26000 621.498
68.27000 624.181
68.28000 626.088
68.29000 628.000
68.30000 631.629
68.31000 636.578
68.32000 641.447
68.33000 646.442
68.34000 651.342
68.35000 656.225
68.36000 660.837
68.37000 665.352
68.38000 670.015
68.39000 676.025
68.40000 682.358
68.41000 687.852
68.42000 697.777
68.43000 706.823
68.44000 714.894
68.45000 719.319
68.46000 723.397
68.47000 728.184
68.48000 734.773
68.49000 741.451
68.50000 745.720
68.51000 782.893
68.52000 810.381
68.53000 831.944
68.54000 846.612
68.55000 861.261
68.56000 873.701
68.57000 884.469
68.58000 895.053
68.59000 926.037
68.60000 966.078
68.61000 1006.029
68.62000 1044.515
68.63000 1082.488
68.64000 1122.326
68.65000 1178.819
68.66000 1239.254
68.67000 1291.548
68.68000 1341.992
68.69000 1384.634
68.70000 1436.655
68.71000 1523.245
68.72000 1613.052
68.73000 1686.758
68.74000 1720.057
68.75000 1751.415
68.76000 1771.342
68.77000 1839.565
68.78000 1889.710
68.79000 1953.323
68.80000 2032.350
68.81000 2111.409
68.82000 2193.066
68.83000 2276.661
68.84000 2358.770
68.85000 2486.441
68.86000 2631.888
68.87000 2785.078
68.88000 3060.325
68.89000 3377.667
68.90000 3738.177
68.91000 4476.657
68.92000 5303.247
68.93000 6016.642
68.94000 8432.892
68.95000 10702.278
68.96000 13279.424
68.97000 16973.926
68.98000 20770.182
68.99000 24776.447
69.00000 29302.197
69.01000 33852.164
69.02000 36727.023
69.03000 41333.570
69.04000 44691.770
69.05000 47376.250
69.06000 49302.074
69.07000 51223.363
69.08000 52470.055
69.09000 53221.301
69.10000 53958.578
69.11000 54782.422
69.12000 55618.285
69.13000 56459.004
69.14000 57374.273
69.15000 58314.879
69.16000 59169.762
69.17000 59288.652
69.18000 59238.617
69.19000 59195.547
69.20000 57037.020
69.21000 54941.887
69.22000 52500.434
69.23000 48820.293
69.24000 45029.785
69.25000 41464.660
69.26000 38449.047
69.27000 35458.270
69.28000 33579.523
69.29000 31470.127
69.30000 29942.568
69.31000 28830.160
69.32000 28177.652
69.33000 27526.389
69.34000 27024.814
69.35000 26631.490
69.36000 26245.809
69.37000 25295.414
69.38000 24113.918
69.39000 22891.041
69.40000 21048.500
69.41000 18998.393
69.42000 16921.145
69.43000 14615.329
69.44000 12257.862
69.45000 10233.816
69.46000 8307.147
69.47000 6690.311
69.48000 5234.559
69.49000 4346.427
69.50000 3507.764
69.51000 2812.743
69.52000 2462.917
69.53000 2128.215
69.54000 1919.193
69.55000 1714.926
69.56000 1567.634
69.57000 1455.829
69.58000 1382.693
69.59000 1309.629
69.60000 1244.370
69.61000 1184.669
69.62000 1126.179
69.63000 1069.965
69.64000 1016.961
69.65000 965.923
69.66000 943.609
69.67000 930.776
69.68000 917.704
69.69000 902.652
69.70000 887.159
69.71000 873.892
69.72000 844.428
69.73000 817.599
69.74000 792.621
69.75000 774.068
69.76000 756.063
69.77000 736.917
69.78000 715.071
69.79000 693.110
69.80000 679.477
69.81000 664.894
69.82000 654.390
69.83000 644.267
69.84000 634.550
69.85000 624.828
69.86000 614.370
69.87000 603.395
69.88000 592.652
69.89000 588.330
69.90000 587.111
69.91000 585.675
69.92000 581.144
69.93000 575.605
69.94000 570.439
69.95000 568.286
69.96000 566.793
69.97000 565.518
69.98000 559.750
69.99000 554.358
70.00000 546.709
