20.00000 513.637
20.01000 508.379
20.02000 502.370
20.03000 497.874
20.04000 499.345
20.05000 501.427
20.06000 502.964
20.07000 497.830
20.08000 493.568
20.09000 489.138
20.10000 484.402
20.11000 479.660
20.12000 480.572
20.13000 488.440
20.14000 496.313
20.15000 496.616
20.16000 490.887
20.17000 485.246
20.18000 483.532
20.19000 483.931
20.20000 484.541
20.21000 488.897
20.22000 494.631
20.23000 499.924
20.24000 492.008
20.25000 481.957
20.26000 473.660
20.27000 475.721
20.28000 479.479
20.29000 482.679
20.30000 483.718
20.31000 484.540
20.32000 485.145
20.33000 482.815
20.34000 480.891
20.35000 479.249
20.36000 478.115
20.37000 476.992
20.38000 475.254
20.39000 472.772
20.40000 470.293
20.41000 469.693
20.42000 470.570
20.43000 471.447
20.44000 472.368
20.45000 473.312
20.46000 474.614
20.47000 482.114
20.48000 491.863
20.49000 500.843
20.50000 496.221
20.51000 489.092
20.52000 483.211
20.53000 484.574
20.54000 487.104
20.55000 487.208
20.56000 478.029
20.57000 467.940
20.58000 460.552
20.59000 464.821
20.60000 468.581
20.61000 471.028
20.62000 471.139
20.63000 471.204
20.64000 472.259
20.65000 474.494
20.66000 476.726
20.67000 475.156
20.68000 470.663
20.69000 466.301
20.70000 467.267
20.71000 471.017
20.72000 474.757
20.73000 478.303
20.74000 481.780
20.75000 484.977
20.76000 481.582
20.77000 477.122
20.78000 474.204
20.79000 480.078
20.80000 487.345
20.81000 491.633
20.82000 484.697
20.83000 476.682
20.84000 470.837
20.85000 472.530
20.86000 474.125
20.87000 475.182
20.88000 475.296
20.89000 475.393
20.90000 475.708
20.91000 476.281
20.92000 476.853
20.93000 480.732
20.94000 487.097
20.95000 493.240
20.96000 490.749
20.97000 483.810
20.98000 477.183
20.99000 475.678
21.00000 475.978
21.01000 476.253
21.02000 477.614
21.03000 479.059
21.04000 480.511
21.05000 482.003
21.06000 483.502
21.07000 482.194
21.08000 470.466
21.09000 457.757
21.10000 448.530
21.11000 471.842
21.12000 490.984
21.13000 500.068
21.14000 491.788
21.15000 483.204
21.16000 477.601
21.17000 475.438
21.18000 473.285
21.19000 477.066
21.20000 485.249
21.21000 493.306
21.22000 496.619
21.23000 497.525
21.24000 498.486
21.25000 500.328
21.26000 502.476
21.27000 504.443
21.28000 495.349
21.29000 484.941
21.30000 476.859
21.31000 481.606
21.32000 488.315
21.33000 493.705
21.34000 494.273
21.35000 494.397
21.36000 494.487
21.37000 485.814
21.38000 478.841
21.39000 474.712
21.40000 475.423
21.41000 476.213
21.42000 478.810
21.43000 483.456
21.44000 488.090
21.45000 489.145
21.46000 487.562
21.47000 486.028
21.48000 486.226
21.49000 487.289
21.50000 488.267
21.51000 487.921
21.52000 487.122
21.53000 486.391
21.54000 478.108
21.55000 469.195
21.56000 461.517
21.57000 460.539
21.58000 460.568
21.59000 462.441
21.60000 470.960
21.61000 480.078
21.62000 486.641
21.63000 478.612
21.64000 471.951
21.65000 472.392
21.66000 484.736
21.67000 497.266
21.68000 503.660
21.69000 503.202
21.70000 502.741
21.71000 511.498
21.72000 526.839
21.73000 541.672
21.74000 538.981
21.75000 527.648
21.76000 517.073
21.77000 517.969
21.78000 522.736
21.79000 527.087
21.80000 531.359
21.81000 535.134
21.82000 537.262
21.83000 530.594
21.84000 522.629
21.85000 521.183
21.86000 542.874
21.87000 566.603
21.88000 583.606
21.89000 596.730
21.90000 606.626
21.91000 609.601
21.92000 601.147
21.93000 592.523
21.94000 594.928
21.95000 609.449
21.96000 623.920
21.97000 634.831
21.98000 643.110
21.99000 651.256
22.00000 654.982
22.01000 656.561
22.02000 658.113
22.03000 659.275
22.04000 660.308
22.05000 661.248
22.06000 667.327
22.07000 673.731
22.08000 678.453
22.09000 674.344
22.10000 668.954
22.11000 664.486
22.12000 663.237
22.13000 662.267
22.14000 661.575
22.15000 655.941
22.16000 651.483
22.17000 645.294
22.18000 636.290
22.19000 627.246
22.20000 618.854
22.21000 611.165
22.22000 603.510
22.23000 593.589
22.24000 582.184
22.25000 570.898
22.26000 563.405
22.27000 557.729
22.28000 552.359
22.29000 551.393
22.30000 551.870
22.31000 552.304
22.32000 545.310
22.33000 537.678
22.34000 529.666
22.35000 519.689
22.36000 509.432
22.37000 503.543
22.38000 512.701
22.39000 523.127
22.40000 530.530
22.41000 516.075
22.42000 504.381
22.43000 498.038
22.44000 500.271
22.45000 502.618
22.46000 502.486
22.47000 499.722
22.48000 496.970
22.49000 492.227
22.50000 486.166
22.51000 480.133
22.52000 474.936
22.53000 470.136
22.54000 465.657
22.55000 465.711
22.56000 467.228
22.57000 468.604
22.58000 471.840
22.59000 475.052
22.60000 477.701
22.61000 477.490
22.62000 476.879
22.63000 474.961
22.64000 468.602
22.65000 461.878
22.66000 457.126
22.67000 450.053
22.68000 444.612
22.69000 446.317
22.70000 459.308
22.71000 472.439
22.72000 469.714
22.73000 450.418
22.74000 431.219
22.75000 433.909
22.76000 451.390
22.77000 468.407
22.78000 471.673
22.79000 468.540
22.80000 465.138
22.81000 458.044
22.82000 449.775
22.83000 442.290
22.84000 443.321
22.85000 445.834
22.86000 447.066
22.87000 441.891
22.88000 435.837
22.89000 432.695
22.90000 439.297
22.91000 446.683
22.92000 451.879
22.93000 449.617
22.94000 447.682
22.95000 447.037
22.96000 448.399
22.97000 449.784
22.98000 451.811
22.99000 454.498
23.00000 457.170
23.01000 453.941
23.02000 446.821
23.03000 439.978
23.04000 441.047
23.05000 445.747
23.06000 449.937
23.07000 447.310
23.08000 442.545
23.09000 438.240
23.10000 436.622
23.11000 435.697
23.12000 436.025
23.13000 442.526
23.14000 449.859
23.15000 454.140
23.16000 448.363
23.17000 441.795
23.18000 437.196
23.19000 442.118
23.20000 446.113
23.21000 447.972
23.22000 446.560
23.23000 445.112
23.24000 443.595
23.25000 442.009
23.26000 440.433
23.27000 433.719
23.28000 423.729
23.29000 414.067
23.30000 413.456
23.31000 416.935
23.32000 420.779
23.33000 429.386
23.34000 439.463
23.35000 448.549
23.36000 442.582
23.37000 434.607
23.38000 428.437
23.39000 431.007
23.40000 434.734
23.41000 436.743
23.42000 433.172
23.43000 429.172
23.44000 426.384
23.45000 435.013
23.46000 441.839
23.47000 444.456
23.48000 440.720
23.49000 436.921
23.50000 434.847
23.51000 434.487
23.52000 434.130
23.53000 434.850
23.54000 436.254
23.55000 437.632
23.56000 438.296
23.57000 438.641
23.58000 438.508
23.59000 432.259
23.60000 424.149
23.61000 416.852
23.62000 419.364
23.63000 423.318
23.64000 426.695
23.65000 427.320
23.66000 427.587
23.67000 426.717
23.68000 422.208
23.69000 417.427
23.70000 414.110
23.71000 422.187
23.72000 428.573
23.73000 433.611
23.74000 436.648
23.75000 439.665
23.76000 440.714
23.77000 439.840
23.78000 438.971
23.79000 430.889
23.80000 418.353
23.81000 406.546
23.82000 413.525
23.83000 428.755
23.84000 442.928
23.85000 443.910
23.86000 440.935
23.87000 438.264
23.88000 431.277
23.89000 424.408
23.90000 418.764
23.91000 418.866
23.92000 419.700
23.93000 421.321
23.94000 425.420
23.95000 429.701
23.96000 432.655
23.97000 426.488
23.98000 421.620
23.99000 420.060
24.00000 423.341
24.01000 426.665
24.02000 428.789
24.03000 429.762
24.04000 430.727
24.05000 428.915
24.06000 425.396
24.07000 422.044
24.08000 422.866
24.09000 425.495
24.10000 427.957
24.11000 428.386
24.12000 428.214
24.13000 428.060
24.14000 428.017
24.15000 428.000
24.16000 427.425
24.17000 424.277
24.18000 420.808
24.19000 419.059
24.20000 422.659
24.21000 426.642
24.22000 429.377
24.23000 424.321
24.24000 420.338
24.25000 418.175
24.26000 418.639
24.27000 419.123
24.28000 421.828
24.29000 426.631
24.30000 431.395
24.31000 429.126
24.32000 422.573
24.33000 416.414
24.34000 419.767
24.35000 427.178
24.36000 433.842
24.37000 431.590
24.38000 426.742
24.39000 422.408
24.40000 416.433
24.41000 410.948
24.42000 407.142
24.43000 410.973
24.44000 415.741
24.45000 419.755
24.46000 421.460
24.47000 423.003
24.48000 424.058
24.49000 423.816
24.50000 423.605
24.51000 421.779
24.52000 417.661
24.53000 413.528
24.54000 415.488
24.55000 423.107
24.56000 430.662
24.57000 430.946
24.58000 426.823
24.59000 422.857
24.60000 422.556
24.61000 423.797
24.62000 425.034
24.63000 426.235
24.64000 427.426
24.65000 428.489
24.66000 422.483
24.67000 416.083
24.68000 411.444
24.69000 414.685
24.70000 418.875
24.71000 421.608
24.72000 419.940
24.73000 417.974
24.74000 416.636
24.75000 410.241
24.76000 405.350
24.77000 404.059
24.78000 407.800
24.79000 411.574
24.80000 414.586
24.81000 416.902
24.82000 419.197
24.83000 420.953
24.84000 422.354
24.85000 423.611
24.86000 421.626
24.87000 418.297
24.88000 414.679
24.89000 407.759
24.90000 399.906
24.91000 392.918
24.92000 401.342
24.93000 411.175
24.94000 419.224
24.95000 419.413
24.96000 418.673
24.97000 417.409
24.98000 414.586
24.99000 411.661
25.00000 409.681
25.01000 415.650
25.02000 420.272
25.03000 418.852
25.04000 409.114
25.05000 399.329
25.06000 396.635
25.07000 400.315
25.08000 403.959
25.09000 408.759
25.10000 414.138
25.11000 419.173
25.12000 416.666
25.13000 411.077
25.14000 405.840
25.15000 404.519
25.16000 404.290
25.17000 404.086
25.18000 404.682
25.19000 405.327
25.20000 405.492
25.21000 403.576
25.22000 401.419
25.23000 402.698
25.24000 414.049
25.25000 426.051
25.26000 434.132
25.27000 423.349
25.28000 414.938
25.29000 408.107
25.30000 403.416
25.31000 398.740
25.32000 396.317
25.33000 395.885
25.34000 395.458
25.35000 397.937
25.36000 402.040
25.37000 405.994
25.38000 406.776
25.39000 406.280
25.40000 405.941
25.41000 407.313
25.42000 409.154
25.43000 410.785
25.44000 405.790
25.45000 400.425
25.46000 395.908
25.47000 395.018
25.48000 394.540
25.49000 394.411
25.50000 395.294
25.51000 396.240
25.52000 396.874
25.53000 398.249
25.54000 399.284
25.55000 399.848
25.56000 399.785
25.57000 399.722
25.58000 402.271
25.59000 407.094
25.60000 411.864
25.61000 413.146
25.62000 412.418
25.63000 411.874
25.64000 415.137
25.65000 419.912
25.66000 423.482
25.67000 414.187
25.68000 401.414
25.69000 390.125
25.70000 384.518
25.71000 380.554
25.72000 378.891
25.73000 386.908
25.74000 396.003
25.75000 401.304
25.76000 395.806
25.77000 389.644
25.78000 385.538
25.79000 389.542
25.80000 392.662
25.81000 395.242
25.82000 397.113
25.83000 398.979
25.84000 399.857
25.85000 399.889
25.86000 399.920
25.87000 405.841
25.88000 414.909
25.89000 423.199
25.90000 415.894
25.91000 402.486
25.92000 390.536
25.93000 393.829
25.94000 401.181
25.95000 407.663
25.96000 403.003
25.97000 397.294
25.98000 392.493
25.99000 391.448
26.00000 390.814
26.01000 391.388
26.02000 395.349
26.03000 399.514
26.04000 402.274
26.05000 398.991
26.06000 396.455
26.07000 393.561
26.08000 390.202
26.09000 386.846
26.10000 386.136
26.11000 387.653
26.12000 389.152
26.13000 393.903
26.14000 400.322
26.15000 406.207
26.16000 401.681
26.17000 393.141
26.18000 385.473
26.19000 386.737
26.20000 390.345
26.21000 393.518
26.22000 398.968
26.23000 403.998
26.24000 407.497
26.25000 404.755
26.26000 401.344
26.27000 399.152
26.28000 400.325
26.29000 401.695
26.30000 402.598
26.31000 403.446
26.32000 404.070
26.33000 404.762
26.34000 405.540
26.35000 406.318
26.36000 406.857
26.37000 407.199
26.38000 407.536
26.39000 405.637
26.40000 402.578
26.41000 399.447
26.42000 394.953
26.43000 389.941
26.44000 385.627
26.45000 388.314
26.46000 392.809
26.47000 396.753
26.48000 400.964
26.49000 404.620
26.50000 406.994
26.51000 404.219
26.52000 400.904
26.53000 398.300
26.54000 397.631
26.55000 397.072
26.56000 396.705
26.57000 396.939
26.58000 397.120
26.59000 399.682
26.60000 405.229
26.61000 410.751
26.62000 402.645
26.63000 383.423
26.64000 364.459
26.65000 361.463
26.66000 367.056
26.67000 372.758
26.68000 380.440
26.69000 388.864
26.70000 396.164
26.71000 392.420
26.72000 385.866
26.73000 380.129
26.74000 380.156
26.75000 381.006
26.76000 382.348
26.77000 385.641
26.78000 389.134
26.79000 392.896
26.80000 397.383
26.81000 401.910
26.82000 404.863
26.83000 404.121
26.84000 403.519
26.85000 403.062
26.86000 402.784
26.87000 402.500
26.88000 400.013
26.89000 395.757
26.90000 391.562
26.91000 392.023
26.92000 394.914
26.93000 397.497
26.94000 394.587
26.95000 389.649
26.96000 385.445
26.97000 388.298
26.98000 392.919
26.99000 396.954
27.00000 392.067
27.01000 386.628
27.02000 382.961
27.03000 386.202
27.04000 390.138
27.05000 392.939
27.06000 392.734
27.07000 392.367
27.08000 392.130
27.09000 386.675
27.10000 382.601
27.11000 381.068
27.12000 382.621
27.13000 384.168
27.14000 381.934
27.15000 376.710
27.16000 371.565
27.17000 376.362
27.18000 386.148
27.19000 394.991
27.20000 387.437
27.21000 373.916
27.22000 362.018
27.23000 365.421
27.24000 372.599
27.25000 378.853
27.26000 376.217
27.27000 372.737
27.28000 371.289
27.29000 377.642
27.30000 384.762
27.31000 389.758
27.32000 389.206
27.33000 388.366
27.34000 387.823
27.35000 389.040
27.36000 389.954
27.37000 388.933
27.38000 385.598
27.39000 382.253
27.40000 377.522
27.41000 371.712
27.42000 365.994
27.43000 369.359
27.44000 377.234
27.45000 384.772
27.46000 386.608
27.47000 386.399
27.48000 385.965
27.49000 383.447
27.50000 380.423
27.51000 377.795
27.52000 377.093
27.53000 376.755
27.54000 377.116
27.55000 380.117
27.56000 383.372
27.57000 385.759
27.58000 385.912
27.59000 385.951
27.60000 385.976
27.61000 380.879
27.62000 377.094
27.63000 376.603
27.64000 379.987
27.65000 383.345
27.66000 379.155
27.67000 369.184
27.68000 359.376
27.69000 362.347
27.70000 371.611
27.71000 380.611
27.72000 385.270
27.73000 388.395
27.74000 390.584
27.75000 384.307
27.76000 376.004
27.77000 368.806
27.78000 370.686
27.79000 373.493
27.80000 376.382
27.81000 379.577
27.82000 382.801
27.83000 384.583
27.84000 382.710
27.85000 380.657
27.86000 379.348
27.87000 388.515
27.88000 395.319
27.89000 394.640
27.90000 385.301
27.91000 375.986
27.92000 374.006
27.93000 377.558
27.94000 381.048
27.95000 381.835
27.96000 381.266
27.97000 380.810
27.98000 382.166
27.99000 384.153
28.00000 385.743
28.01000 383.807
28.02000 381.039
28.03000 378.646
28.04000 376.239
28.05000 374.191
28.06000 373.462
28.07000 377.571
28.08000 382.126
28.09000 385.391
28.10000 385.432
28.11000 385.319
28.12000 385.247
28.13000 383.453
28.14000 382.129
28.15000 380.184
28.16000 377.530
28.17000 374.889
28.18000 374.708
28.19000 376.355
28.20000 377.972
28.21000 378.461
28.22000 378.387
28.23000 378.432
28.24000 380.338
28.25000 382.883
28.26000 385.560
28.27000 389.381
28.28000 393.468
28.29000 396.993
28.30000 392.258
28.31000 387.185
28.32000 382.408
28.33000 378.694
28.34000 375.077
28.35000 373.609
28.36000 377.434
28.37000 381.504
28.38000 384.071
28.39000 379.632
28.40000 376.337
28.41000 374.158
28.42000 373.231
28.43000 372.296
28.44000 369.822
28.45000 366.223
28.46000 362.692
28.47000 362.564
28.48000 364.064
28.49000 365.642
28.50000 368.412
28.51000 371.585
28.52000 374.056
28.53000 370.529
28.54000 365.632
28.55000 361.420
28.56000 364.875
28.57000 368.761
28.58000 371.745
28.59000 371.518
28.60000 371.006
28.61000 370.627
28.62000 370.572
28.63000 370.531
28.64000 370.505
28.65000 368.443
28.66000 366.931
28.67000 364.042
28.68000 359.634
28.69000 355.266
28.70000 357.109
28.71000 363.423
28.72000 369.613
28.73000 368.198
28.74000 363.266
28.75000 358.477
28.76000 355.812
28.77000 353.854
28.78000 352.478
28.79000 355.966
28.80000 360.549
28.81000 364.481
28.82000 367.387
28.83000 369.715
28.84000 371.344
28.85000 370.518
28.86000 369.479
28.87000 369.004
28.88000 369.877
28.89000 370.808
28.90000 371.389
28.91000 368.327
28.92000 366.083
28.93000 367.069
28.94000 371.556
28.95000 376.016
28.96000 376.425
28.97000 373.963
28.98000 371.552
28.99000 374.364
29.00000 379.480
29.01000 383.972
29.02000 379.418
29.03000 371.890
29.04000 365.064
29.05000 363.996
29.06000 364.203
29.07000 364.380
29.08000 366.637
29.09000 368.791
29.10000 369.865
29.11000 367.201
29.12000 364.222
29.13000 362.489
29.14000 363.697
29.15000 365.029
29.16000 365.854
29.17000 367.106
29.18000 368.010
29.19000 371.190
29.20000 376.797
29.21000 382.339
29.22000 379.274
29.23000 370.200
29.24000 361.321
29.25000 362.914
29.26000 369.205
29.27000 375.014
29.28000 374.010
29.29000 370.800
29.30000 367.761
29.31000 366.111
29.32000 364.762
29.33000 363.611
29.34000 357.295
29.35000 351.368
29.36000 348.973
29.37000 358.606
29.38000 369.234
29.39000 375.478
29.40000 371.527
29.41000 367.162
29.42000 364.473
29.43000 365.236
29.44000 365.814
29.45000 366.905
29.46000 368.533
29.47000 370.147
29.48000 370.018
29.49000 368.692
29.50000 367.394
29.51000 368.805
29.52000 371.370
29.53000 373.486
29.54000 369.424
29.55000 363.390
29.56000 358.698
29.57000 364.614
29.58000 372.806
29.59000 379.778
29.60000 375.090
29.61000 369.801
29.62000 365.660
29.63000 365.371
29.64000 365.393
29.65000 366.220
29.66000 368.887
29.67000 371.628
29.68000 373.306
29.69000 369.264
29.70000 366.323
29.71000 369.280
29.72000 378.321
29.73000 387.254
29.74000 384.396
29.75000 373.552
29.76000 362.960
29.77000 368.533
29.78000 380.988
29.79000 392.577
29.80000 392.482
29.81000 388.714
29.82000 386.132
29.83000 392.757
29.84000 401.327
29.85000 408.600
29.86000 411.750
29.87000 413.924
29.88000 417.282
29.89000 424.555
29.90000 432.136
29.91000 436.417
29.92000 433.245
29.93000 429.788
29.94000 427.685
29.95000 431.704
29.96000 434.622
29.97000 440.516
29.98000 449.428
29.99000 458.323
30.00000 465.488
30.01000 471.498
30.02000 477.364
30.03000 478.922
30.04000 478.544
30.05000 478.061
30.06000 476.194
30.07000 473.898
30.08000 471.135
30.09000 464.816
30.10000 457.759
30.11000 451.786
30.12000 447.422
30.13000 443.947
30.14000 443.110
30.15000 450.864
30.16000 459.281
30.17000 462.443
30.18000 453.908
30.19000 444.943
30.20000 439.521
30.21000 433.857
30.22000 429.820
30.23000 428.171
30.24000 428.904
30.25000 429.602
30.26000 427.014
30.27000 422.267
30.28000 417.638
30.29000 415.173
30.30000 413.743
30.31000 412.280
30.32000 410.383
30.33000 408.354
30.34000 406.310
30.35000 404.160
30.36000 401.987
30.37000 400.154
30.38000 393.593
30.39000 387.595
30.40000 384.281
30.41000 389.583
30.42000 395.534
30.43000 400.459
30.44000 403.131
30.45000 405.724
30.46000 407.281
30.47000 410.201
30.48000 412.286
30.49000 414.354
30.50000 416.407
30.51000 418.384
30.52000 413.652
30.53000 404.576
30.54000 395.738
30.55000 393.508
30.56000 394.159
30.57000 394.995
30.58000 398.151
30.59000 402.004
30.60000 405.995
30.61000 410.997
30.62000 416.201
30.63000 420.582
30.64000 423.214
30.65000 425.223
30.66000 425.126
30.67000 418.369
30.68000 411.122
30.69000 406.396
30.70000 407.124
30.71000 408.039
30.72000 408.586
30.73000 414.920
30.74000 419.448
30.75000 424.002
30.76000 428.581
30.77000 433.131
30.78000 435.370
30.79000 436.135
30.80000 436.879
30.81000 437.708
30.82000 438.532
30.83000 439.475
30.84000 441.880
30.85000 444.718
30.86000 447.433
30.87000 449.268
30.88000 450.929
30.89000 452.322
30.90000 463.925
30.91000 474.652
30.92000 484.278
30.93000 490.472
30.94000 496.419
30.95000 505.411
30.96000 520.892
30.97000 536.588
30.98000 545.899
30.99000 532.788
31.00000 523.385
31.01000 528.036
31.02000 546.010
31.03000 564.138
31.04000 594.370
31.05000 632.204
31.06000 668.977
31.07000 695.164
31.08000 715.749
31.09000 737.812
31.10000 777.587
31.11000 822.536
31.12000 868.353
31.13000 920.308
31.14000 973.459
31.15000 1017.932
31.16000 1098.009
31.17000 1168.190
31.18000 1244.528
31.19000 1339.776
31.20000 1436.350
31.21000 1529.838
31.22000 1616.842
31.23000 1703.640
31.24000 1754.800
31.25000 1922.029
31.26000 2040.683
31.27000 2164.844
31.28000 2294.138
31.29000 2423.072
31.30000 2525.677
31.31000 2611.992
31.32000 2695.802
31.33000 2767.549
31.34000 2830.821
31.35000 2894.450
31.36000 2962.271
31.37000 3031.299
31.38000 3092.791
31.39000 3101.893
31.40000 3100.947
31.41000 3100.158
31.42000 3059.952
31.43000 3022.653
31.44000 2979.669
31.45000 2919.477
31.46000 2858.108
31.47000 2783.620
31.48000 2681.971
31.49000 2579.491
31.50000 2519.483
31.51000 2378.371
31.52000 2278.613
31.53000 2174.049
31.54000 2065.080
31.55000 1956.116
31.56000 1847.492
31.57000 1739.076
31.58000 1633.919
31.59000 1525.697
31.60000 1421.913
31.61000 1320.561
31.62000 1247.071
31.63000 1181.483
31.64000 1116.223
31.65000 1053.209
31.66000 990.618
31.67000 938.553
31.68000 890.699
31.69000 851.501
31.70000 812.972
31.71000 776.440
31.72000 740.042
31.73000 708.039
31.74000 685.007
31.75000 662.239
31.76000 648.995
31.77000 611.851
31.78000 585.658
31.79000 565.478
31.80000 550.721
31.81000 536.071
31.82000 528.320
31.83000 524.712
31.84000 521.216
31.85000 510.187
31.86000 496.827
31.87000 483.626
31.88000 472.199
31.89000 461.269
31.90000 450.622
31.91000 441.872
31.92000 433.474
31.93000 426.509
31.94000 420.302
31.95000 415.246
31.96000 410.405
31.97000 406.193
31.98000 402.022
31.99000 399.482
32.00000 400.222
32.01000 401.056
32.02000 401.537
32.03000 389.026
32.04000 380.212
32.05000 377.146
32.06000 379.179
32.07000 381.156
32.08000 379.596
32.09000 375.944
32.10000 372.410
32.11000 370.562
32.12000 369.460
32.13000 368.533
32.14000 369.536
32.15000 371.070
32.16000 371.868
32.17000 367.808
32.18000 362.862
32.19000 358.772
32.20000 358.198
32.21000 358.056
32.22000 359.813
32.23000 367.072
32.24000 374.679
32.25000 378.035
32.26000 372.962
32.27000 367.660
32.28000 364.618
32.29000 351.504
32.30000 342.308
32.31000 339.069
32.32000 341.031
32.33000 342.939
32.34000 341.703
32.35000 338.636
32.36000 335.671
32.37000 339.008
32.38000 344.526
32.39000 349.460
32.40000 348.137
32.41000 345.116
32.42000 342.292
32.43000 340.745
32.44000 339.426
32.45000 338.338
32.46000 342.583
32.47000 346.567
32.48000 349.942
32.49000 351.577
32.50000 353.105
32.51000 351.152
32.52000 342.400
32.53000 333.470
32.54000 328.381
32.55000 334.159
32.56000 338.223
32.57000 341.747
32.58000 344.807
32.59000 347.890
32.60000 352.200
32.61000 357.216
32.62000 362.059
32.63000 356.151
32.64000 346.609
32.65000 337.503
32.66000 332.993
32.67000 329.710
32.68000 327.433
32.69000 331.560
32.70000 336.818
32.71000 341.140
32.72000 332.286
32.73000 323.826
32.74000 320.880
32.75000 333.450
32.76000 346.953
32.77000 350.275
32.78000 333.998
32.79000 317.231
32.80000 307.741
32.81000 315.298
32.82000 320.597
32.83000 322.279
32.84000 320.905
32.85000 319.589
32.86000 321.340
32.87000 324.827
32.88000 328.190
32.89000 328.870
32.90000 328.533
32.91000 328.064
32.92000 326.246
32.93000 324.073
32.94000 322.208
32.95000 322.267
32.96000 322.661
32.97000 322.983
32.98000 322.125
32.99000 321.317
33.00000 320.835
33.01000 321.257
33.02000 321.731
33.03000 321.091
33.04000 318.334
33.05000 315.526
33.06000 313.948
33.07000 310.901
33.08000 308.780
33.09000 305.163
33.10000 300.301
33.11000 295.574
33.12000 297.604
33.13000 303.404
33.14000 308.991
33.15000 316.771
33.16000 324.865
33.17000 331.737
33.18000 326.293
33.19000 317.658
33.20000 309.681
33.21000 305.748
33.22000 302.506
33.23000 299.858
33.24000 305.973
33.25000 311.733
33.26000 315.369
33.27000 313.197
33.28000 310.695
33.29000 308.973
33.30000 308.711
33.31000 308.483
33.32000 308.355
33.33000 311.974
33.34000 314.475
33.35000 312.211
33.36000 306.046
33.37000 300.021
33.38000 300.620
33.39000 304.861
33.40000 308.942
33.41000 309.688
33.42000 309.212
33.43000 308.762
33.44000 308.556
33.45000 308.413
33.46000 307.945
33.47000 305.511
33.48000 302.747
33.49000 300.497
33.50000 302.844
33.51000 305.149
33.52000 306.971
33.53000 307.496
33.54000 307.948
33.55000 306.469
33.56000 301.429
33.57000 296.312
33.58000 293.478
33.59000 299.414
33.60000 303.523
33.61000 305.729
33.62000 306.401
33.63000 307.007
33.64000 304.613
33.65000 300.593
33.66000 296.729
33.67000 298.161
33.68000 301.338
33.69000 304.721
33.70000 310.088
33.71000 315.954
33.72000 320.087
33.73000 313.920
33.74000 306.054
33.75000 299.670
33.76000 297.365
33.77000 295.821
33.78000 293.836
33.79000 290.677
33.80000 287.454
33.81000 284.876
33.82000 283.465
33.83000 282.079
33.84000 281.317
33.85000 277.032
33.86000 274.102
33.87000 279.006
33.88000 290.124
33.89000 301.079
33.90000 304.933
33.91000 304.997
33.92000 305.058
33.93000 306.558
33.94000 308.452
33.95000 309.625
33.96000 303.969
33.97000 296.623
33.98000 290.291
33.99000 289.885
34.00000 290.441
34.01000 290.890
34.02000 291.758
34.03000 292.498
34.04000 293.742
34.05000 296.310
34.06000 298.947
34.07000 301.599
34.08000 304.280
34.09000 306.961
34.10000 308.425
34.11000 299.354
34.12000 293.130
34.13000 292.472
34.14000 296.160
34.15000 299.673
34.16000 295.940
34.17000 288.396
34.18000 281.164
34.19000 282.505
34.20000 286.635
34.21000 290.190
34.22000 288.401
34.23000 285.310
34.24000 282.134
34.25000 278.479
34.26000 274.747
34.27000 271.738
34.28000 277.860
34.29000 283.551
34.30000 287.005
34.31000 284.688
34.32000 282.077
34.33000 284.305
34.34000 295.066
34.35000 305.987
34.36000 311.904
34.37000 296.148
34.38000 285.365
34.39000 283.205
34.40000 287.672
34.41000 292.129
34.42000 296.179
34.43000 300.018
34.44000 303.694
34.45000 298.078
34.46000 289.773
34.47000 282.375
34.48000 283.218
34.49000 286.039
34.50000 287.496
34.51000 281.238
34.52000 273.772
34.53000 267.772
34.54000 280.261
34.55000 291.808
34.56000 297.720
34.57000 289.307
34.58000 280.186
34.59000 276.475
34.60000 282.163
34.61000 288.021
34.62000 291.170
34.63000 288.116
34.64000 286.033
34.65000 286.266
34.66000 288.249
34.67000 290.183
34.68000 290.225
34.69000 289.301
34.70000 288.417
34.71000 288.257
34.72000 288.343
34.73000 288.140
34.74000 285.366
34.75000 281.984
34.76000 279.050
34.77000 278.598
34.78000 278.529
34.79000 278.474
34.80000 288.662
34.81000 297.673
34.82000 302.523
34.83000 296.938
34.84000 290.854
34.85000 284.400
34.86000 277.313
34.87000 270.216
34.88000 266.429
34.89000 267.768
34.90000 268.696
34.91000 271.867
34.92000 276.708
34.93000 281.517
34.94000 285.119
34.95000 288.114
34.96000 290.973
34.97000 286.360
34.98000 279.682
34.99000 273.999
35.00000 277.007
35.01000 282.038
35.02000 286.140
35.03000 285.157
35.04000 283.406
35.05000 282.007
35.06000 280.608
35.07000 279.478
35.08000 278.188
35.09000 276.503
35.10000 274.800
35.11000 273.475
35.12000 272.786
35.13000 272.108
35.14000 271.749
35.15000 279.245
35.16000 284.321
35.17000 285.457
35.18000 283.702
35.19000 282.003
35.20000 282.240
35.21000 283.439
35.22000 284.581
35.23000 283.563
35.24000 281.938
35.25000 280.137
35.26000 276.819
35.27000 273.154
35.28000 270.098
35.29000 270.318
35.30000 271.024
35.31000 271.587
35.32000 277.831
35.33000 283.270
35.34000 286.107
35.35000 282.607
35.36000 278.820
35.37000 273.768
35.38000 266.612
35.39000 259.423
35.40000 255.646
35.41000 266.191
35.42000 273.311
35.43000 275.156
35.44000 273.190
35.45000 271.348
35.46000 273.667
35.47000 278.020
35.48000 282.166
35.49000 276.526
35.50000 268.271
35.51000 261.240
35.52000 264.504
35.53000 270.092
35.54000 275.285
35.55000 278.389
35.56000 281.189
35.57000 283.408
35.58000 282.235
35.59000 281.055
35.60000 280.356
35.61000 280.813
35.62000 281.321
35.63000 280.524
35.64000 277.590
35.65000 274.626
35.66000 273.081
35.67000 261.843
35.68000 254.281
35.69000 252.082
35.70000 253.700
35.71000 255.334
35.72000 257.516
35.73000 259.963
35.74000 262.290
35.75000 268.186
35.76000 274.726
35.77000 280.397
35.78000 278.905
35.79000 275.821
35.80000 273.469
35.81000 274.930
35.82000 276.938
35.83000 278.525
35.84000 268.289
35.85000 259.265
35.86000 254.698
35.87000 260.677
35.88000 267.102
35.89000 271.821
35.90000 273.789
35.91000 275.720
35.92000 276.718
35.93000 271.704
35.94000 268.323
35.95000 264.987
35.96000 261.685
35.97000 258.458
35.98000 257.608
35.99000 257.889
36.00000 258.155
36.01000 261.878
36.02000 266.352
36.03000 270.589
36.04000 272.909
36.05000 274.810
36.06000 276.038
36.07000 273.821
36.08000 271.118
36.09000 268.990
36.10000 261.957
36.11000 255.995
36.12000 254.084
36.13000 261.617
36.14000 269.538
36.15000 273.440
36.16000 270.956
36.17000 268.391
36.18000 267.075
36.19000 269.247
36.20000 270.673
36.21000 267.884
36.22000 262.187
36.23000 256.793
36.24000 260.525
36.25000 268.531
36.26000 276.121
36.27000 275.582
36.28000 272.685
36.29000 270.143
36.30000 270.419
36.31000 271.301
36.32000 270.892
36.33000 263.977
36.34000 256.161
36.35000 250.030
36.36000 251.387
36.37000 252.959
36.38000 255.352
36.39000 259.629
36.40000 263.981
36.41000 266.504
36.42000 266.162
36.43000 265.787
36.44000 265.596
36.45000 265.419
36.46000 265.278
36.47000 262.617
36.48000 258.245
36.49000 254.051
36.50000 255.023
36.51000 258.379
36.52000 261.557
36.53000 256.145
36.54000 248.670
36.55000 242.533
36.56000 246.814
36.57000 253.304
36.58000 259.566
36.59000 264.701
36.60000 269.684
36.61000 273.579
36.62000 265.944
36.63000 259.120
36.64000 256.479
36.65000 263.318
36.66000 270.521
36.67000 274.219
36.68000 272.514
36.69000 270.748
36.70000 269.858
36.71000 274.022
36.72000 276.810
36.73000 279.992
36.74000 283.438
36.75000 286.569
36.76000 280.860
36.77000 271.130
36.78000 261.930
36.79000 263.664
36.80000 268.381
36.81000 273.199
36.82000 278.796
36.83000 284.555
36.84000 288.804
36.85000 285.688
36.86000 281.588
36.87000 278.396
36.88000 271.430
36.89000 265.649
36.90000 263.400
36.91000 269.038
36.92000 274.969
36.93000 279.211
36.94000 280.886
36.95000 282.535
36.96000 283.360
36.97000 273.597
36.98000 267.176
36.99000 269.306
37.00000 277.071
37.01000 284.620
37.02000 286.322
37.03000 285.401
37.04000 284.533
37.05000 282.786
37.06000 280.938
37.07000 278.982
37.08000 276.218
37.09000 273.288
37.10000 271.189
37.11000 273.082
37.12000 275.498
37.13000 277.373
37.14000 277.849
37.15000 278.144
37.16000 279.909
37.17000 284.908
37.18000 290.023
37.19000 289.881
37.20000 281.874
37.21000 273.791
37.22000 272.216
37.23000 277.045
37.24000 281.806
37.25000 280.467
37.26000 275.167
37.27000 270.012
37.28000 268.657
37.29000 268.982
37.30000 269.287
37.31000 270.137
37.32000 271.066
37.33000 271.374
37.34000 267.105
37.35000 261.911
37.36000 258.227
37.37000 261.679
37.38000 266.048
37.39000 269.426
37.40000 269.754
37.41000 269.835
37.42000 270.243
37.43000 271.361
37.44000 272.504
37.45000 272.696
37.46000 271.486
37.47000 270.263
37.48000 267.924
37.49000 264.505
37.50000 261.135
37.51000 261.805
37.52000 265.059
37.53000 268.304
37.54000 271.326
37.55000 274.251
37.56000 277.004
37.57000 274.804
37.58000 271.447
37.59000 268.521
37.60000 268.718
37.61000 269.536
37.62000 270.127
37.63000 269.662
37.64000 269.064
37.65000 268.603
37.66000 268.447
37.67000 268.340
37.68000 267.885
37.69000 266.686
37.70000 265.462
37.71000 262.439
37.72000 256.806
37.73000 251.152
37.74000 250.557
37.75000 254.775
37.76000 258.972
37.77000 261.563
37.78000 263.142
37.79000 264.547
37.80000 261.696
37.81000 257.019
37.82000 252.624
37.83000 256.138
37.84000 261.461
37.85000 266.556
37.86000 270.028
37.87000 273.183
37.88000 275.722
37.89000 275.436
37.90000 274.800
37.91000 274.313
37.92000 271.711
37.93000 269.537
37.94000 267.803
37.95000 266.997
37.96000 266.220
37.97000 264.143
37.98000 260.207
37.99000 256.257
38.00000 256.868
38.01000 261.742
38.02000 266.606
38.03000 270.647
38.04000 274.177
38.05000 277.593
38.06000 278.299
38.07000 277.858
38.08000 277.444
38.09000 278.022
38.10000 278.808
38.11000 279.955
38.12000 283.618
38.13000 287.765
38.14000 291.358
38.15000 292.459
38.16000 293.257
38.17000 293.867
38.18000 288.650
38.19000 284.219
38.20000 282.314
38.21000 285.654
38.22000 289.155
38.23000 291.591
38.24000 292.527
38.25000 293.452
38.26000 297.777
38.27000 305.224
38.28000 312.580
38.29000 313.596
38.30000 310.736
38.31000 308.151
38.32000 311.878
38.33000 318.238
38.34000 324.196
38.35000 324.888
38.36000 324.156
38.37000 324.824
38.38000 335.098
38.39000 347.190
38.40000 359.920
38.41000 375.476
38.42000 391.369
38.43000 403.472
38.44000 405.035
38.45000 405.710
38.46000 415.405
38.47000 443.568
38.48000 472.280
38.49000 494.913
38.50000 509.120
38.51000 523.268
38.52000 549.750
38.53000 587.364
38.54000 624.904
38.55000 657.623
38.56000 687.439
38.57000 717.386
38.58000 750.271
38.59000 784.364
38.60000 816.246
38.61000 843.557
38.62000 867.195
38.63000 891.538
38.64000 920.633
38.65000 950.614
38.66000 978.207
38.67000 995.371
38.68000 1011.317
38.69000 1023.413
38.70000 1034.400
38.71000 1042.974
38.72000 1047.323
38.73000 1043.150
38.74000 1038.733
38.75000 1029.628
38.76000 1014.123
38.77000 998.587
38.78000 977.691
38.79000 952.052
38.80000 926.373
38.81000 898.118
38.82000 868.334
38.83000 838.346
38.84000 803.951
38.85000 767.771
38.86000 733.992
38.87000 694.603
38.88000 657.490
38.89000 622.303
38.90000 599.866
38.91000 579.764
38.92000 557.663
38.93000 526.967
38.94000 495.286
38.95000 471.346
38.96000 455.911
38.97000 444.234
38.98000 430.382
38.99000 412.206
39.00000 393.911
39.01000 377.416
39.02000 363.342
39.03000 349.288
39.04000 332.995
39.05000 314.769
39.06000 296.829
39.07000 295.846
39.08000 304.779
39.09000 312.987
39.10000 306.015
39.11000 292.980
39.12000 280.831
39.13000 284.087
39.14000 290.826
39.15000 296.553
39.16000 295.707
39.17000 293.676
39.18000 290.195
39.19000 280.573
39.20000 270.262
39.21000 262.502
39.22000 260.348
39.23000 258.935
39.24000 258.888
39.25000 261.514
39.26000 264.212
39.27000 263.810
39.28000 259.309
39.29000 254.791
39.30000 252.902
39.31000 253.278
39.32000 253.703
39.33000 256.843
39.34000 261.547
39.35000 266.094
39.36000 267.436
39.37000 267.516
39.38000 267.591
39.39000 268.525
39.40000 269.576
39.41000 269.978
39.42000 266.231
39.43000 261.749
39.44000 256.469
39.45000 247.862
39.46000 238.889
39.47000 232.162
39.48000 234.954
39.49000 237.583
39.50000 238.706
39.51000 236.922
39.52000 235.065
39.53000 235.867
39.54000 240.134
39.55000 244.413
39.56000 245.018
39.57000 242.513
39.58000 240.006
39.59000 237.328
39.60000 234.553
39.61000 231.985
39.62000 233.473
39.63000 236.535
39.64000 239.380
39.65000 244.335
39.66000 249.307
39.67000 253.239
39.68000 250.640
39.69000 246.903
39.70000 243.192
39.71000 239.588
39.72000 235.996
39.73000 233.314
39.74000 238.610
39.75000 243.103
39.76000 245.141
39.77000 242.510
39.78000 239.765
39.79000 240.355
39.80000 245.222
39.81000 250.100
39.82000 249.650
39.83000 244.767
39.84000 239.863
39.85000 233.922
39.86000 227.400
39.87000 221.181
39.88000 220.765
39.89000 222.569
39.90000 224.241
39.91000 227.496
39.92000 230.798
39.93000 233.897
39.94000 235.751
39.95000 237.390
39.96000 238.692
39.97000 238.627
39.98000 238.418
39.99000 238.262
40.00000 238.993
40.01000 239.600
40.02000 238.267
40.03000 233.294
40.04000 228.237
40.05000 225.907
40.06000 227.021
40.07000 228.145
40.08000 231.090
40.09000 235.516
40.10000 239.768
40.11000 235.619
40.12000 226.836
40.13000 218.269
40.14000 213.707
40.15000 210.655
40.16000 207.830
40.17000 216.217
40.18000 226.336
40.19000 234.890
40.20000 233.945
40.21000 231.399
40.22000 227.545
40.23000 218.478
40.24000 208.870
40.25000 201.756
40.26000 211.093
40.27000 219.051
40.28000 226.071
40.29000 231.354
40.30000 236.598
40.31000 238.409
40.32000 235.951
40.33000 233.484
40.34000 230.584
40.35000 227.345
40.36000 224.183
40.37000 224.582
40.38000 226.917
40.39000 229.086
40.40000 228.269
40.41000 226.343
40.42000 224.564
40.43000 228.382
40.44000 233.075
40.45000 236.556
40.46000 232.807
40.47000 227.860
40.48000 223.195
40.49000 219.635
40.50000 216.186
40.51000 213.644
40.52000 222.293
40.53000 229.463
40.54000 234.610
40.55000 236.071
40.56000 237.456
40.57000 237.076
40.58000 234.538
40.59000 232.000
40.60000 227.641
40.61000 221.860
40.62000 216.205
40.63000 216.034
40.64000 218.800
40.65000 221.368
40.66000 220.442
40.67000 218.237
40.68000 216.203
40.69000 214.460
40.70000 212.962
40.71000 212.044
40.72000 214.520
40.73000 217.549
40.74000 219.447
40.75000 216.980
40.76000 214.078
40.77000 211.947
40.78000 213.326
40.79000 214.535
40.80000 216.307
40.81000 219.089
40.82000 221.891
40.83000 221.820
40.84000 218.290
40.85000 214.760
40.86000 216.137
40.87000 221.332
40.88000 226.466
40.89000 229.040
40.90000 230.263
40.91000 231.110
40.92000 225.500
40.93000 217.560
40.94000 210.251
40.95000 214.130
40.96000 220.046
40.97000 224.730
40.98000 222.306
40.99000 218.743
41.00000 216.708
41.01000 220.486
41.02000 224.830
41.03000 228.006
41.04000 221.021
41.05000 215.231
41.06000 212.908
41.07000 216.718
41.08000 220.646
41.09000 222.149
41.10000 220.780
41.11000 219.410
41.12000 219.407
41.13000 220.451
41.14000 221.340
41.15000 215.961
41.16000 207.324
41.17000 199.294
41.18000 201.394
41.19000 207.098
41.20000 212.340
41.21000 212.713
41.22000 211.999
41.23000 211.669
41.24000 213.526
41.25000 215.726
41.26000 217.712
41.27000 218.892
41.28000 219.997
41.29000 220.801
41.30000 229.105
41.31000 235.785
41.32000 238.885
41.33000 235.742
41.34000 232.487
41.35000 227.936
41.36000 221.876
41.37000 215.830
41.38000 213.434
41.39000 213.806
41.40000 214.210
41.41000 215.837
41.42000 218.091
41.43000 220.231
41.44000 220.510
41.45000 220.138
41.46000 219.796
41.47000 218.422
41.48000 216.979
41.49000 215.090
41.50000 210.706
41.51000 205.936
41.52000 202.891
41.53000 206.211
41.54000 210.125
41.55000 212.963
41.56000 216.271
41.57000 218.831
41.58000 218.767
41.59000 214.199
41.60000 209.554
41.61000 207.707
41.62000 209.069
41.63000 210.431
41.64000 213.109
41.65000 216.744
41.66000 220.269
41.67000 219.738
41.68000 217.158
41.69000 214.632
41.70000 212.980
41.71000 211.629
41.72000 210.392
41.73000 211.410
41.74000 212.785
41.75000 214.438
41.76000 217.615
41.77000 221.024
41.78000 222.831
41.79000 218.810
41.80000 214.256
41.81000 210.970
41.82000 206.701
41.83000 203.393
41.84000 204.872
41.85000 214.450
41.86000 224.161
41.87000 228.154
41.88000 225.696
41.89000 223.240
41.90000 219.384
41.91000 214.537
41.92000 209.882
41.93000 212.015
41.94000 217.527
41.95000 222.563
41.96000 220.260
41.97000 215.457
41.98000 211.069
41.99000 209.944
42.00000 209.610
42.01000 209.465
42.02000 210.335
42.03000 211.356
42.04000 210.419
42.05000 202.463
42.06000 193.879
42.07000 187.711
42.08000 205.728
42.09000 220.354
42.10000 227.495
42.11000 222.156
42.12000 216.625
42.13000 211.999
42.14000 208.379
42.15000 204.773
42.16000 203.527
42.17000 203.987
42.18000 204.445
42.19000 204.793
42.20000 205.088
42.21000 205.251
42.22000 203.440
42.23000 200.966
42.24000 198.710
42.25000 200.411
42.26000 202.714
42.27000 204.708
42.28000 205.069
42.29000 205.190
42.30000 204.712
42.31000 202.117
42.32000 199.337
42.33000 197.349
42.34000 204.903
42.35000 210.991
42.36000 212.072
42.37000 204.926
42.38000 197.660
42.39000 194.743
42.40000 196.577
42.41000 198.405
42.42000 202.403
42.43000 207.896
42.44000 213.160
42.45000 210.913
42.46000 205.033
42.47000 199.372
42.48000 196.911
42.49000 195.509
42.50000 194.234
42.51000 198.369
42.52000 203.097
42.53000 206.479
42.54000 202.831
42.55000 198.171
42.56000 194.777
42.57000 195.785
42.58000 197.170
42.59000 198.156
42.60000 197.661
42.61000 197.236
42.62000 197.606
42.63000 199.263
42.64000 200.938
42.65000 201.878
42.66000 202.028
42.67000 202.177
42.68000 200.926
42.69000 198.715
42.70000 196.534
42.71000 195.325
42.72000 194.579
42.73000 194.363
42.74000 201.725
42.75000 211.556
42.76000 220.486
42.77000 214.221
42.78000 205.738
42.79000 198.445
42.80000 197.256
42.81000 196.930
42.82000 195.343
42.83000 189.435
42.84000 183.164
42.85000 178.719
42.86000 190.212
42.87000 199.452
42.88000 205.962
42.89000 208.122
42.90000 210.225
42.91000 210.387
42.92000 208.497
42.93000 206.616
42.94000 206.790
42.95000 208.369
42.96000 209.953
42.97000 211.707
42.98000 213.541
42.99000 215.067
43.00000 212.317
43.01000 208.192
43.02000 204.453
43.03000 202.928
43.04000 202.004
43.05000 200.893
43.06000 198.842
43.07000 196.660
43.08000 196.155
43.09000 201.310
43.10000 206.927
43.11000 210.892
43.12000 204.328
43.13000 199.029
43.14000 198.680
43.15000 206.107
43.16000 213.628
43.17000 215.869
43.18000 212.624
43.19000 209.396
43.20000 203.226
43.21000 195.151
43.22000 187.389
43.23000 188.817
43.24000 194.499
43.25000 200.005
43.26000 203.115
43.27000 205.467
43.28000 207.594
43.29000 208.813
43.30000 209.716
43.31000 209.955
43.32000 206.893
43.33000 203.380
43.34000 201.118
43.35000 203.020
43.36000 205.254
43.37000 206.823
43.38000 204.535
43.39000 202.689
43.40000 202.289
43.41000 204.127
43.42000 205.990
43.43000 209.313
43.44000 214.126
43.45000 218.911
43.46000 218.115
43.47000 213.631
43.48000 209.214
43.49000 206.731
43.50000 205.129
43.51000 203.420
43.52000 200.283
43.53000 196.699
43.54000 193.464
43.55000 197.245
43.56000 201.859
43.57000 205.051
43.58000 201.288
43.59000 196.594
43.60000 194.004
43.61000 198.314
43.62000 203.163
43.63000 206.552
43.64000 198.150
43.65000 191.467
43.66000 189.532
43.67000 194.831
43.68000 200.206
43.69000 201.878
43.70000 199.832
43.71000 197.797
43.72000 198.510
43.73000 201.003
43.74000 203.339
43.75000 201.395
43.76000 197.526
43.77000 194.080
43.78000 196.131
43.79000 199.871
43.80000 203.241
43.81000 200.007
43.82000 195.978
43.83000 192.563
43.84000 192.106
43.85000 192.038
43.86000 192.470
43.87000 194.520
43.88000 196.693
43.89000 198.205
43.90000 203.913
43.91000 208.332
43.92000 209.662
43.93000 206.355
43.94000 203.003
43.95000 202.065
43.96000 203.512
43.97000 204.949
43.98000 206.176
43.99000 207.249
44.00000 208.186
44.01000 205.544
44.02000 201.317
44.03000 197.300
44.04000 195.946
44.05000 195.399
44.06000 194.907
44.07000 195.453
44.08000 196.116
44.09000 197.897
44.10000 204.977
44.11000 212.742
44.12000 217.103
44.13000 210.629
44.14000 203.349
44.15000 198.307
44.16000 200.058
44.17000 201.553
44.18000 204.174
44.19000 208.460
44.20000 212.760
44.21000 212.140
44.22000 206.740
44.23000 201.379
44.24000 202.740
44.25000 208.323
44.26000 213.522
44.27000 208.926
44.28000 200.050
44.29000 191.861
44.30000 192.168
44.31000 195.012
44.32000 197.562
44.33000 199.761
44.34000 201.622
44.35000 202.560
44.36000 199.196
44.37000 195.287
44.38000 193.137
44.39000 196.506
44.40000 200.277
44.41000 202.876
44.42000 204.128
44.43000 205.035
44.44000 203.837
44.45000 199.574
44.46000 195.286
44.47000 195.121
44.48000 198.892
44.49000 202.635
44.50000 202.086
44.51000 198.881
44.52000 195.816
44.53000 196.216
44.54000 198.107
44.55000 200.131
44.56000 203.767
44.57000 207.876
44.58000 211.554
44.59000 214.996
44.60000 217.959
44.61000 219.872
44.62000 216.960
44.63000 213.448
44.64000 210.879
44.65000 211.223
44.66000 211.774
44.67000 212.151
44.68000 212.635
44.69000 213.000
44.70000 215.281
44.71000 220.309
44.72000 225.360
44.73000 231.814
44.74000 239.587
44.75000 247.297
44.76000 250.291
44.77000 250.348
44.78000 250.629
44.79000 256.251
44.80000 264.141
44.81000 271.039
44.82000 266.194
44.83000 257.948
44.84000 250.582
44.85000 260.265
44.86000 271.567
44.87000 281.505
44.88000 285.282
44.89000 288.306
44.90000 291.450
44.91000 294.956
44.92000 298.487
44.93000 300.897
44.94000 308.815
44.95000 314.865
44.96000 322.291
44.97000 331.664
44.98000 341.047
44.99000 340.465
45.00000 330.679
45.01000 320.978
45.02000 325.102
45.03000 337.468
45.04000 349.643
45.05000 357.414
45.06000 363.344
45.07000 368.935
45.08000 370.599
45.09000 371.143
45.10000 371.628
45.11000 372.387
45.12000 373.092
45.13000 373.236
45.14000 370.882
45.15000 368.230
45.16000 366.337
45.17000 366.726
45.18000 367.269
45.19000 367.637
45.20000 354.914
45.21000 345.128
45.22000 337.164
45.23000 331.736
45.24000 326.326
45.25000 323.659
45.26000 323.483
45.27000 323.308
45.28000 322.678
45.29000 321.790
45.30000 320.804
45.31000 317.633
45.32000 313.562
45.33000 309.457
45.34000 304.980
45.35000 300.400
45.36000 296.326
45.37000 289.441
45.38000 283.009
45.39000 277.625
45.40000 276.837
45.41000 276.588
45.42000 274.749
45.43000 268.205
45.44000 261.351
45.45000 256.720
45.46000 253.970
45.47000 251.963
45.48000 249.956
45.49000 247.950
45.50000 245.944
45.51000 244.412
45.52000 243.304
45.53000 242.207
45.54000 242.733
45.55000 244.195
45.56000 245.548
45.57000 244.533
45.58000 242.556
45.59000 240.244
45.60000 234.230
45.61000 227.191
45.62000 220.946
45.63000 222.763
45.64000 225.621
45.65000 228.060
45.66000 228.687
45.67000 229.105
45.68000 228.812
45.69000 226.444
45.70000 223.944
45.71000 222.263
45.72000 218.627
45.73000 215.885
45.74000 212.109
45.75000 206.939
45.76000 201.766
45.77000 201.211
45.78000 204.715
45.79000 208.183
45.80000 207.358
45.81000 204.088
45.82000 201.121
45.83000 204.536
45.84000 210.509
45.85000 216.074
45.86000 217.213
45.87000 217.145
45.88000 217.085
45.89000 212.596
45.90000 208.022
45.91000 203.468
45.92000 199.000
45.93000 194.541
45.94000 191.194
45.95000 191.046
45.96000 191.097
45.97000 191.131
45.98000 191.743
45.99000 192.208
46.00000 191.422
46.01000 188.975
46.02000 186.522
46.03000 185.746
46.04000 186.421
46.05000 187.089
46.06000 188.847
46.07000 191.180
46.08000 193.456
46.09000 194.552
46.10000 195.181
46.11000 195.501
46.12000 192.537
46.13000 188.690
46.14000 185.292
46.15000 182.722
46.16000 180.631
46.17000 179.182
46.18000 180.424
46.19000 181.963
46.20000 183.571
46.21000 185.374
46.22000 187.189
46.23000 188.397
46.24000 188.900
46.25000 189.259
46.26000 187.256
46.27000 182.164
46.28000 177.061
46.29000 173.469
46.30000 171.164
46.31000 168.886
46.32000 168.169
46.33000 168.337
46.34000 168.584
46.35000 170.382
46.36000 172.784
46.37000 174.949
46.38000 174.651
46.39000 173.702
46.40000 172.865
46.41000 174.288
46.42000 175.855
46.43000 177.162
46.44000 177.403
46.45000 177.528
46.46000 178.597
46.47000 182.303
46.48000 186.164
46.49000 188.719
46.50000 177.601
46.51000 169.149
46.52000 165.956
46.53000 169.530
46.54000 173.127
46.55000 174.702
46.56000 174.584
46.57000 174.467
46.58000 176.256
46.59000 179.041
46.60000 181.630
46.61000 180.430
46.62000 177.776
46.63000 175.796
46.64000 180.663
46.65000 187.316
46.66000 193.163
46.67000 185.718
46.68000 177.349
46.69000 170.392
46.70000 169.166
46.71000 168.550
46.72000 167.688
46.73000 166.147
46.74000 164.567
46.75000 163.527
46.76000 167.660
46.77000 170.792
46.78000 173.835
46.79000 176.763
46.80000 179.684
46.81000 179.735
46.82000 177.420
46.83000 175.136
46.84000 173.154
46.85000 171.387
46.86000 169.789
46.87000 171.364
46.88000 174.137
46.89000 176.765
46.90000 177.944
46.91000 178.751
46.92000 179.458
46.93000 178.588
46.94000 177.611
46.95000 176.054
46.96000 172.180
46.97000 168.065
46.98000 165.570
46.99000 167.471
47.00000 169.619
47.01000 171.025
47.02000 168.732
47.03000 166.986
47.04000 169.601
47.05000 177.653
47.06000 185.699
47.07000 185.171
47.08000 177.688
47.09000 170.308
47.10000 167.505
47.11000 167.205
47.12000 166.938
47.13000 167.271
47.14000 167.828
47.15000 168.463
47.16000 169.869
47.17000 171.469
47.18000 172.869
47.19000 174.934
47.20000 176.799
47.21000 177.845
47.22000 175.667
47.23000 173.162
47.24000 171.038
47.25000 169.935
47.26000 168.887
47.27000 168.205
47.28000 166.043
47.29000 164.435
47.30000 163.977
47.31000 164.929
47.32000 165.882
47.33000 165.544
47.34000 164.176
47.35000 162.828
47.36000 161.509
47.37000 160.246
47.38000 159.126
47.39000 160.571
47.40000 162.957
47.41000 165.288
47.42000 167.103
47.43000 168.789
47.44000 170.260
47.45000 170.206
47.46000 169.947
47.47000 169.925
47.48000 170.827
47.49000 171.821
47.50000 173.741
47.51000 178.100
47.52000 182.589
47.53000 185.496
47.54000 173.210
47.55000 163.996
47.56000 161.253
47.57000 166.326
47.58000 171.409
47.59000 174.355
47.60000 175.622
47.61000 176.869
47.62000 177.158
47.63000 176.946
47.64000 176.652
47.65000 174.948
47.66000 172.733
47.67000 170.986
47.68000 173.619
47.69000 177.328
47.70000 180.557
47.71000 178.131
47.72000 175.283
47.73000 172.971
47.74000 172.702
47.75000 172.633
47.76000 172.259
47.77000 171.093
47.78000 169.887
47.79000 169.110
47.80000 168.533
47.81000 168.114
47.82000 167.813
47.83000 167.651
47.84000 167.486
47.85000 166.603
47.86000 165.165
47.87000 163.750
47.88000 163.532
47.89000 163.926
47.90000 164.173
47.91000 161.960
47.92000 158.869
47.93000 155.885
47.94000 153.874
47.95000 152.099
47.96000 150.557
47.97000 156.881
47.98000 163.329
47.99000 167.624
48.00000 163.816
48.01000 159.233
48.02000 157.052
48.03000 161.018
48.04000 165.292
48.05000 168.028
48.06000 172.504
48.07000 175.787
48.08000 175.864
48.09000 172.189
48.10000 168.501
48.11000 163.323
48.12000 157.009
48.13000 150.802
48.14000 155.498
48.15000 165.463
48.16000 174.746
48.17000 172.889
48.18000 167.114
48.19000 161.896
48.20000 161.686
48.21000 162.667
48.22000 163.517
48.23000 162.265
48.24000 160.922
48.25000 159.702
48.26000 158.937
48.27000 158.216
48.28000 158.039
48.29000 159.237
48.30000 160.501
48.31000 161.307
48.32000 158.829
48.33000 156.987
48.34000 156.436
48.35000 157.371
48.36000 158.309
48.37000 159.515
48.38000 160.923
48.39000 162.307
48.40000 164.627
48.41000 167.328
48.42000 169.855
48.43000 169.634
48.44000 168.461
48.45000 167.559
48.46000 169.053
48.47000 171.107
48.48000 172.882
48.49000 171.253
48.50000 169.429
48.51000 167.596
48.52000 165.728
48.53000 163.857
48.54000 163.351
48.55000 166.234
48.56000 169.278
48.57000 171.205
48.58000 163.293
48.59000 157.438
48.60000 153.386
48.61000 151.374
48.62000 149.377
48.63000 149.697
48.64000 151.729
48.65000 153.723
48.66000 154.938
48.67000 155.734
48.68000 156.557
48.69000 157.785
48.70000 159.151
48.71000 160.287
48.72000 159.426
48.73000 158.104
48.74000 156.965
48.75000 157.684
48.76000 158.529
48.77000 160.415
48.78000 166.040
48.79000 172.001
48.80000 172.660
48.81000 160.326
48.82000 147.399
48.83000 139.262
48.84000 148.502
48.85000 155.383
48.86000 159.027
48.87000 159.063
48.88000 159.096
48.89000 158.992
48.90000 158.786
48.91000 158.585
48.92000 158.662
48.93000 158.867
48.94000 159.066
48.95000 159.168
48.96000 159.237
48.97000 159.197
48.98000 158.236
48.99000 157.065
49.00000 156.059
49.01000 157.149
49.02000 158.332
49.03000 158.883
49.04000 157.191
49.05000 155.303
49.06000 154.246
49.07000 155.195
49.08000 156.233
49.09000 156.883
49.10000 152.893
49.11000 149.963
49.12000 149.658
49.13000 152.231
49.14000 154.796
49.15000 155.934
49.16000 156.052
49.17000 156.167
49.18000 155.590
49.19000 154.711
49.20000 153.940
49.21000 154.770
49.22000 156.130
49.23000 157.080
49.24000 154.624
49.25000 151.405
49.26000 148.647
49.27000 150.520
49.28000 152.668
49.29000 155.338
49.30000 159.833
49.31000 164.486
49.32000 166.150
49.33000 160.701
49.34000 154.947
49.35000 151.367
49.36000 150.439
49.37000 149.797
49.38000 151.087
49.39000 154.460
49.40000 157.822
49.41000 159.579
49.42000 160.204
49.43000 160.817
49.44000 157.999
49.45000 153.715
49.46000 149.721
49.47000 149.906
49.48000 151.456
49.49000 152.795
49.50000 152.408
49.51000 151.642
49.52000 150.987
49.53000 155.092
49.54000 159.123
49.55000 161.594
49.56000 158.703
49.57000 155.361
49.58000 153.915
49.59000 156.915
49.60000 160.101
49.61000 162.070
49.62000 158.955
49.63000 156.668
49.64000 152.964
49.65000 147.756
49.66000 142.600
49.67000 144.019
49.68000 150.004
49.69000 155.858
49.70000 158.833
49.71000 160.386
49.72000 161.966
49.73000 163.934
49.74000 166.027
49.75000 167.462
49.76000 163.638
49.77000 158.674
49.78000 154.442
49.79000 149.694
49.80000 145.639
49.81000 144.025
49.82000 150.678
49.83000 158.010
49.84000 162.458
49.85000 160.235
49.86000 157.744
49.87000 156.213
49.88000 153.760
49.89000 151.994
49.90000 153.382
49.91000 158.059
49.92000 162.693
49.93000 162.316
49.94000 158.511
49.95000 154.792
49.96000 153.552
49.97000 153.467
49.98000 153.394
49.99000 153.497
50.00000 153.656
50.01000 153.867
50.02000 154.497
50.03000 155.217
50.04000 155.828
50.05000 153.937
50.06000 152.060
50.07000 151.538
50.08000 155.537
50.09000 159.898
50.10000 162.811
50.11000 162.421
50.12000 161.904
50.13000 161.587
50.14000 160.704
50.15000 160.067
50.16000 162.548
50.17000 168.226
50.18000 173.858
50.19000 174.543
50.20000 171.896
50.21000 169.312
50.22000 165.648
50.23000 161.669
50.24000 158.148
50.25000 160.744
50.26000 165.254
50.27000 168.779
50.28000 164.718
50.29000 159.063
50.30000 154.268
50.31000 158.266
50.32000 162.608
50.33000 166.167
50.34000 167.153
50.35000 167.936
50.36000 168.698
50.37000 169.414
50.38000 170.127
50.39000 170.560
50.40000 168.308
50.41000 166.681
50.42000 167.347
50.43000 170.327
50.44000 173.285
50.45000 174.137
50.46000 173.592
50.47000 173.061
50.48000 176.554
50.49000 181.627
50.50000 186.395
50.51000 187.194
50.52000 186.768
50.53000 187.383
50.54000 195.871
50.55000 205.987
50.56000 214.540
50.57000 209.836
50.58000 204.436
50.59000 201.528
50.60000 206.700
50.61000 212.489
50.62000 218.530
50.63000 225.124
50.64000 231.738
50.65000 235.729
50.66000 230.450
50.67000 226.625
50.68000 223.683
50.69000 221.614
50.70000 219.598
50.71000 222.428
50.72000 228.426
50.73000 234.271
50.74000 238.500
50.75000 241.849
50.76000 244.663
50.77000 240.645
50.78000 234.553
50.79000 229.380
50.80000 231.042
50.81000 234.093
50.82000 236.666
50.83000 232.374
50.84000 228.047
50.85000 223.559
50.86000 218.561
50.87000 213.525
50.88000 210.442
50.89000 211.623
50.90000 212.953
50.91000 213.751
50.92000 207.070
50.93000 202.276
50.94000 199.849
50.95000 199.730
50.96000 199.611
50.97000 199.540
50.98000 199.500
50.99000 199.460
51.00000 199.261
51.01000 199.003
51.02000 198.562
51.03000 195.828
51.04000 192.408
51.05000 188.663
51.06000 182.542
51.07000 175.945
51.08000 170.399
51.09000 173.535
51.10000 177.069
51.11000 178.900
51.12000 175.370
51.13000 171.448
51.14000 168.594
51.15000 168.036
51.16000 167.555
51.17000 167.269
51.18000 168.398
51.19000 169.207
51.20000 165.979
51.21000 158.885
51.22000 151.900
51.23000 153.815
51.24000 161.375
51.25000 168.728
51.26000 168.674
51.27000 165.578
51.28000 162.861
51.29000 164.764
51.30000 168.029
51.31000 170.691
51.32000 169.031
51.33000 166.519
51.34000 164.414
51.35000 163.389
51.36000 162.649
51.37000 161.216
51.38000 157.636
51.39000 153.903
51.40000 150.177
51.41000 146.464
51.42000 142.752
51.43000 140.555
51.44000 145.731
51.45000 149.431
51.46000 150.329
51.47000 148.586
51.48000 146.883
51.49000 148.242
51.50000 151.514
51.51000 154.693
51.52000 150.686
51.53000 143.972
51.54000 137.829
51.55000 138.489
51.56000 141.127
51.57000 143.747
51.58000 146.247
51.59000 148.724
51.60000 150.794
51.61000 155.292
51.62000 159.273
51.63000 160.294
51.64000 152.266
51.65000 143.610
51.66000 139.803
51.67000 146.132
51.68000 152.778
51.69000 156.687
51.70000 155.953
51.71000 155.411
51.72000 152.887
51.73000 148.527
51.74000 144.242
51.75000 145.296
51.76000 149.635
51.77000 153.847
51.78000 153.027
51.79000 150.245
51.80000 147.754
51.81000 148.637
51.82000 150.488
51.83000 151.449
51.84000 146.269
51.85000 139.917
51.86000 134.624
51.87000 141.377
51.88000 148.173
51.89000 153.158
51.90000 152.686
51.91000 151.845
51.92000 149.076
51.93000 142.337
51.94000 135.478
51.95000 131.471
51.96000 139.097
51.97000 144.515
51.98000 146.064
51.99000 144.085
52.00000 142.124
52.01000 141.288
52.02000 141.135
52.03000 140.986
52.04000 140.930
52.05000 140.913
52.06000 141.257
52.07000 145.709
52.08000 151.320
52.09000 155.756
52.10000 152.211
52.11000 147.169
52.12000 142.979
52.13000 139.246
52.14000 136.202
52.15000 133.956
52.16000 134.081
52.17000 134.362
52.18000 136.605
52.19000 142.832
52.20000 149.175
52.21000 152.856
52.22000 152.936
52.23000 152.975
52.24000 150.419
52.25000 145.537
52.26000 140.722
52.27000 140.178
52.28000 142.186
52.29000 144.131
52.30000 144.535
52.31000 144.323
52.32000 144.216
52.33000 145.278
52.34000 146.664
52.35000 147.906
52.36000 148.182
52.37000 148.281
52.38000 148.362
52.39000 146.202
52.40000 144.205
52.41000 141.694
52.42000 137.682
52.43000 133.573
52.44000 131.409
52.45000 133.139
52.46000 134.976
52.47000 136.036
52.48000 143.655
52.49000 149.012
52.50000 151.636
52.51000 151.850
52.52000 152.041
52.53000 150.900
52.54000 148.974
52.55000 147.110
52.56000 148.337
52.57000 150.669
52.58000 152.449
52.59000 148.225
52.60000 142.357
52.61000 137.578
52.62000 139.932
52.63000 143.580
52.64000 146.594
52.65000 142.417
52.66000 138.304
52.67000 136.060
52.68000 139.200
52.69000 142.679
52.70000 145.548
52.71000 147.213
52.72000 148.846
52.73000 149.781
52.74000 143.227
52.75000 138.627
52.76000 137.347
52.77000 138.949
52.78000 140.526
52.79000 140.704
52.80000 140.072
52.81000 139.460
52.82000 141.148
52.83000 143.598
52.84000 145.791
52.85000 145.249
52.86000 143.969
52.87000 142.983
52.88000 143.884
52.89000 145.122
52.90000 146.142
52.91000 147.544
52.92000 148.732
52.93000 149.348
52.94000 148.343
52.95000 147.238
52.96000 146.407
52.97000 146.108
52.98000 145.822
52.99000 145.660
53.00000 141.913
53.01000 139.291
53.02000 136.486
53.03000 133.523
53.04000 130.659
53.05000 133.189
53.06000 138.802
53.07000 144.219
53.08000 145.562
53.09000 145.328
53.10000 144.996
53.11000 143.640
53.12000 142.013
53.13000 140.619
53.14000 140.706
53.15000 141.053
53.16000 141.337
53.17000 141.828
53.18000 142.249
53.19000 143.483
53.20000 146.989
53.21000 150.631
53.22000 153.618
53.23000 155.348
53.24000 157.047
53.25000 158.006
53.26000 159.753
53.27000 160.965
53.28000 160.076
53.29000 157.422
53.30000 154.760
53.31000 151.725
53.32000 148.479
53.33000 145.349
53.34000 147.115
53.35000 150.545
53.36000 153.633
53.37000 153.218
53.38000 151.885
53.39000 150.439
53.40000 148.286
53.41000 146.012
53.42000 144.150
53.43000 144.805
53.44000 145.561
53.45000 147.569
53.46000 153.030
53.47000 158.691
53.48000 161.338
53.49000 158.293
53.50000 155.115
53.51000 153.333
53.52000 149.770
53.53000 147.298
53.54000 145.765
53.55000 145.009
53.56000 144.300
53.57000 145.888
53.58000 148.752
53.59000 151.510
53.60000 149.649
53.61000 146.258
53.62000 143.198
53.63000 143.454
53.64000 144.565
53.65000 146.062
53.66000 149.921
53.67000 154.180
53.68000 157.655
53.69000 152.271
53.70000 147.111
53.71000 143.282
53.72000 143.075
53.73000 143.072
53.74000 144.896
53.75000 150.119
53.76000 155.419
53.77000 158.369
53.78000 153.100
53.79000 149.443
53.80000 147.362
53.81000 146.564
53.82000 145.723
53.83000 142.892
53.84000 138.973
53.85000 135.203
53.86000 134.851
53.87000 135.719
53.88000 136.807
53.89000 140.051
53.90000 143.842
53.91000 146.488
53.92000 142.249
53.93000 136.860
53.94000 132.479
53.95000 140.482
53.96000 148.051
53.97000 152.229
53.98000 147.314
53.99000 141.901
54.00000 138.193
54.01000 137.614
54.02000 137.101
54.03000 136.818
54.04000 142.361
54.05000 146.185
54.06000 146.759
54.07000 144.728
54.08000 142.743
54.09000 142.841
54.10000 144.061
54.11000 145.233
54.12000 142.142
54.13000 137.778
54.14000 133.922
54.15000 134.937
54.16000 137.170
54.17000 138.517
54.18000 134.634
54.19000 129.894
54.20000 126.051
54.21000 133.548
54.22000 140.583
54.23000 144.585
54.24000 140.572
54.25000 136.132
54.26000 133.694
54.27000 134.874
54.28000 136.127
54.29000 136.814
54.30000 144.536
54.31000 149.846
54.32000 151.425
54.33000 150.062
54.34000 148.720
54.35000 148.354
54.36000 148.505
54.37000 148.649
54.38000 144.260
54.39000 138.619
54.40000 133.502
54.41000 133.308
54.42000 134.326
54.43000 135.389
54.44000 136.714
54.45000 138.081
54.46000 139.185
54.47000 139.353
54.48000 139.414
54.49000 139.342
54.50000 138.921
54.51000 138.482
54.52000 138.955
54.53000 141.051
54.54000 143.178
54.55000 144.337
54.56000 145.029
54.57000 145.501
54.58000 145.246
54.59000 144.426
54.60000 143.563
54.61000 140.924
54.62000 137.357
54.63000 133.938
54.64000 135.618
54.65000 138.887
54.66000 142.016
54.67000 143.845
54.68000 145.358
54.69000 146.575
54.70000 146.095
54.71000 145.346
54.72000 144.743
54.73000 141.916
54.74000 139.447
54.75000 139.901
54.76000 147.857
54.77000 156.191
54.78000 160.695
54.79000 158.479
54.80000 156.138
54.81000 154.873
54.82000 141.683
54.83000 132.688
54.84000 134.036
54.85000 143.288
54.86000 152.341
54.87000 153.579
54.88000 150.787
54.89000 148.114
54.90000 144.936
54.91000 141.808
54.92000 139.115
54.93000 140.340
54.94000 142.501
54.95000 144.290
54.96000 143.998
54.97000 143.380
54.98000 142.885
54.99000 146.130
55.00000 149.044
55.01000 150.733
55.02000 149.320
55.03000 147.755
55.04000 147.016
55.05000 147.701
55.06000 148.412
55.07000 148.794
55.08000 140.311
55.09000 134.549
55.10000 136.069
55.11000 143.071
55.12000 149.914
55.13000 150.807
55.14000 148.676
55.15000 146.639
55.16000 148.463
55.17000 151.407
55.18000 153.806
55.19000 151.370
55.20000 147.797
55.21000 145.495
55.22000 150.207
55.23000 155.993
55.24000 160.622
55.25000 156.661
55.26000 152.819
55.27000 150.954
55.28000 154.023
55.29000 157.325
55.30000 159.720
55.31000 160.570
55.32000 161.394
55.33000 161.833
55.34000 153.905
55.35000 148.527
55.36000 147.994
55.37000 151.051
55.38000 154.127
55.39000 157.947
55.40000 162.140
55.41000 166.141
55.42000 169.574
55.43000 172.581
55.44000 175.188
55.45000 174.322
55.46000 172.652
55.47000 171.723
55.48000 174.819
55.49000 178.520
55.50000 181.471
55.51000 185.980
55.52000 189.731
55.53000 192.997
55.54000 195.070
55.55000 197.088
55.56000 199.096
55.57000 201.086
55.58000 203.075
55.59000 204.126
55.60000 212.706
55.61000 218.536
55.62000 224.381
55.63000 230.238
55.64000 236.129
55.65000 243.260
55.66000 251.003
55.67000 258.382
55.68000 267.322
55.69000 276.099
55.70000 284.770
55.71000 292.547
55.72000 300.120
55.73000 307.397
55.74000 313.093
55.75000 318.555
55.76000 322.895
55.77000 340.427
55.78000 355.485
55.79000 372.778
55.80000 395.488
55.81000 418.440
55.82000 439.371
55.83000 456.962
55.84000 474.502
55.85000 483.693
55.86000 517.176
55.87000 539.770
55.88000 548.587
55.89000 547.505
55.90000 546.625
55.91000 552.460
55.92000 561.564
55.93000 570.228
55.94000 579.683
55.95000 588.680
55.96000 596.160
55.97000 590.982
55.98000 582.962
55.99000 575.863
56.00000 573.612
56.01000 572.064
56.02000 570.838
56.03000 568.086
56.04000 565.768
56.05000 559.972
56.06000 545.870
56.07000 531.408
56.08000 517.125
56.09000 503.130
56.10000 489.140
56.11000 481.868
56.12000 455.327
56.13000 437.427
56.14000 423.708
56.15000 412.948
56.16000 402.242
56.17000 393.256
56.18000 385.095
56.19000 377.338
56.20000 362.269
56.21000 346.126
56.22000 330.802
56.23000 322.188
56.24000 315.057
56.25000 307.714
56.26000 299.278
56.27000 290.685
56.28000 283.905
56.29000 273.547
56.30000 264.995
56.31000 257.761
56.32000 253.631
56.33000 249.631
56.34000 244.430
56.35000 237.302
56.36000 230.149
56.37000 226.461
56.38000 220.265
56.39000 216.099
56.40000 213.055
56.41000 210.792
56.42000 208.525
56.43000 206.160
56.44000 203.748
56.45000 201.458
56.46000 196.020
56.47000 190.064
56.48000 184.708
56.49000 184.180
56.50000 184.703
56.51000 184.944
56.52000 183.751
56.53000 182.357
56.54000 181.262
56.55000 173.592
56.56000 167.018
56.57000 161.829
56.58000 159.858
56.59000 158.018
56.60000 155.541
56.61000 152.060
56.62000 148.567
56.63000 146.780
56.64000 151.266
56.65000 154.246
56.66000 153.259
56.67000 149.549
56.68000 145.966
56.69000 146.167
56.70000 148.130
56.71000 149.991
56.72000 149.026
56.73000 147.308
56.74000 145.841
56.75000 146.352
56.76000 147.285
56.77000 148.027
56.78000 147.810
56.79000 147.460
56.80000 147.186
56.81000 151.778
56.82000 155.761
56.83000 157.457
56.84000 153.920
56.85000 150.178
56.86000 146.973
56.87000 144.604
56.88000 142.245
56.89000 141.049
56.90000 139.809
56.91000 138.992
56.92000 139.567
56.93000 141.083
56.94000 142.547
56.95000 142.507
56.96000 141.776
56.97000 141.085
56.98000 140.736
56.99000 140.514
57.00000 140.421
57.01000 141.329
57.02000 142.447
57.03000 143.291
57.04000 142.777
57.05000 142.079
57.06000 141.535
57.07000 136.040
57.08000 131.346
57.09000 128.824
57.10000 131.198
57.11000 133.758
57.12000 134.523
57.13000 132.534
57.14000 130.515
57.15000 129.500
57.16000 131.958
57.17000 133.605
57.18000 135.689
57.19000 138.064
57.20000 140.342
57.21000 139.964
57.22000 138.384
57.23000 136.891
57.24000 134.338
57.25000 131.693
57.26000 129.229
57.27000 128.142
57.28000 127.341
57.29000 126.616
57.30000 126.257
57.31000 125.947
57.32000 125.706
57.33000 125.020
57.34000 124.448
57.35000 125.316
57.36000 129.387
57.37000 133.575
57.38000 137.148
57.39000 139.791
57.40000 142.424
57.41000 142.105
57.42000 138.851
57.43000 135.614
57.44000 134.051
57.45000 133.585
57.46000 133.176
57.47000 134.280
57.48000 136.060
57.49000 137.739
57.50000 135.467
57.51000 132.280
57.52000 129.446
57.53000 129.248
57.54000 129.587
57.55000 129.674
57.56000 128.558
57.57000 127.286
57.58000 126.300
57.59000 124.746
57.60000 123.477
57.61000 121.987
57.62000 120.010
57.63000 118.015
57.64000 116.664
57.65000 116.269
57.66000 115.882
57.67000 117.688
57.68000 121.636
57.69000 125.565
57.70000 127.854
57.71000 129.084
57.72000 130.248
57.73000 129.715
57.74000 128.435
57.75000 127.229
57.76000 127.290
57.77000 127.694
57.78000 128.090
57.79000 128.422
57.80000 128.741
57.81000 128.598
57.82000 126.287
57.83000 123.699
57.84000 121.701
57.85000 122.765
57.86000 123.787
57.87000 125.588
57.88000 129.071
57.89000 132.612
57.90000 132.980
57.91000 128.696
57.92000 124.372
57.93000 125.179
57.94000 130.921
57.95000 136.597
57.96000 136.911
57.97000 133.814
57.98000 130.732
57.99000 128.061
58.00000 125.566
58.01000 123.220
58.02000 126.443
58.03000 130.894
58.04000 134.692
58.05000 133.795
58.06000 131.969
58.07000 130.503
58.08000 130.698
58.09000 131.101
58.10000 131.411
58.11000 126.883
58.12000 123.027
58.13000 120.822
58.14000 122.128
58.15000 123.550
58.16000 126.757
58.17000 132.541
58.18000 138.346
58.19000 138.987
58.20000 134.746
58.21000 130.535
58.22000 128.691
58.23000 128.329
58.24000 128.003
58.25000 128.520
58.26000 129.396
58.27000 130.220
58.28000 126.929
58.29000 122.832
58.30000 119.262
58.31000 119.407
58.32000 120.274
58.33000 121.579
58.34000 124.876
58.35000 128.418
58.36000 131.132
58.37000 120.543
58.38000 111.447
58.39000 108.272
58.40000 117.512
58.41000 127.144
58.42000 130.270
58.43000 124.143
58.44000 117.948
58.45000 118.782
58.46000 126.149
58.47000 133.427
58.48000 134.229
58.49000 131.031
58.50000 127.863
58.51000 125.374
58.52000 123.172
58.53000 121.107
58.54000 124.801
58.55000 129.672
58.56000 133.416
58.57000 129.350
58.58000 123.789
58.59000 118.831
58.60000 116.571
58.61000 114.637
58.62000 113.160
58.63000 117.071
58.64000 120.443
58.65000 122.050
58.66000 120.008
58.67000 117.856
58.68000 118.741
58.69000 123.881
58.70000 129.049
58.71000 130.999
58.72000 130.006
58.73000 128.982
58.74000 125.898
58.75000 121.560
58.76000 117.558
58.77000 121.172
58.78000 127.946
58.79000 134.288
58.80000 132.771
58.81000 129.369
58.82000 126.495
58.83000 127.216
58.84000 128.614
58.85000 129.732
58.86000 129.613
58.87000 129.348
58.88000 129.146
58.89000 124.068
58.90000 119.819
58.91000 117.795
58.92000 120.303
58.93000 122.944
58.94000 124.023
58.95000 122.949
58.96000 121.861
58.97000 121.053
58.98000 120.498
58.99000 119.949
59.00000 119.841
59.01000 119.996
59.02000 120.204
59.03000 121.562
59.04000 123.390
59.05000 125.099
59.06000 124.238
59.07000 122.805
59.08000 121.540
59.09000 121.400
59.10000 121.468
59.11000 121.721
59.12000 122.783
59.13000 123.938
59.14000 124.814
59.15000 125.082
59.16000 125.262
59.17000 125.404
59.18000 125.471
59.19000 125.535
59.20000 125.251
59.21000 124.496
59.22000 123.738
59.23000 124.137
59.24000 125.560
59.25000 126.931
59.26000 125.183
59.27000 121.594
59.28000 118.169
59.29000 118.255
59.30000 119.757
59.31000 121.158
59.32000 123.651
59.33000 126.182
59.34000 128.080
59.35000 125.821
59.36000 122.804
59.37000 119.738
59.38000 116.462
59.39000 113.161
59.40000 110.671
59.41000 113.753
59.42000 116.444
59.43000 118.138
59.44000 117.861
59.45000 117.530
59.46000 118.116
59.47000 119.925
59.48000 121.740
59.49000 123.797
59.50000 126.062
59.51000 128.306
59.52000 129.344
59.53000 129.681
59.54000 129.807
59.55000 125.582
59.56000 119.628
59.57000 114.082
59.58000 119.672
59.59000 127.454
59.60000 133.940
59.61000 132.053
59.62000 128.665
59.63000 126.188
59.64000 127.547
59.65000 129.333
59.66000 130.676
59.67000 123.619
59.68000 117.697
59.69000 113.893
59.70000 114.220
59.71000 114.654
59.72000 115.791
59.73000 117.853
59.74000 119.918
59.75000 121.201
59.76000 121.811
59.77000 122.388
59.78000 121.158
59.79000 118.893
59.80000 116.776
59.81000 117.654
59.82000 119.704
59.83000 121.610
59.84000 122.932
59.85000 123.986
59.86000 124.799
59.87000 124.088
59.88000 123.108
59.89000 122.130
59.90000 121.162
59.91000 120.194
59.92000 119.470
59.93000 119.319
59.94000 119.228
59.95000 119.637
59.96000 121.004
59.97000 122.396
59.98000 125.031
59.99000 129.277
60.00000 133.525
60.01000 130.951
60.02000 122.644
60.03000 114.469
60.04000 113.144
60.05000 115.689
60.06000 118.267
60.07000 121.496
60.08000 124.976
60.09000 128.206
60.10000 124.180
60.11000 118.834
60.12000 114.712
60.13000 118.229
60.14000 123.069
60.15000 126.406
60.16000 123.600
60.17000 120.135
60.18000 117.552
60.19000 118.127
60.20000 118.718
60.21000 119.904
60.22000 122.215
60.23000 124.552
60.24000 126.739
60.25000 128.735
60.26000 130.728
60.27000 130.356
60.28000 128.027
60.29000 125.717
60.30000 124.388
60.31000 123.603
60.32000 122.784
60.33000 121.306
60.34000 119.576
60.35000 117.974
60.36000 117.085
60.37000 116.451
60.38000 116.179
60.39000 118.120
60.40000 120.439
60.41000 121.473
60.42000 117.339
60.43000 112.662
60.44000 109.189
60.45000 109.275
60.46000 109.498
60.47000 111.486
60.48000 116.767
60.49000 122.123
60.50000 124.900
60.51000 124.438
60.52000 123.966
60.53000 122.499
60.54000 120.228
60.55000 118.009
60.56000 118.265
60.57000 119.878
60.58000 121.501
60.59000 123.308
60.60000 125.184
60.61000 126.920
60.62000 122.110
60.63000 116.291
60.64000 111.235
60.65000 110.787
60.66000 111.111
60.67000 111.860
60.68000 114.297
60.69000 116.908
60.70000 118.839
60.71000 120.734
60.72000 122.203
60.73000 121.622
60.74000 117.270
60.75000 112.837
60.76000 112.907
60.77000 118.542
60.78000 124.184
60.79000 125.984
60.80000 124.700
60.81000 123.419
60.82000 122.278
60.83000 121.211
60.84000 120.129
60.85000 118.790
60.86000 117.355
60.87000 116.030
60.88000 120.778
60.89000 126.402
60.90000 130.550
60.91000 125.948
60.92000 119.904
60.93000 114.244
60.94000 110.081
60.95000 106.070
60.96000 103.116
60.97000 111.798
60.98000 119.002
60.99000 123.014
61.00000 121.244
61.01000 119.354
61.02000 120.526
61.03000 125.423
61.04000 130.320
61.05000 131.501
61.06000 129.749
61.07000 127.985
61.08000 125.718
61.09000 123.183
61.10000 120.823
61.11000 121.515
61.12000 123.318
61.13000 124.981
61.14000 123.794
61.15000 122.101
61.16000 120.843
61.17000 122.119
61.18000 123.806
61.19000 125.366
61.20000 126.439
61.21000 127.465
61.22000 128.217
61.23000 130.965
61.24000 133.169
61.25000 133.721
61.26000 131.325
61.27000 128.871
61.28000 126.866
61.29000 125.398
61.30000 123.934
61.31000 124.539
61.32000 126.743
61.33000 128.913
61.34000 129.675
61.35000 129.698
61.36000 129.603
61.37000 127.497
61.38000 124.671
61.39000 122.070
61.40000 124.897
61.41000 128.603
61.42000 131.390
61.43000 128.903
61.44000 125.577
61.45000 123.479
61.46000 126.027
61.47000 129.025
61.48000 131.214
61.49000 140.385
61.50000 147.727
61.51000 160.138
61.52000 181.468
61.53000 202.965
61.54000 222.010
61.55000 238.167
61.56000 254.280
61.57000 277.505
61.58000 306.010
61.59000 334.097
61.60000 345.598
61.61000 348.518
61.62000 352.247
61.63000 369.355
61.64000 391.198
61.65000 411.257
61.66000 410.117
61.67000 404.568
61.68000 401.013
61.69000 408.703
61.70000 418.152
61.71000 421.673
61.72000 403.088
61.73000 382.411
61.74000 367.379
61.75000 355.592
61.76000 346.647
61.77000 332.583
61.78000 309.642
61.79000 286.544
61.80000 265.357
61.81000 246.386
61.82000 227.470
61.83000 211.120
61.84000 196.805
61.85000 182.584
61.86000 171.932
61.87000 163.101
61.88000 154.793
61.89000 154.921
61.90000 157.991
61.91000 160.805
61.92000 156.466
61.93000 151.098
61.94000 145.931
61.95000 141.876
61.96000 137.993
61.97000 135.141
61.98000 136.077
61.99000 137.364
62.00000 138.296
62.01000 140.401
62.02000 142.060
62.03000 141.377
62.04000 136.691
62.05000 131.938
62.06000 129.785
62.07000 130.599
62.08000 131.414
62.09000 131.768
62.10000 131.781
62.11000 131.772
62.12000 130.982
62.13000 129.800
62.14000 128.717
62.15000 129.202
62.16000 130.225
62.17000 131.161
62.18000 134.598
62.19000 138.171
62.20000 140.497
62.21000 136.019
62.22000 130.514
62.23000 127.627
62.24000 134.218
62.25000 141.668
62.26000 147.037
62.27000 138.718
62.28000 131.858
62.29000 129.417
62.30000 134.417
62.31000 139.536
62.32000 142.431
62.33000 142.831
62.34000 143.228
62.35000 142.129
62.36000 139.955
62.37000 137.791
62.38000 136.005
62.39000 134.407
62.40000 133.108
62.41000 136.387
62.42000 141.215
62.43000 145.624
62.44000 144.864
62.45000 143.139
62.46000 141.543
62.47000 140.637
62.48000 139.834
62.49000 138.836
62.50000 137.148
62.51000 135.398
62.52000 134.143
62.53000 137.097
62.54000 139.501
62.55000 139.582
62.56000 135.811
62.57000 131.981
62.58000 130.040
62.59000 130.181
62.60000 130.323
62.61000 130.177
62.62000 129.826
62.63000 129.578
62.64000 132.774
62.65000 137.652
62.66000 142.290
62.67000 143.357
62.68000 143.232
62.69000 143.118
62.70000 139.553
62.71000 135.705
62.72000 132.627
62.73000 133.612
62.74000 135.189
62.75000 136.467
62.76000 136.695
62.77000 136.831
62.78000 136.929
62.79000 139.200
62.80000 141.006
62.81000 141.782
62.82000 140.876
62.83000 139.946
62.84000 140.158
62.85000 141.611
62.86000 143.059
62.87000 144.941
62.88000 147.111
62.89000 149.111
62.90000 145.622
62.91000 139.492
62.92000 133.756
62.93000 133.744
62.94000 135.614
62.95000 137.316
62.96000 137.638
62.97000 137.652
62.98000 137.878
62.99000 139.204
63.00000 140.688
63.01000 142.687
63.02000 146.472
63.03000 150.408
63.04000 153.206
63.05000 146.066
63.06000 140.310
63.07000 135.503
63.08000 132.221
63.09000 128.960
63.10000 129.353
63.11000 133.647
63.12000 137.923
63.13000 140.598
63.14000 142.137
63.15000 143.532
63.16000 140.413
63.17000 135.154
63.18000 130.354
63.19000 132.043
63.20000 135.838
63.21000 139.282
63.22000 140.508
63.23000 141.163
63.24000 141.669
63.25000 141.414
63.26000 141.053
63.27000 140.718
63.28000 140.471
63.29000 140.231
63.30000 140.062
63.31000 148.542
63.32000 155.255
63.33000 156.999
63.34000 150.865
63.35000 144.632
63.36000 144.308
63.37000 150.192
63.38000 156.047
63.39000 154.416
63.40000 147.710
63.41000 141.132
63.42000 138.372
63.43000 137.396
63.44000 136.421
63.45000 135.443
63.46000 134.465
63.47000 133.579
63.48000 138.201
63.49000 143.317
63.50000 147.704
63.51000 148.423
63.52000 148.635
63.53000 148.607
63.54000 147.771
63.55000 146.869
63.56000 146.234
63.57000 145.303
63.58000 144.588
63.59000 143.721
63.60000 142.616
63.61000 141.509
63.62000 142.511
63.63000 145.694
63.64000 148.859
63.65000 147.014
63.66000 141.836
63.67000 136.908
63.68000 139.209
63.69000 144.839
63.70000 150.068
63.71000 149.896
63.72000 148.023
63.73000 146.330
63.74000 149.892
63.75000 154.003
63.76000 157.604
63.77000 158.682
63.78000 159.418
63.79000 159.172
63.80000 155.678
63.81000 151.926
63.82000 149.295
63.83000 155.237
63.84000 159.980
63.85000 161.106
63.86000 156.664
63.87000 152.161
63.88000 149.954
63.89000 150.079
63.90000 150.203
63.91000 150.737
63.92000 151.535
63.93000 152.431
63.94000 156.080
63.95000 160.980
63.96000 165.528
63.97000 165.445
63.98000 163.925
63.99000 162.553
64.00000 162.932
64.01000 163.586
64.02000 163.921
64.03000 162.704
64.04000 161.281
64.05000 159.429
64.06000 156.174
64.07000 152.810
64.08000 150.463
64.09000 153.167
64.10000 155.350
64.11000 157.516
64.12000 159.659
64.13000 161.801
64.14000 161.674
64.15000 159.280
64.16000 156.901
64.17000 158.949
64.18000 163.838
64.19000 168.603
64.20000 169.988
64.21000 169.861
64.22000 169.526
64.23000 166.513
64.24000 162.682
64.25000 159.232
64.26000 154.822
64.27000 150.784
64.28000 147.861
64.29000 150.284
64.30000 153.406
64.31000 155.721
64.32000 155.443
64.33000 154.969
64.34000 154.640
64.35000 161.984
64.36000 167.724
64.37000 170.723
64.38000 169.631
64.39000 168.500
64.40000 165.071
64.41000 159.386
64.42000 153.740
64.43000 153.214
64.44000 155.965
64.45000 158.778
64.46000 163.217
64.47000 168.374
64.48000 173.162
64.49000 173.304
64.50000 172.047
64.51000 170.918
64.52000 172.718
64.53000 174.811
64.54000 176.002
64.55000 172.942
64.56000 169.337
64.57000 167.873
64.58000 173.190
64.59000 179.007
64.60000 183.028
64.61000 183.890
64.62000 184.457
64.63000 181.955
64.64000 174.941
64.65000 167.886
64.66000 167.136
64.67000 172.471
64.68000 177.768
64.69000 180.729
64.70000 182.175
64.71000 183.599
64.72000 184.447
64.73000 185.044
64.74000 185.953
64.75000 190.685
64.76000 196.552
64.77000 201.811
64.78000 204.009
64.79000 205.399
64.80000 206.210
64.81000 204.334
64.82000 202.121
64.83000 199.597
64.84000 196.103
64.85000 192.540
64.86000 190.088
64.87000 191.988
64.88000 193.521
64.89000 194.738
64.90000 195.499
64.91000 196.255
64.92000 195.558
64.93000 193.481
64.94000 191.421
64.95000 192.823
64.96000 196.341
64.97000 199.725
64.98000 199.839
64.99000 198.553
65.00000 197.562
65.01000 200.131
65.02000 203.742
65.03000 206.971
65.04000 210.765
65.05000 214.169
65.06000 217.066
65.07000 217.645
65.08000 217.938
65.09000 218.645
65.10000 220.621
65.11000 222.687
65.12000 224.101
65.13000 233.246
65.14000 240.278
65.15000 243.337
65.16000 240.729
65.17000 238.079
65.18000 240.666
65.19000 248.143
65.20000 255.557
65.21000 260.946
65.22000 265.005
65.23000 269.016
65.24000 271.897
65.25000 274.301
65.26000 277.246
65.27000 286.551
65.28000 297.688
65.29000 307.628
65.30000 305.677
65.31000 301.991
65.32000 299.730
65.33000 303.876
65.34000 308.799
65.35000 315.261
65.36000 326.392
65.37000 337.843
65.38000 345.643
65.39000 351.941
65.40000 356.612
65.41000 366.283
65.42000 382.980
65.43000 399.722
65.44000 410.156
65.45000 414.798
65.46000 419.399
65.47000 427.459
65.48000 437.434
65.49000 447.436
65.50000 458.085
65.51000 469.002
65.52000 480.076
65.53000 492.950
65.54000 506.336
65.55000 518.256
65.56000 530.760
65.57000 541.721
65.58000 552.971
65.59000 565.501
65.60000 578.184
65.61000 594.781
65.62000 623.073
65.63000 652.147
65.64000 671.853
65.65000 739.245
65.66000 790.542
65.67000 855.531
65.68000 939.466
65.69000 1023.549
65.70000 1152.436
65.71000 1321.788
65.72000 1489.540
65.73000 1653.113
65.74000 1810.889
65.75000 1969.276
65.76000 2141.214
65.77000 2318.714
65.78000 2491.094
65.79000 2605.969
65.80000 2704.758
65.81000 2792.530
65.82000 2865.020
65.83000 2925.429
65.84000 2977.565
65.85000 2993.639
65.86000 3005.510
65.87000 3004.006
65.88000 2963.130
65.89000 2919.689
65.90000 2890.394
65.91000 2812.965
65.92000 2754.342
65.93000 2657.133
65.94000 2507.355
65.95000 2357.253
65.96000 2182.670
65.97000 1986.335
65.98000 1791.973
65.99000 1594.999
66.00000 1400.743
66.01000 1209.497
66.02000 1082.896
66.03000 982.443
66.04000 883.808
66.05000 805.171
66.06000 732.044
66.07000 667.220
66.08000 618.184
66.09000 578.230
66.10000 541.523
66.11000 518.749
66.12000 497.567
66.13000 482.278
66.14000 484.083
66.15000 486.973
66.16000 488.912
66.17000 480.039
66.18000 473.232
66.19000 474.560
66.20000 486.798
66.21000 499.094
66.22000 511.876
66.23000 525.083
66.24000 538.150
66.25000 551.233
66.26000 564.030
66.27000 577.432
66.28000 603.445
66.29000 634.484
66.30000 665.473
66.31000 695.913
66.32000 726.204
66.33000 752.995
66.34000 780.809
66.35000 805.006
66.36000 827.707
66.37000 844.086
66.38000 859.756
66.39000 870.115
66.40000 865.291
66.41000 859.527
66.42000 855.680
66.43000 862.523
66.44000 867.799
66.45000 867.137
66.46000 858.632
66.47000 850.072
66.48000 828.729
66.49000 796.390
66.50000 764.416
66.51000 730.315
66.52000 695.828
66.53000 661.566
66.54000 631.830
66.55000 603.872
66.56000 576.198
66.57000 551.512
66.58000 527.625
66.59000 506.547
66.60000 485.841
66.61000 468.036
66.62000 452.921
66.63000 449.001
66.64000 446.311
66.65000 443.663
66.66000 441.137
66.67000 438.618
66.68000 436.946
66.69000 430.191
66.70000 425.103
66.71000 424.720
66.72000 430.452
66.73000 436.198
66.74000 434.773
66.75000 427.280
66.76000 419.876
66.77000 422.038
66.78000 429.433
66.79000 436.388
66.80000 434.712
66.81000 429.693
66.82000 425.124
66.83000 425.202
66.84000 426.504
66.85000 427.649
66.86000 436.538
66.87000 445.351
66.88000 450.928
66.89000 443.242
66.90000 434.128
66.91000 429.912
66.92000 439.303
66.93000 449.491
66.94000 456.220
66.95000 450.102
66.96000 445.362
66.97000 440.099
66.98000 434.168
66.99000 428.253
67.00000 431.373
67.01000 442.019
67.02000 452.531
67.03000 461.089
67.04000 468.363
67.05000 475.179
67.06000 473.277
67.07000 468.047
67.08000 463.638
67.09000 467.525
67.10000 473.563
67.11000 478.866
67.12000 476.151
67.13000 472.639
67.14000 468.810
67.15000 463.703
67.16000 458.461
67.17000 458.038
67.18000 470.805
67.19000 484.324
67.20000 493.206
67.21000 476.867
67.22000 464.416
67.23000 460.845
67.24000 468.461
67.25000 476.094
67.26000 475.585
67.27000 468.404
67.28000 461.317
67.29000 466.723
67.30000 478.671
67.31000 489.790
67.32000 485.561
67.33000 475.557
67.34000 466.668
67.35000 468.799
67.36000 473.746
67.37000 478.080
67.38000 482.438
67.39000 486.181
67.40000 489.617
67.41000 491.839
67.42000 493.935
67.43000 497.344
67.44000 504.297
67.45000 511.447
67.46000 516.120
67.47000 515.143
67.48000 514.336
67.49000 513.463
67.50000 512.510
67.51000 511.557
67.52000 510.896
67.53000 510.470
67.54000 510.050
67.55000 513.323
67.56000 518.448
67.57000 523.410
67.58000 525.424
67.59000 526.346
67.60000 527.155
67.61000 526.862
67.62000 526.291
67.63000 525.793
67.64000 531.109
67.65000 536.486
67.66000 542.592
67.67000 551.555
67.68000 560.808
67.69000 564.477
67.70000 553.295
67.71000 541.311
67.72000 533.523
67.73000 542.440
67.74000 549.229
67.75000 556.994
67.76000 565.949
67.77000 574.887
67.78000 577.379
67.79000 574.752
67.80000 572.164
67.81000 574.235
67.82000 578.661
67.83000 583.071
67.84000 587.197
67.85000 591.220
67.86000 594.975
67.87000 596.182
67.88000 596.758
67.89000 597.260
67.90000 590.780
67.91000 584.271
67.92000 579.427
67.93000 581.008
67.94000 583.225
67.95000 587.279
67.96000 596.145
67.97000 605.263
67.98000 611.156
67.99000 614.104
68.00000 616.216
68.01000 617.017
68.02000 616.244
68.03000 615.466
68.04000 614.121
68.05000 612.333
68.06000 610.573
68.07000 610.894
68.08000 612.266
68.09000 614.360
68.10000 628.779
68.11000 647.638
68.12000 664.115
68.13000 658.448
68.14000 647.376
68.15000 637.747
68.16000 648.494
68.17000 660.441
68.18000 670.093
68.19000 671.033
68.20000 671.126
68.21000 671.887
68.22000 674.372
68.23000 676.946
68.24000 678.600
68.25000 681.893
68.26000 684.318
68.27000 689.379
68.28000 697.557
68.29000 705.733
68.30000 712.026
68.31000 716.872
68.32000 721.639
68.33000 727.119
68.34000 732.783
68.35000 738.428
68.36000 743.766
68.37000 748.994
68.38000 754.211
68.39000 759.314
68.40000 764.389
68.41000 768.793
68.42000 779.466
68.43000 789.395
68.44000 800.474
68.45000 815.856
68.46000 831.648
68.47000 846.438
68.48000 858.681
68.49000 870.797
68.50000 878.541
68.51000 887.154
68.52000 893.434
68.53000 905.762
68.54000 925.125
68.55000 944.555
68.56000 976.214
68.57000 1017.137
68.58000 1057.364
68.59000 1088.481
68.60000 1114.058
68.61000 1141.189
68.62000 1193.459
68.63000 1254.525
68.64000 1315.958
68.65000 1380.667
68.66000 1446.151
68.67000 1502.814
68.68000 1580.205
68.69000 1648.716
68.70000 1715.195
68.71000 1774.182
68.72000 1832.472
68.73000 1896.189
68.74000 1973.524
68.75000 2051.513
68.76000 2101.075
68.77000 2208.976
68.78000 2288.062
68.79000 2366.293
68.80000 2443.549
68.81000 2521.035
68.82000 2643.277
68.83000 2798.902
68.84000 2951.760
68.85000 3136.554
68.86000 3330.522
68.87000 3534.628
68.88000 3898.529
68.89000 4317.540
68.90000 4803.991
68.91000 5880.928
68.92000 7095.513
68.93000 8143.771
68.94000 11152.535
68.95000 13957.851
68.96000 17153.869
68.97000 21768.377
68.98000 26512.061
68.99000 31487.311
69.00000 37035.359
69.01000 42610.113
69.02000 46132.477
69.03000 52076.578
69.04000 56412.059
69.05000 59806.328
69.06000 62140.707
69.07000 64470.367
69.08000 66138.453
69.09000 67320.656
69.10000 68480.875
69.11000 69475.453
69.12000 70355.133
69.13000 71239.250
69.14000 72191.477
69.15000 73166.852
69.16000 74058.320
69.17000 74229.422
69.18000 74235.188
69.19000 74240.148
69.20000 71393.000
69.21000 68621.680
69.22000 65491.715
69.23000 61079.004
69.24000 56552.000
69.25000 52291.930
69.26000 48682.676
69.27000 45102.840
69.28000 42854.055
69.29000 39956.074
69.30000 37853.766
69.31000 36370.172
69.32000 35571.977
69.33000 34775.008
69.34000 34102.043
69.35000 33518.758
69.36000 32946.801
69.37000 31673.822
69.38000 30117.412
69.39000 28510.436
69.40000 26146.283
69.41000 23528.504
69.42000 20890.473
69.43000 18081.895
69.44000 15234.778
69.45000 12790.334
69.46000 10470.417
69.47000 8524.471
69.48000 6752.065
69.49000 5591.172
69.50000 4483.573
69.51000 3556.785
69.52000 3064.521
69.53000 2591.293
69.54000 2295.762
69.55000 2019.923
69.56000 1821.161
69.57000 1671.097
69.58000 1574.100
69.59000 1477.313
69.60000 1407.386
69.61000 1356.586
69.62000 1306.817
69.63000 1244.553
69.64000 1178.877
69.65000 1114.785
69.66000 1073.827
69.67000 1040.505
69.68000 1007.997
69.69000 982.203
69.70000 957.903
69.71000 937.095
69.72000 902.519
69.73000 871.671
69.74000 845.928
69.75000 837.906
69.76000 831.395
69.77000 823.434
69.78000 812.039
69.79000 800.497
69.80000 793.333
69.81000 769.733
69.82000 752.588
69.83000 738.487
69.84000 727.647
69.85000 716.744
69.86000 697.355
69.87000 672.015
69.88000 647.211
69.89000 638.616
69.90000 637.766
69.91000 636.437
69.92000 628.286
69.93000 617.916
69.94000 607.909
69.95000 600.842
69.96000 594.419
69.97000 588.933
69.98000 588.689
69.99000 589.106
70.00000 586.768
