20.00000 485.587
20.01000 483.393
20.02000 480.885
20.03000 479.372
20.04000 481.786
20.05000 484.600
20.06000 486.679
20.07000 486.702
20.08000 486.632
20.09000 485.888
20.10000 483.909
20.11000 481.904
20.12000 480.218
20.13000 478.926
20.14000 477.636
20.15000 478.262
20.16000 480.412
20.17000 482.541
20.18000 483.762
20.19000 484.495
20.20000 484.836
20.21000 478.215
20.22000 469.033
20.23000 460.558
20.24000 454.559
20.25000 449.736
20.26000 446.608
20.27000 453.481
20.28000 461.992
20.29000 469.406
20.30000 472.560
20.31000 475.287
20.32000 477.293
20.33000 486.968
20.34000 494.768
20.35000 497.544
20.36000 491.255
20.37000 484.780
20.38000 481.476
20.39000 482.010
20.40000 482.551
20.41000 480.235
20.42000 475.692
20.43000 471.242
20.44000 470.761
20.45000 472.385
20.46000 474.252
20.47000 480.325
20.48000 487.924
20.49000 494.924
20.50000 492.261
20.51000 487.751
20.52000 483.833
20.53000 483.341
20.54000 483.402
20.55000 483.645
20.56000 484.590
20.57000 485.603
20.58000 486.345
20.59000 486.036
20.60000 485.756
20.61000 485.369
20.62000 484.793
20.63000 484.213
20.64000 481.533
20.65000 476.352
20.66000 471.177
20.67000 472.021
20.68000 477.501
20.69000 482.913
20.70000 485.600
20.71000 486.863
20.72000 487.998
20.73000 486.993
20.74000 485.223
20.75000 483.595
20.76000 478.978
20.77000 474.208
20.78000 469.725
20.79000 466.884
20.80000 464.303
20.81000 464.516
20.82000 475.261
20.83000 487.017
20.84000 495.589
20.85000 487.743
20.86000 481.062
20.87000 481.336
20.88000 493.795
20.89000 506.478
20.90000 507.779
20.91000 495.735
20.92000 483.700
20.93000 480.172
20.94000 483.120
20.95000 485.929
20.96000 483.347
20.97000 477.986
20.98000 472.796
20.99000 470.387
21.00000 468.959
21.01000 467.648
21.02000 468.344
21.03000 469.392
21.04000 469.743
21.05000 466.186
21.06000 462.021
21.07000 460.047
21.08000 466.208
21.09000 473.133
21.10000 478.162
21.11000 474.691
21.12000 471.704
21.13000 468.650
21.14000 465.481
21.15000 462.309
21.16000 463.885
21.17000 470.938
21.18000 477.978
21.19000 477.757
21.20000 472.119
21.21000 466.585
21.22000 464.954
21.23000 465.304
21.24000 465.806
21.25000 468.755
21.26000 472.553
21.27000 476.033
21.28000 471.227
21.29000 465.217
21.30000 461.701
21.31000 471.944
21.32000 484.290
21.33000 491.116
21.34000 477.755
21.35000 462.537
21.36000 451.535
21.37000 457.209
21.38000 462.168
21.39000 465.864
21.40000 467.412
21.41000 468.924
21.42000 468.370
21.43000 465.472
21.44000 462.580
21.45000 465.482
21.46000 472.615
21.47000 479.505
21.48000 477.686
21.49000 471.509
21.50000 465.437
21.51000 460.981
21.52000 457.079
21.53000 453.511
21.54000 456.679
21.55000 460.879
21.56000 465.980
21.57000 475.968
21.58000 486.691
21.59000 495.326
21.60000 496.442
21.61000 496.880
21.62000 497.195
21.63000 483.209
21.64000 471.998
21.65000 465.636
21.66000 467.400
21.67000 469.292
21.68000 473.746
21.69000 481.058
21.70000 488.347
21.71000 490.369
21.72000 488.570
21.73000 486.735
21.74000 483.719
21.75000 480.120
21.76000 476.892
21.77000 479.274
21.78000 483.550
21.79000 487.451
21.80000 480.860
21.81000 472.894
21.82000 466.575
21.83000 469.050
21.84000 472.822
21.85000 478.194
21.86000 489.244
21.87000 500.793
21.88000 509.068
21.89000 509.922
21.90000 510.323
21.91000 509.916
21.92000 508.178
21.93000 506.419
21.94000 509.593
21.95000 518.184
21.96000 526.745
21.97000 531.378
21.98000 533.176
21.99000 535.106
22.00000 541.423
22.01000 549.873
22.02000 557.886
22.03000 559.432
22.04000 558.828
22.05000 558.277
22.06000 567.491
22.07000 577.588
22.08000 585.728
22.09000 583.590
22.10000 579.963
22.11000 577.135
22.12000 577.101
22.13000 577.308
22.14000 577.455
22.15000 583.061
22.16000 587.515
22.17000 587.649
22.18000 580.755
22.19000 573.764
22.20000 569.229
22.21000 567.348
22.22000 565.476
22.23000 566.064
22.24000 568.368
22.25000 570.407
22.26000 564.017
22.27000 553.589
22.28000 543.286
22.29000 534.795
22.30000 526.899
22.31000 519.721
22.32000 519.677
22.33000 521.029
22.34000 521.745
22.35000 519.172
22.36000 516.130
22.37000 515.045
22.38000 520.702
22.39000 526.927
22.40000 531.348
22.41000 525.546
22.42000 520.807
22.43000 512.869
22.44000 499.803
22.45000 486.670
22.46000 481.830
22.47000 485.805
22.48000 489.763
22.49000 488.698
22.50000 484.189
22.51000 479.644
22.52000 474.027
22.53000 467.903
22.54000 462.169
22.55000 461.915
22.56000 463.430
22.57000 464.805
22.58000 464.822
22.59000 464.577
22.60000 463.392
22.61000 457.426
22.62000 450.792
22.63000 446.754
22.64000 451.531
22.65000 457.034
22.66000 460.924
22.67000 461.482
22.68000 461.804
22.69000 461.935
22.70000 461.766
22.71000 461.592
22.72000 461.036
22.73000 460.080
22.74000 459.128
22.75000 453.920
22.76000 445.890
22.77000 437.988
22.78000 433.883
22.79000 431.545
22.80000 429.565
22.81000 432.500
22.82000 437.000
22.83000 441.073
22.84000 439.878
22.85000 437.833
22.86000 436.941
22.87000 441.812
22.88000 447.475
22.89000 451.520
22.90000 450.152
22.91000 448.349
22.92000 447.080
22.93000 438.918
22.94000 432.529
22.95000 435.344
22.96000 452.475
22.97000 469.772
22.98000 473.563
22.99000 463.475
23.00000 453.441
23.01000 450.053
23.02000 451.135
23.03000 452.318
23.04000 456.398
23.05000 461.806
23.06000 466.653
23.07000 463.983
23.08000 458.955
23.09000 454.413
23.10000 452.531
23.11000 451.368
23.12000 450.015
23.13000 447.731
23.14000 445.321
23.15000 442.392
23.16000 437.749
23.17000 432.971
23.18000 429.625
23.19000 433.225
23.20000 436.146
23.21000 437.664
23.22000 437.031
23.23000 436.376
23.24000 435.166
23.25000 433.396
23.26000 431.637
23.27000 431.754
23.28000 433.098
23.29000 434.377
23.30000 433.809
23.31000 432.408
23.32000 431.626
23.33000 438.950
23.34000 448.778
23.35000 457.639
23.36000 459.503
23.37000 459.868
23.38000 459.591
23.39000 456.208
23.40000 452.413
23.41000 446.989
23.42000 436.276
23.43000 425.157
23.44000 417.408
23.45000 430.890
23.46000 441.649
23.47000 447.724
23.48000 446.728
23.49000 445.661
23.50000 446.482
23.51000 449.179
23.52000 451.859
23.53000 452.424
23.54000 451.617
23.55000 450.799
23.56000 449.692
23.57000 448.455
23.58000 447.425
23.59000 449.037
23.60000 451.453
23.61000 453.627
23.62000 451.077
23.63000 447.999
23.64000 442.861
23.65000 427.905
23.66000 411.674
23.67000 403.089
23.68000 418.969
23.69000 436.685
23.70000 448.974
23.71000 456.002
23.72000 461.155
23.73000 460.929
23.74000 452.705
23.75000 444.407
23.76000 441.603
23.77000 444.165
23.78000 446.710
23.79000 449.883
23.80000 453.407
23.81000 456.898
23.82000 459.578
23.83000 461.900
23.84000 463.814
23.85000 460.625
23.86000 455.905
23.87000 451.668
23.88000 452.093
23.89000 453.283
23.90000 454.004
23.91000 452.526
23.92000 450.768
23.93000 450.997
23.94000 457.493
23.95000 464.449
23.96000 469.250
23.97000 472.212
23.98000 474.391
23.99000 475.186
24.00000 473.958
24.01000 472.712
24.02000 475.953
24.03000 483.504
24.04000 490.998
24.05000 487.392
24.06000 476.910
24.07000 466.619
24.08000 461.110
24.09000 457.670
24.10000 454.704
24.11000 457.523
24.12000 462.051
24.13000 466.108
24.14000 466.238
24.15000 465.674
24.16000 464.797
24.17000 462.477
24.18000 459.977
24.19000 456.569
24.20000 450.341
24.21000 443.911
24.22000 439.494
24.23000 438.251
24.24000 437.397
24.25000 438.013
24.26000 440.748
24.27000 443.499
24.28000 438.499
24.29000 426.179
24.30000 413.956
24.31000 415.404
24.32000 425.233
24.33000 434.603
24.34000 432.902
24.35000 426.478
24.36000 420.364
24.37000 417.953
24.38000 416.620
24.39000 415.428
24.40000 413.124
24.41000 410.927
24.42000 408.944
24.43000 407.930
24.44000 407.034
24.45000 406.933
24.46000 409.264
24.47000 411.764
24.48000 413.473
24.49000 420.639
24.50000 426.131
24.51000 428.239
24.52000 425.543
24.53000 422.812
24.54000 422.998
24.55000 425.894
24.56000 428.766
24.57000 427.970
24.58000 424.970
24.59000 422.080
24.60000 421.748
24.61000 422.492
24.62000 423.068
24.63000 421.681
24.64000 419.732
24.65000 417.993
24.66000 411.249
24.67000 404.549
24.68000 399.053
24.69000 398.948
24.70000 399.492
24.71000 403.085
24.72000 415.880
24.73000 429.302
24.74000 438.431
24.75000 431.012
24.76000 425.097
24.77000 418.585
24.78000 411.239
24.79000 403.891
24.80000 405.232
24.81000 414.511
24.82000 423.706
24.83000 419.763
24.84000 408.073
24.85000 397.153
24.86000 403.665
24.87000 417.403
24.88000 429.888
24.89000 428.085
24.90000 422.243
24.91000 417.044
24.92000 414.678
24.93000 413.085
24.94000 412.345
24.95000 415.363
24.96000 418.825
24.97000 421.050
24.98000 419.600
24.99000 417.905
25.00000 416.759
25.01000 417.599
25.02000 418.269
25.03000 417.215
25.04000 413.786
25.05000 410.344
25.06000 407.598
25.07000 405.479
25.08000 403.380
25.09000 400.988
25.10000 398.474
25.11000 396.126
25.12000 397.413
25.13000 400.185
25.14000 402.903
25.15000 405.022
25.16000 406.974
25.17000 408.707
25.18000 405.752
25.19000 402.439
25.20000 400.972
25.21000 407.512
25.22000 414.980
25.23000 419.329
25.24000 414.541
25.25000 409.162
25.26000 405.540
25.27000 406.136
25.28000 406.667
25.29000 406.347
25.30000 404.873
25.31000 403.392
25.32000 401.693
25.33000 399.800
25.34000 397.927
25.35000 399.909
25.36000 404.072
25.37000 407.940
25.38000 405.516
25.39000 400.558
25.40000 396.131
25.41000 397.495
25.42000 400.448
25.43000 403.064
25.44000 411.822
25.45000 420.367
25.46000 426.100
25.47000 419.819
25.48000 412.174
25.49000 405.631
25.50000 402.271
25.51000 399.113
25.52000 396.997
25.53000 397.831
25.54000 398.509
25.55000 399.328
25.56000 400.336
25.57000 401.347
25.58000 404.055
25.59000 408.238
25.60000 412.377
25.61000 409.729
25.62000 403.290
25.63000 397.243
25.64000 399.288
25.65000 404.544
25.66000 409.661
25.67000 413.276
25.68000 416.487
25.69000 419.324
25.70000 410.243
25.71000 400.558
25.72000 392.701
25.73000 392.540
25.74000 393.235
25.75000 394.629
25.76000 398.013
25.77000 401.518
25.78000 403.854
25.79000 400.371
25.80000 397.681
25.81000 398.112
25.82000 402.645
25.83000 407.185
25.84000 404.250
25.85000 394.917
25.86000 385.690
25.87000 384.471
25.88000 387.755
25.89000 390.953
25.90000 392.429
25.91000 393.230
25.92000 394.046
25.93000 395.022
25.94000 396.039
25.95000 396.937
25.96000 393.166
25.97000 389.208
25.98000 385.178
25.99000 380.853
26.00000 376.496
26.01000 374.573
26.02000 379.481
26.03000 384.796
26.04000 388.320
26.05000 397.319
26.06000 404.067
26.07000 405.233
26.08000 399.178
26.09000 393.105
26.10000 393.485
26.11000 399.299
26.12000 405.043
26.13000 409.724
26.14000 413.702
26.15000 417.081
26.16000 408.784
26.17000 395.983
26.18000 384.612
26.19000 387.876
26.20000 394.977
26.21000 401.224
26.22000 398.453
26.23000 394.726
26.24000 391.888
26.25000 392.682
26.26000 393.864
26.27000 396.021
26.28000 400.871
26.29000 405.878
26.30000 409.180
26.31000 407.002
26.32000 405.300
26.33000 399.534
26.34000 388.589
26.35000 377.643
26.36000 374.483
26.37000 377.779
26.38000 381.033
26.39000 384.188
26.40000 387.205
26.41000 389.967
26.42000 387.886
26.43000 383.964
26.44000 380.880
26.45000 386.201
26.46000 393.694
26.47000 400.268
26.48000 402.050
26.49000 402.879
26.50000 402.267
26.51000 395.858
26.52000 388.841
26.53000 383.079
26.54000 380.735
26.55000 378.584
26.56000 377.174
26.57000 381.440
26.58000 384.673
26.59000 389.086
26.60000 394.981
26.61000 400.868
26.62000 401.794
26.63000 398.671
26.64000 395.591
26.65000 389.456
26.66000 381.863
26.67000 374.496
26.68000 371.286
26.69000 369.632
26.70000 368.582
26.71000 373.456
26.72000 379.837
26.73000 385.423
26.74000 385.207
26.75000 384.190
26.76000 382.261
26.77000 376.727
26.78000 370.823
26.79000 367.109
26.80000 369.277
26.81000 371.768
26.82000 373.394
26.83000 378.710
26.84000 382.669
26.85000 389.869
26.86000 401.069
26.87000 412.252
26.88000 413.916
26.89000 407.938
26.90000 402.045
26.91000 397.400
26.92000 393.543
26.93000 389.597
26.94000 384.071
26.95000 377.961
26.96000 372.230
26.97000 370.144
26.98000 368.972
26.99000 367.949
27.00000 373.693
27.01000 379.562
27.02000 383.829
27.03000 381.856
27.04000 379.256
27.05000 378.507
27.06000 382.662
27.07000 387.080
27.08000 389.946
27.09000 387.712
27.10000 386.000
27.11000 384.364
27.12000 382.821
27.13000 381.285
27.14000 381.681
27.15000 383.603
27.16000 385.497
27.17000 382.064
27.18000 375.984
27.19000 370.341
27.20000 372.291
27.21000 377.004
27.22000 381.309
27.23000 381.762
27.24000 381.265
27.25000 380.832
27.26000 379.571
27.27000 378.379
27.28000 377.553
27.29000 378.128
27.30000 378.842
27.31000 377.672
27.32000 371.588
27.33000 365.248
27.34000 361.157
27.35000 367.306
27.36000 371.946
27.37000 372.315
27.38000 367.580
27.39000 362.859
27.40000 364.587
27.41000 371.330
27.42000 377.968
27.43000 380.835
27.44000 381.696
27.45000 382.222
27.46000 377.070
27.47000 369.883
27.48000 362.865
27.49000 357.422
27.50000 352.361
27.51000 347.964
27.52000 354.463
27.53000 361.482
27.54000 367.154
27.55000 367.736
27.56000 367.827
27.57000 368.083
27.58000 368.762
27.59000 369.463
27.60000 369.913
27.61000 369.384
27.62000 368.985
27.63000 369.275
27.64000 370.374
27.65000 371.468
27.66000 371.095
27.67000 369.598
27.68000 368.126
27.69000 367.619
27.70000 367.611
27.71000 367.552
27.72000 366.649
27.73000 365.448
27.74000 364.408
27.75000 364.818
27.76000 365.576
27.77000 366.233
27.78000 364.792
27.79000 363.286
27.80000 363.727
27.81000 371.417
27.82000 379.792
27.83000 384.263
27.84000 378.838
27.85000 372.928
27.86000 369.158
27.87000 367.226
27.88000 365.844
27.89000 364.539
27.90000 363.322
27.91000 362.123
27.92000 364.605
27.93000 369.862
27.94000 375.028
27.95000 377.180
27.96000 377.777
27.97000 378.682
27.98000 384.546
27.99000 392.137
28.00000 398.083
28.01000 389.421
28.02000 377.317
28.03000 366.852
28.04000 361.825
28.05000 358.263
28.06000 356.285
28.07000 360.122
28.08000 364.496
28.09000 366.681
28.10000 363.393
28.11000 359.846
28.12000 357.595
28.13000 349.964
28.14000 344.361
28.15000 348.050
28.16000 362.323
28.17000 376.546
28.18000 379.266
28.19000 373.445
28.20000 367.729
28.21000 361.932
28.22000 356.299
28.23000 351.192
28.24000 354.304
28.25000 360.239
28.26000 365.867
28.27000 368.822
28.28000 371.156
28.29000 373.169
28.30000 369.508
28.31000 365.677
28.32000 363.529
28.33000 367.460
28.34000 371.942
28.35000 372.166
28.36000 361.905
28.37000 351.159
28.38000 344.382
28.39000 350.853
28.40000 355.691
28.41000 361.660
28.42000 368.897
28.43000 376.072
28.44000 372.787
28.45000 361.856
28.46000 351.130
28.47000 350.652
28.48000 355.078
28.49000 359.199
28.50000 358.676
28.51000 356.582
28.52000 354.767
28.53000 355.338
28.54000 356.454
28.55000 357.414
28.56000 359.888
28.57000 362.171
28.58000 363.412
28.59000 360.937
28.60000 358.133
28.61000 356.851
28.62000 359.267
28.63000 361.848
28.64000 363.466
28.65000 357.508
28.66000 353.120
28.67000 350.164
28.68000 348.787
28.69000 347.419
28.70000 347.267
28.71000 347.989
28.72000 348.698
28.73000 353.887
28.74000 360.985
28.75000 367.485
28.76000 365.096
28.77000 359.742
28.78000 354.514
28.79000 350.339
28.80000 346.400
28.81000 343.021
28.82000 358.111
28.83000 373.132
28.84000 384.250
28.85000 381.670
28.86000 377.905
28.87000 372.922
28.88000 365.026
28.89000 357.004
28.90000 352.003
28.91000 356.908
28.92000 360.545
28.93000 363.366
28.94000 365.301
28.95000 367.215
28.96000 366.115
28.97000 362.879
28.98000 359.710
28.99000 360.059
29.00000 362.020
29.01000 363.765
29.02000 362.374
29.03000 359.952
29.04000 358.043
29.05000 360.340
29.06000 363.569
29.07000 366.331
29.08000 357.334
29.09000 348.328
29.10000 342.980
29.11000 350.278
29.12000 358.646
29.13000 361.971
29.14000 353.402
29.15000 344.333
29.16000 338.713
29.17000 345.209
29.18000 349.997
29.19000 352.192
29.20000 351.622
29.21000 351.048
29.22000 350.055
29.23000 348.768
29.24000 347.510
29.25000 346.668
29.26000 346.049
29.27000 345.423
29.28000 344.694
29.29000 343.931
29.30000 343.679
29.31000 347.539
29.32000 352.295
29.33000 356.354
29.34000 352.147
29.35000 347.629
29.36000 344.361
29.37000 345.351
29.38000 346.694
29.39000 347.356
29.40000 346.438
29.41000 345.456
29.42000 344.852
29.43000 347.223
29.44000 348.951
29.45000 347.917
29.46000 343.987
29.47000 340.102
29.48000 341.752
29.49000 347.206
29.50000 352.538
29.51000 353.141
29.52000 351.603
29.53000 350.412
29.54000 354.019
29.55000 359.157
29.56000 363.875
29.57000 365.271
29.58000 365.953
29.59000 366.535
29.60000 360.582
29.61000 354.823
29.62000 349.440
29.63000 345.323
29.64000 341.307
29.65000 340.162
29.66000 345.594
29.67000 351.285
29.68000 354.769
29.69000 353.727
29.70000 352.943
29.71000 349.800
29.72000 344.224
29.73000 338.731
29.74000 342.374
29.75000 352.204
29.76000 361.807
29.77000 364.137
29.78000 363.165
29.79000 362.129
29.80000 360.219
29.81000 358.034
29.82000 357.063
29.83000 365.505
29.84000 375.937
29.85000 384.789
29.86000 383.551
29.87000 381.367
29.88000 379.370
29.89000 377.990
29.90000 376.658
29.91000 375.791
29.92000 375.972
29.93000 376.193
29.94000 376.328
29.95000 377.536
29.96000 378.407
29.97000 380.653
29.98000 384.294
29.99000 387.929
30.00000 390.819
30.01000 393.214
30.02000 395.551
30.03000 398.372
30.04000 401.281
30.05000 403.723
30.06000 400.047
30.07000 394.473
30.08000 389.690
30.09000 390.927
30.10000 393.415
30.11000 395.521
30.12000 398.270
30.13000 400.643
30.14000 401.019
30.15000 394.891
30.16000 388.260
30.17000 382.950
30.18000 380.581
30.19000 378.319
30.20000 376.952
30.21000 381.399
30.22000 384.611
30.23000 387.568
30.24000 390.272
30.25000 392.964
30.26000 394.556
30.27000 395.426
30.28000 396.274
30.29000 390.614
30.30000 382.434
30.31000 374.727
30.32000 373.088
30.33000 373.302
30.34000 373.651
30.35000 375.012
30.36000 376.581
30.37000 377.905
30.38000 372.000
30.39000 366.279
30.40000 362.084
30.41000 362.793
30.42000 363.871
30.43000 366.037
30.44000 370.590
30.45000 375.227
30.46000 378.014
30.47000 371.380
30.48000 366.600
30.49000 365.271
30.50000 367.326
30.51000 369.397
30.52000 372.834
30.53000 377.157
30.54000 381.367
30.55000 376.936
30.56000 369.083
30.57000 361.740
30.58000 360.780
30.59000 361.742
30.60000 362.862
30.61000 365.145
30.62000 367.662
30.63000 369.779
30.64000 370.313
30.65000 370.588
30.66000 370.702
30.67000 370.303
30.68000 369.867
30.69000 369.892
30.70000 370.917
30.71000 371.976
30.72000 372.608
30.73000 372.262
30.74000 372.010
30.75000 374.335
30.76000 379.144
30.77000 383.892
30.78000 383.619
30.79000 380.144
30.80000 376.763
30.81000 378.553
30.82000 382.395
30.83000 386.510
30.84000 393.973
30.85000 402.429
30.86000 410.227
30.87000 413.281
30.88000 415.395
30.89000 417.170
30.90000 412.818
30.91000 408.556
30.92000 405.253
30.93000 404.944
30.94000 404.850
30.95000 407.401
30.96000 415.591
30.97000 423.967
30.98000 428.936
30.99000 436.703
31.00000 442.215
31.01000 444.567
31.02000 443.924
31.03000 443.358
31.04000 448.657
31.05000 457.642
31.06000 466.374
31.07000 478.222
31.08000 490.751
31.09000 503.203
31.10000 514.724
31.11000 525.973
31.12000 537.779
31.13000 553.530
31.14000 570.051
31.15000 583.875
31.16000 606.013
31.17000 625.259
31.18000 647.299
31.19000 677.924
31.20000 709.151
31.21000 745.840
31.22000 794.004
31.23000 842.533
31.24000 871.137
31.25000 911.884
31.26000 940.711
31.27000 976.561
31.28000 1018.958
31.29000 1061.571
31.30000 1119.933
31.31000 1188.039
31.32000 1254.168
31.33000 1307.396
31.34000 1352.754
31.35000 1397.385
31.36000 1433.479
31.37000 1467.116
31.38000 1501.492
31.39000 1541.000
31.40000 1581.493
31.41000 1615.276
31.42000 1630.401
31.43000 1641.073
31.44000 1649.111
31.45000 1649.173
31.46000 1648.691
31.47000 1640.260
31.48000 1615.374
31.49000 1589.984
31.50000 1575.117
31.51000 1520.764
31.52000 1482.303
31.53000 1448.525
31.54000 1419.040
31.55000 1389.436
31.56000 1351.576
31.57000 1308.684
31.58000 1267.081
31.59000 1224.695
31.60000 1184.213
31.61000 1143.238
31.62000 1096.623
31.63000 1048.408
31.64000 999.841
31.65000 948.871
31.66000 897.447
31.67000 854.671
31.68000 809.720
31.69000 772.297
31.70000 737.334
31.71000 709.710
31.72000 682.576
31.73000 655.332
31.74000 627.865
31.75000 600.391
31.76000 584.411
31.77000 577.705
31.78000 573.028
31.79000 555.911
31.80000 527.575
31.81000 499.501
31.82000 488.496
31.83000 487.740
31.84000 487.007
31.85000 477.862
31.86000 465.944
31.87000 454.120
31.88000 443.336
31.89000 432.844
31.90000 423.178
31.91000 419.051
31.92000 415.952
31.93000 413.383
31.94000 409.475
31.95000 406.117
31.96000 402.106
31.97000 396.173
31.98000 390.114
31.99000 384.771
32.00000 380.866
32.01000 377.003
32.02000 374.770
32.03000 376.665
32.04000 378.004
32.05000 373.970
32.06000 365.169
32.07000 356.493
32.08000 355.529
32.09000 359.128
32.10000 362.612
32.11000 358.607
32.12000 351.963
32.13000 346.072
32.14000 348.436
32.15000 353.072
32.16000 356.460
32.17000 351.621
32.18000 345.280
32.19000 340.037
32.20000 346.629
32.21000 353.178
32.22000 355.426
32.23000 345.211
32.24000 334.207
32.25000 326.785
32.26000 326.466
32.27000 326.340
32.28000 326.267
32.29000 328.755
32.30000 330.501
32.31000 329.700
32.32000 326.677
32.33000 323.692
32.34000 322.971
32.35000 323.568
32.36000 324.145
32.37000 329.799
32.38000 337.041
32.39000 344.028
32.40000 348.272
32.41000 351.772
32.42000 354.151
32.43000 349.263
32.44000 343.071
32.45000 337.966
32.46000 334.076
32.47000 330.985
32.48000 328.386
32.49000 327.188
32.50000 326.077
32.51000 325.856
32.52000 327.374
32.53000 328.937
32.54000 329.828
32.55000 320.703
32.56000 314.319
32.57000 315.909
32.58000 324.348
32.59000 332.655
32.60000 333.703
32.61000 330.580
32.62000 327.565
32.63000 324.669
32.64000 321.985
32.65000 319.735
32.66000 322.040
32.67000 325.563
32.68000 328.213
32.69000 325.319
32.70000 321.446
32.71000 318.263
32.72000 322.340
32.73000 326.343
32.74000 327.356
32.75000 319.954
32.76000 312.047
32.77000 308.502
32.78000 313.357
32.79000 318.421
32.80000 321.287
32.81000 320.381
32.82000 319.735
32.83000 315.899
32.84000 309.367
32.85000 302.968
32.86000 303.527
32.87000 308.025
32.88000 312.363
32.89000 311.530
32.90000 308.864
32.91000 306.662
32.92000 309.221
32.93000 313.034
32.94000 315.611
32.95000 310.458
32.96000 303.963
32.97000 298.642
32.98000 297.623
32.99000 297.167
33.00000 296.698
33.01000 296.196
33.02000 295.691
33.03000 297.923
33.04000 305.348
33.05000 312.897
33.06000 317.139
33.07000 313.986
33.08000 311.774
33.09000 306.628
33.10000 299.042
33.11000 291.597
33.12000 291.228
33.13000 294.807
33.14000 298.255
33.15000 298.664
33.16000 297.959
33.17000 297.285
33.18000 296.924
33.19000 296.644
33.20000 296.512
33.21000 297.288
33.22000 298.219
33.23000 298.979
33.24000 301.020
33.25000 302.800
33.26000 302.082
33.27000 294.534
33.28000 286.596
33.29000 283.557
33.30000 289.678
33.31000 296.009
33.32000 299.541
33.33000 300.595
33.34000 301.317
33.35000 301.148
33.36000 300.250
33.37000 299.334
33.38000 297.542
33.39000 295.268
33.40000 293.079
33.41000 292.186
33.42000 291.804
33.43000 291.280
33.44000 289.344
33.45000 287.048
33.46000 285.408
33.47000 287.732
33.48000 290.722
33.49000 293.156
33.50000 288.887
33.51000 284.835
33.52000 282.276
33.53000 283.741
33.54000 285.428
33.55000 285.774
33.56000 283.649
33.57000 281.470
33.58000 280.264
33.59000 283.566
33.60000 285.860
33.61000 289.964
33.62000 295.525
33.63000 300.959
33.64000 300.554
33.65000 296.987
33.66000 293.559
33.67000 293.714
33.68000 295.102
33.69000 296.431
33.70000 297.186
33.71000 297.797
33.72000 298.908
33.73000 302.985
33.74000 307.553
33.75000 311.259
33.76000 304.256
33.77000 297.663
33.78000 292.129
33.79000 289.403
33.80000 286.829
33.81000 287.015
33.82000 292.211
33.83000 297.512
33.84000 300.427
33.85000 298.485
33.86000 297.137
33.87000 294.543
33.88000 290.962
33.89000 287.543
33.90000 291.159
33.91000 298.530
33.92000 305.604
33.93000 303.878
33.94000 299.260
33.95000 295.453
33.96000 299.317
33.97000 305.081
33.98000 308.894
33.99000 301.308
34.00000 291.874
34.01000 284.242
34.02000 282.165
34.03000 280.921
34.04000 280.174
34.05000 280.722
34.06000 281.339
34.07000 283.346
34.08000 287.842
34.09000 292.387
34.10000 294.868
34.11000 291.091
34.12000 288.493
34.13000 287.199
34.14000 286.922
34.15000 286.765
34.16000 291.523
34.17000 298.868
34.18000 305.909
34.19000 307.031
34.20000 306.090
34.21000 304.710
34.22000 299.258
34.23000 292.813
34.24000 287.256
34.25000 286.795
34.26000 287.148
34.27000 287.432
34.28000 294.678
34.29000 301.110
34.30000 303.678
34.31000 296.275
34.32000 288.365
34.33000 286.073
34.34000 293.689
34.35000 301.491
34.36000 305.719
34.37000 291.423
34.38000 281.656
34.39000 283.231
34.40000 293.523
34.41000 303.549
34.42000 302.981
34.43000 296.923
34.44000 291.123
34.45000 287.242
34.46000 284.258
34.47000 281.867
34.48000 284.874
34.49000 289.177
34.50000 293.126
34.51000 295.080
34.52000 296.720
34.53000 298.038
34.54000 296.273
34.55000 294.605
34.56000 293.035
34.57000 291.714
34.58000 290.405
34.59000 288.656
34.60000 286.141
34.61000 283.612
34.62000 282.252
34.63000 280.331
34.64000 279.026
34.65000 279.441
34.66000 281.157
34.67000 282.830
34.68000 282.855
34.69000 282.039
34.70000 281.258
34.71000 281.343
34.72000 281.703
34.73000 282.096
34.74000 282.781
34.75000 283.534
34.76000 284.341
34.77000 285.442
34.78000 286.588
34.79000 287.506
34.80000 286.178
34.81000 284.935
34.82000 283.287
34.83000 280.626
34.84000 277.917
34.85000 276.057
34.86000 275.653
34.87000 275.274
34.88000 275.071
34.89000 277.577
34.90000 279.260
34.91000 275.948
34.92000 268.914
34.93000 262.100
34.94000 263.323
34.95000 268.592
34.96000 273.623
34.97000 272.491
34.98000 269.467
34.99000 267.146
35.00000 270.971
35.01000 276.228
35.02000 280.811
35.03000 281.709
35.04000 282.051
35.05000 282.323
35.06000 282.316
35.07000 282.290
35.08000 282.094
35.09000 281.479
35.10000 280.844
35.11000 278.376
35.12000 272.815
35.13000 267.205
35.14000 264.234
35.15000 269.639
35.16000 273.308
35.17000 275.133
35.18000 275.606
35.19000 276.016
35.20000 274.231
35.21000 271.356
35.22000 268.614
35.23000 269.941
35.24000 272.454
35.25000 274.503
35.26000 272.583
35.27000 269.752
35.28000 267.301
35.29000 266.886
35.30000 266.774
35.31000 266.685
35.32000 269.441
35.33000 271.867
35.34000 274.442
35.35000 277.384
35.36000 280.342
35.37000 279.957
35.38000 274.014
35.39000 267.986
35.40000 264.819
35.41000 255.779
35.42000 249.707
35.43000 252.892
35.44000 262.762
35.45000 272.432
35.46000 275.318
35.47000 274.886
35.48000 274.475
35.49000 272.157
35.50000 269.418
35.51000 266.757
35.52000 264.751
35.53000 262.892
35.54000 261.503
35.55000 262.596
35.56000 264.051
35.57000 265.204
35.58000 272.165
35.59000 278.170
35.60000 281.522
35.61000 278.509
35.62000 275.217
35.63000 272.070
35.64000 269.161
35.65000 266.256
35.66000 264.742
35.67000 260.906
35.68000 258.333
35.69000 258.758
35.70000 261.315
35.71000 263.878
35.72000 266.636
35.73000 269.488
35.74000 272.200
35.75000 270.605
35.76000 267.818
35.77000 265.216
35.78000 264.142
35.79000 263.406
35.80000 264.221
35.81000 273.106
35.82000 283.148
35.83000 291.081
35.84000 281.019
35.85000 271.712
35.86000 265.841
35.87000 268.096
35.88000 270.695
35.89000 270.703
35.90000 266.530
35.91000 262.301
35.92000 260.115
35.93000 260.187
35.94000 260.259
35.95000 263.377
35.96000 268.629
35.97000 273.596
35.98000 269.658
35.99000 261.489
36.00000 253.732
36.01000 255.444
36.02000 259.865
36.03000 264.033
36.04000 266.148
36.05000 267.815
36.06000 269.449
36.07000 270.916
36.08000 272.360
36.09000 273.497
36.10000 272.898
36.11000 272.303
36.12000 270.885
36.13000 267.552
36.14000 264.140
36.15000 261.300
36.16000 259.371
36.17000 257.453
36.18000 256.469
36.19000 256.180
36.20000 256.004
36.21000 258.117
36.22000 261.808
36.23000 265.385
36.24000 265.536
36.25000 264.083
36.26000 262.706
36.27000 261.313
36.28000 260.025
36.29000 259.165
36.30000 261.701
36.31000 264.968
36.32000 266.713
36.33000 260.787
36.34000 253.800
36.35000 248.318
36.36000 253.085
36.37000 257.563
36.38000 260.458
36.39000 259.716
36.40000 258.830
36.41000 258.773
36.42000 260.016
36.43000 261.275
36.44000 261.915
36.45000 256.560
36.46000 253.009
36.47000 254.032
36.48000 258.162
36.49000 262.122
36.50000 261.146
36.51000 257.893
36.52000 254.812
36.53000 257.215
36.54000 261.019
36.55000 264.431
36.56000 264.788
36.57000 264.497
36.58000 263.560
36.59000 259.415
36.60000 254.834
36.61000 251.254
36.62000 251.594
36.63000 252.115
36.64000 253.326
36.65000 256.100
36.66000 258.933
36.67000 259.781
36.68000 257.567
36.69000 255.318
36.70000 254.184
36.71000 252.994
36.72000 252.216
36.73000 253.178
36.74000 255.306
36.75000 257.255
36.76000 254.209
36.77000 248.890
36.78000 243.862
36.79000 248.402
36.80000 255.307
36.81000 262.185
36.82000 268.860
36.83000 275.492
36.84000 280.123
36.85000 274.992
36.86000 268.557
36.87000 263.546
36.88000 261.501
36.89000 260.055
36.90000 259.381
36.91000 260.429
36.92000 261.541
36.93000 262.875
36.94000 264.544
36.95000 266.217
36.96000 267.054
36.97000 271.701
36.98000 274.796
36.99000 277.561
37.00000 280.111
37.01000 282.483
37.02000 280.059
37.03000 275.486
37.04000 271.168
37.05000 271.488
37.06000 273.084
37.07000 274.333
37.08000 272.975
37.09000 271.083
37.10000 269.330
37.11000 268.244
37.12000 267.246
37.13000 266.471
37.14000 263.428
37.15000 260.873
37.16000 259.600
37.17000 261.151
37.18000 262.803
37.19000 265.518
37.20000 269.823
37.21000 274.144
37.22000 275.397
37.23000 273.632
37.24000 271.877
37.25000 271.020
37.26000 270.746
37.27000 270.436
37.28000 269.190
37.29000 267.530
37.30000 265.965
37.31000 263.215
37.32000 260.369
37.33000 257.925
37.34000 258.449
37.35000 259.573
37.36000 260.655
37.37000 261.545
37.38000 262.410
37.39000 263.079
37.40000 263.746
37.41000 264.274
37.42000 263.692
37.43000 260.699
37.44000 257.624
37.45000 257.942
37.46000 263.260
37.47000 268.624
37.48000 269.122
37.49000 264.914
37.50000 260.732
37.51000 258.732
37.52000 258.127
37.53000 257.537
37.54000 257.297
37.55000 257.210
37.56000 257.127
37.57000 256.484
37.58000 255.743
37.59000 255.072
37.60000 254.901
37.61000 254.831
37.62000 254.023
37.63000 249.785
37.64000 245.115
37.65000 241.518
37.66000 250.759
37.67000 258.811
37.68000 263.311
37.69000 260.216
37.70000 256.868
37.71000 254.369
37.72000 253.101
37.73000 251.843
37.74000 252.699
37.75000 255.565
37.76000 258.394
37.77000 258.263
37.78000 256.268
37.79000 254.353
37.80000 254.405
37.81000 255.302
37.82000 256.144
37.83000 254.502
37.84000 252.338
37.85000 250.939
37.86000 254.967
37.87000 260.058
37.88000 263.668
37.89000 260.507
37.90000 256.507
37.91000 253.437
37.92000 253.122
37.93000 253.026
37.94000 249.858
37.95000 240.216
37.96000 230.367
37.97000 228.648
37.98000 238.554
37.99000 248.547
38.00000 257.132
38.01000 264.396
38.02000 271.544
38.03000 270.024
38.04000 263.124
38.05000 256.288
38.06000 250.948
38.07000 246.240
38.08000 241.824
38.09000 243.759
38.10000 247.194
38.11000 251.039
38.12000 257.754
38.13000 265.021
38.14000 270.361
38.15000 267.018
38.16000 262.621
38.17000 259.259
38.18000 261.641
38.19000 263.831
38.20000 264.590
38.21000 262.375
38.22000 260.069
38.23000 259.339
38.24000 260.828
38.25000 262.332
38.26000 262.919
38.27000 262.663
38.28000 262.448
38.29000 265.075
38.30000 269.441
38.31000 273.630
38.32000 273.790
38.33000 272.268
38.34000 270.843
38.35000 265.307
38.36000 259.207
38.37000 254.441
38.38000 258.825
38.39000 264.941
38.40000 270.746
38.41000 275.169
38.42000 279.428
38.43000 282.671
38.44000 283.165
38.45000 283.410
38.46000 287.785
38.47000 300.615
38.48000 313.697
38.49000 323.250
38.50000 327.911
38.51000 332.539
38.52000 337.119
38.53000 341.652
38.54000 346.315
38.55000 359.479
38.56000 377.765
38.57000 396.209
38.58000 418.178
38.59000 441.595
38.60000 463.494
38.61000 486.132
38.62000 506.877
38.63000 529.568
38.64000 565.366
38.65000 603.606
38.66000 640.375
38.67000 670.715
38.68000 700.304
38.69000 722.749
38.70000 762.572
38.71000 794.747
38.72000 820.687
38.73000 834.046
38.74000 847.046
38.75000 863.827
38.76000 885.770
38.77000 907.734
38.78000 914.864
38.79000 908.791
38.80000 902.761
38.81000 899.402
38.82000 897.629
38.83000 895.267
38.84000 880.209
38.85000 860.006
38.86000 841.144
38.87000 824.175
38.88000 809.265
38.89000 793.728
38.90000 774.049
38.91000 753.611
38.92000 728.256
38.93000 681.755
38.94000 632.831
38.95000 595.863
38.96000 580.216
38.97000 569.013
38.98000 549.981
38.99000 515.377
39.00000 480.347
39.01000 451.494
39.02000 430.943
39.03000 410.447
39.04000 393.950
39.05000 380.978
39.06000 368.018
39.07000 355.779
39.08000 343.962
39.09000 332.564
39.10000 329.913
39.11000 330.756
39.12000 331.543
39.13000 315.830
39.14000 297.546
39.15000 281.895
39.16000 283.352
39.17000 287.892
39.18000 290.030
39.19000 281.997
39.20000 272.820
39.21000 265.914
39.22000 260.019
39.23000 255.457
39.24000 251.987
39.25000 250.660
39.26000 249.390
39.27000 250.247
39.28000 253.920
39.29000 257.603
39.30000 256.404
39.31000 251.007
39.32000 245.728
39.33000 247.043
39.34000 252.158
39.35000 256.724
39.36000 250.127
39.37000 239.136
39.38000 228.908
39.39000 232.583
39.40000 239.268
39.41000 244.590
39.42000 241.196
39.43000 236.257
39.44000 233.845
39.45000 241.966
39.46000 251.248
39.47000 258.206
39.48000 251.859
39.49000 246.275
39.50000 242.798
39.51000 243.392
39.52000 244.088
39.53000 243.142
39.54000 240.055
39.55000 236.962
39.56000 235.519
39.57000 235.474
39.58000 235.409
39.59000 234.274
39.60000 232.531
39.61000 230.955
39.62000 232.650
39.63000 235.616
39.64000 238.371
39.65000 236.741
39.66000 234.227
39.67000 232.232
39.68000 233.491
39.69000 235.318
39.70000 235.525
39.71000 229.082
39.72000 221.921
39.73000 216.574
39.74000 220.715
39.75000 224.377
39.76000 227.717
39.77000 230.445
39.78000 233.159
39.79000 233.823
39.80000 231.859
39.81000 229.888
39.82000 226.444
39.83000 221.786
39.84000 217.251
39.85000 218.934
39.86000 224.096
39.87000 229.155
39.88000 232.221
39.89000 234.524
39.90000 236.660
39.91000 237.085
39.92000 237.068
39.93000 236.507
39.94000 232.597
39.95000 228.112
39.96000 226.267
39.97000 235.098
39.98000 245.058
39.99000 252.463
40.00000 240.463
40.01000 230.265
40.02000 224.028
40.03000 225.222
40.04000 226.588
40.05000 228.518
40.06000 231.159
40.07000 233.799
40.08000 234.349
40.09000 233.187
40.10000 232.071
40.11000 233.176
40.12000 235.507
40.13000 237.571
40.14000 234.688
40.15000 229.940
40.16000 225.544
40.17000 226.570
40.18000 228.741
40.19000 230.271
40.20000 227.918
40.21000 224.912
40.22000 221.883
40.23000 218.767
40.24000 215.643
40.25000 213.329
40.26000 215.986
40.27000 218.262
40.28000 220.788
40.29000 223.773
40.30000 226.768
40.31000 227.482
40.32000 225.361
40.33000 223.235
40.34000 220.775
40.35000 218.053
40.36000 215.446
40.37000 218.083
40.38000 223.570
40.39000 228.714
40.40000 227.653
40.41000 224.288
40.42000 221.179
40.43000 219.155
40.44000 217.585
40.45000 216.319
40.46000 216.861
40.47000 217.703
40.48000 219.122
40.49000 222.808
40.50000 226.724
40.51000 229.611
40.52000 226.932
40.53000 224.624
40.54000 223.844
40.55000 225.850
40.56000 227.914
40.57000 225.637
40.58000 218.050
40.59000 210.463
40.60000 213.638
40.61000 225.323
40.62000 236.778
40.63000 238.130
40.64000 234.072
40.65000 230.073
40.66000 227.122
40.67000 224.555
40.68000 222.187
40.69000 219.702
40.70000 217.450
40.71000 215.773
40.72000 217.471
40.73000 219.719
40.74000 222.194
40.75000 225.548
40.76000 228.988
40.77000 231.515
40.78000 227.325
40.79000 223.812
40.80000 221.672
40.81000 221.994
40.82000 222.365
40.83000 221.404
40.84000 218.838
40.85000 216.274
40.86000 215.266
40.87000 215.474
40.88000 215.695
40.89000 216.488
40.90000 217.581
40.91000 218.662
40.92000 219.521
40.93000 220.301
40.94000 221.018
40.95000 220.599
40.96000 219.975
40.97000 219.342
40.98000 218.661
40.99000 217.972
41.00000 217.716
41.01000 219.111
41.02000 220.667
41.03000 221.805
41.04000 215.002
41.05000 209.441
41.06000 206.001
41.07000 206.315
41.08000 206.700
41.09000 206.281
41.10000 204.909
41.11000 203.538
41.12000 203.072
41.13000 203.301
41.14000 203.538
41.15000 204.104
41.16000 204.840
41.17000 205.652
41.18000 207.728
41.19000 210.253
41.20000 212.574
41.21000 213.146
41.22000 213.280
41.23000 213.708
41.24000 215.796
41.25000 218.145
41.26000 219.193
41.27000 215.362
41.28000 211.065
41.29000 207.936
41.30000 208.156
41.31000 208.453
41.32000 207.907
41.33000 205.892
41.34000 203.849
41.35000 203.913
41.36000 206.433
41.37000 208.949
41.38000 208.967
41.39000 207.099
41.40000 205.250
41.41000 204.096
41.42000 203.298
41.43000 202.620
41.44000 203.885
41.45000 205.831
41.46000 207.615
41.47000 208.628
41.48000 209.367
41.49000 209.947
41.50000 209.640
41.51000 209.197
41.52000 209.201
41.53000 210.854
41.54000 212.661
41.55000 213.971
41.56000 208.972
41.57000 204.897
41.58000 203.664
41.59000 207.312
41.60000 211.044
41.61000 210.828
41.62000 206.084
41.63000 201.349
41.64000 203.096
41.65000 209.642
41.66000 215.979
41.67000 214.622
41.68000 209.379
41.69000 204.363
41.70000 202.951
41.71000 202.783
41.72000 202.629
41.73000 203.959
41.74000 205.450
41.75000 206.641
41.76000 206.187
41.77000 205.483
41.78000 205.722
41.79000 209.390
41.80000 213.371
41.81000 216.245
41.82000 211.299
41.83000 207.227
41.84000 204.840
41.85000 205.308
41.86000 205.822
41.87000 207.302
41.88000 209.870
41.89000 212.430
41.90000 212.927
41.91000 211.914
41.92000 210.975
41.93000 212.685
41.94000 215.714
41.95000 218.697
41.96000 220.988
41.97000 223.042
41.98000 224.919
41.99000 220.443
42.00000 215.170
42.01000 210.411
42.02000 208.425
42.03000 206.853
42.04000 206.047
42.05000 207.989
42.06000 210.175
42.07000 211.747
42.08000 214.048
42.09000 215.833
42.10000 215.757
42.11000 212.576
42.12000 209.347
42.13000 205.197
42.14000 200.023
42.15000 194.868
42.16000 197.729
42.17000 206.323
42.18000 214.779
42.19000 218.520
42.20000 219.949
42.21000 221.017
42.22000 216.678
42.23000 210.524
42.24000 204.912
42.25000 204.604
42.26000 205.396
42.27000 205.432
42.28000 201.451
42.29000 196.881
42.30000 194.445
42.31000 199.543
42.32000 205.300
42.33000 209.418
42.34000 207.910
42.35000 206.570
42.36000 205.730
42.37000 205.711
42.38000 205.704
42.39000 205.692
42.40000 205.673
42.41000 205.654
42.42000 204.839
42.43000 203.470
42.44000 202.169
42.45000 203.085
42.46000 205.074
42.47000 207.103
42.48000 209.714
42.49000 212.519
42.50000 215.071
42.51000 215.737
42.52000 215.954
42.53000 215.747
42.54000 213.328
42.55000 210.590
42.56000 207.878
42.57000 205.256
42.58000 202.642
42.59000 200.781
42.60000 199.527
42.61000 198.592
42.62000 199.676
42.63000 204.030
42.64000 208.428
42.65000 210.454
42.66000 209.931
42.67000 209.409
42.68000 208.147
42.69000 206.384
42.70000 204.637
42.71000 203.419
42.72000 202.452
42.73000 201.407
42.74000 199.236
42.75000 196.698
42.76000 194.393
42.77000 195.394
42.78000 196.918
42.79000 198.814
42.80000 202.620
42.81000 206.697
42.82000 209.398
42.83000 207.390
42.84000 204.987
42.85000 203.284
42.86000 201.483
42.87000 200.111
42.88000 201.830
42.89000 208.477
42.90000 215.188
42.91000 217.648
42.92000 215.619
42.93000 213.599
42.94000 210.827
42.95000 207.573
42.96000 204.456
42.97000 205.514
42.98000 208.534
42.99000 211.465
43.00000 213.169
43.01000 214.478
43.02000 215.665
43.03000 214.965
43.04000 213.989
43.05000 213.042
43.06000 212.246
43.07000 211.471
43.08000 209.749
43.09000 204.828
43.10000 199.646
43.11000 195.989
43.12000 198.495
43.13000 200.584
43.14000 200.485
43.15000 196.950
43.16000 193.374
43.17000 193.013
43.18000 195.992
43.19000 198.957
43.20000 200.746
43.21000 201.721
43.22000 202.651
43.23000 202.234
43.24000 201.194
43.25000 200.318
43.26000 201.667
43.27000 203.721
43.28000 205.579
43.29000 203.747
43.30000 201.445
43.31000 199.020
43.32000 195.984
43.33000 192.866
43.34000 191.174
43.35000 194.229
43.36000 197.664
43.37000 200.076
43.38000 204.544
43.39000 207.987
43.40000 207.754
43.41000 201.836
43.42000 195.853
43.43000 195.308
43.44000 200.318
43.45000 205.299
43.46000 207.381
43.47000 207.513
43.48000 207.591
43.49000 206.131
43.50000 203.968
43.51000 201.997
43.52000 202.563
43.53000 203.921
43.54000 205.146
43.55000 200.382
43.56000 195.094
43.57000 191.332
43.58000 195.040
43.59000 199.748
43.60000 202.493
43.61000 198.802
43.62000 194.610
43.63000 191.678
43.64000 195.951
43.65000 199.382
43.66000 200.014
43.67000 196.378
43.68000 192.697
43.69000 193.177
43.70000 197.836
43.71000 202.467
43.72000 203.771
43.73000 202.886
43.74000 202.030
43.75000 201.946
43.76000 202.210
43.77000 202.080
43.78000 196.843
43.79000 190.037
43.80000 183.906
43.81000 186.807
43.82000 190.985
43.83000 194.294
43.84000 193.422
43.85000 192.000
43.86000 190.239
43.87000 187.384
43.88000 184.445
43.89000 182.401
43.90000 191.725
43.91000 199.066
43.92000 202.731
43.93000 200.879
43.94000 198.972
43.95000 196.169
43.96000 192.481
43.97000 188.817
43.98000 188.778
43.99000 191.067
44.00000 193.321
44.01000 194.664
44.02000 195.604
44.03000 196.342
44.04000 194.527
44.05000 191.939
44.06000 189.612
44.07000 193.916
44.08000 198.862
44.09000 201.644
44.10000 194.161
44.11000 185.354
44.12000 180.151
44.13000 186.420
44.14000 193.542
44.15000 198.474
44.16000 199.883
44.17000 200.850
44.18000 199.455
44.19000 194.566
44.20000 189.646
44.21000 189.385
44.22000 193.648
44.23000 197.880
44.24000 200.541
44.25000 202.167
44.26000 203.671
44.27000 202.056
44.28000 199.078
44.29000 195.910
44.30000 190.401
44.31000 184.193
44.32000 178.624
44.33000 183.139
44.34000 188.844
44.35000 193.620
44.36000 194.063
44.37000 193.957
44.38000 193.215
44.39000 190.480
44.40000 187.599
44.41000 185.614
44.42000 186.568
44.43000 187.358
44.44000 188.711
44.45000 190.884
44.46000 193.064
44.47000 195.098
44.48000 196.993
44.49000 198.874
44.50000 200.223
44.51000 201.220
44.52000 202.224
44.53000 203.405
44.54000 204.663
44.55000 205.835
44.56000 205.968
44.57000 205.796
44.58000 205.641
44.59000 204.158
44.60000 202.637
44.61000 201.446
44.62000 201.779
44.63000 202.301
44.64000 202.881
44.65000 203.644
44.66000 204.419
44.67000 204.951
44.68000 202.803
44.69000 201.129
44.70000 200.889
44.71000 202.707
44.72000 204.541
44.73000 206.692
44.74000 209.139
44.75000 211.566
44.76000 208.979
44.77000 203.372
44.78000 198.148
44.79000 202.058
44.80000 209.845
44.81000 217.122
44.82000 218.354
44.83000 217.835
44.84000 217.372
44.85000 217.545
44.86000 217.802
44.87000 218.535
44.88000 221.417
44.89000 224.562
44.90000 226.984
44.91000 227.207
44.92000 227.278
44.93000 227.326
44.94000 229.873
44.95000 231.835
44.96000 234.678
44.97000 238.766
44.98000 242.863
44.99000 247.854
45.00000 253.670
45.01000 259.435
45.02000 258.398
45.03000 253.288
45.04000 248.416
45.05000 249.036
45.06000 251.954
45.07000 254.922
45.08000 258.475
45.09000 262.195
45.10000 265.510
45.11000 264.070
45.12000 262.032
45.13000 260.575
45.14000 261.706
45.15000 263.147
45.16000 266.003
45.17000 273.108
45.18000 280.499
45.19000 285.518
45.20000 282.109
45.21000 279.376
45.22000 274.802
45.23000 267.665
45.24000 260.514
45.25000 258.095
45.26000 259.974
45.27000 261.835
45.28000 262.669
45.29000 262.878
45.30000 262.956
45.31000 260.097
45.32000 256.027
45.33000 252.385
45.34000 253.597
45.35000 256.173
45.36000 258.464
45.37000 251.488
45.38000 243.932
45.39000 239.255
45.40000 247.199
45.41000 256.624
45.42000 260.267
45.43000 246.801
45.44000 232.211
45.45000 222.354
45.46000 229.842
45.47000 235.790
45.48000 241.267
45.49000 246.101
45.50000 250.924
45.51000 247.902
45.52000 237.869
45.53000 227.935
45.54000 224.815
45.55000 225.733
45.56000 226.689
45.57000 228.446
45.58000 230.529
45.59000 232.205
45.60000 229.369
45.61000 225.283
45.62000 221.658
45.63000 223.351
45.64000 225.664
45.65000 227.410
45.66000 226.707
45.67000 225.721
45.68000 223.276
45.69000 216.577
45.70000 209.604
45.71000 204.918
45.72000 207.673
45.73000 209.872
45.74000 213.689
45.75000 219.687
45.76000 225.692
45.77000 227.045
45.78000 224.309
45.79000 221.602
45.80000 219.608
45.81000 218.068
45.82000 216.498
45.83000 214.288
45.84000 211.823
45.85000 209.389
45.86000 207.296
45.87000 205.296
45.88000 203.526
45.89000 204.787
45.90000 206.351
45.91000 207.522
45.92000 207.027
45.93000 206.343
45.94000 204.397
45.95000 198.825
45.96000 193.026
45.97000 189.149
45.98000 189.070
45.99000 189.086
46.00000 191.199
46.01000 196.097
46.02000 201.003
46.03000 201.325
46.04000 197.681
46.05000 194.078
46.06000 193.004
46.07000 193.384
46.08000 193.461
46.09000 187.373
46.10000 178.849
46.11000 171.108
46.12000 171.663
46.13000 174.449
46.14000 176.909
46.15000 177.330
46.16000 177.381
46.17000 177.187
46.18000 175.972
46.19000 174.643
46.20000 174.309
46.21000 176.792
46.22000 179.446
46.23000 181.211
46.24000 181.123
46.25000 181.023
46.26000 182.104
46.27000 184.729
46.28000 187.351
46.29000 184.553
46.30000 177.141
46.31000 169.815
46.32000 171.741
46.33000 178.762
46.34000 185.522
46.35000 187.107
46.36000 186.679
46.37000 186.080
46.38000 183.711
46.39000 180.872
46.40000 178.372
46.41000 174.932
46.42000 171.826
46.43000 169.889
46.44000 172.767
46.45000 176.167
46.46000 181.204
46.47000 190.811
46.48000 200.688
46.49000 207.224
46.50000 192.847
46.51000 181.859
46.52000 176.090
46.53000 177.038
46.54000 178.010
46.55000 177.396
46.56000 175.456
46.57000 173.539
46.58000 172.700
46.59000 172.471
46.60000 172.353
46.61000 174.359
46.62000 177.180
46.63000 179.762
46.64000 179.908
46.65000 179.418
46.66000 178.988
46.67000 180.207
46.68000 181.500
46.69000 182.729
46.70000 183.703
46.71000 184.649
46.72000 184.232
46.73000 180.064
46.74000 175.679
46.75000 172.794
46.76000 172.373
46.77000 172.106
46.78000 171.502
46.79000 170.473
46.80000 169.443
46.81000 168.846
46.82000 168.606
46.83000 168.369
46.84000 169.390
46.85000 171.062
46.86000 172.527
46.87000 170.107
46.88000 166.218
46.89000 163.053
46.90000 167.102
46.91000 173.004
46.92000 178.179
46.93000 177.445
46.94000 175.958
46.95000 174.866
46.96000 175.356
46.97000 176.010
46.98000 175.840
46.99000 173.432
47.00000 170.899
47.01000 169.240
47.02000 171.810
47.03000 173.768
47.04000 173.774
47.05000 171.344
47.06000 168.903
47.07000 165.151
47.08000 160.335
47.09000 155.586
47.10000 157.528
47.11000 162.961
47.12000 168.046
47.13000 166.786
47.14000 163.162
47.15000 160.157
47.16000 163.186
47.17000 167.742
47.18000 171.726
47.19000 171.732
47.20000 171.170
47.21000 170.007
47.22000 166.479
47.23000 162.710
47.24000 161.841
47.25000 168.721
47.26000 176.023
47.27000 180.778
47.28000 174.156
47.29000 169.123
47.30000 166.561
47.31000 167.032
47.32000 167.512
47.33000 168.134
47.34000 168.871
47.35000 169.596
47.36000 171.808
47.37000 174.730
47.38000 177.295
47.39000 173.540
47.40000 167.464
47.41000 162.288
47.42000 165.714
47.43000 171.284
47.44000 176.145
47.45000 167.950
47.46000 159.114
47.47000 152.611
47.48000 155.150
47.49000 158.592
47.50000 160.722
47.51000 159.393
47.52000 157.881
47.53000 156.902
47.54000 159.681
47.55000 161.770
47.56000 162.908
47.57000 162.896
47.58000 162.881
47.59000 162.379
47.60000 161.496
47.61000 160.627
47.62000 160.799
47.63000 161.502
47.64000 162.127
47.65000 161.424
47.66000 160.241
47.67000 159.022
47.68000 157.471
47.69000 155.839
47.70000 154.418
47.71000 158.411
47.72000 162.563
47.73000 165.213
47.74000 162.123
47.75000 158.471
47.76000 155.857
47.77000 155.937
47.78000 156.155
47.79000 156.295
47.80000 154.482
47.81000 153.131
47.82000 154.072
47.83000 157.738
47.84000 161.403
47.85000 163.837
47.86000 165.318
47.87000 166.775
47.88000 169.258
47.89000 172.180
47.90000 174.738
47.91000 171.182
47.92000 165.444
47.93000 160.031
47.94000 157.595
47.95000 155.880
47.96000 154.391
47.97000 156.403
47.98000 158.590
47.99000 160.165
48.00000 159.439
48.01000 158.492
48.02000 158.503
48.03000 160.966
48.04000 163.551
48.05000 165.207
48.06000 168.918
48.07000 171.648
48.08000 171.869
48.09000 169.153
48.10000 166.436
48.11000 164.612
48.12000 163.468
48.13000 162.344
48.14000 160.445
48.15000 158.225
48.16000 156.180
48.17000 157.011
48.18000 158.852
48.19000 160.325
48.20000 158.487
48.21000 155.861
48.22000 153.587
48.23000 156.274
48.24000 159.214
48.25000 161.441
48.26000 161.020
48.27000 160.351
48.28000 160.586
48.29000 163.099
48.30000 165.723
48.31000 167.394
48.32000 161.797
48.33000 157.638
48.34000 156.524
48.35000 158.915
48.36000 161.308
48.37000 163.130
48.38000 164.523
48.39000 165.892
48.40000 164.924
48.41000 162.845
48.42000 160.772
48.43000 158.774
48.44000 156.803
48.45000 155.376
48.46000 158.739
48.47000 163.225
48.48000 167.100
48.49000 162.928
48.50000 158.344
48.51000 154.160
48.52000 151.436
48.53000 148.846
48.54000 148.449
48.55000 153.502
48.56000 158.813
48.57000 162.175
48.58000 157.597
48.59000 154.183
48.60000 154.665
48.61000 159.560
48.62000 164.421
48.63000 162.437
48.64000 155.399
48.65000 148.490
48.66000 149.356
48.67000 153.939
48.68000 158.176
48.69000 157.070
48.70000 154.139
48.71000 151.665
48.72000 153.155
48.73000 155.559
48.74000 157.630
48.75000 155.366
48.76000 152.897
48.77000 150.863
48.78000 150.396
48.79000 150.069
48.80000 150.769
48.81000 153.987
48.82000 157.319
48.83000 159.417
48.84000 156.613
48.85000 154.530
48.86000 153.266
48.87000 152.915
48.88000 152.566
48.89000 152.379
48.90000 152.308
48.91000 152.239
48.92000 154.630
48.93000 158.099
48.94000 161.272
48.95000 159.971
48.96000 157.165
48.97000 154.747
48.98000 155.618
48.99000 157.238
49.00000 158.630
49.01000 152.941
49.02000 147.246
49.03000 143.160
49.04000 144.777
49.05000 146.893
49.06000 148.786
49.07000 150.139
49.08000 151.467
49.09000 152.298
49.10000 153.677
49.11000 154.677
49.12000 156.201
49.13000 158.297
49.14000 160.388
49.15000 161.743
49.16000 162.570
49.17000 163.381
49.18000 161.672
49.19000 158.852
49.20000 156.142
49.21000 155.051
49.22000 154.498
49.23000 154.139
49.24000 155.396
49.25000 157.014
49.26000 158.402
49.27000 159.030
49.28000 159.467
49.29000 159.667
49.30000 159.040
49.31000 158.341
49.32000 157.889
49.33000 158.024
49.34000 158.184
49.35000 158.283
49.36000 163.400
49.37000 167.135
49.38000 166.481
49.39000 161.095
49.40000 155.722
49.41000 152.386
49.42000 150.485
49.43000 148.624
49.44000 152.050
49.45000 157.770
49.46000 163.074
49.47000 162.394
49.48000 159.756
49.49000 157.697
49.50000 160.361
49.51000 164.064
49.52000 167.230
49.53000 157.748
49.54000 148.241
49.55000 142.578
49.56000 150.129
49.57000 158.790
49.58000 164.926
49.59000 165.135
49.60000 165.098
49.61000 165.075
49.62000 158.883
49.63000 154.375
49.64000 153.116
49.65000 155.301
49.66000 157.478
49.67000 158.360
49.68000 158.344
49.69000 158.328
49.70000 157.176
49.71000 155.557
49.72000 154.153
49.73000 155.749
49.74000 158.311
49.75000 160.121
49.76000 155.908
49.77000 150.390
49.78000 145.685
49.79000 151.804
49.80000 158.222
49.81000 161.781
49.82000 155.656
49.83000 148.735
49.84000 145.275
49.85000 149.816
49.86000 154.679
49.87000 157.668
49.88000 151.607
49.89000 147.181
49.90000 144.638
49.91000 144.057
49.92000 143.504
49.93000 146.128
49.94000 150.924
49.95000 155.612
49.96000 157.903
49.97000 159.032
49.98000 159.944
49.99000 157.877
50.00000 154.865
50.01000 152.143
50.02000 151.703
50.03000 151.749
50.04000 151.789
50.05000 157.098
50.06000 162.162
50.07000 165.212
50.08000 161.541
50.09000 157.331
50.10000 154.205
50.11000 153.552
50.12000 152.995
50.13000 152.655
50.14000 151.954
50.15000 151.449
50.16000 150.471
50.17000 149.007
50.18000 147.573
50.19000 149.343
50.20000 153.270
50.21000 157.105
50.22000 155.822
50.23000 152.352
50.24000 149.147
50.25000 149.483
50.26000 150.928
50.27000 152.336
50.28000 153.462
50.29000 154.529
50.30000 155.434
50.31000 155.903
50.32000 156.246
50.33000 156.785
50.34000 157.969
50.35000 159.203
50.36000 160.844
50.37000 163.397
50.38000 165.984
50.39000 167.555
50.40000 159.383
50.41000 153.477
50.42000 152.761
50.43000 157.276
50.44000 161.791
50.45000 166.301
50.46000 170.807
50.47000 175.202
50.48000 169.638
50.49000 160.026
50.50000 151.424
50.51000 155.988
50.52000 164.611
50.53000 172.416
50.54000 174.026
50.55000 174.355
50.56000 174.633
50.57000 170.484
50.58000 166.524
50.59000 163.783
50.60000 164.989
50.61000 166.499
50.62000 167.928
50.63000 169.183
50.64000 170.431
50.65000 171.184
50.66000 173.324
50.67000 174.858
50.68000 176.163
50.69000 177.240
50.70000 178.309
50.71000 178.589
50.72000 178.353
50.73000 178.123
50.74000 182.466
50.75000 188.551
50.76000 194.043
50.77000 191.979
50.78000 187.619
50.79000 184.080
50.80000 186.637
50.81000 190.433
50.82000 193.634
50.83000 190.782
50.84000 187.747
50.85000 186.374
50.86000 190.315
50.87000 194.652
50.88000 197.400
50.89000 196.679
50.90000 195.836
50.91000 195.331
50.92000 183.497
50.93000 175.017
50.94000 170.966
50.95000 171.231
50.96000 171.513
50.97000 173.323
50.98000 176.118
50.99000 178.838
51.00000 180.030
51.01000 180.526
51.02000 180.893
51.03000 179.649
51.04000 177.921
51.05000 176.024
51.06000 172.886
51.07000 169.499
51.08000 166.651
51.09000 168.293
51.10000 170.137
51.11000 170.700
51.12000 167.235
51.13000 163.475
51.14000 160.927
51.15000 160.986
51.16000 161.134
51.17000 161.221
51.18000 162.039
51.19000 162.622
51.20000 164.357
51.21000 167.196
51.22000 169.959
51.23000 166.569
51.24000 159.276
51.25000 152.183
51.26000 153.178
51.27000 157.451
51.28000 161.399
51.29000 161.398
51.30000 160.233
51.31000 158.824
51.32000 155.670
51.33000 152.172
51.34000 149.240
51.35000 151.630
51.36000 154.172
51.37000 154.867
51.38000 149.839
51.39000 144.403
51.40000 141.330
51.41000 143.266
51.42000 145.366
51.43000 146.608
51.44000 150.381
51.45000 153.062
51.46000 153.254
51.47000 151.101
51.48000 148.994
51.49000 150.332
51.50000 153.824
51.51000 157.217
51.52000 155.233
51.53000 151.171
51.54000 147.439
51.55000 147.616
51.56000 148.929
51.57000 149.872
51.58000 148.220
51.59000 146.064
51.60000 144.262
51.61000 150.729
51.62000 156.941
51.63000 161.187
51.64000 159.429
51.65000 157.253
51.66000 154.727
51.67000 151.467
51.68000 148.185
51.69000 146.255
51.70000 143.853
51.71000 142.159
51.72000 143.721
51.73000 148.302
51.74000 152.800
51.75000 151.275
51.76000 146.044
51.77000 140.967
51.78000 141.762
51.79000 144.855
51.80000 147.353
51.81000 142.933
51.82000 136.532
51.83000 131.466
51.84000 135.615
51.85000 141.522
51.86000 146.445
51.87000 144.225
51.88000 141.674
51.89000 138.621
51.90000 134.058
51.91000 129.392
51.92000 128.292
51.93000 134.537
51.94000 141.004
51.95000 144.782
51.96000 144.613
51.97000 144.475
51.98000 142.955
51.99000 140.175
52.00000 137.439
52.01000 137.713
52.02000 139.813
52.03000 141.848
52.04000 143.137
52.05000 144.066
52.06000 144.927
52.07000 145.022
52.08000 144.900
52.09000 144.757
52.10000 144.464
52.11000 144.144
52.12000 143.878
52.13000 142.760
52.14000 141.751
52.15000 141.492
52.16000 143.459
52.17000 145.572
52.18000 145.893
52.19000 142.574
52.20000 139.149
52.21000 137.162
52.22000 138.307
52.23000 139.125
52.24000 140.411
52.25000 142.118
52.26000 143.798
52.27000 143.812
52.28000 142.831
52.29000 141.880
52.30000 143.576
52.31000 146.201
52.32000 148.525
52.33000 147.500
52.34000 145.543
52.35000 143.256
52.36000 138.763
52.37000 133.863
52.38000 129.804
52.39000 133.266
52.40000 136.843
52.41000 139.829
52.42000 141.089
52.43000 142.239
52.44000 144.230
52.45000 147.905
52.46000 151.628
52.47000 153.773
52.48000 147.527
52.49000 143.121
52.50000 139.072
52.51000 135.338
52.52000 131.661
52.53000 131.433
52.54000 133.236
52.55000 134.980
52.56000 134.924
52.57000 134.188
52.58000 133.786
52.59000 137.015
52.60000 141.239
52.61000 144.666
52.62000 142.872
52.63000 140.131
52.64000 137.867
52.65000 134.261
52.66000 131.164
52.67000 129.249
52.68000 130.742
52.69000 132.449
52.70000 134.255
52.71000 136.259
52.72000 138.267
52.73000 139.417
52.74000 140.020
52.75000 140.439
52.76000 141.041
52.77000 141.802
52.78000 142.546
52.79000 142.303
52.80000 141.489
52.81000 140.701
52.82000 139.673
52.83000 138.613
52.84000 137.745
52.85000 138.926
52.86000 140.658
52.87000 142.294
52.88000 143.308
52.89000 144.211
52.90000 144.955
52.91000 144.513
52.92000 144.041
52.93000 143.272
52.94000 141.659
52.95000 139.994
52.96000 137.981
52.97000 135.292
52.98000 132.586
52.99000 131.047
53.00000 128.771
53.01000 127.186
53.02000 127.736
53.03000 130.110
53.04000 132.463
53.05000 133.690
53.06000 134.273
53.07000 134.835
53.08000 135.860
53.09000 136.996
53.10000 137.919
53.11000 136.625
53.12000 134.742
53.13000 133.301
53.14000 134.654
53.15000 136.498
53.16000 138.011
53.17000 139.153
53.18000 140.057
53.19000 140.962
53.20000 141.868
53.21000 142.775
53.22000 144.351
53.23000 147.206
53.24000 150.093
53.25000 151.723
53.26000 151.919
53.27000 152.048
53.28000 150.737
53.29000 148.214
53.30000 145.709
53.31000 144.099
53.32000 142.992
53.33000 141.925
53.34000 141.367
53.35000 141.027
53.36000 140.806
53.37000 141.798
53.38000 143.108
53.39000 145.069
53.40000 151.081
53.41000 157.792
53.42000 163.284
53.43000 161.553
53.44000 159.503
53.45000 157.688
53.46000 156.522
53.47000 155.393
53.48000 154.652
53.49000 154.640
53.50000 154.646
53.51000 154.649
53.52000 153.317
53.53000 152.393
53.54000 152.979
53.55000 154.813
53.56000 156.595
53.57000 155.803
53.58000 153.581
53.59000 151.442
53.60000 148.974
53.61000 146.539
53.62000 144.611
53.63000 147.748
53.64000 152.192
53.65000 155.175
53.66000 149.230
53.67000 141.769
53.68000 135.682
53.69000 139.454
53.70000 143.383
53.71000 146.512
53.72000 147.468
53.73000 148.302
53.74000 150.435
53.75000 154.984
53.76000 159.587
53.77000 162.149
53.78000 148.177
53.79000 138.501
53.80000 137.132
53.81000 142.525
53.82000 147.828
53.83000 148.863
53.84000 147.565
53.85000 146.316
53.86000 142.331
53.87000 137.636
53.88000 133.543
53.89000 135.345
53.90000 138.643
53.91000 141.530
53.92000 141.943
53.93000 141.943
53.94000 141.943
53.95000 145.995
53.96000 149.641
53.97000 151.695
53.98000 149.479
53.99000 147.029
54.00000 143.619
54.01000 138.449
54.02000 133.241
54.03000 130.364
54.04000 133.075
54.05000 134.952
54.06000 136.019
54.07000 136.437
54.08000 136.845
54.09000 136.850
54.10000 136.638
54.11000 136.434
54.12000 134.106
54.13000 131.196
54.14000 128.806
54.15000 131.417
54.16000 135.278
54.17000 138.469
54.18000 137.705
54.19000 136.292
54.20000 135.146
54.21000 135.988
54.22000 136.836
54.23000 137.056
54.24000 135.616
54.25000 134.088
54.26000 134.241
54.27000 137.433
54.28000 140.687
54.29000 142.472
54.30000 137.435
54.31000 133.969
54.32000 133.272
54.33000 134.760
54.34000 136.190
54.35000 135.123
54.36000 132.731
54.37000 130.436
54.38000 130.931
54.39000 132.341
54.40000 133.768
54.41000 135.354
54.42000 136.980
54.43000 138.700
54.44000 140.971
54.45000 143.330
54.46000 145.237
54.47000 143.729
54.48000 142.231
54.49000 140.558
54.50000 138.432
54.51000 136.282
54.52000 134.929
54.53000 134.996
54.54000 135.091
54.55000 135.142
54.56000 138.609
54.57000 140.985
54.58000 141.423
54.59000 140.356
54.60000 139.345
54.61000 140.649
54.62000 143.164
54.63000 145.573
54.64000 144.613
54.65000 142.591
54.66000 140.859
54.67000 141.803
54.68000 143.395
54.69000 144.817
54.70000 145.260
54.71000 145.549
54.72000 145.781
54.73000 145.067
54.74000 144.413
54.75000 143.684
54.76000 142.763
54.77000 141.832
54.78000 141.266
54.79000 141.338
54.80000 141.422
54.81000 141.467
54.82000 141.933
54.83000 142.248
54.84000 141.650
54.85000 140.354
54.86000 139.020
54.87000 136.201
54.88000 132.616
54.89000 129.185
54.90000 133.383
54.91000 139.802
54.92000 145.402
54.93000 143.614
54.94000 140.062
54.95000 137.264
54.96000 138.707
54.97000 140.810
54.98000 142.498
54.99000 141.539
55.00000 140.560
55.01000 140.558
55.02000 143.025
55.03000 145.613
55.04000 145.097
55.05000 139.215
55.06000 133.239
55.07000 130.034
55.08000 133.769
55.09000 136.311
55.10000 136.089
55.11000 133.787
55.12000 131.603
55.13000 133.856
55.14000 138.363
55.15000 142.670
55.16000 141.432
55.17000 138.488
55.18000 135.930
55.19000 136.793
55.20000 138.460
55.21000 139.439
55.22000 136.617
55.23000 133.214
55.24000 130.491
55.25000 134.520
55.26000 138.280
55.27000 141.549
55.28000 143.594
55.29000 145.581
55.30000 147.835
55.31000 150.544
55.32000 153.261
55.33000 154.707
55.34000 150.507
55.35000 147.654
55.36000 146.853
55.37000 147.572
55.38000 148.312
55.39000 149.767
55.40000 151.580
55.41000 153.311
55.42000 156.974
55.43000 160.991
55.44000 164.587
55.45000 164.531
55.46000 163.629
55.47000 162.355
55.48000 159.053
55.49000 155.447
55.50000 152.572
55.51000 154.464
55.52000 156.337
55.53000 158.168
55.54000 159.895
55.55000 161.617
55.56000 163.949
55.57000 167.307
55.58000 170.681
55.59000 172.463
55.60000 172.525
55.61000 172.574
55.62000 173.723
55.63000 175.677
55.64000 177.720
55.65000 182.872
55.66000 189.559
55.67000 195.933
55.68000 201.953
55.69000 207.423
55.70000 212.962
55.71000 219.085
55.72000 225.341
55.73000 231.087
55.74000 234.107
55.75000 236.725
55.76000 238.804
55.77000 246.446
55.78000 252.996
55.79000 261.985
55.80000 276.882
55.81000 292.043
55.82000 306.658
55.83000 320.372
55.84000 334.073
55.85000 341.252
55.86000 363.959
55.87000 379.316
55.88000 390.494
55.89000 398.670
55.90000 407.076
55.91000 423.139
55.92000 442.930
55.93000 461.766
55.94000 477.599
55.95000 491.329
55.96000 504.319
55.97000 511.129
55.98000 516.552
55.99000 521.800
56.00000 526.128
56.01000 530.323
56.02000 533.645
56.03000 544.290
56.04000 553.355
56.05000 561.040
56.06000 565.435
56.07000 569.687
56.08000 570.513
56.09000 565.760
56.10000 560.929
56.11000 558.418
56.12000 554.159
56.13000 551.247
56.14000 543.327
56.15000 531.865
56.16000 520.506
56.17000 512.456
56.18000 505.993
56.19000 499.851
56.20000 488.952
56.21000 477.439
56.22000 465.629
56.23000 451.392
56.24000 436.617
56.25000 421.632
56.26000 405.552
56.27000 389.316
56.28000 376.505
56.29000 358.295
56.30000 343.320
56.31000 329.315
56.32000 317.592
56.33000 305.963
56.34000 296.032
56.35000 288.823
56.36000 281.650
56.37000 277.951
56.38000 264.313
56.39000 255.139
56.40000 247.637
56.41000 241.299
56.42000 235.074
56.43000 232.333
56.44000 231.239
56.45000 230.200
56.46000 218.601
56.47000 204.749
56.48000 192.384
56.49000 191.963
56.50000 194.142
56.51000 195.484
56.52000 192.570
56.53000 189.060
56.54000 186.300
56.55000 184.451
56.56000 183.031
56.57000 179.769
56.58000 172.234
56.59000 164.525
56.60000 161.088
56.61000 164.405
56.62000 167.806
56.63000 169.545
56.64000 161.594
56.65000 156.261
56.66000 151.882
56.67000 148.159
56.68000 144.664
56.69000 147.982
56.70000 154.473
56.71000 160.625
56.72000 154.378
56.73000 144.985
56.74000 136.948
56.75000 139.607
56.76000 144.556
56.77000 148.657
56.78000 148.509
56.79000 147.776
56.80000 147.203
56.81000 141.520
56.82000 136.650
56.83000 133.683
56.84000 135.069
56.85000 136.625
56.86000 137.133
56.87000 136.009
56.88000 134.867
56.89000 134.287
56.90000 135.652
56.91000 136.572
56.92000 137.993
56.93000 139.753
56.94000 141.394
56.95000 139.606
56.96000 136.245
56.97000 133.064
56.98000 131.341
56.99000 130.177
57.00000 129.173
57.01000 129.414
57.02000 129.918
57.03000 130.052
57.04000 128.367
57.05000 126.436
57.06000 124.929
57.07000 127.619
57.08000 130.027
57.09000 132.722
57.10000 136.062
57.11000 139.426
57.12000 140.715
57.13000 138.819
57.14000 136.888
57.15000 135.917
57.16000 125.793
57.17000 119.105
57.18000 120.007
57.19000 125.962
57.20000 131.737
57.21000 132.555
57.22000 131.129
57.23000 129.782
57.24000 134.196
57.25000 139.886
57.26000 144.358
57.27000 139.578
57.28000 132.878
57.29000 126.889
57.30000 124.350
57.31000 122.268
57.32000 120.649
57.33000 120.435
57.34000 120.351
57.35000 121.174
57.36000 124.015
57.37000 126.930
57.38000 128.583
57.39000 128.329
57.40000 128.055
57.41000 125.660
57.42000 121.156
57.43000 116.747
57.44000 121.317
57.45000 131.774
57.46000 141.813
57.47000 140.670
57.48000 134.539
57.49000 128.753
57.50000 128.890
57.51000 130.669
57.52000 132.162
57.53000 131.520
57.54000 130.442
57.55000 129.825
57.56000 131.406
57.57000 133.274
57.58000 134.722
57.59000 128.189
57.60000 122.523
57.61000 119.485
57.62000 122.202
57.63000 125.122
57.64000 124.666
57.65000 119.182
57.66000 113.652
57.67000 113.566
57.68000 118.804
57.69000 123.998
57.70000 125.347
57.71000 124.211
57.72000 123.235
57.73000 126.394
57.74000 131.372
57.75000 136.061
57.76000 137.437
57.77000 137.785
57.78000 137.557
57.79000 133.107
57.80000 127.810
57.81000 123.945
57.82000 126.814
57.83000 130.542
57.84000 133.421
57.85000 128.452
57.86000 124.056
57.87000 123.422
57.88000 130.912
57.89000 138.678
57.90000 139.908
57.91000 131.554
57.92000 123.117
57.93000 120.450
57.94000 123.331
57.95000 126.171
57.96000 125.632
57.97000 122.943
57.98000 120.463
57.99000 123.211
58.00000 128.223
58.01000 132.939
58.02000 131.075
58.03000 127.594
58.04000 124.471
58.05000 123.922
58.06000 123.881
58.07000 124.210
58.08000 126.254
58.09000 128.513
58.10000 130.250
58.11000 126.828
58.12000 123.828
58.13000 122.176
58.14000 123.392
58.15000 124.703
58.16000 125.876
58.17000 126.851
58.18000 127.825
58.19000 126.211
58.20000 122.153
58.21000 118.125
58.22000 116.443
58.23000 116.230
58.24000 116.170
58.25000 119.812
58.26000 125.036
58.27000 129.942
58.28000 129.842
58.29000 128.420
58.30000 126.942
58.31000 125.070
58.32000 123.122
58.33000 121.680
58.34000 122.543
58.35000 123.690
58.36000 124.569
58.37000 121.023
58.38000 117.978
58.39000 115.675
58.40000 114.925
58.41000 114.224
58.42000 113.818
58.43000 113.833
58.44000 113.850
58.45000 115.353
58.46000 118.238
58.47000 121.127
58.48000 124.383
58.49000 127.863
58.50000 131.052
58.51000 127.389
58.52000 120.842
58.53000 114.703
58.54000 116.553
58.55000 120.327
58.56000 124.129
58.57000 128.130
58.58000 132.169
58.59000 134.564
58.60000 129.589
58.61000 123.725
58.62000 119.249
58.63000 121.776
58.64000 124.144
58.65000 123.511
58.66000 116.676
58.67000 109.652
58.68000 108.006
58.69000 113.892
58.70000 119.827
58.71000 122.480
58.72000 122.130
58.73000 121.772
58.74000 120.907
58.75000 119.734
58.76000 118.589
58.77000 118.070
58.78000 117.811
58.79000 117.568
58.80000 116.203
58.81000 114.674
58.82000 113.239
58.83000 112.452
58.84000 111.786
58.85000 112.359
58.86000 118.395
58.87000 125.077
58.88000 130.159
58.89000 128.238
58.90000 126.360
58.91000 124.936
58.92000 124.433
58.93000 123.957
58.94000 121.939
58.95000 117.796
58.96000 113.641
58.97000 113.720
58.98000 117.608
58.99000 121.435
59.00000 121.381
59.01000 119.000
59.02000 116.571
59.03000 113.061
59.04000 109.110
59.05000 105.417
59.06000 111.973
59.07000 120.516
59.08000 127.373
59.09000 122.944
59.10000 116.426
59.11000 111.552
59.12000 113.822
59.13000 116.921
59.14000 119.269
59.15000 117.606
59.16000 116.097
59.17000 115.864
59.18000 118.192
59.19000 120.593
59.20000 121.482
59.21000 120.317
59.22000 119.142
59.23000 118.099
59.24000 117.175
59.25000 116.237
59.26000 114.376
59.27000 111.972
59.28000 109.741
59.29000 111.236
59.30000 114.233
59.31000 117.029
59.32000 119.984
59.33000 122.701
59.34000 125.021
59.35000 124.730
59.36000 123.964
59.37000 122.817
59.38000 120.041
59.39000 117.079
59.40000 114.844
59.41000 118.348
59.42000 121.378
59.43000 122.833
59.44000 121.170
59.45000 119.424
59.46000 117.338
59.47000 114.799
59.48000 112.259
59.49000 113.845
59.50000 119.015
59.51000 124.102
59.52000 124.357
59.53000 121.800
59.54000 119.412
59.55000 120.512
59.56000 122.999
59.57000 125.315
59.58000 124.225
59.59000 122.405
59.60000 120.796
59.61000 120.555
59.62000 120.559
59.63000 120.024
59.64000 117.219
59.65000 114.161
59.66000 111.863
59.67000 111.787
59.68000 111.834
59.69000 112.256
59.70000 113.410
59.71000 114.583
59.72000 117.151
59.73000 121.555
59.74000 125.964
59.75000 127.991
59.76000 127.977
59.77000 127.948
59.78000 127.049
59.79000 125.652
59.80000 124.253
59.81000 122.800
59.82000 121.326
59.83000 119.955
59.84000 121.467
59.85000 123.525
59.86000 124.631
59.87000 119.691
59.88000 113.686
59.89000 109.330
59.90000 111.814
59.91000 115.046
59.92000 117.466
59.93000 119.873
59.94000 121.750
59.95000 121.256
59.96000 116.205
59.97000 111.040
59.98000 110.394
59.99000 115.601
60.00000 120.827
60.01000 123.156
60.02000 123.040
60.03000 122.898
60.04000 121.384
60.05000 119.093
60.06000 116.848
60.07000 115.491
60.08000 114.477
60.09000 113.535
60.10000 114.109
60.11000 114.985
60.12000 116.098
60.13000 118.683
60.14000 121.525
60.15000 123.222
60.16000 120.245
60.17000 116.767
60.18000 114.174
60.19000 120.028
60.20000 124.970
60.21000 127.074
60.22000 123.802
60.23000 120.402
60.24000 117.891
60.25000 116.513
60.26000 115.141
60.27000 116.410
60.28000 119.862
60.29000 123.237
60.30000 122.855
60.31000 120.381
60.32000 118.123
60.33000 119.978
60.34000 123.397
60.35000 126.565
60.36000 124.375
60.37000 121.157
60.38000 118.590
60.39000 120.015
60.40000 122.119
60.41000 123.564
60.42000 122.355
60.43000 120.867
60.44000 119.762
60.45000 118.776
60.46000 118.015
60.47000 117.660
60.48000 118.062
60.49000 118.480
60.50000 119.088
60.51000 119.932
60.52000 120.777
60.53000 118.643
60.54000 114.092
60.55000 109.657
60.56000 110.725
60.57000 114.812
60.58000 118.807
60.59000 121.123
60.60000 122.809
60.61000 124.368
60.62000 124.017
60.63000 123.264
60.64000 122.565
60.65000 122.193
60.66000 121.876
60.67000 121.403
60.68000 120.312
60.69000 119.158
60.70000 118.304
60.71000 117.903
60.72000 117.611
60.73000 117.139
60.74000 116.334
60.75000 115.522
60.76000 114.507
60.77000 113.241
60.78000 111.977
60.79000 113.728
60.80000 117.885
60.81000 121.971
60.82000 122.875
60.83000 122.059
60.84000 121.233
60.85000 120.230
60.86000 119.162
60.87000 118.176
60.88000 117.339
60.89000 116.623
60.90000 115.969
60.91000 115.690
60.92000 115.472
60.93000 115.753
60.94000 117.985
60.95000 120.413
60.96000 122.201
60.97000 126.366
60.98000 129.689
60.99000 130.625
61.00000 127.236
61.01000 123.757
61.02000 123.434
61.03000 126.949
61.04000 130.467
61.05000 128.809
61.06000 123.082
61.07000 117.550
61.08000 120.468
61.09000 127.887
61.10000 134.856
61.11000 133.980
61.12000 130.246
61.13000 126.805
61.14000 125.129
61.15000 124.020
61.16000 123.395
61.17000 125.591
61.18000 128.244
61.19000 129.942
61.20000 127.972
61.21000 125.640
61.22000 123.930
61.23000 120.848
61.24000 118.412
61.25000 117.734
61.26000 120.194
61.27000 122.717
61.28000 124.128
61.29000 124.209
61.30000 124.287
61.31000 124.249
61.32000 124.122
61.33000 124.011
61.34000 124.568
61.35000 125.475
61.36000 126.147
61.37000 122.836
61.38000 118.095
61.39000 113.733
61.40000 113.190
61.41000 113.536
61.42000 114.418
61.43000 118.369
61.44000 122.810
61.45000 125.987
61.46000 124.383
61.47000 122.317
61.48000 120.809
61.49000 129.571
61.50000 136.727
61.51000 143.346
61.52000 149.018
61.53000 154.673
61.54000 166.367
61.55000 185.178
61.56000 203.955
61.57000 219.561
61.58000 232.656
61.59000 245.691
61.60000 256.377
61.61000 265.847
61.62000 274.940
61.63000 277.812
61.64000 278.481
61.65000 279.096
61.66000 285.168
61.67000 291.751
61.68000 297.080
61.69000 295.337
61.70000 292.487
61.71000 290.019
61.72000 288.971
61.73000 288.058
61.74000 287.394
61.75000 276.594
61.76000 267.902
61.77000 258.937
61.78000 249.500
61.79000 240.055
61.80000 229.161
61.81000 216.589
61.82000 204.047
61.83000 188.629
61.84000 171.156
61.85000 153.972
61.86000 147.754
61.87000 147.127
61.88000 146.526
61.89000 146.335
61.90000 146.287
61.91000 146.244
61.92000 139.227
61.93000 131.512
61.94000 125.329
61.95000 127.635
61.96000 131.245
61.97000 133.683
61.98000 131.811
61.99000 129.541
62.00000 127.897
62.01000 131.011
62.02000 133.577
62.03000 133.440
62.04000 128.687
62.05000 123.855
62.06000 122.409
62.07000 124.825
62.08000 127.237
62.09000 127.856
62.10000 127.147
62.11000 126.477
62.12000 127.206
62.13000 128.637
62.14000 130.179
62.15000 133.447
62.16000 137.309
62.17000 140.841
62.18000 140.540
62.19000 139.479
62.20000 137.681
62.21000 131.862
62.22000 125.435
62.23000 121.274
62.24000 125.314
62.25000 130.097
62.26000 133.544
62.27000 133.932
62.28000 134.121
62.29000 132.316
62.30000 127.153
62.31000 121.936
62.32000 120.375
62.33000 122.916
62.34000 125.452
62.35000 127.787
62.36000 129.956
62.37000 132.019
62.38000 130.397
62.39000 126.948
62.40000 123.726
62.41000 123.953
62.42000 125.350
62.43000 126.625
62.44000 126.727
62.45000 126.580
62.46000 126.807
62.47000 129.037
62.48000 131.565
62.49000 133.252
62.50000 131.939
62.51000 130.360
62.52000 129.227
62.53000 131.275
62.54000 132.950
62.55000 132.911
62.56000 130.030
62.57000 127.106
62.58000 126.257
62.59000 127.697
62.60000 129.134
62.61000 131.297
62.62000 133.961
62.63000 136.606
62.64000 138.647
62.65000 140.393
62.66000 141.938
62.67000 140.483
62.68000 138.028
62.69000 135.790
62.70000 137.287
62.71000 139.359
62.72000 140.534
62.73000 136.970
62.74000 132.716
62.75000 130.639
62.76000 136.205
62.77000 142.435
62.78000 146.884
62.79000 141.690
62.80000 137.406
62.81000 134.016
62.82000 132.087
62.83000 130.179
62.84000 128.206
62.85000 126.164
62.86000 124.130
62.87000 124.949
62.88000 127.766
62.89000 130.567
62.90000 132.867
62.91000 134.926
62.92000 136.793
62.93000 135.864
62.94000 134.015
62.95000 132.333
62.96000 132.316
62.97000 132.627
62.98000 133.220
62.99000 135.276
63.00000 137.542
63.01000 139.924
63.02000 142.709
63.03000 145.528
63.04000 147.533
63.05000 137.768
63.06000 129.955
63.07000 124.650
63.08000 123.383
63.09000 122.170
63.10000 123.746
63.11000 128.300
63.12000 132.834
63.13000 133.428
63.14000 131.289
63.15000 129.340
63.16000 133.271
63.17000 139.991
63.18000 146.232
63.19000 145.685
63.20000 142.938
63.21000 140.444
63.22000 139.070
63.23000 138.071
63.24000 137.234
63.25000 137.215
63.26000 137.312
63.27000 136.694
63.28000 133.640
63.29000 130.384
63.30000 128.080
63.31000 128.274
63.32000 128.499
63.33000 130.572
63.34000 135.575
63.35000 140.615
63.36000 140.844
63.37000 136.020
63.38000 131.218
63.39000 131.759
63.40000 135.930
63.41000 139.916
63.42000 138.361
63.43000 134.218
63.44000 130.449
63.45000 131.874
63.46000 134.957
63.47000 137.750
63.48000 138.435
63.49000 138.638
63.50000 138.749
63.51000 138.393
63.52000 137.973
63.53000 138.174
63.54000 140.465
63.55000 142.925
63.56000 144.658
63.57000 139.136
63.58000 134.732
63.59000 133.347
63.60000 136.681
63.61000 140.072
63.62000 141.907
63.63000 142.137
63.64000 142.366
63.65000 142.019
63.66000 141.290
63.67000 140.511
63.68000 138.258
63.69000 135.326
63.70000 132.865
63.71000 136.753
63.72000 142.642
63.73000 147.964
63.74000 146.922
63.75000 144.820
63.76000 142.464
63.77000 138.846
63.78000 135.058
63.79000 133.402
63.80000 138.803
63.81000 144.762
63.82000 148.941
63.83000 146.820
63.84000 145.034
63.85000 144.455
63.86000 145.736
63.87000 147.038
63.88000 147.648
63.89000 147.554
63.90000 147.461
63.91000 148.329
63.92000 149.818
63.93000 151.224
63.94000 150.303
63.95000 148.325
63.96000 146.518
63.97000 146.950
63.98000 148.076
63.99000 149.092
64.00000 148.699
64.01000 148.095
64.02000 148.064
64.03000 150.819
64.04000 153.944
64.05000 155.090
64.06000 149.777
64.07000 143.964
64.08000 139.906
64.09000 147.586
64.10000 153.712
64.11000 155.630
64.12000 151.170
64.13000 146.644
64.14000 146.086
64.15000 149.490
64.16000 152.873
64.17000 153.877
64.18000 153.325
64.19000 152.733
64.20000 151.047
64.21000 148.872
64.22000 146.840
64.23000 146.659
64.24000 147.043
64.25000 147.390
64.26000 149.766
64.27000 152.214
64.28000 154.018
64.29000 152.737
64.30000 151.054
64.31000 149.571
64.32000 148.736
64.33000 147.949
64.34000 147.403
64.35000 151.438
64.36000 154.601
64.37000 156.880
64.38000 157.839
64.39000 158.786
64.40000 159.361
64.41000 159.571
64.42000 159.780
64.43000 157.060
64.44000 152.512
64.45000 148.180
64.46000 149.469
64.47000 153.238
64.48000 156.875
64.49000 158.871
64.50000 160.371
64.51000 161.720
64.52000 159.834
64.53000 157.613
64.54000 156.802
64.55000 162.640
64.56000 169.330
64.57000 173.373
64.58000 169.030
64.59000 164.068
64.60000 160.638
64.61000 162.338
64.62000 163.748
64.63000 167.678
64.64000 175.313
64.65000 182.981
64.66000 184.027
64.67000 178.680
64.68000 173.372
64.69000 172.497
64.70000 174.421
64.71000 176.248
64.72000 175.641
64.73000 173.976
64.74000 172.785
64.75000 177.418
64.76000 183.779
64.77000 189.481
64.78000 183.099
64.79000 175.430
64.80000 169.733
64.81000 173.189
64.82000 177.798
64.83000 181.138
64.84000 180.518
64.85000 179.613
64.86000 178.990
64.87000 171.267
64.88000 165.296
64.89000 163.730
64.90000 168.547
64.91000 173.416
64.92000 178.531
64.93000 183.879
64.94000 189.185
64.95000 186.847
64.96000 179.825
64.97000 173.146
64.98000 174.816
64.99000 180.065
65.00000 184.848
65.01000 184.037
65.02000 181.591
65.03000 179.403
65.04000 187.746
65.05000 196.813
65.06000 203.814
65.07000 201.370
65.08000 197.760
65.09000 194.215
65.10000 190.868
65.11000 187.536
65.12000 185.254
65.13000 192.155
65.14000 197.542
65.15000 200.755
65.16000 200.869
65.17000 200.959
65.18000 201.828
65.19000 203.425
65.20000 205.008
65.21000 205.348
65.22000 204.924
65.23000 204.450
65.24000 202.786
65.25000 200.620
65.26000 199.086
65.27000 204.979
65.28000 213.012
65.29000 220.182
65.30000 220.372
65.31000 219.371
65.32000 220.197
65.33000 229.236
65.34000 239.270
65.35000 246.409
65.36000 244.770
65.37000 242.530
65.38000 241.005
65.39000 241.216
65.40000 241.414
65.41000 243.493
65.42000 248.212
65.43000 252.952
65.44000 259.738
65.45000 268.404
65.46000 276.993
65.47000 286.217
65.48000 295.644
65.49000 304.839
65.50000 308.757
65.51000 310.476
65.52000 313.187
65.53000 327.286
65.54000 344.617
65.55000 360.051
65.56000 362.687
65.57000 362.878
65.58000 365.048
65.59000 375.985
65.60000 387.963
65.61000 399.451
65.62000 409.472
65.63000 419.394
65.64000 426.120
65.65000 480.389
65.66000 521.899
65.67000 567.114
65.68000 617.458
65.69000 667.852
65.70000 745.823
65.71000 848.702
65.72000 950.608
65.73000 1069.063
65.74000 1194.848
65.75000 1320.146
65.76000 1434.650
65.77000 1544.724
65.78000 1652.315
65.79000 1732.011
65.80000 1803.903
65.81000 1867.778
65.82000 1910.341
65.83000 1943.821
65.84000 1974.629
65.85000 1993.787
65.86000 2011.588
65.87000 2016.501
65.88000 1983.482
65.89000 1947.990
65.90000 1924.056
65.91000 1894.056
65.92000 1871.608
65.93000 1825.588
65.94000 1747.454
65.95000 1669.112
65.96000 1564.494
65.97000 1436.528
65.98000 1309.849
65.99000 1181.029
66.00000 1053.736
66.01000 927.649
66.02000 827.469
66.03000 737.767
66.04000 651.112
66.05000 597.934
66.06000 553.981
66.07000 515.018
66.08000 492.713
66.09000 476.039
66.10000 459.221
66.11000 441.785
66.12000 424.278
66.13000 408.888
66.14000 399.637
66.15000 390.776
66.16000 384.831
66.17000 386.448
66.18000 387.802
66.19000 389.194
66.20000 390.636
66.21000 392.081
66.22000 395.841
66.23000 401.625
66.24000 407.347
66.25000 424.101
66.26000 446.770
66.27000 469.125
66.28000 484.936
66.29000 498.138
66.30000 511.386
66.31000 525.121
66.32000 538.989
66.33000 551.255
66.34000 571.992
66.35000 591.230
66.36000 607.687
66.37000 612.393
66.38000 615.783
66.39000 620.747
66.40000 630.212
66.41000 639.956
66.42000 646.460
66.43000 638.989
66.44000 633.184
66.45000 629.810
66.46000 629.647
66.47000 629.485
66.48000 619.451
66.49000 600.926
66.50000 582.611
66.51000 563.012
66.52000 543.157
66.53000 522.964
66.54000 495.915
66.55000 466.172
66.56000 437.459
66.57000 419.584
66.58000 404.608
66.59000 391.393
66.60000 390.057
66.61000 390.716
66.62000 389.022
66.63000 377.530
66.64000 364.962
66.65000 354.222
66.66000 348.635
66.67000 343.359
66.68000 339.856
66.69000 342.802
66.70000 345.099
66.71000 345.374
66.72000 343.019
66.73000 340.662
66.74000 343.153
66.75000 349.748
66.76000 356.265
66.77000 357.775
66.78000 356.482
66.79000 355.358
66.80000 357.549
66.81000 361.023
66.82000 364.372
66.83000 366.420
66.84000 368.124
66.85000 369.625
66.86000 370.917
66.87000 371.998
66.88000 373.046
66.89000 373.959
66.90000 374.857
66.91000 374.375
66.92000 370.057
66.93000 365.514
66.94000 362.514
66.95000 372.344
66.96000 379.822
66.97000 378.153
66.98000 364.779
66.99000 351.381
67.00000 347.888
67.01000 352.644
67.02000 357.341
67.03000 368.750
67.04000 383.514
67.05000 397.512
67.06000 396.896
67.07000 390.702
67.08000 384.665
67.09000 380.214
67.10000 376.175
67.11000 372.627
67.12000 382.359
67.13000 392.675
67.14000 400.691
67.15000 399.421
67.16000 397.171
67.17000 396.064
67.18000 398.083
67.19000 400.280
67.20000 401.724
67.21000 409.172
67.22000 414.756
67.23000 413.252
67.24000 402.819
67.25000 392.381
67.26000 391.650
67.27000 398.878
67.28000 406.009
67.29000 408.148
67.30000 407.555
67.31000 406.989
67.32000 406.933
67.33000 407.068
67.34000 407.822
67.35000 414.689
67.36000 423.118
67.37000 430.503
67.38000 424.704
67.39000 417.827
67.40000 411.487
67.41000 407.281
67.42000 403.295
67.43000 402.720
67.44000 411.344
67.45000 420.480
67.46000 426.449
67.47000 426.832
67.48000 427.023
67.49000 425.380
67.50000 421.462
67.51000 417.553
67.52000 418.839
67.53000 424.318
67.54000 429.720
67.55000 435.919
67.56000 442.360
67.57000 448.659
67.58000 452.372
67.59000 455.127
67.60000 457.833
67.61000 460.077
67.62000 462.204
67.63000 464.063
67.64000 460.921
67.65000 457.522
67.66000 453.949
67.67000 449.696
67.68000 445.374
67.69000 445.551
67.70000 457.692
67.71000 470.478
67.72000 478.787
67.73000 473.336
67.74000 469.131
67.75000 467.174
67.76000 467.962
67.77000 468.762
67.78000 471.457
67.79000 475.657
67.80000 479.795
67.81000 482.846
67.82000 485.245
67.83000 487.409
67.84000 485.465
67.85000 482.020
67.86000 479.334
67.87000 483.853
67.88000 490.158
67.89000 495.655
67.90000 493.186
67.91000 489.970
67.92000 487.778
67.93000 489.542
67.94000 491.698
67.95000 496.207
67.96000 506.882
67.97000 517.880
67.98000 524.989
67.99000 524.415
68.00000 523.883
68.01000 519.129
68.02000 509.303
68.03000 499.499
68.04000 498.647
68.05000 504.792
68.06000 510.842
68.07000 517.755
68.08000 524.895
68.09000 531.667
68.10000 532.148
68.11000 530.363
68.12000 529.732
68.13000 539.827
68.14000 552.540
68.15000 563.596
68.16000 556.837
68.17000 548.642
68.18000 543.725
68.19000 551.262
68.20000 560.009
68.21000 567.803
68.22000 573.135
68.23000 578.342
68.24000 581.688
68.25000 581.327
68.26000 581.012
68.27000 585.906
68.28000 596.958
68.29000 608.003
68.30000 614.884
68.31000 618.560
68.32000 622.176
68.33000 620.547
68.34000 616.335
68.35000 612.679
68.36000 618.260
68.37000 627.121
68.38000 635.857
68.39000 643.448
68.40000 650.764
68.41000 657.110
68.42000 664.618
68.43000 671.167
68.44000 676.778
68.45000 678.878
68.46000 680.644
68.47000 683.403
68.48000 688.690
68.49000 694.103
68.50000 697.563
68.51000 721.856
68.52000 739.812
68.53000 754.365
68.54000 764.961
68.55000 775.541
68.56000 784.076
68.57000 791.061
68.58000 797.928
68.59000 831.308
68.60000 876.690
68.61000 921.435
68.62000 955.857
68.63000 986.667
68.64000 1018.059
68.65000 1054.651
68.66000 1092.475
68.67000 1125.203
68.68000 1181.403
68.69000 1232.258
68.70000 1281.629
68.71000 1325.533
68.72000 1368.929
68.73000 1414.014
68.74000 1463.339
68.75000 1512.867
68.76000 1544.342
68.77000 1598.561
68.78000 1638.219
68.79000 1688.269
68.80000 1750.213
68.81000 1812.192
68.82000 1878.466
68.83000 1947.944
68.84000 2016.185
68.85000 2121.504
68.86000 2241.239
68.87000 2365.404
68.88000 2559.410
68.89000 2777.502
68.90000 3027.322
68.91000 3554.936
68.92000 4147.307
68.93000 4658.559
68.94000 6422.335
68.95000 8080.129
68.96000 10006.896
68.97000 12910.204
68.98000 15902.441
68.99000 19105.123
69.00000 22828.367
69.01000 26575.877
69.02000 28943.711
69.03000 33139.609
69.04000 36201.383
69.05000 38669.449
69.06000 40468.945
69.07000 42264.230
69.08000 43427.141
69.09000 44125.613
69.10000 44811.098
69.11000 45402.574
69.12000 45927.875
69.13000 46467.879
69.14000 47233.746
69.15000 48076.379
69.16000 48870.988
69.17000 49253.258
69.18000 49540.883
69.19000 49788.477
69.20000 48323.824
69.21000 46867.266
69.22000 45108.922
69.23000 42271.160
69.24000 39337.230
69.25000 36429.121
69.26000 33583.980
69.27000 30741.689
69.28000 28956.215
69.29000 26943.924
69.30000 25486.611
69.31000 24432.686
69.32000 23825.625
69.33000 23219.961
69.34000 22789.129
69.35000 22484.732
69.36000 22186.250
69.37000 21520.525
69.38000 20706.277
69.39000 19853.436
69.40000 18422.648
69.41000 16798.273
69.42000 15142.156
69.43000 13218.748
69.44000 11234.939
69.45000 9531.703
69.46000 7761.184
69.47000 6255.994
69.48000 4900.229
69.49000 4070.997
69.50000 3287.654
69.51000 2638.164
69.52000 2310.349
69.53000 1996.627
69.54000 1800.707
69.55000 1596.451
69.56000 1449.032
69.57000 1337.994
69.58000 1266.603
69.59000 1195.370
69.60000 1144.431
69.61000 1107.945
69.62000 1072.198
69.63000 1026.985
69.64000 979.110
69.65000 932.298
69.66000 901.022
69.67000 874.873
69.68000 849.847
69.69000 834.090
69.70000 820.395
69.71000 808.668
69.72000 786.998
69.73000 767.505
69.74000 748.728
69.75000 732.435
69.76000 716.354
69.77000 700.099
69.78000 683.430
69.79000 666.744
69.80000 656.385
69.81000 649.941
69.82000 645.341
69.83000 638.826
69.84000 630.256
69.85000 621.665
69.86000 610.168
69.87000 596.635
69.88000 583.388
69.89000 578.214
69.90000 576.934
69.91000 575.352
69.92000 569.480
69.93000 562.211
69.94000 554.567
69.95000 543.876
69.96000 532.518
69.97000 522.818
69.98000 516.307
69.99000 511.201
70.00000 505.281
