20.00000 486.291
20.01000 484.875
20.02000 483.256
20.03000 482.416
20.04000 484.645
20.05000 487.187
20.06000 489.065
20.07000 487.438
20.08000 486.029
20.09000 482.877
20.10000 476.534
20.11000 470.124
20.12000 469.627
20.13000 476.405
20.14000 483.191
20.15000 489.577
20.16000 495.618
20.17000 501.438
20.18000 497.394
20.19000 488.042
20.20000 479.376
20.21000 482.890
20.22000 490.888
20.23000 498.269
20.24000 492.831
20.25000 485.086
20.26000 479.112
20.27000 483.586
20.28000 489.771
20.29000 494.196
20.30000 491.779
20.31000 488.677
20.32000 486.396
20.33000 483.531
20.34000 481.291
20.35000 478.377
20.36000 474.248
20.37000 470.094
20.38000 468.785
20.39000 470.919
20.40000 473.056
20.41000 476.187
20.42000 480.080
20.43000 484.050
20.44000 491.238
20.45000 500.133
20.46000 508.102
20.47000 500.055
20.48000 486.197
20.49000 473.431
20.50000 468.929
20.51000 466.720
20.52000 464.826
20.53000 464.761
20.54000 464.991
20.55000 465.998
20.56000 469.979
20.57000 474.253
20.58000 477.382
20.59000 475.198
20.60000 473.300
20.61000 473.568
20.62000 477.688
20.63000 481.883
20.64000 488.412
20.65000 497.720
20.66000 507.012
20.67000 504.457
20.68000 492.780
20.69000 481.309
20.70000 478.220
20.71000 479.513
20.72000 480.592
20.73000 478.065
20.74000 474.248
20.75000 470.739
20.76000 468.911
20.77000 467.642
20.78000 466.520
20.79000 466.236
20.80000 466.084
20.81000 467.042
20.82000 472.180
20.83000 477.718
20.84000 481.757
20.85000 477.925
20.86000 474.668
20.87000 473.824
20.88000 477.207
20.89000 480.668
20.90000 478.813
20.91000 470.725
20.92000 462.647
20.93000 465.946
20.94000 477.854
20.95000 489.453
20.96000 488.974
20.97000 482.273
20.98000 475.662
20.99000 470.517
21.00000 465.889
21.01000 461.642
21.02000 465.932
21.03000 471.574
21.04000 477.148
21.05000 482.349
21.06000 487.491
21.07000 492.064
21.08000 494.527
21.09000 496.791
21.10000 498.435
21.11000 499.777
21.12000 500.797
21.13000 498.764
21.14000 491.460
21.15000 484.064
21.16000 479.039
21.17000 476.748
21.18000 474.468
21.19000 472.846
21.20000 471.727
21.21000 470.670
21.22000 471.939
21.23000 474.390
21.24000 476.761
21.25000 477.870
21.26000 478.541
21.27000 479.155
21.28000 470.268
21.29000 460.371
21.30000 452.314
21.31000 454.414
21.32000 458.067
21.33000 463.030
21.34000 472.785
21.35000 482.980
21.36000 490.351
21.37000 481.507
21.38000 474.132
21.39000 474.084
21.40000 486.498
21.41000 499.119
21.42000 500.501
21.43000 489.126
21.44000 477.774
21.45000 472.177
21.46000 470.849
21.47000 469.591
21.48000 470.896
21.49000 473.482
21.50000 475.834
21.51000 474.530
21.52000 471.976
21.53000 469.640
21.54000 473.899
21.55000 479.039
21.56000 483.848
21.57000 486.854
21.58000 489.590
21.59000 490.122
21.60000 482.712
21.61000 474.587
21.62000 468.739
21.63000 467.580
21.64000 466.857
21.65000 467.708
21.66000 471.196
21.67000 474.725
21.68000 480.895
21.69000 490.015
21.70000 499.105
21.71000 499.117
21.72000 492.571
21.73000 486.214
21.74000 486.378
21.75000 489.758
21.76000 493.217
21.77000 497.868
21.78000 502.920
21.79000 507.531
21.80000 506.500
21.81000 504.447
21.82000 503.174
21.83000 506.065
21.84000 509.572
21.85000 514.293
21.86000 523.329
21.87000 532.745
21.88000 539.492
21.89000 542.512
21.90000 544.692
21.91000 545.226
21.92000 543.041
21.93000 540.815
21.94000 541.270
21.95000 544.669
21.96000 548.057
21.97000 562.915
21.98000 585.787
21.99000 607.913
22.00000 605.216
22.01000 590.456
22.02000 576.595
22.03000 576.027
22.04000 579.878
22.05000 583.385
22.06000 588.048
22.07000 592.407
22.08000 597.387
22.09000 605.630
22.10000 614.346
22.11000 622.480
22.12000 628.580
22.13000 634.504
22.14000 638.730
22.15000 635.017
22.16000 631.925
22.17000 629.191
22.18000 627.036
22.19000 624.890
22.20000 620.128
22.21000 612.539
22.22000 604.980
22.23000 594.859
22.24000 583.048
22.25000 571.437
22.26000 566.211
22.27000 564.044
22.28000 561.987
22.29000 561.529
22.30000 561.594
22.31000 561.653
22.32000 556.573
22.33000 551.081
22.34000 546.149
22.35000 544.121
22.36000 542.506
22.37000 539.062
22.38000 529.317
22.39000 519.042
22.40000 511.745
22.41000 500.915
22.42000 492.562
22.43000 492.429
22.44000 505.473
22.45000 518.690
22.46000 517.890
22.47000 502.194
22.48000 486.567
22.49000 483.251
22.50000 488.443
22.51000 493.484
22.52000 493.865
22.53000 492.046
22.54000 490.058
22.55000 485.697
22.56000 480.570
22.57000 475.920
22.58000 470.444
22.59000 465.454
22.60000 461.888
22.61000 465.562
22.62000 470.249
22.63000 472.225
22.64000 464.999
22.65000 457.016
22.66000 451.373
22.67000 449.029
22.68000 447.351
22.69000 449.858
22.70000 458.975
22.71000 468.174
22.72000 471.960
22.73000 470.089
22.74000 468.226
22.75000 465.546
22.76000 462.343
22.77000 459.189
22.78000 457.447
22.79000 456.363
22.80000 455.080
22.81000 451.068
22.82000 446.188
22.83000 441.770
22.84000 443.030
22.85000 445.210
22.86000 446.523
22.87000 443.499
22.88000 439.881
22.89000 437.837
22.90000 441.058
22.91000 444.704
22.92000 447.269
22.93000 448.199
22.94000 448.856
22.95000 446.325
22.96000 438.835
22.97000 431.287
22.98000 429.755
22.99000 434.402
23.00000 439.025
23.01000 443.710
23.02000 448.378
23.03000 452.973
23.04000 455.479
23.05000 457.027
23.06000 458.029
23.07000 451.714
23.08000 443.104
23.09000 435.326
23.10000 441.059
23.11000 448.601
23.12000 454.014
23.13000 448.946
23.14000 442.465
23.15000 437.199
23.16000 435.937
23.17000 434.988
23.18000 434.324
23.19000 438.556
23.20000 441.895
23.21000 445.306
23.22000 448.825
23.23000 452.345
23.24000 454.424
23.25000 455.046
23.26000 455.666
23.27000 452.613
23.28000 447.193
23.29000 441.820
23.30000 437.701
23.31000 434.149
23.32000 431.161
23.33000 435.549
23.34000 442.215
23.35000 448.225
23.36000 444.035
23.37000 438.503
23.38000 433.728
23.39000 432.626
23.40000 432.010
23.41000 429.989
23.42000 423.402
23.43000 416.465
23.44000 411.630
23.45000 428.471
23.46000 441.777
23.47000 447.210
23.48000 440.761
23.49000 434.192
23.50000 431.112
23.51000 431.498
23.52000 431.881
23.53000 433.952
23.54000 437.082
23.55000 439.939
23.56000 435.518
23.57000 427.855
23.58000 420.968
23.59000 423.994
23.60000 430.039
23.61000 435.476
23.62000 434.336
23.63000 432.162
23.64000 429.488
23.65000 424.427
23.66000 419.056
23.67000 417.193
23.68000 426.554
23.69000 436.758
23.70000 443.836
23.71000 434.032
23.72000 426.203
23.73000 423.161
23.74000 427.239
23.75000 431.383
23.76000 433.464
23.77000 433.528
23.78000 433.591
23.79000 430.507
23.80000 425.472
23.81000 420.904
23.82000 428.389
23.83000 441.167
23.84000 452.481
23.85000 445.531
23.86000 433.101
23.87000 421.943
23.88000 416.109
23.89000 411.940
23.90000 408.360
23.91000 407.538
23.92000 407.068
23.93000 407.082
23.94000 408.621
23.95000 410.272
23.96000 411.412
23.97000 424.798
23.98000 435.170
23.99000 436.717
24.00000 425.342
24.01000 413.855
24.02000 409.918
24.03000 413.231
24.04000 416.520
24.05000 421.732
24.06000 428.061
24.07000 434.210
24.08000 435.874
24.09000 435.598
24.10000 434.962
24.11000 429.946
24.12000 423.635
24.13000 417.982
24.14000 417.063
24.15000 417.076
24.16000 417.689
24.17000 421.071
24.18000 424.800
24.19000 429.711
24.20000 438.294
24.21000 447.139
24.22000 453.215
24.23000 442.842
24.24000 434.659
24.25000 427.788
24.26000 422.806
24.27000 417.841
24.28000 414.631
24.29000 413.081
24.30000 411.543
24.31000 411.753
24.32000 413.034
24.33000 414.331
24.34000 416.007
24.35000 417.845
24.36000 419.055
24.37000 412.760
24.38000 404.281
24.39000 396.702
24.40000 406.733
24.41000 418.456
24.42000 429.641
24.43000 438.380
24.44000 446.818
24.45000 451.515
24.46000 444.753
24.47000 437.192
24.48000 432.024
24.49000 425.286
24.50000 420.206
24.51000 418.081
24.52000 420.151
24.53000 422.251
24.54000 421.159
24.55000 417.101
24.56000 413.077
24.57000 414.008
24.58000 417.921
24.59000 421.888
24.60000 427.139
24.61000 432.931
24.62000 437.908
24.63000 433.393
24.64000 426.154
24.65000 419.698
24.66000 424.243
24.67000 430.025
24.68000 433.645
24.69000 427.584
24.70000 420.357
24.71000 416.086
24.72000 420.732
24.73000 425.985
24.74000 429.558
24.75000 425.393
24.76000 422.108
24.77000 414.465
24.78000 400.727
24.79000 386.953
24.80000 384.657
24.81000 392.846
24.82000 400.961
24.83000 408.057
24.84000 414.405
24.85000 420.423
24.86000 418.961
24.87000 414.399
24.88000 410.027
24.89000 407.823
24.90000 406.232
24.91000 404.816
24.92000 406.622
24.93000 408.717
24.94000 410.118
24.95000 408.461
24.96000 406.444
24.97000 404.657
24.98000 403.559
24.99000 402.507
25.00000 401.794
25.01000 407.207
25.02000 411.373
25.03000 413.007
25.04000 411.154
25.05000 409.281
25.06000 408.387
25.07000 408.373
25.08000 408.359
25.09000 411.986
25.10000 417.672
25.11000 423.090
25.12000 422.646
25.13000 419.807
25.14000 416.637
25.15000 409.775
25.16000 401.884
25.17000 394.878
25.18000 396.000
25.19000 398.275
25.20000 400.319
25.21000 401.362
25.22000 402.287
25.23000 403.497
25.24000 405.540
25.25000 407.636
25.26000 409.047
25.27000 413.578
25.28000 417.011
25.29000 415.522
25.30000 407.357
25.31000 399.161
25.32000 397.071
25.33000 400.382
25.34000 403.659
25.35000 409.996
25.36000 417.959
25.37000 425.375
25.38000 421.125
25.39000 412.177
25.40000 404.099
25.41000 405.507
25.42000 409.519
25.43000 413.072
25.44000 409.497
25.45000 405.281
25.46000 401.929
25.47000 402.269
25.48000 403.028
25.49000 403.175
25.50000 401.553
25.51000 399.820
25.52000 398.659
25.53000 401.211
25.54000 403.178
25.55000 402.460
25.56000 398.155
25.57000 393.834
25.58000 392.175
25.59000 392.829
25.60000 393.476
25.61000 393.315
25.62000 392.698
25.63000 392.462
25.64000 400.118
25.65000 410.906
25.66000 420.688
25.67000 419.715
25.68000 415.835
25.69000 412.407
25.70000 410.955
25.71000 410.006
25.72000 408.712
25.73000 405.964
25.74000 403.054
25.75000 399.280
25.76000 393.045
25.77000 386.659
25.78000 382.403
25.79000 388.565
25.80000 393.327
25.81000 393.458
25.82000 387.501
25.83000 381.528
25.84000 382.729
25.85000 390.070
25.86000 397.327
25.87000 394.101
25.88000 385.095
25.89000 376.852
25.90000 383.913
25.91000 396.962
25.92000 408.947
25.93000 409.805
25.94000 407.700
25.95000 405.844
25.96000 404.037
25.97000 402.487
25.98000 401.659
25.99000 403.828
26.00000 406.324
26.01000 406.818
26.02000 401.697
26.03000 396.239
26.04000 392.621
26.05000 393.724
26.06000 394.625
26.07000 397.372
26.08000 402.506
26.09000 407.639
26.10000 407.074
26.11000 401.711
26.12000 396.413
26.13000 397.522
26.14000 402.128
26.15000 406.325
26.16000 402.567
26.17000 395.740
26.18000 389.789
26.19000 392.799
26.20000 398.159
26.21000 402.873
26.22000 401.902
26.23000 400.220
26.24000 398.711
26.25000 397.910
26.26000 397.185
26.27000 395.430
26.28000 390.827
26.29000 386.059
26.30000 382.915
26.31000 390.802
26.32000 396.809
26.33000 402.479
26.34000 407.719
26.35000 412.946
26.36000 412.763
26.37000 408.095
26.38000 403.486
26.39000 398.223
26.40000 392.743
26.41000 387.451
26.42000 385.717
26.43000 385.336
26.44000 385.518
26.45000 391.352
26.46000 398.646
26.47000 405.047
26.48000 396.001
26.49000 385.973
26.50000 379.443
26.51000 386.968
26.52000 395.966
26.53000 401.066
26.54000 395.541
26.55000 389.413
26.56000 385.394
26.57000 391.544
26.58000 396.236
26.59000 397.946
26.60000 395.915
26.61000 393.872
26.62000 391.879
26.63000 389.927
26.64000 388.001
26.65000 385.392
26.66000 382.492
26.67000 379.825
26.68000 381.447
26.69000 384.676
26.70000 387.815
26.71000 390.062
26.72000 392.083
26.73000 393.852
26.74000 386.411
26.75000 378.708
26.76000 373.735
26.77000 379.557
26.78000 386.488
26.79000 390.285
26.80000 385.665
26.81000 380.581
26.82000 377.264
26.83000 382.481
26.84000 386.444
26.85000 390.031
26.86000 393.154
26.87000 396.272
26.88000 398.540
26.89000 400.126
26.90000 401.689
26.91000 398.062
26.92000 391.818
26.93000 385.491
26.94000 377.693
26.95000 369.352
26.96000 362.228
26.97000 366.817
26.98000 374.340
26.99000 380.910
27.00000 389.642
27.01000 397.421
27.02000 402.963
27.03000 399.788
27.04000 395.736
27.05000 393.018
27.06000 393.835
27.07000 394.841
27.08000 395.493
27.09000 382.983
27.10000 373.623
27.11000 368.346
27.12000 368.027
27.13000 367.722
27.14000 368.324
27.15000 369.644
27.16000 370.943
27.17000 373.929
27.18000 377.696
27.19000 381.294
27.20000 381.957
27.21000 381.551
27.22000 381.421
27.23000 383.888
27.24000 386.996
27.25000 389.704
27.26000 384.519
27.27000 379.000
27.28000 374.676
27.29000 374.935
27.30000 375.646
27.31000 375.292
27.32000 372.159
27.33000 368.881
27.34000 366.766
27.35000 366.490
27.36000 366.314
27.37000 369.494
27.38000 376.686
27.39000 383.870
27.40000 386.880
27.41000 386.642
27.42000 386.407
27.43000 386.623
27.44000 387.061
27.45000 387.248
27.46000 383.184
27.47000 377.595
27.48000 372.715
27.49000 374.387
27.50000 377.650
27.51000 380.486
27.52000 379.676
27.53000 378.491
27.54000 377.864
27.55000 379.348
27.56000 381.037
27.57000 383.702
27.58000 388.879
27.59000 394.182
27.60000 397.585
27.61000 390.345
27.62000 384.923
27.63000 378.945
27.64000 372.313
27.65000 365.711
27.66000 366.225
27.67000 372.188
27.68000 378.054
27.69000 374.933
27.70000 367.420
27.71000 360.780
27.72000 368.533
27.73000 381.374
27.74000 392.692
27.75000 390.216
27.76000 384.439
27.77000 379.431
27.78000 375.941
27.79000 373.171
27.80000 369.978
27.81000 365.204
27.82000 360.282
27.83000 355.696
27.84000 351.962
27.85000 348.270
27.86000 345.914
27.87000 355.466
27.88000 362.568
27.89000 367.235
27.90000 369.083
27.91000 370.906
27.92000 368.289
27.93000 362.322
27.94000 356.459
27.95000 362.442
27.96000 374.056
27.97000 384.867
27.98000 382.810
27.99000 376.270
28.00000 369.950
28.01000 365.591
28.02000 361.695
28.03000 358.326
28.04000 367.441
28.05000 376.814
28.06000 382.745
28.07000 376.045
28.08000 368.178
28.09000 363.699
28.10000 367.685
28.11000 372.074
28.12000 374.859
28.13000 370.791
28.14000 367.756
28.15000 369.161
28.16000 375.624
28.17000 382.077
28.18000 385.524
28.19000 386.742
28.20000 387.937
28.21000 388.398
28.22000 388.487
28.23000 388.478
28.24000 386.950
28.25000 384.899
28.26000 383.050
28.27000 382.952
28.28000 383.260
28.29000 383.526
28.30000 376.489
28.31000 369.587
28.32000 366.659
28.33000 378.095
28.34000 390.830
28.35000 397.478
28.36000 389.136
28.37000 380.102
28.38000 374.404
28.39000 367.086
28.40000 361.769
28.41000 362.074
28.42000 368.677
28.43000 375.239
28.44000 373.973
28.45000 366.985
28.46000 360.128
28.47000 363.330
28.48000 371.213
28.49000 378.457
28.50000 375.960
28.51000 370.167
28.52000 364.525
28.53000 360.170
28.54000 356.110
28.55000 352.618
28.56000 350.827
28.57000 349.525
28.58000 349.890
28.59000 356.189
28.60000 363.014
28.61000 367.714
28.62000 367.258
28.63000 366.571
28.64000 366.140
28.65000 361.949
28.66000 358.880
28.67000 357.956
28.68000 359.398
28.69000 360.818
28.70000 358.536
28.71000 353.590
28.72000 348.741
28.73000 353.897
28.74000 363.555
28.75000 372.516
28.76000 371.137
28.77000 366.309
28.78000 361.740
28.79000 359.338
28.80000 357.423
28.81000 355.780
28.82000 357.198
28.83000 358.773
28.84000 358.778
28.85000 353.276
28.86000 347.298
28.87000 345.480
28.88000 353.615
28.89000 362.182
28.90000 367.523
28.91000 367.885
28.92000 368.095
28.93000 366.153
28.94000 361.880
28.95000 357.638
28.96000 357.921
28.97000 361.412
28.98000 364.832
28.99000 361.732
29.00000 355.739
29.01000 350.452
29.02000 355.380
29.03000 363.664
29.04000 371.537
29.05000 376.024
29.06000 379.762
29.07000 382.960
29.08000 373.154
29.09000 363.316
29.10000 353.946
29.11000 346.199
29.12000 338.588
29.13000 335.631
29.14000 343.648
29.15000 352.126
29.16000 357.379
29.17000 351.357
29.18000 346.917
29.19000 348.624
29.20000 356.884
29.21000 365.094
29.22000 366.623
29.23000 363.487
29.24000 360.418
29.25000 357.955
29.26000 355.865
29.27000 353.610
29.28000 349.019
29.29000 343.672
29.30000 339.962
29.31000 349.446
29.32000 361.806
29.33000 372.353
29.34000 367.913
29.35000 362.405
29.36000 358.563
29.37000 360.399
29.38000 362.704
29.39000 364.139
29.40000 363.552
29.41000 362.883
29.42000 362.471
29.43000 368.568
29.44000 373.002
29.45000 373.184
29.46000 368.904
29.47000 364.662
29.48000 364.938
29.49000 368.321
29.50000 371.628
29.51000 374.622
29.52000 377.352
29.53000 379.513
29.54000 373.833
29.55000 365.651
29.56000 359.178
29.57000 366.217
29.58000 376.157
29.59000 384.615
29.60000 377.380
29.61000 369.483
29.62000 362.986
29.63000 361.183
29.64000 359.761
29.65000 359.595
29.66000 362.312
29.67000 365.142
29.68000 366.874
29.69000 367.922
29.70000 368.666
29.71000 369.715
29.72000 371.078
29.73000 372.464
29.74000 376.383
29.75000 382.018
29.76000 387.521
29.77000 385.015
29.78000 379.086
29.79000 373.981
29.80000 379.967
29.81000 389.441
29.82000 397.714
29.83000 396.667
29.84000 393.652
29.85000 391.092
29.86000 398.698
29.87000 406.231
29.88000 413.944
29.89000 422.254
29.90000 430.611
29.91000 435.706
29.92000 433.431
29.93000 430.875
29.94000 429.320
29.95000 429.467
29.96000 429.585
29.97000 430.407
29.98000 431.944
29.99000 433.524
30.00000 439.545
30.01000 448.530
30.02000 457.297
30.03000 456.130
30.04000 450.708
30.05000 446.045
30.06000 451.352
30.07000 459.750
30.08000 467.069
30.09000 466.171
30.10000 463.566
30.11000 461.361
30.12000 455.069
30.13000 449.348
30.14000 444.644
30.15000 443.255
30.16000 442.122
30.17000 439.187
30.18000 432.241
30.19000 425.147
30.20000 420.858
30.21000 426.592
30.22000 430.750
30.23000 432.106
30.24000 430.668
30.25000 429.261
30.26000 430.860
30.27000 434.435
30.28000 437.920
30.29000 430.849
30.30000 419.594
30.31000 408.918
30.32000 405.696
30.33000 404.749
30.34000 403.881
30.35000 403.603
30.36000 403.446
30.37000 403.313
30.38000 411.750
30.39000 419.733
30.40000 422.672
30.41000 409.421
30.42000 394.948
30.43000 388.342
30.44000 398.994
30.45000 410.258
30.46000 417.027
30.47000 401.286
30.48000 389.943
30.49000 387.080
30.50000 392.530
30.51000 397.975
30.52000 403.018
30.53000 407.801
30.54000 412.459
30.55000 412.744
30.56000 411.180
30.57000 409.230
30.58000 402.448
30.59000 394.211
30.60000 388.039
30.61000 397.028
30.62000 409.069
30.63000 419.202
30.64000 418.828
30.65000 417.394
30.66000 416.590
30.67000 417.779
30.68000 419.116
30.69000 420.556
30.70000 422.221
30.71000 423.893
30.72000 424.892
30.73000 423.144
30.74000 421.886
30.75000 420.990
30.76000 420.441
30.77000 419.900
30.78000 420.055
30.79000 420.654
30.80000 421.236
30.81000 422.467
30.82000 423.907
30.83000 425.384
30.84000 427.312
30.85000 429.374
30.86000 431.778
30.87000 436.644
30.88000 441.998
30.89000 446.490
30.90000 453.915
30.91000 460.403
30.92000 465.855
30.93000 468.075
30.94000 470.064
30.95000 471.146
30.96000 470.298
30.97000 469.385
30.98000 468.844
30.99000 494.166
31.00000 512.230
31.01000 521.424
31.02000 522.210
31.03000 523.215
31.04000 541.252
31.05000 569.985
31.06000 597.914
31.07000 619.589
31.08000 637.648
31.09000 656.676
31.10000 687.312
31.11000 721.341
31.12000 755.851
31.13000 793.773
31.14000 832.361
31.15000 864.649
31.16000 927.078
31.17000 982.039
31.18000 1040.410
31.19000 1109.261
31.20000 1178.847
31.21000 1253.795
31.22000 1340.008
31.23000 1426.579
31.24000 1477.606
31.25000 1669.934
31.26000 1806.429
31.27000 1918.948
31.28000 2009.117
31.29000 2099.584
31.30000 2211.943
31.31000 2337.846
31.32000 2460.094
31.33000 2556.854
31.34000 2638.494
31.35000 2719.003
31.36000 2786.275
31.37000 2849.737
31.38000 2913.128
31.39000 2976.028
31.40000 3038.833
31.41000 3091.231
31.42000 3058.631
31.43000 3023.068
31.44000 2990.739
31.45000 2968.197
31.46000 2946.324
31.47000 2910.828
31.48000 2847.121
31.49000 2782.550
31.50000 2744.741
31.51000 2597.513
31.52000 2493.306
31.53000 2376.294
31.54000 2247.540
31.55000 2118.914
31.56000 1999.153
31.57000 1884.797
31.58000 1773.877
31.59000 1676.308
31.60000 1589.092
31.61000 1502.015
31.62000 1416.532
31.63000 1331.502
31.64000 1249.765
31.65000 1190.522
31.66000 1135.523
31.67000 1089.773
31.68000 1006.991
31.69000 934.830
31.70000 874.406
31.71000 848.997
31.72000 825.924
31.73000 797.930
31.74000 759.891
31.75000 721.557
31.76000 699.260
31.77000 654.509
31.78000 622.980
31.79000 599.487
31.80000 583.241
31.81000 567.104
31.82000 558.010
31.83000 553.147
31.84000 548.434
31.85000 532.388
31.86000 512.806
31.87000 494.339
31.88000 488.371
31.89000 485.894
31.90000 482.635
31.91000 474.128
31.92000 464.646
31.93000 456.782
31.94000 436.980
31.95000 419.472
31.96000 408.113
31.97000 414.833
31.98000 422.728
31.99000 425.168
32.00000 416.637
32.01000 407.795
32.02000 402.687
32.03000 395.840
32.04000 391.036
32.05000 386.371
32.06000 381.830
32.07000 377.317
32.08000 374.572
32.09000 372.873
32.10000 371.229
32.11000 372.781
32.12000 375.469
32.13000 377.419
32.14000 371.278
32.15000 362.910
32.16000 355.621
32.17000 355.442
32.18000 356.561
32.19000 357.486
32.20000 362.039
32.21000 366.134
32.22000 367.448
32.23000 360.701
32.24000 353.444
32.25000 350.125
32.26000 354.615
32.27000 359.318
32.28000 362.016
32.29000 351.276
32.30000 343.729
32.31000 344.641
32.32000 352.938
32.33000 361.096
32.34000 361.168
32.35000 356.526
32.36000 352.039
32.37000 352.277
32.38000 354.277
32.39000 355.396
32.40000 347.053
32.41000 336.146
32.42000 327.233
32.43000 331.247
32.44000 337.582
32.45000 342.804
32.46000 341.637
32.47000 340.087
32.48000 338.112
32.49000 334.922
32.50000 331.656
32.51000 333.370
32.52000 344.811
32.53000 356.505
32.54000 363.169
32.55000 355.465
32.56000 350.044
32.57000 342.861
32.58000 334.164
32.59000 325.664
32.60000 328.041
32.61000 336.665
32.62000 344.993
32.63000 344.732
32.64000 341.309
32.65000 337.945
32.66000 335.196
32.67000 332.611
32.68000 330.746
32.69000 333.459
32.70000 336.980
32.71000 339.875
32.72000 338.751
32.73000 337.467
32.74000 336.408
32.75000 335.985
32.76000 335.600
32.77000 333.799
32.78000 329.270
32.79000 324.672
32.80000 322.070
32.81000 316.792
32.82000 313.120
32.83000 313.960
32.84000 318.613
32.85000 323.120
32.86000 319.995
32.87000 312.549
32.88000 305.368
32.89000 310.966
32.90000 320.882
32.91000 329.495
32.92000 324.690
32.93000 316.357
32.94000 309.571
32.95000 312.473
32.96000 317.058
32.97000 320.814
32.98000 317.733
32.99000 314.604
33.00000 311.479
33.01000 308.364
33.02000 305.251
33.03000 303.795
33.04000 305.485
33.05000 307.249
33.06000 308.241
33.07000 311.586
33.08000 313.902
33.09000 310.954
33.10000 303.627
33.11000 296.484
33.12000 298.501
33.13000 305.629
33.14000 312.496
33.15000 308.476
33.16000 300.801
33.17000 293.874
33.18000 294.476
33.19000 297.029
33.20000 300.457
33.21000 309.264
33.22000 318.990
33.23000 326.933
33.24000 323.069
33.25000 318.890
33.26000 312.815
33.27000 301.560
33.28000 290.010
33.29000 285.528
33.30000 294.261
33.31000 303.297
33.32000 308.338
33.33000 310.921
33.34000 312.701
33.35000 313.461
33.36000 313.386
33.37000 313.246
33.38000 309.960
33.39000 304.944
33.40000 300.118
33.41000 297.133
33.42000 294.981
33.43000 292.779
33.44000 290.087
33.45000 287.269
33.46000 286.066
33.47000 294.624
33.48000 304.820
33.49000 313.121
33.50000 310.648
33.51000 307.720
33.52000 305.132
33.53000 303.462
33.54000 301.842
33.55000 297.930
33.56000 289.794
33.57000 281.566
33.58000 277.008
33.59000 288.417
33.60000 296.314
33.61000 300.766
33.62000 302.442
33.63000 304.098
33.64000 304.870
33.65000 305.162
33.66000 305.443
33.67000 301.954
33.68000 297.379
33.69000 293.176
33.70000 292.563
33.71000 292.854
33.72000 293.172
33.73000 293.660
33.74000 294.175
33.75000 294.593
33.76000 299.209
33.77000 303.317
33.78000 305.470
33.79000 302.427
33.80000 299.104
33.81000 295.303
33.82000 290.634
33.83000 285.948
33.84000 283.370
33.85000 293.776
33.86000 300.945
33.87000 302.619
33.88000 299.934
33.89000 297.286
33.90000 296.207
33.91000 295.967
33.92000 295.736
33.93000 295.771
33.94000 295.895
33.95000 295.943
33.96000 295.271
33.97000 294.421
33.98000 294.032
33.99000 296.334
34.00000 299.074
34.01000 301.290
34.02000 298.391
34.03000 295.620
34.04000 291.883
34.05000 285.614
34.06000 279.212
34.07000 279.086
34.08000 290.190
34.09000 301.517
34.10000 307.700
34.11000 297.770
34.12000 290.938
34.13000 286.856
34.14000 284.922
34.15000 283.046
34.16000 283.568
34.17000 285.352
34.18000 287.062
34.19000 284.960
34.20000 281.718
34.21000 278.724
34.22000 278.033
34.23000 277.904
34.24000 278.502
34.25000 283.272
34.26000 288.708
34.27000 293.090
34.28000 291.958
34.29000 290.604
34.30000 289.556
34.31000 289.296
34.32000 289.076
34.33000 286.456
34.34000 279.602
34.35000 272.668
34.36000 268.911
34.37000 276.215
34.38000 281.235
34.39000 287.247
34.40000 294.022
34.41000 300.548
34.42000 297.224
34.43000 288.792
34.44000 280.721
34.45000 278.467
34.46000 278.289
34.47000 278.219
34.48000 279.132
34.49000 280.280
34.50000 281.482
34.51000 282.992
34.52000 284.550
34.53000 285.801
34.54000 283.490
34.55000 281.342
34.56000 281.789
34.57000 288.834
34.58000 296.204
34.59000 298.285
34.60000 291.173
34.61000 283.896
34.62000 279.983
34.63000 278.607
34.64000 277.684
34.65000 279.673
34.66000 283.867
34.67000 287.956
34.68000 288.064
34.69000 286.138
34.70000 284.297
34.71000 288.134
34.72000 293.551
34.73000 298.206
34.74000 296.057
34.75000 292.299
34.76000 289.401
34.77000 291.281
34.78000 293.896
34.79000 295.990
34.80000 291.493
34.81000 287.360
34.82000 283.260
34.83000 279.246
34.84000 275.235
34.85000 275.233
34.86000 282.093
34.87000 289.070
34.88000 292.794
34.89000 287.931
34.90000 284.615
34.91000 281.942
34.92000 279.747
34.93000 277.756
34.94000 283.200
34.95000 292.387
34.96000 301.160
34.97000 296.396
34.98000 287.638
34.99000 280.248
35.00000 284.823
35.01000 292.183
35.02000 297.756
35.03000 293.559
35.04000 287.884
35.05000 283.354
35.06000 276.764
35.07000 271.292
35.08000 266.613
35.09000 263.896
35.10000 261.270
35.11000 261.385
35.12000 266.121
35.13000 270.932
35.14000 273.479
35.15000 278.858
35.16000 282.476
35.17000 279.093
35.18000 270.576
35.19000 262.335
35.20000 263.826
35.21000 270.144
35.22000 276.169
35.23000 285.513
35.24000 295.226
35.25000 303.758
35.26000 302.162
35.27000 298.245
35.28000 294.129
35.29000 288.949
35.30000 283.610
35.31000 279.363
35.32000 276.555
35.33000 274.396
35.34000 272.733
35.35000 272.280
35.36000 271.881
35.37000 271.747
35.38000 272.053
35.39000 272.366
35.40000 272.530
35.41000 263.400
35.42000 257.245
35.43000 257.059
35.44000 261.185
35.45000 265.317
35.46000 269.682
35.47000 274.161
35.48000 278.426
35.49000 276.210
35.50000 272.149
35.51000 268.910
35.52000 272.570
35.53000 277.789
35.54000 282.967
35.55000 287.933
35.56000 292.868
35.57000 296.780
35.58000 283.553
35.59000 271.715
35.60000 263.202
35.61000 262.668
35.62000 262.482
35.63000 262.851
35.64000 264.128
35.65000 265.418
35.66000 266.090
35.67000 262.588
35.68000 260.269
35.69000 265.012
35.70000 274.778
35.71000 284.069
35.72000 277.937
35.73000 264.370
35.74000 251.468
35.75000 248.964
35.76000 249.819
35.77000 250.905
35.78000 253.907
35.79000 257.333
35.80000 260.728
35.81000 263.957
35.82000 267.162
35.83000 269.693
35.84000 272.972
35.85000 275.656
35.86000 278.249
35.87000 280.629
35.88000 283.000
35.89000 280.510
35.90000 270.180
35.91000 259.743
35.92000 254.347
35.93000 261.099
35.94000 265.661
35.95000 271.059
35.96000 277.044
35.97000 282.726
35.98000 278.962
35.99000 270.708
36.00000 262.871
36.01000 262.918
36.02000 265.325
36.03000 267.559
36.04000 268.390
36.05000 268.913
36.06000 269.731
36.07000 272.054
36.08000 274.590
36.09000 276.587
36.10000 267.264
36.11000 259.040
36.12000 254.977
36.13000 260.616
36.14000 266.653
36.15000 268.856
36.16000 264.966
36.17000 260.998
36.18000 258.963
36.19000 259.557
36.20000 259.964
36.21000 261.319
36.22000 263.327
36.23000 265.285
36.24000 265.753
36.25000 265.523
36.26000 265.305
36.27000 261.652
36.28000 257.271
36.29000 254.015
36.30000 259.685
36.31000 267.277
36.32000 273.115
36.33000 270.110
36.34000 265.882
36.35000 262.565
36.36000 257.171
36.37000 252.723
36.38000 248.898
36.39000 246.508
36.40000 244.175
36.41000 246.313
36.42000 255.450
36.43000 264.670
36.44000 269.360
36.45000 264.939
36.46000 262.010
36.47000 263.084
36.48000 266.878
36.49000 270.530
36.50000 270.063
36.51000 267.694
36.52000 265.452
36.53000 266.553
36.54000 268.538
36.55000 269.645
36.56000 263.919
36.57000 256.744
36.58000 250.974
36.59000 252.167
36.60000 254.305
36.61000 255.977
36.62000 255.162
36.63000 254.353
36.64000 255.683
36.65000 261.858
36.66000 268.219
36.67000 272.392
36.68000 273.190
36.69000 273.950
36.70000 274.334
36.71000 272.229
36.72000 270.809
36.73000 268.040
36.74000 264.368
36.75000 260.910
36.76000 263.442
36.77000 268.699
36.78000 273.670
36.79000 272.563
36.80000 269.811
36.81000 267.520
36.82000 268.757
36.83000 270.729
36.84000 271.870
36.85000 268.962
36.86000 265.513
36.87000 262.827
36.88000 273.197
36.89000 282.263
36.90000 288.966
36.91000 290.389
36.92000 291.616
36.93000 289.653
36.94000 282.842
36.95000 275.981
36.96000 272.549
36.97000 284.075
36.98000 291.697
36.99000 293.358
37.00000 291.088
37.01000 288.917
37.02000 289.407
37.03000 291.090
37.04000 292.679
37.05000 291.485
37.06000 289.608
37.07000 288.250
37.08000 290.790
37.09000 294.130
37.10000 295.712
37.11000 288.853
37.12000 280.889
37.13000 274.709
37.14000 269.319
37.15000 265.083
37.16000 262.846
37.17000 265.009
37.18000 267.330
37.19000 269.561
37.20000 271.660
37.21000 273.758
37.22000 273.730
37.23000 271.612
37.24000 269.524
37.25000 270.098
37.26000 272.402
37.27000 274.626
37.28000 274.790
37.29000 274.044
37.30000 273.340
37.31000 269.649
37.32000 265.444
37.33000 261.825
37.34000 262.525
37.35000 264.097
37.36000 266.004
37.37000 269.493
37.38000 273.185
37.39000 276.039
37.40000 274.311
37.41000 272.672
37.42000 272.085
37.43000 273.785
37.44000 275.563
37.45000 274.664
37.46000 269.821
37.47000 264.943
37.48000 261.780
37.49000 260.276
37.50000 258.791
37.51000 258.855
37.52000 259.910
37.53000 260.881
37.54000 259.709
37.55000 257.603
37.56000 255.622
37.57000 255.159
37.58000 255.150
37.59000 255.401
37.60000 257.540
37.61000 260.053
37.62000 261.308
37.63000 256.708
37.64000 251.370
37.65000 247.259
37.66000 254.208
37.67000 260.343
37.68000 263.762
37.69000 261.375
37.70000 258.794
37.71000 258.346
37.72000 260.994
37.73000 263.668
37.74000 265.780
37.75000 267.359
37.76000 268.868
37.77000 264.914
37.78000 257.518
37.79000 250.384
37.80000 249.661
37.81000 251.691
37.82000 253.599
37.83000 260.402
37.84000 267.921
37.85000 274.648
37.86000 275.743
37.87000 275.737
37.88000 274.878
37.89000 270.113
37.90000 264.864
37.91000 260.837
37.92000 252.891
37.93000 246.394
37.94000 243.880
37.95000 249.757
37.96000 255.905
37.97000 258.299
37.98000 255.329
37.99000 252.319
38.00000 255.413
38.01000 264.217
38.02000 272.902
38.03000 272.813
38.04000 267.279
38.05000 261.917
38.06000 260.629
38.07000 261.064
38.08000 261.472
38.09000 264.069
38.10000 267.011
38.11000 269.562
38.12000 269.384
38.13000 268.681
38.14000 268.165
38.15000 268.493
38.16000 268.924
38.17000 269.254
38.18000 271.604
38.19000 273.567
38.20000 275.027
38.21000 275.445
38.22000 275.831
38.23000 275.294
38.24000 273.457
38.25000 271.611
38.26000 274.107
38.27000 280.595
38.28000 287.015
38.29000 288.728
38.30000 287.563
38.31000 286.648
38.32000 291.498
38.33000 298.751
38.34000 305.546
38.35000 310.765
38.36000 315.106
38.37000 319.810
38.38000 327.002
38.39000 334.666
38.40000 342.744
38.41000 352.656
38.42000 362.788
38.43000 370.503
38.44000 382.289
38.45000 391.781
38.46000 401.858
38.47000 413.135
38.48000 424.447
38.49000 439.348
38.50000 459.223
38.51000 479.125
38.52000 497.925
38.53000 515.713
38.54000 533.666
38.55000 562.505
38.56000 597.903
38.57000 632.954
38.58000 660.293
38.59000 684.460
38.60000 707.060
38.61000 758.593
38.62000 812.755
38.63000 863.342
38.64000 889.847
38.65000 911.866
38.66000 935.199
38.67000 964.273
38.68000 994.017
38.69000 1016.580
38.70000 1057.739
38.71000 1091.026
38.72000 1116.773
38.73000 1127.307
38.74000 1137.406
38.75000 1141.298
38.76000 1136.715
38.77000 1132.085
38.78000 1117.279
38.79000 1093.439
38.80000 1069.478
38.81000 1037.932
38.82000 1001.884
38.83000 966.220
38.84000 938.836
38.85000 914.806
38.86000 892.372
38.87000 855.745
38.88000 818.988
38.89000 782.146
38.90000 744.747
38.91000 707.246
38.92000 669.267
38.93000 629.233
38.94000 588.964
38.95000 558.536
38.96000 513.345
38.97000 477.178
38.98000 450.059
38.99000 440.932
39.00000 432.299
39.01000 419.749
39.02000 401.936
39.03000 384.105
39.04000 370.454
39.05000 360.479
39.06000 350.557
39.07000 343.699
39.08000 338.633
39.09000 333.237
39.10000 320.923
39.11000 305.847
39.12000 291.796
39.13000 286.592
39.14000 284.061
39.15000 281.409
39.16000 277.979
39.17000 274.409
39.18000 271.008
39.19000 268.323
39.20000 265.719
39.21000 263.759
39.22000 258.563
39.23000 254.340
39.24000 251.966
39.25000 253.214
39.26000 254.557
39.27000 257.106
39.28000 261.250
39.29000 265.399
39.30000 264.704
39.31000 259.846
39.32000 255.003
39.33000 251.075
39.34000 247.673
39.35000 244.599
39.36000 248.148
39.37000 254.306
39.38000 260.035
39.39000 253.314
39.40000 244.227
39.41000 237.645
39.42000 247.065
39.43000 259.322
39.44000 267.492
39.45000 258.621
39.46000 247.874
39.47000 239.817
39.48000 242.023
39.49000 244.230
39.50000 243.235
39.51000 236.055
39.52000 228.719
39.53000 227.998
39.54000 235.895
39.55000 243.822
39.56000 242.895
39.57000 234.480
39.58000 226.294
39.59000 230.226
39.60000 241.041
39.61000 251.195
39.62000 248.347
39.63000 240.452
39.64000 233.118
39.65000 235.779
39.66000 240.557
39.67000 244.072
39.68000 239.653
39.69000 233.851
39.70000 229.595
39.71000 231.689
39.72000 234.469
39.73000 236.545
39.74000 230.965
39.75000 226.266
39.76000 225.134
39.77000 230.793
39.78000 236.615
39.79000 239.882
39.80000 239.872
39.81000 239.849
39.82000 236.493
39.83000 230.373
39.84000 224.404
39.85000 226.035
39.86000 231.920
39.87000 237.660
39.88000 240.644
39.89000 242.573
39.90000 244.362
39.91000 243.807
39.92000 242.758
39.93000 241.873
39.94000 241.999
39.95000 242.299
39.96000 241.368
39.97000 235.460
39.98000 229.026
39.99000 224.242
40.00000 232.526
40.01000 239.551
40.02000 242.596
40.03000 238.178
40.04000 233.586
40.05000 231.361
40.06000 232.123
40.07000 232.893
40.08000 232.235
40.09000 230.409
40.10000 228.550
40.11000 225.095
40.12000 220.762
40.13000 216.829
40.14000 220.361
40.15000 226.707
40.16000 232.580
40.17000 228.785
40.18000 223.147
40.19000 218.510
40.20000 219.946
40.21000 222.405
40.22000 224.524
40.23000 225.286
40.24000 225.907
40.25000 226.367
40.26000 226.844
40.27000 227.215
40.28000 226.845
40.29000 225.105
40.30000 223.335
40.31000 223.876
40.32000 227.290
40.33000 230.707
40.34000 230.920
40.35000 228.551
40.36000 226.175
40.37000 223.501
40.38000 220.664
40.39000 217.977
40.40000 217.998
40.41000 219.024
40.42000 219.973
40.43000 220.006
40.44000 219.827
40.45000 219.918
40.46000 221.609
40.47000 223.566
40.48000 223.886
40.49000 217.782
40.50000 211.026
40.51000 206.044
40.52000 210.955
40.53000 215.175
40.54000 218.957
40.55000 221.941
40.56000 224.909
40.57000 225.515
40.58000 223.233
40.59000 220.947
40.60000 219.148
40.61000 217.741
40.62000 216.367
40.63000 216.434
40.64000 217.272
40.65000 217.964
40.66000 216.094
40.67000 213.285
40.68000 210.695
40.69000 209.493
40.70000 208.726
40.71000 208.868
40.72000 214.344
40.73000 220.689
40.74000 224.281
40.75000 217.238
40.76000 209.138
40.77000 203.189
40.78000 205.934
40.79000 208.409
40.80000 212.838
40.81000 220.772
40.82000 228.777
40.83000 230.254
40.84000 223.874
40.85000 217.490
40.86000 214.372
40.87000 213.814
40.88000 213.331
40.89000 216.038
40.90000 220.426
40.91000 224.596
40.92000 225.009
40.93000 224.066
40.94000 223.199
40.95000 221.341
40.96000 219.463
40.97000 218.131
40.98000 219.943
40.99000 222.258
41.00000 223.668
41.01000 221.635
41.02000 219.265
41.03000 217.533
41.04000 213.347
41.05000 210.020
41.06000 207.667
41.07000 207.033
41.08000 206.432
41.09000 204.211
41.10000 200.071
41.11000 195.937
41.12000 200.322
41.13000 211.213
41.14000 221.897
41.15000 224.259
41.16000 222.295
41.17000 220.215
41.18000 216.223
41.19000 211.550
41.20000 207.257
41.21000 206.164
41.22000 205.878
41.23000 206.245
41.24000 210.318
41.25000 214.975
41.26000 219.098
41.27000 221.220
41.28000 223.151
41.29000 224.557
41.30000 212.582
41.31000 202.851
41.32000 199.880
41.33000 208.694
41.34000 217.722
41.35000 221.624
41.36000 219.550
41.37000 217.473
41.38000 216.889
41.39000 217.434
41.40000 217.963
41.41000 217.867
41.42000 217.450
41.43000 216.919
41.44000 214.536
41.45000 211.504
41.46000 208.723
41.47000 205.262
41.48000 202.034
41.49000 200.212
41.50000 206.227
41.51000 213.454
41.52000 219.091
41.53000 218.852
41.54000 218.066
41.55000 217.495
41.56000 220.326
41.57000 222.627
41.58000 222.194
41.59000 217.069
41.60000 211.862
41.61000 210.927
41.62000 214.893
41.63000 218.854
41.64000 218.922
41.65000 216.102
41.66000 213.315
41.67000 211.754
41.68000 210.813
41.69000 209.954
41.70000 210.390
41.71000 211.274
41.72000 212.084
41.73000 211.412
41.74000 210.507
41.75000 210.130
41.76000 212.652
41.77000 215.615
41.78000 217.487
41.79000 215.395
41.80000 212.941
41.81000 211.170
41.82000 204.719
41.83000 199.605
41.84000 197.132
41.85000 199.128
41.86000 201.197
41.87000 203.935
41.88000 207.428
41.89000 210.910
41.90000 214.291
41.91000 217.570
41.92000 220.683
41.93000 217.877
41.94000 212.125
41.95000 206.616
41.96000 204.850
41.97000 204.359
41.98000 203.911
41.99000 202.394
42.00000 200.828
42.01000 199.907
42.02000 202.459
42.03000 205.529
42.04000 207.502
42.05000 205.543
42.06000 203.232
42.07000 201.572
42.08000 206.231
42.09000 210.015
42.10000 211.062
42.11000 207.544
42.12000 203.956
42.13000 203.014
42.14000 205.008
42.15000 206.998
42.16000 206.109
42.17000 203.161
42.18000 200.363
42.19000 202.681
42.20000 207.510
42.21000 211.859
42.22000 209.008
42.23000 203.741
42.24000 198.938
42.25000 199.420
42.26000 200.908
42.27000 202.507
42.28000 204.692
42.29000 206.962
42.30000 207.558
42.31000 202.240
42.32000 196.404
42.33000 192.230
42.34000 199.180
42.35000 204.860
42.36000 207.897
42.37000 206.593
42.38000 205.225
42.39000 205.272
42.40000 206.865
42.41000 208.452
42.42000 209.700
42.43000 210.697
42.44000 211.701
42.45000 212.903
42.46000 214.201
42.47000 215.333
42.48000 214.041
42.49000 211.947
42.50000 210.041
42.51000 207.556
42.52000 205.243
42.53000 203.148
42.54000 202.196
42.55000 201.409
42.56000 201.591
42.57000 205.149
42.58000 208.994
42.59000 211.733
42.60000 206.859
42.61000 202.898
42.62000 201.779
42.63000 205.261
42.64000 208.807
42.65000 207.062
42.66000 199.636
42.67000 192.239
42.68000 193.007
42.69000 199.444
42.70000 205.624
42.71000 203.706
42.72000 197.929
42.73000 192.884
42.74000 198.314
42.75000 207.157
42.76000 215.189
42.77000 215.355
42.78000 213.976
42.79000 212.298
42.80000 209.080
42.81000 205.645
42.82000 201.655
42.83000 195.768
42.84000 189.723
42.85000 185.437
42.86000 193.173
42.87000 199.434
42.88000 205.492
42.89000 211.229
42.90000 216.961
42.91000 216.597
42.92000 209.792
42.93000 203.019
42.94000 199.873
42.95000 199.245
42.96000 198.527
42.97000 195.106
42.98000 190.414
42.99000 186.115
43.00000 187.277
43.01000 190.195
43.02000 192.839
43.03000 194.419
43.04000 195.610
43.05000 196.639
43.06000 196.845
43.07000 196.936
43.08000 196.454
43.09000 194.034
43.10000 191.455
43.11000 189.636
43.12000 200.471
43.13000 209.076
43.14000 212.452
43.15000 207.612
43.16000 202.674
43.17000 200.528
43.18000 201.284
43.19000 202.037
43.20000 202.262
43.21000 202.129
43.22000 202.076
43.23000 204.366
43.24000 207.741
43.25000 210.478
43.26000 204.543
43.27000 195.863
43.28000 188.010
43.29000 186.022
43.30000 185.370
43.31000 185.319
43.32000 188.260
43.33000 191.609
43.34000 193.781
43.35000 192.038
43.36000 189.983
43.37000 188.540
43.38000 197.739
43.39000 205.015
43.40000 209.014
43.41000 207.939
43.42000 206.807
43.43000 208.846
43.44000 214.125
43.45000 219.374
43.46000 216.564
43.47000 208.452
43.48000 200.439
43.49000 195.219
43.50000 191.273
43.51000 187.692
43.52000 188.950
43.53000 191.718
43.54000 194.217
43.55000 196.571
43.56000 198.613
43.57000 199.641
43.58000 195.711
43.59000 191.116
43.60000 188.902
43.61000 194.496
43.62000 200.700
43.63000 205.036
43.64000 198.165
43.65000 192.657
43.66000 189.986
43.67000 191.638
43.68000 193.337
43.69000 194.373
43.70000 194.743
43.71000 195.111
43.72000 194.453
43.73000 193.134
43.74000 191.872
43.75000 192.140
43.76000 193.097
43.77000 193.923
43.78000 193.064
43.79000 191.686
43.80000 190.445
43.81000 193.127
43.82000 196.189
43.83000 198.530
43.84000 197.392
43.85000 195.796
43.86000 194.044
43.87000 191.784
43.88000 189.485
43.89000 187.885
43.90000 192.222
43.91000 195.654
43.92000 196.779
43.93000 194.442
43.94000 192.070
43.95000 192.477
43.96000 195.629
43.97000 198.760
43.98000 196.671
43.99000 191.264
44.00000 186.181
44.01000 189.654
44.02000 196.920
44.03000 203.431
44.04000 200.380
44.05000 194.433
44.06000 189.087
44.07000 190.241
44.08000 192.405
44.09000 194.590
44.10000 196.872
44.11000 199.167
44.12000 199.571
44.13000 193.959
44.14000 187.900
44.15000 183.704
44.16000 199.752
44.17000 212.358
44.18000 217.165
44.19000 210.441
44.20000 203.612
44.21000 197.734
44.22000 192.780
44.23000 187.861
44.24000 186.844
44.25000 188.307
44.26000 189.898
44.27000 194.747
44.28000 201.019
44.29000 206.717
44.30000 205.303
44.31000 201.767
44.32000 198.595
44.33000 197.094
44.34000 196.073
44.35000 194.639
44.36000 191.276
44.37000 187.668
44.38000 185.295
44.39000 186.794
44.40000 188.574
44.41000 189.801
44.42000 195.363
44.43000 199.648
44.44000 200.748
44.45000 197.206
44.46000 193.625
44.47000 190.813
44.48000 188.734
44.49000 186.671
44.50000 191.263
44.51000 199.914
44.52000 208.120
44.53000 205.351
44.54000 197.855
44.55000 191.067
44.56000 192.865
44.57000 197.187
44.58000 201.055
44.59000 201.010
44.60000 200.301
44.61000 199.110
44.62000 195.713
44.63000 192.040
44.64000 191.180
44.65000 199.012
44.66000 207.459
44.67000 213.252
44.68000 207.749
44.69000 203.352
44.70000 203.588
44.71000 210.469
44.72000 217.400
44.73000 217.541
44.74000 211.306
44.75000 205.121
44.76000 206.582
44.77000 212.691
44.78000 218.580
44.79000 219.193
44.80000 217.568
44.81000 216.410
44.82000 220.790
44.83000 226.774
44.84000 232.120
44.85000 236.021
44.86000 239.176
44.87000 241.742
44.88000 241.648
44.89000 241.229
44.90000 241.052
44.91000 241.613
44.92000 242.225
44.93000 242.643
44.94000 258.629
44.95000 270.945
44.96000 279.015
44.97000 281.089
44.98000 283.120
44.99000 284.104
45.00000 284.123
45.01000 284.141
45.02000 287.304
45.03000 292.300
45.04000 297.249
45.05000 301.127
45.06000 304.556
45.07000 307.705
45.08000 307.618
45.09000 306.607
45.10000 305.706
45.11000 305.485
45.12000 305.405
45.13000 306.861
45.14000 315.151
45.15000 324.259
45.16000 330.347
45.17000 327.370
45.18000 323.782
45.19000 321.346
45.20000 322.309
45.21000 323.104
45.22000 322.951
45.23000 321.481
45.24000 320.002
45.25000 318.965
45.26000 318.330
45.27000 317.700
45.28000 312.733
45.29000 305.296
45.30000 298.154
45.31000 297.604
45.32000 299.774
45.33000 301.183
45.34000 293.994
45.35000 284.386
45.36000 275.843
45.37000 278.673
45.38000 282.974
45.39000 286.639
45.40000 287.521
45.41000 288.077
45.42000 287.293
45.43000 282.547
45.44000 277.539
45.45000 274.157
45.46000 263.960
45.47000 256.221
45.48000 252.031
45.49000 252.700
45.50000 253.398
45.51000 254.393
45.52000 255.654
45.53000 256.903
45.54000 252.466
45.55000 244.808
45.56000 237.329
45.57000 233.753
45.58000 231.763
45.59000 230.091
45.60000 231.938
45.61000 234.759
45.62000 237.263
45.63000 234.674
45.64000 231.621
45.65000 228.775
45.66000 226.826
45.67000 224.981
45.68000 223.841
45.69000 224.759
45.70000 225.809
45.71000 226.515
45.72000 230.703
45.73000 233.887
45.74000 232.129
45.75000 223.708
45.76000 215.257
45.77000 212.495
45.78000 214.734
45.79000 216.949
45.80000 217.428
45.81000 216.899
45.82000 216.337
45.83000 215.093
45.84000 213.575
45.85000 212.069
45.86000 210.699
45.87000 209.366
45.88000 208.186
45.89000 213.569
45.90000 219.251
45.91000 222.815
45.92000 217.384
45.93000 210.937
45.94000 206.002
45.95000 205.410
45.96000 205.089
45.97000 204.874
45.98000 198.344
45.99000 193.379
46.00000 190.808
46.01000 191.415
46.02000 192.038
46.03000 191.857
46.04000 190.982
46.05000 190.116
46.06000 188.835
46.07000 187.350
46.08000 186.098
46.09000 189.629
46.10000 195.048
46.11000 199.752
46.12000 196.868
46.13000 191.943
46.14000 187.595
46.15000 187.899
46.16000 188.877
46.17000 189.789
46.18000 190.427
46.19000 191.035
46.20000 189.993
46.21000 184.280
46.22000 178.282
46.23000 174.293
46.24000 175.775
46.25000 176.975
46.26000 179.861
46.27000 184.954
46.28000 190.048
46.29000 190.536
46.30000 187.102
46.31000 183.709
46.32000 183.881
46.33000 186.031
46.34000 187.947
46.35000 185.216
46.36000 180.675
46.37000 176.583
46.38000 177.137
46.39000 178.922
46.40000 180.494
46.41000 180.454
46.42000 180.177
46.43000 180.335
46.44000 182.289
46.45000 184.436
46.46000 185.375
46.47000 182.936
46.48000 180.298
46.49000 178.552
46.50000 172.853
46.51000 168.575
46.52000 168.381
46.53000 173.441
46.54000 178.514
46.55000 179.391
46.56000 176.755
46.57000 174.151
46.58000 172.053
46.59000 170.287
46.60000 168.451
46.61000 165.276
46.62000 161.588
46.63000 158.448
46.64000 160.890
46.65000 164.788
46.66000 168.214
46.67000 168.743
46.68000 168.769
46.69000 168.521
46.70000 167.159
46.71000 165.679
46.72000 166.085
46.73000 171.685
46.74000 177.583
46.75000 181.465
46.76000 181.807
46.77000 181.997
46.78000 182.051
46.79000 181.930
46.80000 181.804
46.81000 179.450
46.82000 175.261
46.83000 171.126
46.84000 169.420
46.85000 169.066
46.86000 168.728
46.87000 168.680
46.88000 168.741
46.89000 168.813
46.90000 168.994
46.91000 169.203
46.92000 169.387
46.93000 169.052
46.94000 168.689
46.95000 168.327
46.96000 167.971
46.97000 167.616
46.98000 167.743
46.99000 169.176
47.00000 170.683
47.01000 171.669
47.02000 171.294
47.03000 170.996
47.04000 171.653
47.05000 173.502
47.06000 175.348
47.07000 174.880
47.08000 172.532
47.09000 170.217
47.10000 170.106
47.11000 171.166
47.12000 172.158
47.13000 171.907
47.14000 171.193
47.15000 170.552
47.16000 170.623
47.17000 170.874
47.18000 171.093
47.19000 172.005
47.20000 172.885
47.21000 173.668
47.22000 174.069
47.23000 174.430
47.24000 175.373
47.25000 177.869
47.26000 180.450
47.27000 182.131
47.28000 177.965
47.29000 174.819
47.30000 172.935
47.31000 172.601
47.32000 172.268
47.33000 170.975
47.34000 168.914
47.35000 166.884
47.36000 166.584
47.37000 167.196
47.38000 167.678
47.39000 165.873
47.40000 163.227
47.41000 160.943
47.42000 162.113
47.43000 164.145
47.44000 165.917
47.45000 173.478
47.46000 180.754
47.47000 185.451
47.48000 180.153
47.49000 173.856
47.50000 168.789
47.51000 166.964
47.52000 165.310
47.53000 164.240
47.54000 162.660
47.55000 161.496
47.56000 160.858
47.57000 160.854
47.58000 160.854
47.59000 161.569
47.60000 162.846
47.61000 164.103
47.62000 168.941
47.63000 175.469
47.64000 181.572
47.65000 180.353
47.66000 176.483
47.67000 172.723
47.68000 169.998
47.69000 167.527
47.70000 165.377
47.71000 166.222
47.72000 167.354
47.73000 168.681
47.74000 170.748
47.75000 172.887
47.76000 172.626
47.77000 166.131
47.78000 159.315
47.79000 154.925
47.80000 156.672
47.81000 158.033
47.82000 160.075
47.83000 162.925
47.84000 165.761
47.85000 164.657
47.86000 160.506
47.87000 156.421
47.88000 158.109
47.89000 162.661
47.90000 167.013
47.91000 168.000
47.92000 167.788
47.93000 167.392
47.94000 165.310
47.95000 162.820
47.96000 160.658
47.97000 162.113
47.98000 163.840
47.99000 164.428
48.00000 160.733
48.01000 156.628
48.02000 154.956
48.03000 159.508
48.04000 164.371
48.05000 167.486
48.06000 166.429
48.07000 165.604
48.08000 164.392
48.09000 162.728
48.10000 161.064
48.11000 159.676
48.12000 158.498
48.13000 157.339
48.14000 159.989
48.15000 164.447
48.16000 168.401
48.17000 164.138
48.18000 156.984
48.19000 150.670
48.20000 151.904
48.21000 154.934
48.22000 157.559
48.23000 158.535
48.24000 159.148
48.25000 159.918
48.26000 161.271
48.27000 162.678
48.28000 163.478
48.29000 162.745
48.30000 161.938
48.31000 161.423
48.32000 155.937
48.33000 151.887
48.34000 151.541
48.35000 155.460
48.36000 159.365
48.37000 159.602
48.38000 157.088
48.39000 154.617
48.40000 153.675
48.41000 153.513
48.42000 153.451
48.43000 154.981
48.44000 157.063
48.45000 159.345
48.46000 163.392
48.47000 167.853
48.48000 171.706
48.49000 165.012
48.50000 157.961
48.51000 152.372
48.52000 152.115
48.53000 152.348
48.54000 152.412
48.55000 152.057
48.56000 151.683
48.57000 151.446
48.58000 153.149
48.59000 154.406
48.60000 155.380
48.61000 156.033
48.62000 156.682
48.63000 156.862
48.64000 156.694
48.65000 156.529
48.66000 156.325
48.67000 156.108
48.68000 155.944
48.69000 156.606
48.70000 157.551
48.71000 158.132
48.72000 155.572
48.73000 152.287
48.74000 149.457
48.75000 154.805
48.76000 160.377
48.77000 164.479
48.78000 163.302
48.79000 161.651
48.80000 160.397
48.81000 160.114
48.82000 159.876
48.83000 159.726
48.84000 166.356
48.85000 171.229
48.86000 170.910
48.87000 164.804
48.88000 158.708
48.89000 154.886
48.90000 152.718
48.91000 150.592
48.92000 149.466
48.93000 148.855
48.94000 148.258
48.95000 147.856
48.96000 147.520
48.97000 147.767
48.98000 152.951
48.99000 159.256
49.00000 164.675
49.01000 165.022
49.02000 164.683
49.03000 164.534
49.04000 165.053
49.05000 165.630
49.06000 164.689
49.07000 160.081
49.08000 155.309
49.09000 152.324
49.10000 158.507
49.11000 163.068
49.12000 164.688
49.13000 163.084
49.14000 161.472
49.15000 158.750
49.16000 155.234
49.17000 151.787
49.18000 155.360
49.19000 162.072
49.20000 168.178
49.21000 165.346
49.22000 159.548
49.23000 154.384
49.24000 154.494
49.25000 155.784
49.26000 156.889
49.27000 154.814
49.28000 152.674
49.29000 151.643
49.30000 154.486
49.31000 157.663
49.32000 159.067
49.33000 156.255
49.34000 153.262
49.35000 151.400
49.36000 155.010
49.37000 157.665
49.38000 157.698
49.39000 154.904
49.40000 152.134
49.41000 152.638
49.42000 155.451
49.43000 158.205
49.44000 160.569
49.45000 162.661
49.46000 164.434
49.47000 161.609
49.48000 157.281
49.49000 153.432
49.50000 153.493
49.51000 154.414
49.52000 155.201
49.53000 157.182
49.54000 158.995
49.55000 159.284
49.56000 154.336
49.57000 148.948
49.58000 144.832
49.59000 143.700
49.60000 142.693
49.61000 142.070
49.62000 151.254
49.63000 157.945
49.64000 161.682
49.65000 162.286
49.66000 162.865
49.67000 160.315
49.68000 155.593
49.69000 150.973
49.70000 149.964
49.71000 150.628
49.72000 151.401
49.73000 153.688
49.74000 156.463
49.75000 158.642
49.76000 156.051
49.77000 152.427
49.78000 149.337
49.79000 147.923
49.80000 146.929
49.81000 147.046
49.82000 150.925
49.83000 155.112
49.84000 158.635
49.85000 160.619
49.86000 162.541
49.87000 163.722
49.88000 159.470
49.89000 156.374
49.90000 156.700
49.91000 160.596
49.92000 164.449
49.93000 163.444
49.94000 159.117
49.95000 154.887
49.96000 156.227
49.97000 159.991
49.98000 163.349
49.99000 161.157
50.00000 157.202
50.01000 153.412
50.02000 150.905
50.03000 148.673
50.04000 146.776
50.05000 147.886
50.06000 149.164
50.07000 150.043
50.08000 149.592
50.09000 149.033
50.10000 149.490
50.11000 152.264
50.12000 155.128
50.13000 156.877
50.14000 155.210
50.15000 153.990
50.16000 152.590
50.17000 151.007
50.18000 149.447
50.19000 150.425
50.20000 153.113
50.21000 155.738
50.22000 158.035
50.23000 160.090
50.24000 161.939
50.25000 161.041
50.26000 159.285
50.27000 157.882
50.28000 159.214
50.29000 161.119
50.30000 162.735
50.31000 164.540
50.32000 166.074
50.33000 167.468
50.34000 168.401
50.35000 169.297
50.36000 169.371
50.37000 167.596
50.38000 165.752
50.39000 164.632
50.40000 172.846
50.41000 178.779
50.42000 181.786
50.43000 181.844
50.44000 181.894
50.45000 181.136
50.46000 179.843
50.47000 178.581
50.48000 177.541
50.49000 176.644
50.50000 175.780
50.51000 175.350
50.52000 175.053
50.53000 175.240
50.54000 179.086
50.55000 183.688
50.56000 187.579
50.57000 190.877
50.58000 193.569
50.59000 196.399
50.60000 199.671
50.61000 202.977
50.62000 206.479
50.63000 210.417
50.64000 214.370
50.65000 216.755
50.66000 217.260
50.67000 217.607
50.68000 216.401
50.69000 213.658
50.70000 210.967
50.71000 213.081
50.72000 218.335
50.73000 223.456
50.74000 225.302
50.75000 225.675
50.76000 226.026
50.77000 226.107
50.78000 226.105
50.79000 226.395
50.80000 228.850
50.81000 231.745
50.82000 234.186
50.83000 231.774
50.84000 229.235
50.85000 227.242
50.86000 226.991
50.87000 226.871
50.88000 225.200
50.89000 220.143
50.90000 214.967
50.91000 211.863
50.92000 212.599
50.93000 213.147
50.94000 209.932
50.95000 203.050
50.96000 196.269
50.97000 198.181
50.98000 205.690
50.99000 213.000
51.00000 205.481
51.01000 192.123
51.02000 179.735
51.03000 179.436
51.04000 182.756
51.05000 185.194
51.06000 181.201
51.07000 175.920
51.08000 171.480
51.09000 171.503
51.10000 171.995
51.11000 172.237
51.12000 171.693
51.13000 171.091
51.14000 170.810
51.15000 171.217
51.16000 171.647
51.17000 171.903
51.18000 168.025
51.19000 165.251
51.20000 163.076
51.21000 161.476
51.22000 159.909
51.23000 161.087
51.24000 164.007
51.25000 166.847
51.26000 165.150
51.27000 161.670
51.28000 158.698
51.29000 161.905
51.30000 166.934
51.31000 170.843
51.32000 166.730
51.33000 161.038
51.34000 156.266
51.35000 151.994
51.36000 148.492
51.37000 146.293
51.38000 148.135
51.39000 150.264
51.40000 151.543
51.41000 151.020
51.42000 150.439
51.43000 150.095
51.44000 148.174
51.45000 146.809
51.46000 148.906
51.47000 154.267
51.48000 159.564
51.49000 159.952
51.50000 157.275
51.51000 154.673
51.52000 154.877
51.53000 156.205
51.54000 157.092
51.55000 152.725
51.56000 146.832
51.57000 142.169
51.58000 146.161
51.59000 151.831
51.60000 156.570
51.61000 155.520
51.62000 154.060
51.63000 152.587
51.64000 151.076
51.65000 149.562
51.66000 147.739
51.67000 145.268
51.68000 142.777
51.69000 141.312
51.70000 146.532
51.71000 150.248
51.72000 151.249
51.73000 149.734
51.74000 148.243
51.75000 148.463
51.76000 149.736
51.77000 150.972
51.78000 149.992
51.79000 148.180
51.80000 146.349
51.81000 144.301
51.82000 142.191
51.83000 140.142
51.84000 138.523
51.85000 136.985
51.86000 135.704
51.87000 138.911
51.88000 142.016
51.89000 143.977
51.90000 142.491
51.91000 140.772
51.92000 140.775
51.93000 144.330
51.94000 147.992
51.95000 150.131
51.96000 143.417
51.97000 138.655
51.98000 139.197
51.99000 144.576
52.00000 149.903
52.01000 151.723
52.02000 151.418
52.03000 151.122
52.04000 148.796
52.05000 145.795
52.06000 143.005
52.07000 142.602
52.08000 142.873
52.09000 143.218
52.10000 144.068
52.11000 145.012
52.12000 145.797
52.13000 147.695
52.14000 149.375
52.15000 150.389
52.16000 149.431
52.17000 148.342
52.18000 146.857
52.19000 144.566
52.20000 142.252
52.21000 140.909
52.22000 139.883
52.23000 139.165
52.24000 139.858
52.25000 141.817
52.26000 143.762
52.27000 144.889
52.28000 145.526
52.29000 146.143
52.30000 145.672
52.31000 144.805
52.32000 143.856
52.33000 141.991
52.34000 139.871
52.35000 138.779
52.36000 144.537
52.37000 151.560
52.38000 157.378
52.39000 155.115
52.40000 152.475
52.41000 149.822
52.42000 147.127
52.43000 144.430
52.44000 142.378
52.45000 141.617
52.46000 140.892
52.47000 140.474
52.48000 139.289
52.49000 138.457
52.50000 138.354
52.51000 138.893
52.52000 139.472
52.53000 142.473
52.54000 146.900
52.55000 151.182
52.56000 149.878
52.57000 146.525
52.58000 143.334
52.59000 141.916
52.60000 140.982
52.61000 140.165
52.62000 140.116
52.63000 140.205
52.64000 140.279
52.65000 147.073
52.66000 153.299
52.67000 156.194
52.68000 149.488
52.69000 142.179
52.70000 138.256
52.71000 141.014
52.72000 143.951
52.73000 145.632
52.74000 145.937
52.75000 146.143
52.76000 144.552
52.77000 141.402
52.78000 138.275
52.79000 136.497
52.80000 135.502
52.81000 134.539
52.82000 136.816
52.83000 140.174
52.84000 143.001
52.85000 140.179
52.86000 135.833
52.87000 132.108
52.88000 132.378
52.89000 133.361
52.90000 134.171
52.91000 135.501
52.92000 136.642
52.93000 137.943
52.94000 139.701
52.95000 141.486
52.96000 143.698
52.97000 146.740
52.98000 149.803
52.99000 151.544
53.00000 141.263
53.01000 134.072
53.02000 132.992
53.03000 137.131
53.04000 141.242
53.05000 143.811
53.06000 145.499
53.07000 147.129
53.08000 147.771
53.09000 148.013
53.10000 147.820
53.11000 143.092
53.12000 137.159
53.13000 132.608
53.14000 136.802
53.15000 142.531
53.16000 147.235
53.17000 147.381
53.18000 147.094
53.19000 146.980
53.20000 147.352
53.21000 147.752
53.22000 146.356
53.23000 141.518
53.24000 136.595
53.25000 133.815
53.26000 137.651
53.27000 140.330
53.28000 140.417
53.29000 138.325
53.30000 136.331
53.31000 139.417
53.32000 145.365
53.33000 151.099
53.34000 149.812
53.35000 146.062
53.36000 143.108
53.37000 148.282
53.38000 155.585
53.39000 161.532
53.40000 159.054
53.41000 155.122
53.42000 151.903
53.43000 154.982
53.44000 158.056
53.45000 159.943
53.46000 158.555
53.47000 156.978
53.48000 154.158
53.49000 148.991
53.50000 143.769
53.51000 140.842
53.52000 144.348
53.53000 146.794
53.54000 149.276
53.55000 151.787
53.56000 154.234
53.57000 153.482
53.58000 150.956
53.59000 148.524
53.60000 148.324
53.61000 148.931
53.62000 149.400
53.63000 148.492
53.64000 147.230
53.65000 146.070
53.66000 145.534
53.67000 145.104
53.68000 144.753
53.69000 143.829
53.70000 143.023
53.71000 142.884
53.72000 144.555
53.73000 146.327
53.74000 148.216
53.75000 150.320
53.76000 152.428
53.77000 153.602
53.78000 148.066
53.79000 144.240
53.80000 146.446
53.81000 153.563
53.82000 160.552
53.83000 161.566
53.84000 159.311
53.85000 157.143
53.86000 149.947
53.87000 141.439
53.88000 133.869
53.89000 135.482
53.90000 139.427
53.91000 143.096
53.92000 145.113
53.93000 146.853
53.94000 148.269
53.95000 144.642
53.96000 141.259
53.97000 138.819
53.98000 138.907
53.99000 139.133
54.00000 141.012
54.01000 145.923
54.02000 150.899
54.03000 153.648
54.04000 155.222
54.05000 156.296
54.06000 154.447
54.07000 150.257
54.08000 146.109
54.09000 143.851
54.10000 142.613
54.11000 141.424
54.12000 136.386
54.13000 130.343
54.14000 124.987
54.15000 126.226
54.16000 129.115
54.17000 132.624
54.18000 139.800
54.19000 147.579
54.20000 153.884
54.21000 152.820
54.22000 151.351
54.23000 148.258
54.24000 140.871
54.25000 133.256
54.26000 128.329
54.27000 128.261
54.28000 128.292
54.29000 128.309
54.30000 133.661
54.31000 137.339
54.32000 137.583
54.33000 135.117
54.34000 132.709
54.35000 132.737
54.36000 134.060
54.37000 135.329
54.38000 134.778
54.39000 133.646
54.40000 132.739
54.41000 133.956
54.42000 135.696
54.43000 137.557
54.44000 140.125
54.45000 142.806
54.46000 144.973
54.47000 143.316
54.48000 141.662
54.49000 140.513
54.50000 140.678
54.51000 140.911
54.52000 141.041
54.53000 140.989
54.54000 140.933
54.55000 140.903
54.56000 140.663
54.57000 140.496
54.58000 139.816
54.59000 138.736
54.60000 137.719
54.61000 139.260
54.62000 142.140
54.63000 144.900
54.64000 145.344
54.65000 144.985
54.66000 144.430
54.67000 142.060
54.68000 139.250
54.69000 136.883
54.70000 137.043
54.71000 137.604
54.72000 138.056
54.73000 140.711
54.74000 143.038
54.75000 143.573
54.76000 139.506
54.77000 135.208
54.78000 133.333
54.79000 135.709
54.80000 138.165
54.81000 139.491
54.82000 139.117
54.83000 138.848
54.84000 135.978
54.85000 131.121
54.86000 126.485
54.87000 130.523
54.88000 139.034
54.89000 147.179
54.90000 146.130
54.91000 142.131
54.92000 138.590
54.93000 139.184
54.94000 140.766
54.95000 142.194
54.96000 142.761
54.97000 143.193
54.98000 143.541
54.99000 137.927
55.00000 132.924
55.01000 131.512
55.02000 139.183
55.03000 147.299
55.04000 152.046
55.05000 150.971
55.06000 149.794
55.07000 149.162
55.08000 150.636
55.09000 151.644
55.10000 152.551
55.11000 153.382
55.12000 154.166
55.13000 153.176
55.14000 151.283
55.15000 149.475
55.16000 146.648
55.17000 143.690
55.18000 140.953
55.19000 140.185
55.20000 139.879
55.21000 139.911
55.22000 141.806
55.23000 143.986
55.24000 145.731
55.25000 150.739
55.26000 155.031
55.27000 157.916
55.28000 157.291
55.29000 156.500
55.30000 155.532
55.31000 154.264
55.32000 152.990
55.33000 152.312
55.34000 154.919
55.35000 156.694
55.36000 158.166
55.37000 159.413
55.38000 160.684
55.39000 162.855
55.40000 165.477
55.41000 167.980
55.42000 166.003
55.43000 162.743
55.44000 159.880
55.45000 160.474
55.46000 161.869
55.47000 163.033
55.48000 162.943
55.49000 162.665
55.50000 162.442
55.51000 163.870
55.52000 165.142
55.53000 166.986
55.54000 170.235
55.55000 173.548
55.56000 174.517
55.57000 171.552
55.58000 168.524
55.59000 166.925
55.60000 180.501
55.61000 189.733
55.62000 199.683
55.63000 210.159
55.64000 220.426
55.65000 223.495
55.66000 223.010
55.67000 222.547
55.68000 229.679
55.69000 238.669
55.70000 247.313
55.71000 253.002
55.72000 258.018
55.73000 263.232
55.74000 269.507
55.75000 275.938
55.76000 281.049
55.77000 292.131
55.78000 301.480
55.79000 315.249
55.80000 339.728
55.81000 364.684
55.82000 382.249
55.83000 387.593
55.84000 392.755
55.85000 395.459
55.86000 421.992
55.87000 439.948
55.88000 454.484
55.89000 466.563
55.90000 478.694
55.91000 492.558
55.92000 507.264
55.93000 521.261
55.94000 531.615
55.95000 540.076
55.96000 548.256
55.97000 554.093
55.98000 559.403
55.99000 563.985
56.00000 564.738
56.01000 564.935
56.02000 565.091
56.03000 552.888
56.04000 542.223
56.05000 532.706
56.06000 525.929
56.07000 519.270
56.08000 514.081
56.09000 511.286
56.10000 508.524
56.11000 507.089
56.12000 483.771
56.13000 468.018
56.14000 452.491
56.15000 437.124
56.16000 422.112
56.17000 418.500
56.18000 420.355
56.19000 422.117
56.20000 407.991
56.21000 390.118
56.22000 372.630
56.23000 358.285
56.24000 344.636
56.25000 332.087
56.26000 325.231
56.27000 319.186
56.28000 314.417
56.29000 301.520
56.30000 290.624
56.31000 280.317
56.32000 271.395
56.33000 262.531
56.34000 253.681
56.35000 244.855
56.36000 236.029
56.37000 231.478
56.38000 225.184
56.39000 220.965
56.40000 219.277
56.41000 219.353
56.42000 219.364
56.43000 217.373
56.44000 214.436
56.45000 211.648
56.46000 203.789
56.47000 195.025
56.48000 186.933
56.49000 184.247
56.50000 182.736
56.51000 180.642
56.52000 175.577
56.53000 170.096
56.54000 165.786
56.55000 167.878
56.56000 169.976
56.57000 172.122
56.58000 174.381
56.59000 176.644
56.60000 174.420
56.61000 165.103
56.62000 155.698
56.63000 150.888
56.64000 160.026
56.65000 166.118
56.66000 166.525
56.67000 163.031
56.68000 159.591
56.69000 157.768
56.70000 156.697
56.71000 155.682
56.72000 156.166
56.73000 157.052
56.74000 157.709
56.75000 156.550
56.76000 155.004
56.77000 153.427
56.78000 151.698
56.79000 149.949
56.80000 148.579
56.81000 142.824
56.82000 137.943
56.83000 133.957
56.84000 132.018
56.85000 130.159
56.86000 129.879
56.87000 132.056
56.88000 134.262
56.89000 135.381
56.90000 135.149
56.91000 134.971
56.92000 132.332
56.93000 128.028
56.94000 123.872
56.95000 123.939
56.96000 125.945
56.97000 127.844
56.98000 135.544
56.99000 144.301
57.00000 151.314
57.01000 144.829
57.02000 135.499
57.03000 128.038
57.04000 129.790
57.05000 132.785
57.06000 135.123
57.07000 133.862
57.08000 132.631
57.09000 132.816
57.10000 136.193
57.11000 139.692
57.12000 138.803
57.13000 131.184
57.14000 123.491
57.15000 119.621
57.16000 125.885
57.17000 130.035
57.18000 130.777
57.19000 129.251
57.20000 127.798
57.21000 128.364
57.22000 129.843
57.23000 131.240
57.24000 134.134
57.25000 137.217
57.26000 139.580
57.27000 136.484
57.28000 132.256
57.29000 129.034
57.30000 130.697
57.31000 133.008
57.32000 134.805
57.33000 129.627
57.34000 125.077
57.35000 122.671
57.36000 125.024
57.37000 127.552
57.38000 130.784
57.39000 135.080
57.40000 139.387
57.41000 139.385
57.42000 135.097
57.43000 130.830
57.44000 128.629
57.45000 127.782
57.46000 127.037
57.47000 129.013
57.48000 132.205
57.49000 135.216
57.50000 133.119
57.51000 129.770
57.52000 126.729
57.53000 125.980
57.54000 125.700
57.55000 125.488
57.56000 125.607
57.57000 125.769
57.58000 125.894
57.59000 129.046
57.60000 131.730
57.61000 132.811
57.62000 130.379
57.63000 127.823
57.64000 127.097
57.65000 129.093
57.66000 131.115
57.67000 132.916
57.68000 134.502
57.69000 136.047
57.70000 134.067
57.71000 129.812
57.72000 125.738
57.73000 126.372
57.74000 129.076
57.75000 131.624
57.76000 129.578
57.77000 126.444
57.78000 123.510
57.79000 122.035
57.80000 120.854
57.81000 120.102
57.82000 121.370
57.83000 122.896
57.84000 124.074
57.85000 131.367
57.86000 137.506
57.87000 140.609
57.88000 137.164
57.89000 133.495
57.90000 130.659
57.91000 129.044
57.92000 127.441
57.93000 125.903
57.94000 124.431
57.95000 122.959
57.96000 121.567
57.97000 120.226
57.98000 118.911
57.99000 118.262
58.00000 117.901
58.01000 117.561
58.02000 122.372
58.03000 128.161
58.04000 133.091
58.05000 131.856
58.06000 129.402
58.07000 127.041
58.08000 125.106
58.09000 123.226
58.10000 121.779
58.11000 122.285
58.12000 122.797
58.13000 123.563
58.14000 124.872
58.15000 126.198
58.16000 126.728
58.17000 126.109
58.18000 125.480
58.19000 126.115
58.20000 127.946
58.21000 129.753
58.22000 129.790
58.23000 128.718
58.24000 127.628
58.25000 126.097
58.26000 124.377
58.27000 122.761
58.28000 125.604
58.29000 129.383
58.30000 133.012
58.31000 135.589
58.32000 137.961
58.33000 138.877
58.34000 133.167
58.35000 126.643
58.36000 121.643
58.37000 122.003
58.38000 122.583
58.39000 123.684
58.40000 125.878
58.41000 128.107
58.42000 130.189
58.43000 132.062
58.44000 133.933
58.45000 133.212
58.46000 130.081
58.47000 126.975
58.48000 125.692
58.49000 125.534
58.50000 125.290
58.51000 123.022
58.52000 119.902
58.53000 116.976
58.54000 120.961
58.55000 126.398
58.56000 130.885
58.57000 128.792
58.58000 125.439
58.59000 123.011
58.60000 124.731
58.61000 126.950
58.62000 128.645
58.63000 128.623
58.64000 128.513
58.65000 127.884
58.66000 126.179
58.67000 124.442
58.68000 124.620
58.69000 127.479
58.70000 130.356
58.71000 130.216
58.72000 127.319
58.73000 124.443
58.74000 123.053
58.75000 122.566
58.76000 122.002
58.77000 119.692
58.78000 116.657
58.79000 113.816
58.80000 113.172
58.81000 113.151
58.82000 113.568
58.83000 116.967
58.84000 120.927
58.85000 123.911
58.86000 122.589
58.87000 120.756
58.88000 119.363
58.89000 118.306
58.90000 117.493
58.91000 118.577
58.92000 123.528
58.93000 128.591
58.94000 128.030
58.95000 119.714
58.96000 111.352
58.97000 109.426
58.98000 113.287
58.99000 117.121
59.00000 119.119
59.01000 120.017
59.02000 120.961
59.03000 122.891
59.04000 125.226
59.05000 127.407
59.06000 128.228
59.07000 128.627
59.08000 128.628
59.09000 125.955
59.10000 122.786
59.11000 120.359
59.12000 121.152
59.13000 122.318
59.14000 123.201
59.15000 116.178
59.16000 110.263
59.17000 106.971
59.18000 108.943
59.19000 111.064
59.20000 113.546
59.21000 116.519
59.22000 119.494
59.23000 121.607
59.24000 122.957
59.25000 124.272
59.26000 123.485
59.27000 121.456
59.28000 119.532
59.29000 119.839
59.30000 121.046
59.31000 122.172
59.32000 123.567
59.33000 124.898
59.34000 125.813
59.35000 123.991
59.36000 121.671
59.37000 119.734
59.38000 119.442
59.39000 119.336
59.40000 119.257
59.41000 119.647
59.42000 119.977
59.43000 119.267
59.44000 116.500
59.45000 113.678
59.46000 110.988
59.47000 108.475
59.48000 105.964
59.49000 108.157
59.50000 114.436
59.51000 120.650
59.52000 123.068
59.53000 123.277
59.54000 123.575
59.55000 125.689
59.56000 128.524
59.57000 131.166
59.58000 123.771
59.59000 114.626
59.60000 106.985
59.61000 109.069
59.62000 112.894
59.63000 116.179
59.64000 117.184
59.65000 117.935
59.66000 118.500
59.67000 114.319
59.68000 110.821
59.69000 109.811
59.70000 113.651
59.71000 117.616
59.72000 119.151
59.73000 117.487
59.74000 115.810
59.75000 116.743
59.76000 119.907
59.77000 123.013
59.78000 122.946
59.79000 121.061
59.80000 119.335
59.81000 120.798
59.82000 123.511
59.83000 126.034
59.84000 120.752
59.85000 114.105
59.86000 108.861
59.87000 112.531
59.88000 117.772
59.89000 121.662
59.90000 119.950
59.91000 117.626
59.92000 115.886
59.93000 115.789
59.94000 115.790
59.95000 115.344
59.96000 114.036
59.97000 112.707
59.98000 113.403
59.99000 116.724
60.00000 120.053
60.01000 120.758
60.02000 119.253
60.03000 117.780
60.04000 117.971
60.05000 119.102
60.06000 120.294
60.07000 122.668
60.08000 125.499
60.09000 128.128
60.10000 126.580
60.11000 124.196
60.12000 121.997
60.13000 120.957
60.14000 120.117
60.15000 120.008
60.16000 122.883
60.17000 126.077
60.18000 128.459
60.19000 129.982
60.20000 131.130
60.21000 129.953
60.22000 124.375
60.23000 118.692
60.24000 116.961
60.25000 120.270
60.26000 123.594
60.27000 124.660
60.28000 123.854
60.29000 123.032
60.30000 121.370
60.31000 119.242
60.32000 117.135
60.33000 115.406
60.34000 113.821
60.35000 112.352
60.36000 113.490
60.37000 115.120
60.38000 116.673
60.39000 117.751
60.40000 118.748
60.41000 119.658
60.42000 120.216
60.43000 120.736
60.44000 121.123
60.45000 120.244
60.46000 119.505
60.47000 119.982
60.48000 122.725
60.49000 125.521
60.50000 125.062
60.51000 120.517
60.52000 115.966
60.53000 115.363
60.54000 117.976
60.55000 120.549
60.56000 121.215
60.57000 120.834
60.58000 120.364
60.59000 118.259
60.60000 115.539
60.61000 113.024
60.62000 114.025
60.63000 115.730
60.64000 117.323
60.65000 118.241
60.66000 119.045
60.67000 119.387
60.68000 117.890
60.69000 116.204
60.70000 114.958
60.71000 118.641
60.72000 121.708
60.73000 123.633
60.74000 123.455
60.75000 123.232
60.76000 123.784
60.77000 125.294
60.78000 126.804
60.79000 126.598
60.80000 125.019
60.81000 123.423
60.82000 121.016
60.83000 118.170
60.84000 115.617
60.85000 118.303
60.86000 122.926
60.87000 127.194
60.88000 125.766
60.89000 123.203
60.90000 121.045
60.91000 121.287
60.92000 121.924
60.93000 122.214
60.94000 121.154
60.95000 119.958
60.96000 119.077
60.97000 124.040
60.98000 128.124
60.99000 131.145
61.00000 132.239
61.01000 133.294
61.02000 130.380
61.03000 122.637
61.04000 114.898
61.05000 114.986
61.06000 121.239
61.07000 127.351
61.08000 127.347
61.09000 124.085
61.10000 120.956
61.11000 120.155
61.12000 120.201
61.13000 120.244
61.14000 122.167
61.15000 124.305
61.16000 126.316
61.17000 127.581
61.18000 128.726
61.19000 128.491
61.20000 122.954
61.21000 116.893
61.22000 112.449
61.23000 115.533
61.24000 118.218
61.25000 119.466
61.26000 118.145
61.27000 116.774
61.28000 116.561
61.29000 117.735
61.30000 118.909
61.31000 119.992
61.32000 120.999
61.33000 121.966
61.34000 121.289
61.35000 119.750
61.36000 118.542
61.37000 122.954
61.38000 129.385
61.39000 135.302
61.40000 131.785
61.41000 126.590
61.42000 122.328
61.43000 123.414
61.44000 125.352
61.45000 127.174
61.46000 128.557
61.47000 129.897
61.48000 130.876
61.49000 139.403
61.50000 146.271
61.51000 157.076
61.52000 174.808
61.53000 192.671
61.54000 208.470
61.55000 221.838
61.56000 235.170
61.57000 249.926
61.58000 265.679
61.59000 281.414
61.60000 296.436
61.61000 311.089
61.62000 325.407
61.63000 334.189
61.64000 341.011
61.65000 347.276
61.66000 351.252
61.67000 354.309
61.68000 356.934
61.69000 357.123
61.70000 356.931
61.71000 357.778
61.72000 362.502
61.73000 367.593
61.74000 371.294
61.75000 346.881
61.76000 327.036
61.77000 308.530
61.78000 292.347
61.79000 276.205
61.80000 259.988
61.81000 243.683
61.82000 227.422
61.83000 209.724
61.84000 191.068
61.85000 172.613
61.86000 161.793
61.87000 154.866
61.88000 148.301
61.89000 147.554
61.90000 148.836
61.91000 150.011
61.92000 146.837
61.93000 143.097
61.94000 139.967
61.95000 140.229
61.96000 141.011
61.97000 140.834
61.98000 137.129
61.99000 133.097
62.00000 130.179
62.01000 137.265
62.02000 143.072
62.03000 145.168
62.04000 140.922
62.05000 136.569
62.06000 133.724
62.07000 132.599
62.08000 131.479
62.09000 132.959
62.10000 136.345
62.11000 139.667
62.12000 140.609
62.13000 140.356
62.14000 139.965
62.15000 137.427
62.16000 134.149
62.17000 131.151
62.18000 129.468
62.19000 128.244
62.20000 127.486
62.21000 129.269
62.22000 131.436
62.23000 132.710
62.24000 130.749
62.25000 128.494
62.26000 126.870
62.27000 126.072
62.28000 125.489
62.29000 126.455
62.30000 130.028
62.31000 133.642
62.32000 136.897
62.33000 139.749
62.34000 142.592
62.35000 139.572
62.36000 132.321
62.37000 125.277
62.38000 125.462
62.39000 129.228
62.40000 132.826
62.41000 133.853
62.42000 134.008
62.43000 134.149
62.44000 133.672
62.45000 133.122
62.46000 132.771
62.47000 133.486
62.48000 134.360
62.49000 135.896
62.50000 139.792
62.51000 143.898
62.52000 146.844
62.53000 144.197
62.54000 141.981
62.55000 139.688
62.56000 137.267
62.57000 134.844
62.58000 135.774
62.59000 140.404
62.60000 145.020
62.61000 146.382
62.62000 145.407
62.63000 144.467
62.64000 144.675
62.65000 145.442
62.66000 145.866
62.67000 141.167
62.68000 134.757
62.69000 128.917
62.70000 134.198
62.71000 141.096
62.72000 146.628
62.73000 144.948
62.74000 142.217
62.75000 139.734
62.76000 138.124
62.77000 136.590
62.78000 135.494
62.79000 134.319
62.80000 133.419
62.81000 133.056
62.82000 133.570
62.83000 134.096
62.84000 133.232
62.85000 130.860
62.86000 128.496
62.87000 129.312
62.88000 132.354
62.89000 135.355
62.90000 137.023
62.91000 138.049
62.92000 138.831
62.93000 136.060
62.94000 132.121
62.95000 128.537
62.96000 125.883
62.97000 123.718
62.98000 123.101
62.99000 130.520
63.00000 139.089
63.01000 144.432
63.02000 138.608
63.03000 131.836
63.04000 127.021
63.05000 129.345
63.06000 131.344
63.07000 133.386
63.08000 135.497
63.09000 137.609
63.10000 138.350
63.11000 137.626
63.12000 136.905
63.13000 135.493
63.14000 133.619
63.15000 131.883
63.16000 134.433
63.17000 139.015
63.18000 143.230
63.19000 142.238
63.20000 139.557
63.21000 137.124
63.22000 134.122
63.23000 131.361
63.24000 129.552
63.25000 132.600
63.26000 136.331
63.27000 139.106
63.28000 138.618
63.29000 137.860
63.30000 137.323
63.31000 138.944
63.32000 140.243
63.33000 139.599
63.34000 135.874
63.35000 132.110
63.36000 130.221
63.37000 130.303
63.38000 130.384
63.39000 133.589
63.40000 138.880
63.41000 143.952
63.42000 142.412
63.43000 137.782
63.44000 133.458
63.45000 133.371
63.46000 134.637
63.47000 135.785
63.48000 136.001
63.49000 136.016
63.50000 136.635
63.51000 140.287
63.52000 144.358
63.53000 147.064
63.54000 145.182
63.55000 142.929
63.56000 141.341
63.57000 143.669
63.58000 145.552
63.59000 145.129
63.60000 141.104
63.61000 137.035
63.62000 136.764
63.63000 140.414
63.64000 144.045
63.65000 143.881
63.66000 141.178
63.67000 138.579
63.68000 138.971
63.69000 140.743
63.70000 142.387
63.71000 142.313
63.72000 141.699
63.73000 141.143
63.74000 142.722
63.75000 144.509
63.76000 146.328
63.77000 148.305
63.78000 150.305
63.79000 151.118
63.80000 148.008
63.81000 144.587
63.82000 142.188
63.83000 143.036
63.84000 143.772
63.85000 143.948
63.86000 143.263
63.87000 142.568
63.88000 145.665
63.89000 152.615
63.90000 159.524
63.91000 162.241
63.92000 162.160
63.93000 161.934
63.94000 157.664
63.95000 151.558
63.96000 145.820
63.97000 144.932
63.98000 145.550
63.99000 146.107
64.00000 145.938
64.01000 145.658
64.02000 145.428
64.03000 145.445
64.04000 145.494
64.05000 146.482
64.06000 150.534
64.07000 154.823
64.08000 157.816
64.09000 153.197
64.10000 149.497
64.11000 148.562
64.12000 151.820
64.13000 155.121
64.14000 157.234
64.15000 158.162
64.16000 159.083
64.17000 161.101
64.18000 163.801
64.19000 166.374
64.20000 165.506
64.21000 163.099
64.22000 160.631
64.23000 157.380
64.24000 153.891
64.25000 150.749
64.26000 154.637
64.27000 159.307
64.28000 162.585
64.29000 159.191
64.30000 154.926
64.31000 151.480
64.32000 150.670
64.33000 150.058
64.34000 149.634
64.35000 149.893
64.36000 150.106
64.37000 153.198
64.38000 160.589
64.39000 168.021
64.40000 170.467
64.41000 168.019
64.42000 165.586
64.43000 164.217
64.44000 163.548
64.45000 162.858
64.46000 161.642
64.47000 160.193
64.48000 159.028
64.49000 161.428
64.50000 164.903
64.51000 168.024
64.52000 166.153
64.53000 163.634
64.54000 161.924
64.55000 164.027
64.56000 166.620
64.57000 168.267
64.58000 166.919
64.59000 165.351
64.60000 164.267
64.61000 164.047
64.62000 163.904
64.63000 166.259
64.64000 172.290
64.65000 178.353
64.66000 180.157
64.67000 177.850
64.68000 175.560
64.69000 174.329
64.70000 173.783
64.71000 173.206
64.72000 171.843
64.73000 170.137
64.74000 168.819
64.75000 172.275
64.76000 177.149
64.77000 181.517
64.78000 180.020
64.79000 177.697
64.80000 174.827
64.81000 169.416
64.82000 163.685
64.83000 161.456
64.84000 170.155
64.85000 179.640
64.86000 186.166
64.87000 189.066
64.88000 191.152
64.89000 191.135
64.90000 188.071
64.91000 184.981
64.92000 184.672
64.93000 187.002
64.94000 189.313
64.95000 189.971
64.96000 189.595
64.97000 189.456
64.98000 195.096
64.99000 203.213
65.00000 210.458
65.01000 207.237
65.02000 200.954
65.03000 195.335
65.04000 200.747
65.05000 207.344
65.06000 213.473
65.07000 217.466
65.08000 221.194
65.09000 222.605
65.10000 216.890
65.11000 210.674
65.12000 206.419
65.13000 210.138
65.14000 213.113
65.15000 217.569
65.16000 224.137
65.17000 230.720
65.18000 233.243
65.19000 231.977
65.20000 230.721
65.21000 232.504
65.22000 236.104
65.23000 239.725
65.24000 243.847
65.25000 248.180
65.26000 252.402
65.27000 255.325
65.28000 257.874
65.29000 260.148
65.30000 264.505
65.31000 268.645
65.32000 273.287
65.33000 280.183
65.34000 287.353
65.35000 295.171
65.36000 304.955
65.37000 314.873
65.38000 321.630
65.39000 327.740
65.40000 332.292
65.41000 338.566
65.42000 347.263
65.43000 355.974
65.44000 360.865
65.45000 362.247
65.46000 363.617
65.47000 369.852
65.48000 378.878
65.49000 387.961
65.50000 398.376
65.51000 409.345
65.52000 420.477
65.53000 433.481
65.54000 447.017
65.55000 459.071
65.56000 477.546
65.57000 494.653
65.58000 510.826
65.59000 522.861
65.60000 534.405
65.61000 547.109
65.62000 563.279
65.63000 579.680
65.64000 590.797
65.65000 647.414
65.66000 690.629
65.67000 747.294
65.68000 822.568
65.69000 897.981
65.70000 1006.279
65.71000 1144.279
65.72000 1280.974
65.73000 1424.339
65.74000 1568.708
65.75000 1713.153
65.76000 1859.291
65.77000 2006.123
65.78000 2148.025
65.79000 2234.545
65.80000 2305.572
65.81000 2368.679
65.82000 2411.812
65.83000 2446.002
65.84000 2479.567
65.85000 2510.405
65.86000 2540.924
65.87000 2558.580
65.88000 2538.371
65.89000 2515.694
65.90000 2500.402
65.91000 2433.148
65.92000 2382.016
65.93000 2292.176
65.94000 2149.605
65.95000 2006.735
65.96000 1868.975
65.97000 1735.756
65.98000 1603.876
65.99000 1449.110
66.00000 1284.402
66.01000 1121.662
66.02000 1001.190
66.03000 897.814
66.04000 797.262
66.05000 727.748
66.06000 666.787
66.07000 612.748
66.08000 574.505
66.09000 543.897
66.10000 516.739
66.11000 504.391
66.12000 493.735
66.13000 481.079
66.14000 462.619
66.15000 443.791
66.16000 431.159
66.17000 423.385
66.18000 417.712
66.19000 420.077
66.20000 433.225
66.21000 446.428
66.22000 459.522
66.23000 472.520
66.24000 485.380
66.25000 496.002
66.26000 505.106
66.27000 514.887
66.28000 538.759
66.29000 568.249
66.30000 597.344
66.31000 622.185
66.32000 645.872
66.33000 666.821
66.34000 681.951
66.35000 694.121
66.36000 708.304
66.37000 730.990
66.38000 754.629
66.39000 772.276
66.40000 772.790
66.41000 772.244
66.42000 771.880
66.43000 766.959
66.44000 763.225
66.45000 753.590
66.46000 736.160
66.47000 718.693
66.48000 700.160
66.49000 680.709
66.50000 661.477
66.51000 639.819
66.52000 617.311
66.53000 594.791
66.54000 572.041
66.55000 549.200
66.56000 526.502
66.57000 505.308
66.58000 484.517
66.59000 466.171
66.60000 452.077
66.61000 440.568
66.62000 429.910
66.63000 422.797
66.64000 416.074
66.65000 409.559
66.66000 403.633
66.67000 397.741
66.68000 393.830
66.69000 401.752
66.70000 407.826
66.71000 406.699
66.72000 396.207
66.73000 385.689
66.74000 382.830
66.75000 386.455
66.76000 390.036
66.77000 393.775
66.78000 397.508
66.79000 401.116
66.80000 402.278
66.81000 402.492
66.82000 402.786
66.83000 403.898
66.84000 405.225
66.85000 406.394
66.86000 404.405
66.87000 402.219
66.88000 399.823
66.89000 396.564
66.90000 393.211
66.91000 392.934
66.92000 401.196
66.93000 409.959
66.94000 415.747
66.95000 408.759
66.96000 403.379
66.97000 401.958
66.98000 405.606
66.99000 409.271
67.00000 412.516
67.01000 415.412
67.02000 418.272
67.03000 420.840
67.04000 423.183
67.05000 425.579
67.06000 428.978
67.07000 432.760
67.08000 435.513
67.09000 427.889
67.10000 417.573
67.11000 408.513
67.12000 419.672
67.13000 432.235
67.14000 442.132
67.15000 441.269
67.16000 439.270
67.17000 437.632
67.18000 436.983
67.19000 436.391
67.20000 436.002
67.21000 441.804
67.22000 446.179
67.23000 446.782
67.24000 442.634
67.25000 438.482
67.26000 439.095
67.27000 443.615
67.28000 448.074
67.29000 451.130
67.30000 453.351
67.31000 455.396
67.32000 454.164
67.33000 451.699
67.34000 449.783
67.35000 453.289
67.36000 458.180
67.37000 462.465
67.38000 458.008
67.39000 452.924
67.40000 452.027
67.41000 467.770
67.42000 485.234
67.43000 495.444
67.44000 486.083
67.45000 475.635
67.46000 468.809
67.47000 474.435
67.48000 478.767
67.49000 482.151
67.50000 484.360
67.51000 486.549
67.52000 483.245
67.53000 475.510
67.54000 467.882
67.55000 467.838
67.56000 471.792
67.57000 475.931
67.58000 483.426
67.59000 492.166
67.60000 500.586
67.61000 505.903
67.62000 510.440
67.63000 514.406
67.64000 513.607
67.65000 512.249
67.66000 508.673
67.67000 496.410
67.68000 483.268
67.69000 478.559
67.70000 496.275
67.71000 515.201
67.72000 527.501
67.73000 522.378
67.74000 518.357
67.75000 519.253
67.76000 526.151
67.77000 533.039
67.78000 532.528
67.79000 526.141
67.80000 519.848
67.81000 511.867
67.82000 503.245
67.83000 495.483
67.84000 502.793
67.85000 515.611
67.86000 527.863
67.87000 534.744
67.88000 540.294
67.89000 545.132
67.90000 534.714
67.91000 523.688
67.92000 517.323
67.93000 528.925
67.94000 542.309
67.95000 553.083
67.96000 557.017
67.97000 560.591
67.98000 562.902
67.99000 557.680
68.00000 553.752
68.01000 554.407
68.02000 560.566
68.03000 566.726
68.04000 569.773
68.05000 570.387
68.06000 570.992
68.07000 575.024
68.08000 580.681
68.09000 586.154
68.10000 588.462
68.11000 589.631
68.12000 591.151
68.13000 595.942
68.14000 601.531
68.15000 606.392
68.16000 597.283
68.17000 587.608
68.18000 583.219
68.19000 598.911
68.20000 616.553
68.21000 629.992
68.22000 632.574
68.23000 634.602
68.24000 635.905
68.25000 635.983
68.26000 636.023
68.27000 642.458
68.28000 656.453
68.29000 670.427
68.30000 676.064
68.31000 675.285
68.32000 674.519
68.33000 685.188
68.34000 701.262
68.35000 716.259
68.36000 713.353
68.37000 704.092
68.38000 695.874
68.39000 697.161
68.40000 700.733
68.41000 703.832
68.42000 729.641
68.43000 754.660
68.44000 774.756
68.45000 776.438
68.46000 776.369
68.47000 780.735
68.48000 796.390
68.49000 812.604
68.50000 822.967
68.51000 818.283
68.52000 814.676
68.53000 829.043
68.54000 864.317
68.55000 899.548
68.56000 919.410
68.57000 927.629
68.58000 935.708
68.59000 970.952
68.60000 1018.458
68.61000 1065.861
68.62000 1111.609
68.63000 1156.778
68.64000 1201.015
68.65000 1236.924
68.66000 1270.862
68.67000 1300.228
68.68000 1374.937
68.69000 1444.396
68.70000 1510.686
68.71000 1565.292
68.72000 1618.812
68.73000 1675.888
68.74000 1741.892
68.75000 1808.325
68.76000 1850.542
68.77000 1924.584
68.78000 1978.750
68.79000 2044.113
68.80000 2122.292
68.81000 2200.562
68.82000 2293.563
68.83000 2397.550
68.84000 2499.689
68.85000 2640.518
68.86000 2795.323
68.87000 2957.087
68.88000 3228.510
68.89000 3537.753
68.90000 3895.004
68.91000 4672.591
68.92000 5548.164
68.93000 6303.834
68.94000 8680.004
68.95000 10904.787
68.96000 13477.938
68.97000 17315.881
68.98000 21269.006
68.99000 25459.996
69.00000 30239.381
69.01000 35046.195
69.02000 38083.344
69.03000 43246.199
69.04000 47012.125
69.05000 49974.750
69.06000 52032.805
69.07000 54086.371
69.08000 55496.488
69.09000 56434.035
69.10000 57354.145
69.11000 58191.223
69.12000 58958.598
69.13000 59743.371
69.14000 60795.441
69.15000 61938.359
69.16000 62985.074
69.17000 63205.813
69.18000 63236.973
69.19000 63263.797
69.20000 61219.918
69.21000 59227.535
69.22000 56817.477
69.23000 52913.508
69.24000 48876.438
69.25000 45072.109
69.26000 41835.242
69.27000 38624.023
69.28000 36606.801
69.29000 34044.922
69.30000 32186.764
69.31000 30877.752
69.32000 30177.082
69.33000 29477.752
69.34000 28928.260
69.35000 28487.127
69.36000 28054.563
69.37000 27095.051
69.38000 25922.582
69.39000 24704.705
69.40000 22806.883
69.41000 20681.307
69.42000 18521.297
69.43000 16071.328
69.44000 13555.837
69.45000 11396.115
69.46000 9316.509
69.47000 7568.238
69.48000 5980.833
69.49000 4960.284
69.50000 3989.136
69.51000 3181.828
69.52000 2768.255
69.53000 2371.931
69.54000 2124.427
69.55000 1858.034
69.56000 1665.683
69.57000 1522.526
69.58000 1432.976
69.59000 1343.603
69.60000 1276.321
69.61000 1224.771
69.62000 1174.266
69.63000 1122.387
69.64000 1071.858
69.65000 1022.900
69.66000 996.883
69.67000 978.438
69.68000 958.694
69.69000 928.214
69.70000 895.346
69.71000 867.201
69.72000 845.584
69.73000 828.133
69.74000 810.777
69.75000 793.751
69.76000 776.753
69.77000 759.050
69.78000 739.678
69.79000 720.235
69.80000 708.164
69.81000 686.450
69.82000 670.728
69.83000 658.783
69.84000 650.886
69.85000 643.015
69.86000 638.574
69.87000 636.537
69.88000 634.543
69.89000 619.310
69.90000 598.632
69.91000 578.802
69.92000 571.054
69.93000 567.237
69.94000 563.800
69.95000 563.448
69.96000 563.771
69.97000 564.047
69.98000 563.715
69.99000 563.363
70.00000 562.867
