20.00000 484.135
20.01000 484.183
20.02000 484.239
20.03000 483.782
20.04000 481.307
20.05000 478.627
20.06000 476.650
20.07000 467.126
20.08000 459.431
20.09000 457.762
20.10000 467.048
20.11000 476.564
20.12000 478.345
20.13000 470.707
20.14000 463.061
20.15000 460.078
20.16000 460.776
20.17000 461.588
20.18000 467.241
20.19000 475.464
20.20000 482.737
20.21000 473.623
20.22000 458.574
20.23000 444.716
20.24000 450.371
20.25000 459.705
20.26000 468.158
20.27000 471.542
20.28000 474.114
20.29000 475.320
20.30000 471.340
20.31000 466.858
20.32000 463.586
20.33000 469.991
20.34000 475.306
20.35000 477.558
20.36000 474.437
20.37000 471.216
20.38000 468.020
20.39000 464.852
20.40000 461.693
20.41000 459.852
20.42000 459.019
20.43000 458.243
20.44000 459.638
20.45000 462.145
20.46000 464.369
20.47000 462.004
20.48000 458.035
20.49000 454.397
20.50000 460.202
20.51000 467.358
20.52000 472.226
20.53000 464.442
20.54000 454.718
20.55000 449.088
20.56000 458.435
20.57000 469.160
20.58000 476.909
20.59000 470.982
20.60000 465.941
20.61000 461.345
20.62000 457.504
20.63000 453.674
20.64000 453.694
20.65000 458.052
20.66000 462.399
20.67000 468.566
20.68000 476.006
20.69000 483.149
20.70000 479.938
20.71000 471.606
20.72000 463.394
20.73000 457.003
20.74000 451.228
20.75000 445.958
20.76000 455.076
20.77000 466.065
20.78000 475.096
20.79000 473.716
20.80000 470.806
20.81000 467.695
20.82000 463.873
20.83000 459.989
20.84000 457.213
20.85000 473.236
20.86000 486.091
20.87000 490.325
20.88000 480.473
20.89000 470.421
20.90000 461.729
20.91000 454.510
20.92000 447.323
20.93000 446.472
20.94000 450.058
20.95000 453.554
20.96000 454.207
20.97000 453.500
20.98000 453.522
20.99000 463.963
21.00000 477.800
21.01000 490.364
21.02000 479.533
21.03000 465.444
21.04000 453.137
21.05000 449.933
21.06000 448.009
21.07000 447.537
21.08000 452.001
21.09000 456.874
21.10000 460.318
21.11000 455.712
21.12000 451.967
21.13000 451.344
21.14000 455.640
21.15000 459.996
21.16000 461.379
21.17000 459.671
21.18000 457.971
21.19000 457.823
21.20000 458.719
21.21000 459.530
21.22000 457.900
21.23000 455.144
21.24000 452.357
21.25000 449.168
21.26000 445.853
21.27000 442.857
21.28000 442.534
21.29000 442.745
21.30000 443.173
21.31000 444.673
21.32000 446.317
21.33000 449.280
21.34000 456.578
21.35000 464.214
21.36000 469.551
21.37000 465.111
21.38000 461.480
21.39000 457.473
21.40000 452.894
21.41000 448.308
21.42000 447.984
21.43000 451.912
21.44000 455.816
21.45000 459.076
21.46000 461.871
21.47000 464.446
21.48000 461.139
21.49000 455.211
21.50000 450.141
21.51000 455.993
21.52000 465.160
21.53000 473.401
21.54000 466.570
21.55000 457.911
21.56000 450.952
21.57000 452.030
21.58000 454.142
21.59000 456.776
21.60000 461.066
21.61000 465.479
21.62000 468.528
21.63000 460.735
21.64000 454.597
21.65000 453.293
21.66000 459.069
21.67000 464.906
21.68000 469.972
21.69000 474.298
21.70000 478.592
21.71000 474.279
21.72000 464.684
21.73000 455.563
21.74000 458.095
21.75000 465.640
21.76000 472.802
21.77000 475.362
21.78000 476.573
21.79000 477.657
21.80000 472.895
21.81000 467.748
21.82000 464.629
21.83000 470.738
21.84000 477.982
21.85000 484.743
21.86000 490.030
21.87000 495.213
21.88000 498.753
21.89000 487.459
21.90000 478.664
21.91000 475.393
21.92000 479.920
21.93000 484.503
21.94000 491.646
21.95000 501.147
21.96000 510.563
21.97000 509.344
21.98000 501.784
21.99000 494.886
22.00000 503.067
22.01000 517.511
22.02000 530.469
22.03000 526.473
22.04000 517.686
22.05000 509.870
22.06000 514.878
22.07000 521.314
22.08000 525.057
22.09000 516.995
22.10000 507.547
22.11000 502.167
22.12000 508.796
22.13000 516.212
22.14000 521.215
22.15000 510.586
22.16000 502.346
22.17000 498.280
22.18000 499.891
22.19000 501.534
22.20000 502.285
22.21000 502.249
22.22000 502.212
22.23000 498.684
22.24000 493.222
22.25000 488.027
22.26000 488.447
22.27000 491.120
22.28000 493.921
22.29000 498.110
22.30000 502.676
22.31000 506.717
22.32000 503.174
22.33000 498.930
22.34000 496.142
22.35000 499.499
22.36000 503.543
22.37000 503.023
22.38000 489.486
22.39000 475.149
22.40000 465.598
22.41000 459.308
22.42000 454.714
22.43000 455.093
22.44000 461.986
22.45000 468.893
22.46000 467.160
22.47000 458.077
22.48000 449.100
22.49000 443.478
22.50000 439.852
22.51000 436.359
22.52000 435.482
22.53000 435.618
22.54000 436.135
22.55000 440.570
22.56000 446.034
22.57000 450.840
22.58000 448.620
22.59000 445.664
22.60000 443.481
22.61000 444.447
22.62000 445.749
22.63000 446.565
22.64000 446.045
22.65000 445.448
22.66000 445.056
22.67000 442.120
22.68000 439.915
22.69000 440.763
22.70000 445.463
22.71000 450.168
22.72000 452.072
22.73000 451.683
22.74000 451.298
22.75000 445.737
22.76000 437.567
22.77000 429.890
22.78000 431.255
22.79000 436.003
22.80000 440.628
22.81000 444.066
22.82000 447.204
22.83000 449.947
22.84000 444.544
22.85000 438.756
22.86000 434.732
22.87000 437.632
22.88000 441.235
22.89000 444.846
22.90000 448.481
22.91000 452.118
22.92000 454.479
22.93000 450.574
22.94000 447.619
22.95000 447.750
22.96000 451.626
22.97000 455.486
22.98000 452.455
22.99000 443.994
23.00000 435.661
23.01000 431.637
23.02000 429.948
23.03000 428.224
23.04000 425.921
23.05000 423.409
23.06000 420.933
23.07000 418.792
23.08000 416.734
23.09000 414.945
23.10000 425.051
23.11000 435.289
23.12000 443.192
23.13000 442.267
23.14000 440.491
23.15000 435.768
23.16000 423.484
23.17000 410.820
23.18000 402.708
23.19000 410.412
23.20000 416.235
23.21000 420.218
23.22000 422.050
23.23000 423.860
23.24000 421.454
23.25000 415.851
23.26000 410.342
23.27000 416.018
23.28000 427.028
23.29000 437.477
23.30000 438.898
23.31000 437.172
23.32000 435.895
23.33000 438.597
23.34000 442.235
23.35000 445.379
23.36000 445.250
23.37000 444.716
23.38000 441.053
23.39000 425.984
23.40000 409.869
23.41000 400.340
23.42000 407.133
23.43000 414.691
23.44000 419.465
23.45000 427.280
23.46000 432.978
23.47000 436.413
23.48000 437.308
23.49000 438.211
23.50000 440.934
23.51000 444.984
23.52000 448.958
23.53000 448.796
23.54000 446.673
23.55000 444.543
23.56000 442.289
23.57000 439.993
23.58000 437.603
23.59000 434.410
23.60000 431.036
23.61000 428.138
23.62000 430.394
23.63000 432.939
23.64000 436.549
23.65000 443.902
23.66000 451.581
23.67000 455.842
23.68000 451.923
23.69000 447.650
23.70000 444.988
23.71000 457.750
23.72000 467.103
23.73000 472.117
23.74000 472.449
23.75000 472.788
23.76000 474.245
23.77000 476.490
23.78000 478.687
23.79000 478.929
23.80000 478.268
23.81000 477.672
23.82000 478.013
23.83000 478.657
23.84000 479.800
23.85000 484.962
23.86000 491.001
23.87000 496.154
23.88000 494.848
23.89000 492.986
23.90000 491.917
23.91000 493.534
23.92000 495.373
23.93000 499.339
23.94000 508.225
23.95000 517.307
23.96000 522.883
23.97000 516.501
23.98000 511.823
23.99000 507.209
24.00000 502.660
24.01000 498.186
24.02000 501.943
24.03000 511.284
24.04000 520.409
24.05000 517.805
24.06000 510.148
24.07000 502.969
24.08000 502.198
24.09000 503.437
24.10000 503.662
24.11000 496.069
24.12000 486.835
24.13000 479.009
24.14000 474.546
24.15000 471.184
24.16000 468.635
24.17000 468.749
24.18000 469.071
24.19000 469.818
24.20000 471.518
24.21000 473.253
24.22000 474.302
24.23000 462.638
24.24000 454.234
24.25000 450.868
24.26000 452.516
24.27000 454.134
24.28000 452.972
24.29000 449.992
24.30000 447.088
24.31000 442.971
24.32000 438.530
24.33000 434.539
24.34000 436.254
24.35000 439.697
24.36000 441.603
24.37000 432.180
24.38000 420.467
24.39000 410.607
24.40000 415.234
24.41000 420.644
24.42000 426.426
24.43000 433.383
24.44000 440.428
24.45000 440.484
24.46000 425.478
24.47000 409.962
24.48000 400.720
24.49000 398.447
24.50000 396.880
24.51000 400.896
24.52000 410.244
24.53000 419.491
24.54000 420.635
24.55000 416.669
24.56000 412.814
24.57000 411.647
24.58000 411.634
24.59000 411.994
24.60000 416.815
24.61000 422.940
24.62000 427.919
24.63000 424.821
24.64000 420.154
24.65000 416.252
24.66000 421.602
24.67000 426.987
24.68000 430.176
24.69000 426.671
24.70000 422.703
24.71000 416.891
24.72000 407.243
24.73000 397.476
24.74000 391.749
24.75000 395.983
24.76000 399.016
24.77000 403.949
24.78000 410.627
24.79000 417.189
24.80000 415.832
24.81000 409.659
24.82000 403.672
24.83000 404.107
24.84000 407.038
24.85000 409.260
24.86000 403.430
24.87000 395.332
24.88000 388.856
24.89000 393.348
24.90000 399.889
24.91000 405.318
24.92000 403.138
24.93000 400.600
24.94000 399.925
24.95000 404.735
24.96000 409.902
24.97000 413.068
24.98000 412.209
24.99000 411.237
25.00000 410.676
25.01000 398.025
25.02000 389.124
25.03000 388.567
25.04000 395.366
25.05000 402.163
25.06000 408.832
25.07000 415.426
25.08000 421.803
25.09000 422.435
25.10000 420.862
25.11000 418.893
25.12000 412.649
25.13000 405.243
25.14000 399.217
25.15000 402.123
25.16000 406.633
25.17000 410.349
25.18000 400.140
25.19000 390.461
25.20000 383.710
25.21000 385.279
25.22000 387.357
25.23000 389.859
25.24000 393.184
25.25000 396.531
25.26000 398.430
25.27000 410.531
25.28000 418.973
25.29000 419.149
25.30000 412.315
25.31000 405.606
25.32000 405.459
25.33000 409.029
25.34000 412.472
25.35000 415.803
25.36000 418.895
25.37000 421.253
25.38000 416.099
25.39000 408.976
25.40000 403.250
25.41000 406.194
25.42000 410.633
25.43000 414.263
25.44000 405.185
25.45000 396.644
25.46000 390.652
25.47000 391.652
25.48000 393.054
25.49000 393.710
25.50000 392.969
25.51000 392.195
25.52000 391.764
25.53000 399.144
25.54000 404.247
25.55000 400.776
25.56000 390.311
25.57000 380.009
25.58000 377.339
25.59000 378.843
25.60000 380.288
25.61000 383.759
25.62000 387.719
25.63000 391.944
25.64000 398.744
25.65000 406.194
25.66000 411.852
25.67000 406.826
25.68000 400.032
25.69000 394.518
25.70000 393.251
25.71000 392.568
25.72000 393.994
25.73000 401.009
25.74000 408.323
25.75000 411.489
25.76000 407.157
25.77000 402.670
25.78000 400.211
25.79000 387.239
25.80000 378.317
25.81000 373.677
25.82000 372.400
25.83000 371.261
25.84000 375.933
25.85000 383.669
25.86000 391.086
25.87000 390.806
25.88000 387.957
25.89000 385.236
25.90000 383.709
25.91000 382.473
25.92000 381.796
25.93000 384.322
25.94000 387.355
25.95000 389.798
25.96000 383.586
25.97000 377.870
25.98000 373.263
25.99000 371.490
26.00000 369.859
26.01000 370.079
26.02000 373.527
26.03000 377.034
26.04000 378.922
26.05000 383.701
26.06000 386.938
26.07000 383.444
26.08000 374.860
26.09000 366.611
26.10000 371.050
26.11000 381.954
26.12000 392.374
26.13000 394.783
26.14000 394.432
26.15000 394.158
26.16000 394.555
26.17000 395.110
26.18000 395.630
26.19000 395.956
26.20000 396.252
26.21000 396.489
26.22000 394.603
26.23000 392.922
26.24000 390.596
26.25000 386.675
26.26000 382.680
26.27000 378.176
26.28000 372.818
26.29000 367.446
26.30000 364.609
26.31000 370.133
26.32000 373.886
26.33000 377.102
26.34000 379.928
26.35000 382.789
26.36000 386.856
26.37000 391.517
26.38000 395.957
26.39000 397.677
26.40000 398.425
26.41000 398.307
26.42000 390.897
26.43000 381.839
26.44000 374.211
26.45000 374.127
26.46000 375.144
26.47000 375.950
26.48000 381.340
26.49000 385.993
26.50000 388.577
26.51000 386.225
26.52000 383.661
26.53000 383.389
26.54000 386.840
26.55000 390.342
26.56000 392.157
26.57000 384.129
26.58000 378.729
26.59000 375.771
26.60000 374.527
26.61000 373.350
26.62000 374.234
26.63000 376.098
26.64000 377.867
26.65000 384.281
26.66000 391.590
26.67000 397.081
26.68000 387.957
26.69000 375.654
26.70000 366.344
26.71000 372.228
26.72000 380.234
26.73000 386.523
26.74000 377.252
26.75000 368.813
26.76000 363.651
26.77000 366.039
26.78000 368.728
26.79000 372.838
26.80000 379.173
26.81000 385.535
26.82000 388.768
26.83000 372.765
26.84000 362.154
26.85000 364.320
26.86000 375.127
26.87000 385.576
26.88000 385.784
26.89000 381.296
26.90000 377.051
26.91000 377.953
26.92000 380.263
26.93000 382.050
26.94000 379.825
26.95000 376.759
26.96000 374.646
26.97000 377.192
26.98000 380.361
26.99000 382.828
27.00000 378.250
27.01000 374.170
27.02000 370.799
27.03000 369.005
27.04000 367.270
27.05000 365.725
27.06000 364.466
27.07000 363.210
27.08000 363.943
27.09000 366.646
27.10000 369.305
27.11000 367.933
27.12000 363.930
27.13000 360.259
27.14000 365.286
27.15000 374.165
27.16000 382.533
27.17000 380.315
27.18000 375.359
27.19000 370.838
27.20000 369.524
27.21000 368.855
27.22000 368.305
27.23000 368.311
27.24000 368.389
27.25000 368.449
27.26000 367.694
27.27000 367.048
27.28000 367.474
27.29000 370.203
27.30000 373.010
27.31000 375.038
27.32000 375.930
27.33000 376.813
27.34000 376.736
27.35000 375.746
27.36000 374.722
27.37000 371.066
27.38000 365.754
27.39000 360.918
27.40000 367.629
27.41000 379.278
27.42000 390.217
27.43000 382.385
27.44000 370.258
27.45000 359.447
27.46000 357.890
27.47000 358.126
27.48000 358.380
27.49000 358.712
27.50000 359.053
27.51000 359.314
27.52000 370.433
27.53000 379.795
27.54000 385.516
27.55000 383.684
27.56000 381.620
27.57000 378.079
27.58000 372.468
27.59000 366.844
27.60000 367.922
27.61000 375.123
27.62000 382.152
27.63000 377.533
27.64000 365.849
27.65000 354.734
27.66000 356.370
27.67000 363.273
27.68000 369.730
27.69000 376.871
27.70000 383.532
27.71000 388.843
27.72000 385.071
27.73000 379.608
27.74000 374.449
27.75000 370.617
27.76000 366.939
27.77000 364.153
27.78000 357.772
27.79000 352.579
27.80000 351.822
27.81000 359.955
27.82000 368.337
27.83000 371.500
27.84000 367.610
27.85000 363.683
27.86000 361.851
27.87000 361.858
27.88000 361.882
27.89000 362.842
27.90000 364.350
27.91000 365.982
27.92000 370.197
27.93000 375.441
27.94000 380.327
27.95000 369.591
27.96000 356.049
27.97000 344.968
27.98000 349.770
27.99000 357.413
28.00000 363.047
28.01000 360.244
28.02000 356.504
28.03000 353.697
28.04000 355.499
28.05000 357.125
28.06000 356.603
28.07000 351.923
28.08000 347.137
28.09000 346.548
28.10000 351.421
28.11000 356.312
28.12000 356.057
28.13000 351.464
28.14000 346.941
28.15000 346.022
28.16000 347.140
28.17000 348.492
28.18000 354.386
28.19000 362.030
28.20000 369.121
28.21000 368.029
28.22000 365.118
28.23000 362.125
28.24000 358.621
28.25000 355.029
28.26000 353.263
28.27000 358.877
28.28000 365.272
28.29000 370.024
28.30000 370.710
28.31000 371.063
28.32000 370.531
28.33000 368.347
28.34000 366.125
28.35000 366.681
28.36000 370.718
28.37000 374.760
28.38000 373.154
28.39000 366.977
28.40000 360.805
28.41000 354.825
28.42000 348.950
28.43000 343.640
28.44000 348.568
28.45000 357.304
28.46000 365.374
28.47000 359.317
28.48000 350.691
28.49000 343.865
28.50000 347.734
28.51000 353.367
28.52000 357.839
28.53000 357.787
28.54000 357.280
28.55000 356.907
28.56000 351.006
28.57000 346.213
28.58000 344.589
28.59000 348.676
28.60000 352.879
28.61000 354.256
28.62000 352.222
28.63000 350.185
28.64000 347.894
28.65000 345.417
28.66000 343.063
28.67000 345.887
28.68000 351.433
28.69000 356.656
28.70000 356.387
28.71000 354.146
28.72000 352.085
28.73000 349.036
28.74000 346.098
28.75000 343.695
28.76000 344.343
28.77000 345.473
28.78000 346.789
28.79000 348.804
28.80000 350.886
28.81000 352.401
28.82000 345.715
28.83000 340.254
28.84000 338.752
28.85000 344.138
28.86000 349.648
28.87000 351.630
28.88000 349.520
28.89000 347.410
28.90000 347.112
28.91000 348.171
28.92000 349.176
28.93000 348.127
28.94000 346.036
28.95000 344.192
28.96000 346.295
28.97000 349.765
28.98000 352.943
28.99000 353.523
29.00000 353.499
29.01000 353.162
29.02000 351.108
29.03000 348.795
29.04000 348.293
29.05000 354.358
29.06000 361.021
29.07000 365.821
29.08000 356.959
29.09000 349.686
29.10000 346.965
29.11000 351.882
29.12000 356.920
29.13000 356.183
29.14000 349.005
29.15000 341.847
29.16000 338.844
29.17000 338.857
29.18000 338.956
29.19000 342.015
29.20000 346.524
29.21000 350.875
29.22000 352.855
29.23000 354.041
29.24000 355.122
29.25000 356.715
29.26000 358.229
29.27000 359.207
29.28000 357.359
29.29000 355.101
29.30000 352.757
29.31000 350.114
29.32000 347.445
29.33000 345.542
29.34000 348.744
29.35000 351.351
29.36000 353.542
29.37000 355.058
29.38000 356.564
29.39000 357.874
29.40000 358.972
29.41000 360.066
29.42000 362.096
29.43000 364.752
29.44000 367.115
29.45000 360.407
29.46000 349.403
29.47000 339.073
29.48000 338.223
29.49000 340.435
29.50000 342.442
29.51000 349.184
29.52000 356.039
29.53000 360.573
29.54000 353.366
29.55000 344.525
29.56000 339.037
29.57000 344.860
29.58000 351.606
29.59000 356.361
29.60000 356.147
29.61000 355.836
29.62000 356.137
29.63000 357.394
29.64000 358.663
29.65000 357.668
29.66000 354.342
29.67000 351.034
29.68000 350.135
29.69000 350.850
29.70000 351.549
29.71000 351.763
29.72000 351.757
29.73000 352.085
29.74000 356.866
29.75000 363.036
29.76000 368.603
29.77000 366.274
29.78000 362.780
29.79000 359.470
29.80000 357.057
29.81000 354.763
29.82000 353.268
29.83000 354.373
29.84000 355.678
29.85000 356.587
29.86000 358.844
29.87000 360.584
29.88000 361.957
29.89000 362.777
29.90000 363.591
29.91000 367.272
29.92000 373.786
29.93000 380.256
29.94000 380.173
29.95000 375.895
29.96000 371.634
29.97000 367.854
29.98000 364.285
29.99000 361.439
30.00000 367.649
30.01000 376.584
30.02000 384.607
30.03000 384.358
30.04000 382.688
30.05000 380.537
30.06000 376.133
30.07000 371.442
30.08000 369.739
30.09000 377.423
30.10000 385.789
30.11000 391.553
30.12000 398.114
30.13000 403.060
30.14000 400.815
30.15000 388.134
30.16000 375.367
30.17000 368.492
30.18000 367.207
30.19000 365.932
30.20000 366.321
30.21000 367.728
30.22000 369.162
30.23000 371.246
30.24000 373.608
30.25000 375.871
30.26000 376.953
30.27000 377.692
30.28000 378.351
30.29000 370.742
30.30000 362.723
30.31000 356.164
30.32000 356.190
30.33000 357.016
30.34000 358.515
30.35000 362.052
30.36000 365.729
30.37000 368.232
30.38000 364.417
30.39000 361.423
30.40000 359.453
30.41000 358.917
30.42000 358.388
30.43000 355.264
30.44000 349.775
30.45000 344.336
30.46000 346.239
30.47000 352.456
30.48000 358.604
30.49000 363.228
30.50000 367.224
30.51000 370.476
30.52000 365.352
30.53000 357.883
30.54000 351.248
30.55000 357.669
30.56000 365.340
30.57000 371.895
30.58000 373.605
30.59000 374.752
30.60000 373.933
30.61000 367.357
30.62000 360.410
30.63000 355.738
30.64000 354.048
30.65000 352.853
30.66000 354.826
30.67000 361.067
30.68000 367.330
30.69000 371.860
30.70000 374.872
30.71000 377.852
30.72000 381.274
30.73000 384.870
30.74000 388.125
30.75000 384.327
30.76000 377.725
30.77000 371.999
30.78000 375.644
30.79000 381.820
30.80000 387.276
30.81000 383.341
30.82000 378.497
30.83000 377.030
30.84000 389.689
30.85000 403.911
30.86000 411.559
30.87000 400.632
30.88000 388.580
30.89000 380.576
30.90000 388.264
30.91000 394.237
30.92000 400.702
30.93000 407.802
30.94000 414.901
30.95000 419.314
30.96000 421.464
30.97000 423.588
30.98000 436.949
30.99000 456.140
31.00000 474.721
31.01000 481.535
31.02000 483.832
31.03000 486.465
31.04000 492.510
31.05000 499.444
31.06000 505.535
31.07000 526.212
31.08000 546.135
31.09000 566.542
31.10000 588.897
31.11000 611.459
31.12000 633.174
31.13000 652.584
31.14000 671.862
31.15000 684.502
31.16000 715.218
31.17000 738.104
31.18000 760.104
31.19000 780.997
31.20000 801.907
31.21000 830.342
31.22000 864.878
31.23000 898.934
31.24000 933.371
31.25000 967.039
31.26000 1000.591
31.27000 1032.047
31.28000 1062.726
31.29000 1091.757
31.30000 1104.886
31.31000 1114.021
31.32000 1122.000
31.33000 1149.913
31.34000 1176.609
31.35000 1201.120
31.36000 1217.142
31.37000 1232.313
31.38000 1243.525
31.39000 1244.307
31.40000 1244.536
31.41000 1244.685
31.42000 1238.836
31.43000 1234.469
31.44000 1215.629
31.45000 1179.389
31.46000 1143.152
31.47000 1117.422
31.48000 1099.888
31.49000 1082.630
31.50000 1061.566
31.51000 1039.222
31.52000 1016.092
31.53000 979.686
31.54000 938.528
31.55000 898.570
31.56000 869.640
31.57000 843.379
31.58000 820.582
31.59000 788.349
31.60000 759.615
31.61000 730.041
31.62000 697.315
31.63000 664.289
31.64000 635.252
31.65000 616.365
31.66000 597.980
31.67000 586.243
31.68000 564.643
31.69000 548.801
31.70000 533.972
31.71000 520.315
31.72000 506.654
31.73000 492.107
31.74000 476.892
31.75000 461.944
31.76000 446.454
31.77000 431.227
31.78000 416.731
31.79000 413.820
31.80000 414.913
31.81000 415.003
31.82000 406.323
31.83000 395.598
31.84000 386.345
31.85000 384.735
31.86000 384.349
31.87000 384.773
31.88000 388.122
31.89000 391.735
31.90000 391.257
31.91000 380.730
31.92000 369.741
31.93000 362.823
31.94000 359.817
31.95000 357.686
31.96000 357.821
31.97000 360.475
31.98000 363.122
31.99000 364.375
32.00000 364.619
32.01000 364.858
32.02000 362.869
32.03000 359.905
32.04000 357.039
32.05000 355.630
32.06000 354.708
32.07000 353.208
32.08000 346.887
32.09000 339.483
32.10000 333.137
32.11000 332.537
32.12000 332.733
32.13000 333.388
32.14000 335.643
32.15000 338.035
32.16000 338.822
32.17000 335.800
32.18000 332.616
32.19000 330.640
32.20000 332.280
32.21000 333.496
32.22000 334.874
32.23000 336.427
32.24000 338.000
32.25000 342.214
32.26000 348.269
32.27000 354.194
32.28000 353.019
32.29000 348.675
32.30000 344.543
32.31000 343.395
32.32000 343.207
32.33000 342.458
32.34000 337.230
32.35000 331.032
32.36000 325.754
32.37000 324.784
32.38000 324.470
32.39000 325.228
32.40000 329.590
32.41000 334.245
32.42000 335.549
32.43000 329.177
32.44000 322.504
32.45000 318.422
32.46000 324.394
32.47000 328.751
32.48000 328.305
32.49000 322.934
32.50000 317.579
32.51000 314.108
32.52000 311.903
32.53000 309.749
32.54000 315.920
32.55000 325.452
32.56000 334.498
32.57000 337.109
32.58000 337.721
32.59000 337.658
32.60000 332.457
32.61000 326.187
32.62000 320.882
32.63000 319.839
32.64000 319.439
32.65000 318.824
32.66000 317.512
32.67000 316.145
32.68000 313.993
32.69000 310.102
32.70000 306.148
32.71000 303.765
32.72000 312.029
32.73000 317.984
32.74000 321.456
32.75000 322.484
32.76000 323.529
32.77000 326.178
32.78000 329.866
32.79000 333.458
32.80000 342.782
32.81000 354.075
32.82000 365.243
32.83000 374.841
32.84000 383.970
32.85000 394.278
32.86000 413.192
32.87000 433.828
32.88000 451.169
32.89000 456.566
32.90000 459.802
32.91000 463.154
32.92000 466.872
32.93000 470.617
32.94000 477.083
32.95000 489.363
32.96000 501.837
32.97000 509.238
32.98000 503.141
32.99000 498.750
33.00000 502.378
33.01000 513.587
33.02000 524.511
33.03000 513.702
33.04000 489.308
33.05000 465.609
33.06000 453.862
33.07000 447.532
33.08000 440.203
33.09000 421.086
33.10000 398.556
33.11000 378.319
33.12000 374.090
33.13000 372.943
33.14000 371.985
33.15000 357.822
33.16000 344.748
33.17000 331.988
33.18000 320.173
33.19000 308.422
33.20000 301.557
33.21000 304.769
33.22000 308.287
33.23000 310.342
33.24000 304.924
33.25000 301.080
33.26000 300.611
33.27000 303.209
33.28000 305.725
33.29000 302.878
33.30000 296.795
33.31000 290.901
33.32000 288.489
33.33000 287.559
33.34000 286.842
33.35000 288.515
33.36000 290.857
33.37000 293.013
33.38000 293.935
33.39000 294.628
33.40000 295.202
33.41000 297.874
33.42000 300.280
33.43000 301.363
33.44000 298.582
33.45000 295.555
33.46000 294.006
33.47000 295.405
33.48000 296.885
33.49000 297.736
33.50000 292.385
33.51000 288.626
33.52000 288.921
33.53000 292.757
33.54000 296.614
33.55000 301.658
33.56000 307.393
33.57000 312.935
33.58000 306.602
33.59000 296.188
33.60000 286.660
33.61000 286.552
33.62000 288.982
33.63000 291.462
33.64000 294.264
33.65000 297.124
33.66000 299.477
33.67000 291.367
33.68000 283.754
33.69000 279.278
33.70000 283.640
33.71000 288.535
33.72000 290.696
33.73000 287.603
33.74000 284.379
33.75000 282.558
33.76000 292.041
33.77000 298.660
33.78000 302.450
33.79000 303.862
33.80000 305.268
33.81000 306.320
33.82000 307.173
33.83000 307.995
33.84000 305.748
33.85000 302.532
33.86000 299.617
33.87000 299.739
33.88000 300.649
33.89000 301.607
33.90000 302.860
33.91000 304.163
33.92000 305.226
33.93000 297.108
33.94000 289.679
33.95000 285.114
33.96000 288.341
33.97000 292.007
33.98000 295.349
33.99000 298.086
34.00000 300.810
34.01000 302.323
34.02000 312.207
34.03000 319.041
34.04000 321.407
34.05000 320.164
34.06000 318.971
34.07000 320.107
34.08000 322.504
34.09000 324.807
34.10000 321.585
34.11000 316.656
34.12000 313.364
34.13000 325.800
34.14000 342.171
34.15000 355.244
34.16000 348.865
34.17000 339.300
34.18000 331.553
34.19000 327.257
34.20000 324.040
34.21000 322.876
34.22000 327.104
34.23000 331.615
34.24000 334.145
34.25000 333.124
34.26000 332.033
34.27000 331.437
34.28000 328.816
34.29000 327.020
34.30000 327.082
34.31000 328.589
34.32000 330.079
34.33000 330.894
34.34000 331.357
34.35000 331.800
34.36000 336.338
34.37000 341.934
34.38000 346.734
34.39000 344.246
34.40000 340.000
34.41000 335.727
34.42000 331.303
34.43000 326.855
34.44000 323.280
34.45000 319.633
34.46000 316.672
34.47000 316.880
34.48000 325.126
34.49000 333.767
34.50000 336.542
34.51000 329.173
34.52000 321.625
34.53000 317.582
34.54000 320.245
34.55000 322.040
34.56000 318.208
34.57000 310.163
34.58000 302.273
34.59000 300.115
34.60000 300.851
34.61000 301.553
34.62000 303.419
34.63000 305.525
34.64000 307.252
34.65000 305.662
34.66000 303.303
34.67000 301.130
34.68000 299.976
34.69000 298.975
34.70000 298.177
34.71000 295.366
34.72000 292.951
34.73000 291.910
34.74000 294.234
34.75000 296.711
34.76000 297.388
34.77000 295.061
34.78000 292.687
34.79000 291.439
34.80000 293.780
34.81000 295.345
34.82000 293.360
34.83000 288.813
34.84000 284.357
34.85000 282.933
34.86000 282.987
34.87000 283.039
34.88000 282.168
34.89000 281.078
34.90000 280.100
34.91000 280.047
34.92000 280.202
34.93000 279.968
34.94000 277.702
34.95000 275.143
34.96000 273.121
34.97000 269.584
34.98000 266.641
34.99000 267.172
35.00000 275.924
35.01000 285.024
35.02000 289.606
35.03000 286.920
35.04000 284.137
35.05000 282.701
35.06000 275.255
35.07000 270.239
35.08000 265.325
35.09000 260.483
35.10000 255.745
35.11000 254.204
35.12000 254.167
35.13000 254.132
35.14000 262.590
35.15000 272.903
35.16000 281.746
35.17000 278.909
35.18000 273.556
35.19000 268.835
35.20000 267.296
35.21000 266.197
35.22000 265.335
35.23000 261.791
35.24000 258.785
35.25000 256.856
35.26000 257.386
35.27000 258.012
35.28000 258.187
35.29000 257.663
35.30000 257.130
35.31000 256.861
35.32000 266.596
35.33000 273.072
35.34000 275.459
35.35000 275.105
35.36000 274.785
35.37000 275.382
35.38000 276.396
35.39000 277.355
35.40000 275.004
35.41000 271.903
35.42000 268.469
35.43000 262.507
35.44000 256.020
35.45000 251.448
35.46000 256.136
35.47000 262.047
35.48000 266.640
35.49000 264.766
35.50000 262.883
35.51000 262.486
35.52000 265.368
35.53000 268.369
35.54000 270.167
35.55000 270.165
35.56000 270.145
35.57000 267.894
35.58000 263.453
35.59000 259.076
35.60000 260.254
35.61000 265.023
35.62000 269.508
35.63000 266.659
35.64000 260.591
35.65000 254.877
35.66000 256.005
35.67000 258.911
35.68000 261.118
35.69000 258.255
35.70000 254.381
35.71000 253.266
35.72000 264.992
35.73000 278.340
35.74000 288.617
35.75000 275.656
35.76000 264.069
35.77000 257.471
35.78000 261.500
35.79000 265.879
35.80000 268.656
35.81000 269.122
35.82000 269.569
35.83000 265.110
35.84000 256.032
35.85000 247.034
35.86000 244.108
35.87000 244.967
35.88000 246.038
35.89000 252.168
35.90000 260.442
35.91000 268.205
35.92000 266.967
35.93000 263.473
35.94000 260.486
35.95000 261.023
35.96000 262.236
35.97000 263.113
35.98000 262.489
35.99000 261.684
36.00000 261.070
36.01000 257.730
36.02000 254.953
36.03000 253.025
36.04000 252.843
36.05000 252.714
36.06000 253.227
36.07000 254.634
36.08000 256.045
36.09000 258.278
36.10000 261.252
36.11000 264.223
36.12000 266.965
36.13000 269.569
36.14000 271.895
36.15000 268.107
36.16000 261.816
36.17000 255.937
36.18000 258.603
36.19000 263.181
36.20000 266.514
36.21000 261.558
36.22000 255.073
36.23000 249.683
36.24000 249.020
36.25000 248.901
36.26000 248.812
36.27000 255.729
36.28000 261.503
36.29000 266.545
36.30000 270.129
36.31000 273.674
36.32000 271.689
36.33000 262.298
36.34000 252.875
36.35000 248.383
36.36000 248.183
36.37000 248.025
36.38000 250.270
36.39000 253.909
36.40000 257.285
36.41000 255.270
36.42000 251.125
36.43000 247.267
36.44000 251.840
36.45000 258.020
36.46000 262.845
36.47000 259.026
36.48000 253.675
36.49000 248.604
36.50000 244.693
36.51000 240.910
36.52000 238.079
36.53000 243.704
36.54000 248.489
36.55000 251.350
36.56000 250.523
36.57000 249.605
36.58000 250.290
36.59000 253.044
36.60000 255.803
36.61000 257.407
36.62000 258.041
36.63000 258.707
36.64000 260.938
36.65000 264.044
36.66000 266.736
36.67000 261.506
36.68000 253.252
36.69000 245.603
36.70000 247.937
36.71000 252.365
36.72000 255.982
36.73000 254.641
36.74000 252.457
36.75000 250.298
36.76000 248.243
36.77000 246.198
36.78000 244.682
36.79000 248.403
36.80000 251.521
36.81000 254.826
36.82000 258.479
36.83000 262.140
36.84000 265.157
36.85000 267.375
36.86000 269.587
36.87000 269.762
36.88000 268.304
36.89000 266.858
36.90000 265.963
36.91000 265.364
36.92000 264.968
36.93000 268.174
36.94000 272.708
36.95000 276.891
36.96000 274.263
36.97000 270.385
36.98000 267.187
36.99000 267.992
37.00000 269.451
37.01000 269.917
37.02000 266.551
37.03000 262.803
37.04000 260.053
37.05000 266.915
37.06000 272.607
37.07000 276.522
37.08000 277.260
37.09000 277.937
37.10000 278.633
37.11000 279.355
37.12000 280.074
37.13000 277.218
37.14000 271.620
37.15000 266.125
37.16000 264.804
37.17000 265.659
37.18000 266.352
37.19000 264.342
37.20000 261.370
37.21000 258.640
37.22000 253.573
37.23000 248.550
37.24000 244.878
37.25000 248.835
37.26000 253.988
37.27000 256.998
37.28000 252.032
37.29000 246.312
37.30000 242.158
37.31000 254.388
37.32000 264.408
37.33000 271.307
37.34000 272.824
37.35000 274.248
37.36000 273.151
37.37000 269.158
37.38000 265.174
37.39000 259.212
37.40000 251.828
37.41000 244.634
37.42000 244.439
37.43000 247.768
37.44000 251.170
37.45000 255.741
37.46000 260.713
37.47000 265.260
37.48000 258.453
37.49000 250.066
37.50000 242.687
37.51000 240.779
37.52000 239.693
37.53000 239.946
37.54000 245.006
37.55000 250.497
37.56000 254.442
37.57000 250.678
37.58000 247.531
37.59000 245.577
37.60000 245.608
37.61000 245.670
37.62000 249.454
37.63000 257.350
37.64000 265.218
37.65000 263.147
37.66000 254.011
37.67000 245.120
37.68000 244.346
37.69000 247.517
37.70000 250.744
37.71000 254.796
37.72000 259.121
37.73000 263.057
37.74000 256.012
37.75000 247.609
37.76000 241.101
37.77000 244.477
37.78000 249.274
37.79000 252.888
37.80000 252.402
37.81000 251.568
37.82000 250.976
37.83000 256.675
37.84000 261.216
37.85000 261.992
37.86000 256.728
37.87000 251.384
37.88000 246.895
37.89000 243.311
37.90000 239.744
37.91000 240.725
37.92000 244.812
37.93000 248.829
37.94000 250.732
37.95000 251.643
37.96000 252.262
37.97000 248.828
37.98000 244.096
37.99000 239.809
38.00000 246.398
38.01000 254.264
38.02000 261.080
38.03000 262.634
38.04000 263.464
38.05000 263.892
38.06000 262.974
38.07000 261.947
38.08000 261.226
38.09000 256.955
38.10000 253.615
38.11000 252.693
38.12000 255.513
38.13000 258.375
38.14000 262.675
38.15000 268.441
38.16000 274.174
38.17000 272.474
38.18000 265.895
38.19000 259.544
38.20000 259.491
38.21000 262.294
38.22000 264.736
38.23000 262.449
38.24000 258.700
38.25000 255.321
38.26000 257.921
38.27000 261.287
38.28000 265.065
38.29000 270.826
38.30000 276.848
38.31000 281.188
38.32000 280.100
38.33000 278.601
38.34000 277.558
38.35000 291.283
38.36000 302.024
38.37000 309.042
38.38000 310.504
38.39000 311.913
38.40000 316.404
38.41000 323.910
38.42000 331.363
38.43000 339.583
38.44000 348.161
38.45000 357.208
38.46000 378.269
38.47000 404.588
38.48000 430.098
38.49000 445.601
38.50000 458.119
38.51000 469.344
38.52000 494.501
38.53000 518.903
38.54000 542.041
38.55000 559.309
38.56000 575.838
38.57000 598.066
38.58000 638.038
38.59000 679.282
38.60000 707.611
38.61000 726.774
38.62000 740.918
38.63000 761.874
38.64000 792.624
38.65000 823.450
38.66000 846.554
38.67000 862.408
38.68000 878.131
38.69000 887.326
38.70000 892.372
38.71000 897.322
38.72000 900.006
38.73000 901.731
38.74000 903.116
38.75000 900.515
38.76000 896.766
38.77000 893.423
38.78000 883.706
38.79000 874.191
38.80000 861.993
38.81000 837.809
38.82000 812.184
38.83000 787.705
38.84000 766.671
38.85000 745.869
38.86000 731.751
38.87000 686.408
38.88000 651.888
38.89000 623.045
38.90000 602.068
38.91000 581.138
38.92000 555.245
38.93000 524.874
38.94000 494.794
38.95000 469.188
38.96000 446.737
38.97000 424.602
38.98000 409.384
38.99000 396.990
39.00000 383.984
39.01000 364.197
39.02000 342.527
39.03000 323.304
39.04000 310.966
39.05000 301.375
39.06000 293.368
39.07000 292.178
39.08000 291.769
39.09000 289.232
39.10000 280.521
39.11000 271.417
39.12000 265.315
39.13000 264.910
39.14000 264.724
39.15000 262.707
39.16000 258.244
39.17000 253.772
39.18000 250.686
39.19000 248.803
39.20000 246.941
39.21000 247.370
39.22000 249.083
39.23000 250.595
39.24000 247.994
39.25000 243.772
39.26000 239.729
39.27000 237.566
39.28000 235.906
39.29000 234.442
39.30000 239.468
39.31000 244.791
39.32000 248.112
39.33000 243.130
39.34000 237.241
39.35000 232.532
39.36000 231.125
39.37000 229.914
39.38000 229.113
39.39000 241.598
39.40000 251.056
39.41000 253.676
39.42000 247.508
39.43000 241.312
39.44000 238.034
39.45000 237.192
39.46000 236.360
39.47000 235.115
39.48000 233.678
39.49000 232.408
39.50000 234.300
39.51000 237.394
39.52000 240.096
39.53000 238.862
39.54000 236.612
39.55000 234.639
39.56000 235.317
39.57000 236.285
39.58000 237.129
39.59000 237.478
39.60000 237.775
39.61000 236.604
39.62000 231.464
39.63000 226.103
39.64000 222.599
39.65000 230.555
39.66000 236.582
39.67000 237.721
39.68000 232.812
39.69000 227.893
39.70000 225.437
39.71000 224.959
39.72000 224.487
39.73000 228.698
39.74000 235.238
39.75000 241.062
39.76000 234.226
39.77000 222.737
39.78000 212.893
39.79000 218.725
39.80000 228.457
39.81000 236.943
39.82000 238.821
39.83000 239.508
39.84000 239.842
39.85000 238.813
39.86000 237.650
39.87000 236.192
39.88000 233.963
39.89000 231.695
39.90000 230.232
39.91000 231.443
39.92000 232.365
39.93000 232.899
39.94000 232.969
39.95000 233.031
39.96000 231.496
39.97000 228.726
39.98000 226.001
39.99000 223.637
40.00000 221.531
40.01000 219.820
40.02000 224.670
40.03000 231.849
40.04000 238.263
40.05000 237.733
40.06000 235.540
40.07000 233.638
40.08000 226.433
40.09000 219.596
40.10000 214.425
40.11000 215.436
40.12000 217.029
40.13000 219.065
40.14000 222.215
40.15000 225.420
40.16000 227.459
40.17000 227.868
40.18000 228.144
40.19000 227.944
40.20000 227.197
40.21000 226.440
40.22000 223.928
40.23000 220.109
40.24000 216.358
40.25000 213.790
40.26000 211.884
40.27000 210.332
40.28000 214.293
40.29000 220.143
40.30000 225.185
40.31000 223.241
40.32000 219.683
40.33000 216.618
40.34000 219.524
40.35000 222.743
40.36000 225.206
40.37000 224.958
40.38000 224.468
40.39000 224.158
40.40000 224.288
40.41000 224.437
40.42000 224.531
40.43000 216.979
40.44000 211.440
40.45000 212.680
40.46000 221.383
40.47000 230.028
40.48000 229.351
40.49000 221.990
40.50000 214.776
40.51000 212.283
40.52000 212.086
40.53000 211.876
40.54000 211.462
40.55000 210.982
40.56000 211.168
40.57000 216.861
40.58000 223.779
40.59000 229.700
40.60000 225.863
40.61000 221.447
40.62000 217.766
40.63000 216.624
40.64000 215.697
40.65000 215.314
40.66000 216.214
40.67000 217.167
40.68000 217.757
40.69000 216.300
40.70000 215.233
40.71000 218.338
40.72000 225.852
40.73000 233.300
40.74000 232.572
40.75000 226.195
40.76000 219.958
40.77000 218.551
40.78000 219.369
40.79000 219.707
40.80000 213.427
40.81000 205.033
40.82000 197.807
40.83000 199.786
40.84000 203.737
40.85000 207.096
40.86000 204.657
40.87000 201.941
40.88000 200.274
40.89000 202.102
40.90000 204.210
40.91000 206.354
40.92000 208.580
40.93000 210.808
40.94000 212.166
40.95000 211.799
40.96000 211.523
40.97000 210.648
40.98000 209.163
40.99000 207.732
41.00000 211.834
41.01000 219.621
41.02000 227.218
41.03000 225.283
41.04000 219.317
41.05000 213.913
41.06000 215.846
41.07000 220.039
41.08000 222.953
41.09000 216.227
41.10000 207.514
41.11000 200.156
41.12000 205.281
41.13000 210.934
41.14000 215.075
41.15000 214.353
41.16000 213.262
41.17000 212.133
41.18000 210.919
41.19000 209.702
41.20000 208.971
41.21000 208.235
41.22000 207.712
41.23000 207.381
41.24000 207.238
41.25000 207.090
41.26000 206.578
41.27000 205.834
41.28000 205.109
41.29000 208.882
41.30000 214.346
41.31000 219.160
41.32000 215.966
41.33000 210.391
41.34000 205.386
41.35000 204.498
41.36000 204.425
41.37000 204.364
41.38000 203.046
41.39000 201.818
41.40000 200.302
41.41000 197.891
41.42000 195.416
41.43000 194.345
41.44000 196.247
41.45000 198.246
41.46000 199.427
41.47000 208.047
41.48000 214.177
41.49000 217.122
41.50000 217.085
41.51000 217.016
41.52000 214.640
41.53000 210.834
41.54000 207.138
41.55000 205.885
41.56000 205.673
41.57000 205.516
41.58000 205.997
41.59000 206.662
41.60000 206.966
41.61000 204.775
41.62000 202.108
41.63000 199.887
41.64000 199.965
41.65000 200.258
41.66000 199.761
41.67000 196.899
41.68000 193.877
41.69000 194.571
41.70000 202.862
41.71000 211.377
41.72000 216.329
41.73000 206.224
41.74000 199.063
41.75000 197.561
41.76000 201.148
41.77000 204.675
41.78000 204.406
41.79000 201.869
41.80000 199.413
41.81000 202.377
41.82000 207.267
41.83000 211.862
41.84000 213.197
41.85000 213.630
41.86000 213.981
41.87000 213.795
41.88000 213.510
41.89000 213.274
41.90000 215.135
41.91000 216.867
41.92000 217.471
41.93000 214.813
41.94000 211.948
41.95000 210.590
41.96000 212.207
41.97000 213.904
41.98000 214.875
41.99000 209.810
42.00000 206.256
42.01000 205.390
42.02000 206.849
42.03000 208.340
42.04000 211.731
42.05000 216.216
42.06000 220.547
42.07000 220.896
42.08000 219.752
42.09000 218.479
42.10000 215.863
42.11000 212.888
42.12000 210.288
42.13000 210.060
42.14000 210.250
42.15000 210.406
42.16000 213.610
42.17000 216.512
42.18000 217.961
42.19000 215.348
42.20000 212.494
42.21000 210.325
42.22000 209.462
42.23000 208.631
42.24000 208.163
42.25000 215.221
42.26000 220.133
42.27000 221.979
42.28000 221.277
42.29000 220.529
42.30000 217.537
42.31000 213.297
42.32000 209.214
42.33000 210.076
42.34000 212.647
42.35000 214.728
42.36000 211.931
42.37000 207.878
42.38000 204.986
42.39000 209.154
42.40000 214.515
42.41000 218.882
42.42000 221.264
42.43000 223.042
42.44000 223.421
42.45000 220.030
42.46000 216.429
42.47000 214.553
42.48000 215.851
42.49000 217.218
42.50000 217.973
42.51000 224.142
42.52000 228.383
42.53000 224.782
42.54000 214.905
42.55000 205.223
42.56000 204.239
42.57000 207.926
42.58000 211.466
42.59000 214.488
42.60000 217.136
42.61000 219.345
42.62000 217.380
42.63000 214.381
42.64000 211.422
42.65000 208.695
42.66000 206.006
42.67000 203.833
42.68000 207.732
42.69000 211.390
42.70000 215.051
42.71000 218.721
42.72000 222.392
42.73000 223.729
42.74000 220.923
42.75000 218.037
42.76000 216.469
42.77000 205.952
42.78000 198.768
42.79000 200.860
42.80000 210.100
42.81000 219.059
42.82000 216.856
42.83000 208.866
42.84000 201.219
42.85000 200.624
42.86000 202.395
42.87000 203.719
42.88000 201.006
42.89000 197.328
42.90000 194.430
42.91000 195.900
42.92000 198.049
42.93000 199.772
42.94000 196.529
42.95000 193.527
42.96000 192.317
42.97000 195.614
42.98000 199.128
42.99000 201.501
43.00000 201.918
43.01000 202.303
43.02000 202.508
43.03000 207.726
43.04000 211.266
43.05000 211.153
43.06000 208.331
43.07000 205.578
43.08000 205.329
43.09000 206.333
43.10000 207.291
43.11000 203.322
43.12000 198.075
43.13000 193.760
43.14000 197.471
43.15000 203.030
43.16000 206.850
43.17000 201.305
43.18000 194.364
43.19000 188.844
43.20000 192.429
43.21000 195.970
43.22000 198.598
43.23000 199.008
43.24000 199.319
43.25000 198.629
43.26000 196.283
43.27000 193.912
43.28000 192.671
43.29000 190.492
43.30000 189.019
43.31000 188.029
43.32000 187.384
43.33000 186.839
43.34000 189.578
43.35000 193.903
43.36000 198.016
43.37000 198.108
43.38000 196.967
43.39000 195.644
43.40000 192.821
43.41000 189.666
43.42000 187.778
43.43000 192.449
43.44000 198.057
43.45000 202.480
43.46000 197.012
43.47000 191.958
43.48000 188.771
43.49000 189.961
43.50000 191.332
43.51000 190.348
43.52000 185.609
43.53000 180.820
43.54000 178.363
43.55000 184.372
43.56000 188.397
43.57000 190.432
43.58000 191.097
43.59000 191.788
43.60000 193.258
43.61000 195.091
43.62000 196.829
43.63000 196.284
43.64000 195.112
43.65000 194.143
43.66000 194.769
43.67000 195.735
43.68000 196.602
43.69000 196.977
43.70000 197.284
43.71000 197.525
43.72000 196.927
43.73000 196.396
43.74000 194.702
43.75000 190.372
43.76000 185.943
43.77000 184.966
43.78000 189.299
43.79000 193.691
43.80000 195.899
43.81000 189.531
43.82000 185.311
43.83000 184.511
43.84000 185.983
43.85000 187.379
43.86000 186.709
43.87000 185.107
43.88000 183.594
43.89000 183.416
43.90000 183.629
43.91000 184.109
43.92000 186.604
43.93000 189.513
43.94000 191.295
43.95000 187.676
43.96000 183.352
43.97000 180.000
43.98000 182.534
43.99000 184.898
44.00000 187.537
44.01000 190.774
44.02000 194.031
44.03000 194.201
44.04000 189.791
44.05000 185.339
44.06000 187.827
44.07000 197.056
44.08000 206.183
44.09000 206.717
44.10000 201.748
44.11000 196.833
44.12000 193.259
44.13000 190.270
44.14000 187.457
44.15000 185.515
44.16000 183.977
44.17000 182.859
44.18000 184.769
44.19000 187.277
44.20000 189.118
44.21000 187.882
44.22000 186.263
44.23000 185.018
44.24000 188.347
44.25000 191.236
44.26000 193.744
44.27000 195.444
44.28000 197.119
44.29000 196.318
44.30000 191.977
44.31000 187.611
44.32000 189.685
44.33000 197.764
44.34000 205.755
44.35000 207.359
44.36000 205.019
44.37000 202.709
44.38000 201.098
44.39000 199.783
44.40000 198.549
44.41000 201.722
44.42000 205.757
44.43000 208.962
44.44000 206.462
44.45000 202.877
44.46000 200.033
44.47000 200.477
44.48000 201.313
44.49000 201.950
44.50000 200.128
44.51000 198.566
44.52000 199.055
44.53000 203.728
44.54000 208.523
44.55000 211.309
44.56000 211.325
44.57000 211.324
44.58000 211.899
44.59000 212.989
44.60000 214.038
44.61000 212.559
44.62000 209.574
44.63000 206.793
44.64000 208.413
44.65000 211.820
44.66000 215.001
44.67000 211.739
44.68000 207.171
44.69000 203.888
44.70000 209.083
44.71000 215.824
44.72000 221.602
44.73000 223.258
44.74000 224.445
44.75000 225.340
44.76000 218.499
44.77000 212.762
44.78000 210.531
44.79000 215.204
44.80000 220.062
44.81000 221.990
44.82000 220.032
44.83000 218.058
44.84000 221.337
44.85000 229.128
44.86000 236.778
44.87000 236.615
44.88000 231.961
44.89000 227.535
44.90000 227.708
44.91000 229.684
44.92000 231.521
44.93000 232.560
44.94000 233.307
44.95000 234.484
44.96000 238.378
44.97000 242.748
44.98000 246.180
44.99000 245.745
45.00000 244.891
45.01000 244.254
45.02000 239.286
45.03000 235.215
45.04000 234.380
45.05000 239.694
45.06000 245.155
45.07000 245.468
45.08000 239.205
45.09000 232.926
45.10000 231.567
45.11000 234.279
45.12000 236.987
45.13000 239.518
45.14000 241.949
45.15000 244.091
45.16000 240.801
45.17000 235.457
45.18000 230.508
45.19000 229.916
45.20000 230.388
45.21000 230.854
45.22000 231.288
45.23000 231.716
45.24000 231.806
45.25000 230.549
45.26000 229.154
45.27000 228.123
45.28000 225.574
45.29000 223.533
45.30000 221.622
45.31000 219.953
45.32000 218.288
45.33000 217.747
45.34000 218.587
45.35000 219.430
45.36000 215.863
45.37000 208.809
45.38000 201.988
45.39000 205.356
45.40000 214.179
45.41000 222.383
45.42000 219.720
45.43000 213.087
45.44000 206.973
45.45000 208.654
45.46000 211.885
45.47000 214.314
45.48000 212.078
45.49000 209.089
45.50000 206.518
45.51000 205.547
45.52000 204.734
45.53000 204.139
45.54000 201.889
45.55000 200.086
45.56000 199.217
45.57000 200.001
45.58000 200.815
45.59000 203.068
45.60000 207.021
45.61000 210.968
45.62000 211.039
45.63000 208.151
45.64000 205.260
45.65000 202.271
45.66000 199.231
45.67000 196.170
45.68000 192.771
45.69000 189.252
45.70000 186.024
45.71000 187.162
45.72000 189.104
45.73000 190.673
45.74000 190.159
45.75000 189.322
45.76000 188.338
45.77000 186.815
45.78000 185.241
45.79000 184.101
45.80000 180.473
45.81000 177.595
45.82000 177.946
45.83000 183.813
45.84000 189.774
45.85000 190.070
45.86000 183.924
45.87000 177.791
45.88000 174.075
45.89000 172.162
45.90000 170.368
45.91000 172.831
45.92000 177.419
45.93000 181.880
45.94000 184.384
45.95000 186.221
45.96000 187.899
45.97000 188.553
45.98000 188.924
45.99000 188.564
46.00000 184.277
46.01000 179.407
46.02000 176.924
46.03000 182.940
46.04000 189.707
46.05000 194.557
46.06000 188.972
46.07000 184.349
46.08000 181.211
46.09000 180.522
46.10000 179.870
46.11000 181.054
46.12000 184.247
46.13000 187.427
46.14000 187.361
46.15000 185.003
46.16000 182.608
46.17000 179.014
46.18000 174.843
46.19000 170.886
46.20000 170.045
46.21000 170.229
46.22000 170.396
46.23000 170.468
46.24000 170.512
46.25000 170.842
46.26000 172.646
46.27000 174.659
46.28000 175.756
46.29000 173.706
46.30000 171.393
46.31000 169.753
46.32000 168.732
46.33000 167.975
46.34000 168.112
46.35000 169.670
46.36000 171.246
46.37000 171.185
46.38000 169.406
46.39000 167.636
46.40000 171.033
46.41000 177.899
46.42000 184.446
46.43000 181.550
46.44000 174.260
46.45000 167.435
46.46000 166.953
46.47000 168.486
46.48000 169.872
46.49000 169.148
46.50000 168.115
46.51000 166.989
46.52000 165.401
46.53000 163.749
46.54000 162.393
46.55000 162.013
46.56000 161.711
46.57000 161.500
46.58000 165.773
46.59000 169.134
46.60000 171.665
46.61000 172.921
46.62000 174.163
46.63000 172.275
46.64000 167.232
46.65000 162.218
46.66000 162.478
46.67000 166.177
46.68000 169.810
46.69000 171.648
46.70000 172.679
46.71000 173.776
46.72000 175.714
46.73000 177.909
46.74000 179.885
46.75000 179.325
46.76000 178.379
46.77000 177.765
46.78000 178.738
46.79000 179.918
46.80000 179.504
46.81000 173.996
46.82000 168.106
46.83000 164.025
46.84000 159.935
46.85000 156.856
46.86000 155.998
46.87000 158.422
46.88000 160.877
46.89000 163.408
46.90000 166.012
46.91000 168.597
46.92000 169.662
46.93000 169.755
46.94000 169.834
46.95000 169.550
46.96000 169.108
46.97000 168.480
46.98000 165.579
46.99000 162.006
47.00000 158.806
47.01000 161.545
47.02000 164.957
47.03000 167.663
47.04000 167.131
47.05000 166.196
47.06000 165.834
47.07000 167.242
47.08000 168.774
47.09000 169.824
47.10000 172.346
47.11000 174.271
47.12000 172.643
47.13000 165.955
47.14000 159.231
47.15000 159.001
47.16000 164.809
47.17000 170.567
47.18000 170.213
47.19000 166.171
47.20000 162.331
47.21000 163.143
47.22000 165.904
47.23000 168.205
47.24000 165.192
47.25000 160.664
47.26000 156.631
47.27000 156.810
47.28000 157.660
47.29000 158.646
47.30000 160.240
47.31000 161.906
47.32000 162.261
47.33000 158.714
47.34000 154.906
47.35000 152.330
47.36000 158.087
47.37000 162.556
47.38000 163.098
47.39000 158.247
47.40000 153.367
47.41000 152.421
47.42000 154.990
47.43000 157.534
47.44000 156.780
47.45000 154.124
47.46000 151.677
47.47000 153.703
47.48000 157.540
47.49000 161.309
47.50000 164.327
47.51000 167.139
47.52000 169.630
47.53000 171.081
47.54000 172.174
47.55000 172.078
47.56000 166.917
47.57000 161.183
47.58000 156.304
47.59000 153.886
47.60000 151.622
47.61000 150.109
47.62000 157.735
47.63000 163.566
47.64000 165.803
47.65000 163.289
47.66000 160.754
47.67000 158.802
47.68000 157.352
47.69000 155.919
47.70000 158.085
47.71000 162.212
47.72000 166.247
47.73000 168.409
47.74000 169.840
47.75000 170.681
47.76000 165.384
47.77000 158.460
47.78000 152.360
47.79000 150.778
47.80000 150.096
47.81000 150.269
47.82000 153.955
47.83000 158.019
47.84000 160.986
47.85000 160.902
47.86000 160.640
47.87000 160.466
47.88000 164.608
47.89000 167.736
47.90000 165.849
47.91000 157.576
47.92000 149.296
47.93000 148.234
47.94000 153.136
47.95000 157.974
47.96000 160.926
47.97000 162.785
47.98000 164.504
47.99000 163.623
48.00000 161.761
48.01000 159.938
48.02000 158.507
48.03000 157.175
48.04000 156.009
48.05000 160.065
48.06000 164.296
48.07000 165.833
48.08000 156.708
48.09000 146.488
48.10000 140.907
48.11000 147.760
48.12000 155.296
48.13000 160.204
48.14000 159.780
48.15000 159.385
48.16000 159.102
48.17000 158.957
48.18000 158.805
48.19000 156.323
48.20000 151.990
48.21000 147.721
48.22000 146.980
48.23000 148.089
48.24000 149.265
48.25000 151.606
48.26000 154.373
48.27000 157.039
48.28000 158.756
48.29000 160.239
48.30000 161.530
48.31000 166.652
48.32000 171.554
48.33000 174.884
48.34000 172.222
48.35000 168.974
48.36000 166.029
48.37000 163.869
48.38000 161.750
48.39000 160.388
48.40000 155.891
48.41000 152.567
48.42000 151.425
48.43000 152.855
48.44000 154.297
48.45000 157.796
48.46000 162.869
48.47000 167.858
48.48000 168.584
48.49000 167.162
48.50000 165.673
48.51000 163.102
48.52000 160.149
48.53000 157.230
48.54000 154.609
48.55000 152.059
48.56000 149.852
48.57000 153.572
48.58000 157.512
48.59000 160.030
48.60000 157.311
48.61000 154.107
48.62000 152.503
48.63000 154.899
48.64000 157.487
48.65000 159.127
48.66000 160.135
48.67000 160.859
48.68000 158.933
48.69000 154.004
48.70000 149.090
48.71000 147.578
48.72000 148.573
48.73000 149.549
48.74000 153.816
48.75000 159.510
48.76000 164.820
48.77000 164.244
48.78000 161.669
48.79000 159.282
48.80000 158.497
48.81000 158.079
48.82000 157.720
48.83000 156.487
48.84000 155.335
48.85000 153.958
48.86000 151.782
48.87000 149.536
48.88000 150.128
48.89000 157.571
48.90000 165.318
48.91000 170.160
48.92000 166.908
48.93000 164.476
48.94000 162.562
48.95000 161.213
48.96000 159.874
48.97000 159.967
48.98000 161.076
48.99000 162.163
49.00000 161.022
49.01000 158.896
49.02000 156.805
49.03000 155.215
49.04000 153.789
49.05000 152.201
49.06000 149.294
49.07000 146.097
49.08000 143.365
49.09000 142.132
49.10000 141.271
49.11000 142.432
49.12000 150.509
49.13000 159.163
49.14000 164.894
49.15000 163.813
49.16000 162.453
49.17000 161.615
49.18000 158.078
49.19000 155.516
49.20000 155.594
49.21000 158.434
49.22000 161.258
49.23000 162.077
49.24000 161.524
49.25000 160.984
49.26000 158.989
49.27000 156.430
49.28000 154.269
49.29000 157.503
49.30000 162.445
49.31000 166.149
49.32000 160.208
49.33000 152.221
49.34000 145.441
49.35000 149.915
49.36000 154.948
49.37000 158.852
49.38000 159.030
49.39000 158.914
49.40000 157.084
49.41000 151.394
49.42000 145.558
49.43000 142.015
49.44000 147.926
49.45000 152.215
49.46000 154.494
49.47000 154.752
49.48000 154.987
49.49000 152.964
49.50000 149.452
49.51000 146.028
49.52000 147.941
49.53000 152.051
49.54000 156.200
49.55000 160.860
49.56000 165.675
49.57000 169.385
49.58000 164.856
49.59000 158.646
49.60000 153.410
49.61000 148.638
49.62000 144.704
49.63000 142.666
49.64000 146.670
49.65000 151.125
49.66000 154.788
49.67000 156.727
49.68000 158.605
49.69000 159.729
49.70000 158.705
49.71000 157.966
49.72000 157.450
49.73000 157.150
49.74000 156.861
49.75000 157.495
49.76000 158.716
49.77000 159.904
49.78000 157.302
49.79000 153.265
49.80000 149.583
49.81000 150.194
49.82000 152.071
49.83000 153.518
49.84000 151.900
49.85000 149.681
49.86000 147.822
49.87000 147.996
49.88000 148.350
49.89000 148.749
49.90000 149.286
49.91000 149.833
49.92000 148.824
49.93000 144.551
49.94000 140.174
49.95000 137.597
49.96000 139.176
49.97000 140.312
49.98000 142.863
49.99000 146.727
50.00000 150.532
50.01000 150.131
50.02000 147.148
50.03000 144.255
50.04000 145.024
50.05000 147.204
50.06000 148.895
50.07000 144.973
50.08000 139.454
50.09000 134.905
50.10000 136.981
50.11000 140.307
50.12000 143.073
50.13000 145.112
50.14000 146.727
50.15000 148.966
50.16000 153.057
50.17000 157.271
50.18000 159.085
50.19000 156.038
50.20000 152.850
50.21000 151.003
50.22000 153.331
50.23000 154.982
50.24000 157.167
50.25000 159.828
50.26000 162.437
50.27000 161.834
50.28000 159.329
50.29000 156.904
50.30000 156.872
50.31000 157.755
50.32000 158.396
50.33000 156.408
50.34000 153.699
50.35000 151.091
50.36000 149.144
50.37000 147.317
50.38000 145.810
50.39000 149.516
50.40000 153.054
50.41000 155.019
50.42000 152.477
50.43000 149.653
50.44000 151.413
50.45000 162.141
50.46000 173.104
50.47000 179.349
50.48000 161.846
50.49000 149.580
50.50000 147.992
50.51000 155.545
50.52000 162.981
50.53000 164.084
50.54000 161.569
50.55000 159.141
50.56000 158.965
50.57000 159.625
50.58000 160.105
50.59000 158.719
50.60000 156.838
50.61000 155.497
50.62000 157.542
50.63000 160.176
50.64000 162.335
50.65000 161.423
50.66000 160.405
50.67000 159.704
50.68000 159.881
50.69000 160.109
50.70000 160.433
50.71000 160.937
50.72000 161.446
50.73000 161.731
50.74000 160.861
50.75000 160.254
50.76000 158.698
50.77000 156.362
50.78000 154.080
50.79000 154.389
50.80000 156.126
50.81000 157.799
50.82000 156.627
50.83000 154.524
50.84000 153.006
50.85000 157.240
50.86000 162.941
50.87000 167.614
50.88000 166.095
50.89000 163.540
50.90000 161.463
50.91000 162.244
50.92000 163.120
50.93000 163.698
50.94000 163.480
50.95000 163.220
50.96000 161.914
50.97000 158.704
50.98000 155.453
50.99000 153.664
51.00000 153.695
51.01000 153.725
51.02000 155.485
51.03000 158.616
51.04000 161.664
51.05000 161.142
51.06000 158.720
51.07000 156.396
51.08000 154.103
51.09000 151.971
51.10000 150.142
51.11000 151.143
51.12000 152.841
51.13000 154.106
51.14000 152.872
51.15000 151.237
51.16000 149.918
51.17000 147.748
51.18000 145.917
51.19000 144.771
51.20000 145.393
51.21000 146.106
51.22000 147.614
51.23000 150.525
51.24000 153.461
51.25000 155.049
51.26000 153.501
51.27000 152.429
51.28000 149.340
51.29000 144.711
51.30000 140.193
51.31000 139.956
51.32000 141.920
51.33000 143.798
51.34000 145.981
51.35000 148.114
51.36000 149.585
51.37000 145.148
51.38000 139.313
51.39000 134.843
51.40000 137.951
51.41000 142.223
51.42000 145.643
51.43000 145.720
51.44000 145.533
51.45000 144.295
51.46000 140.437
51.47000 136.456
51.48000 134.288
51.49000 135.199
51.50000 136.160
51.51000 136.671
51.52000 142.654
51.53000 146.722
51.54000 149.818
51.55000 152.202
51.56000 154.493
51.57000 153.583
51.58000 151.084
51.59000 148.702
51.60000 144.793
51.61000 140.690
51.62000 136.878
51.63000 135.550
51.64000 134.790
51.65000 134.436
51.66000 136.253
51.67000 138.389
51.68000 140.085
51.69000 140.504
51.70000 140.751
51.71000 141.280
51.72000 142.489
51.73000 143.728
51.74000 142.367
51.75000 136.744
51.76000 131.060
51.77000 128.100
51.78000 132.004
51.79000 134.643
51.80000 137.148
51.81000 139.558
51.82000 141.775
51.83000 137.797
51.84000 130.853
51.85000 124.254
51.86000 127.974
51.87000 134.525
51.88000 140.595
51.89000 142.742
51.90000 144.029
51.91000 144.947
51.92000 143.972
51.93000 142.730
51.94000 141.753
51.95000 141.271
51.96000 140.917
51.97000 139.864
51.98000 137.185
51.99000 134.440
52.00000 133.041
52.01000 133.770
52.02000 134.525
52.03000 134.910
52.04000 137.078
52.05000 138.530
52.06000 139.618
52.07000 140.457
52.08000 141.195
52.09000 138.996
52.10000 135.439
52.11000 132.071
52.12000 132.976
52.13000 135.049
52.14000 136.685
52.15000 134.932
52.16000 132.463
52.17000 130.568
52.18000 131.502
52.19000 132.818
52.20000 133.845
52.21000 136.219
52.22000 138.195
52.23000 140.367
52.24000 142.975
52.25000 145.599
52.26000 146.150
52.27000 143.543
52.28000 140.903
52.29000 139.582
52.30000 134.788
52.31000 131.637
52.32000 132.875
52.33000 137.002
52.34000 140.907
52.35000 138.856
52.36000 134.146
52.37000 129.702
52.38000 127.441
52.39000 125.977
52.40000 125.299
52.41000 130.456
52.42000 136.799
52.43000 141.973
52.44000 141.595
52.45000 140.500
52.46000 139.653
52.47000 147.094
52.48000 153.487
52.49000 156.532
52.50000 152.319
52.51000 147.856
52.52000 145.222
52.53000 145.276
52.54000 145.353
52.55000 143.525
52.56000 139.865
52.57000 136.221
52.58000 133.816
52.59000 132.198
52.60000 130.519
52.61000 127.329
52.62000 123.487
52.63000 119.876
52.64000 123.698
52.65000 129.180
52.66000 134.114
52.67000 135.150
52.68000 135.423
52.69000 135.636
52.70000 135.576
52.71000 135.482
52.72000 135.410
52.73000 139.517
52.74000 142.992
52.75000 145.093
52.76000 144.319
52.77000 143.454
52.78000 143.133
52.79000 143.583
52.80000 144.037
52.81000 142.960
52.82000 140.471
52.83000 138.015
52.84000 137.978
52.85000 139.421
52.86000 140.796
52.87000 140.645
52.88000 139.858
52.89000 139.121
52.90000 140.248
52.91000 141.754
52.92000 142.837
52.93000 141.039
52.94000 138.698
52.95000 137.004
52.96000 138.150
52.97000 139.631
52.98000 140.755
52.99000 142.611
53.00000 144.108
53.01000 145.290
53.02000 145.838
53.03000 146.368
53.04000 147.117
53.05000 148.163
53.06000 149.211
53.07000 146.021
53.08000 139.078
53.09000 132.246
53.10000 132.167
53.11000 136.076
53.12000 140.045
53.13000 145.280
53.14000 151.025
53.15000 156.382
53.16000 152.283
53.17000 146.230
53.18000 140.869
53.19000 140.022
53.20000 139.990
53.21000 139.817
53.22000 139.041
53.23000 138.199
53.24000 137.565
53.25000 138.462
53.26000 139.239
53.27000 139.716
53.28000 139.611
53.29000 139.491
53.30000 141.202
53.31000 145.320
53.32000 149.445
53.33000 149.916
53.34000 147.274
53.35000 144.695
53.36000 145.496
53.37000 148.221
53.38000 150.897
53.39000 152.592
53.40000 153.906
53.41000 155.125
53.42000 155.752
53.43000 156.175
53.44000 156.660
53.45000 157.527
53.46000 158.460
53.47000 158.097
53.48000 152.448
53.49000 146.232
53.50000 141.601
53.51000 151.215
53.52000 159.340
53.53000 162.121
53.54000 154.834
53.55000 147.312
53.56000 142.866
53.57000 142.311
53.58000 141.771
53.59000 142.259
53.60000 143.588
53.61000 144.861
53.62000 143.505
53.63000 140.704
53.64000 138.088
53.65000 138.902
53.66000 141.003
53.67000 142.946
53.68000 143.709
53.69000 144.126
53.70000 144.850
53.71000 147.420
53.72000 150.298
53.73000 151.875
53.74000 148.335
53.75000 144.273
53.76000 141.277
53.77000 142.384
53.78000 143.414
53.79000 143.546
53.80000 142.044
53.81000 140.509
53.82000 142.185
53.83000 147.772
53.84000 153.358
53.85000 153.366
53.86000 148.986
53.87000 144.654
53.88000 142.317
53.89000 141.040
53.90000 139.914
53.91000 141.412
53.92000 143.859
53.93000 146.112
53.94000 145.792
53.95000 144.943
53.96000 143.827
53.97000 141.183
53.98000 138.293
53.99000 136.173
54.00000 136.972
54.01000 138.054
54.02000 138.844
54.03000 136.740
54.04000 135.005
54.05000 135.353
54.06000 139.355
54.07000 143.425
54.08000 142.851
54.09000 136.837
54.10000 130.829
54.11000 131.249
54.12000 136.523
54.13000 141.653
54.14000 141.225
54.15000 137.950
54.16000 134.882
54.17000 135.156
54.18000 136.599
54.19000 137.921
54.20000 136.480
54.21000 134.617
54.22000 133.436
54.23000 136.036
54.24000 139.216
54.25000 141.390
54.26000 139.886
54.27000 138.043
54.28000 136.711
54.29000 134.854
54.30000 133.411
54.31000 134.262
54.32000 138.998
54.33000 143.797
54.34000 145.362
54.35000 143.284
54.36000 141.210
54.37000 140.051
54.38000 139.567
54.39000 139.117
54.40000 139.820
54.41000 141.094
54.42000 142.310
54.43000 142.663
54.44000 142.725
54.45000 142.781
54.46000 140.822
54.47000 138.678
54.48000 136.854
54.49000 136.729
54.50000 136.853
54.51000 137.091
54.52000 137.731
54.53000 138.406
54.54000 138.889
54.55000 138.347
54.56000 137.899
54.57000 138.370
54.58000 140.340
54.59000 142.332
54.60000 142.555
54.61000 140.864
54.62000 139.179
54.63000 139.031
54.64000 139.958
54.65000 140.838
54.66000 140.245
54.67000 138.949
54.68000 137.701
54.69000 137.137
54.70000 136.796
54.71000 136.487
54.72000 137.779
54.73000 139.231
54.74000 140.870
54.75000 143.471
54.76000 146.208
54.77000 147.755
54.78000 145.258
54.79000 142.426
54.80000 140.425
54.81000 143.963
54.82000 146.819
54.83000 148.602
54.84000 148.692
54.85000 148.761
54.86000 147.839
54.87000 145.886
54.88000 143.944
54.89000 145.721
54.90000 149.974
54.91000 154.024
54.92000 152.139
54.93000 147.517
54.94000 142.906
54.95000 138.452
54.96000 134.048
54.97000 130.068
54.98000 133.402
54.99000 137.689
55.00000 141.530
55.01000 143.173
55.02000 144.520
55.03000 145.417
55.04000 144.833
55.05000 144.133
55.06000 143.644
55.07000 140.400
55.08000 137.872
55.09000 137.927
55.10000 141.907
55.11000 145.927
55.12000 148.187
55.13000 148.691
55.14000 149.192
55.15000 148.172
55.16000 146.183
55.17000 144.239
55.18000 143.486
55.19000 143.264
55.20000 143.185
55.21000 144.930
55.22000 147.227
55.23000 149.293
55.24000 152.848
55.25000 156.225
55.26000 158.761
55.27000 157.320
55.28000 155.367
55.29000 153.175
55.30000 150.225
55.31000 147.219
55.32000 145.142
55.33000 148.283
55.34000 150.778
55.35000 155.073
55.36000 162.005
55.37000 168.959
55.38000 172.075
55.39000 171.513
55.40000 170.954
55.41000 167.513
55.42000 162.336
55.43000 157.743
55.44000 167.466
55.45000 183.347
55.46000 197.969
55.47000 197.442
55.48000 192.477
55.49000 188.036
55.50000 192.177
55.51000 197.247
55.52000 202.471
55.53000 208.397
55.54000 214.410
55.55000 219.426
55.56000 221.391
55.57000 223.144
55.58000 224.341
55.59000 236.522
55.60000 245.890
55.61000 250.810
55.62000 249.452
55.63000 248.053
55.64000 255.144
55.65000 270.050
55.66000 284.824
55.67000 294.800
55.68000 301.713
55.69000 308.897
55.70000 322.247
55.71000 338.158
55.72000 353.002
55.73000 355.687
55.74000 354.936
55.75000 354.269
55.76000 370.978
55.77000 388.312
55.78000 403.853
55.79000 411.536
55.80000 418.297
55.81000 425.953
55.82000 436.249
55.83000 446.718
55.84000 453.779
55.85000 469.495
55.86000 481.371
55.87000 490.426
55.88000 495.646
55.89000 500.844
55.90000 507.163
55.91000 514.473
55.92000 521.707
55.93000 528.563
55.94000 535.051
55.95000 541.142
55.96000 538.856
55.97000 533.210
55.98000 527.238
55.99000 517.745
56.00000 507.293
56.01000 498.046
56.02000 497.121
56.03000 497.618
56.04000 495.639
56.05000 483.203
56.06000 469.597
56.07000 458.227
56.08000 453.232
56.09000 448.630
56.10000 445.564
56.11000 438.157
56.12000 432.591
56.13000 423.168
56.14000 408.691
56.15000 394.198
56.16000 382.812
56.17000 374.071
56.18000 365.434
56.19000 352.147
56.20000 336.613
56.21000 321.342
56.22000 311.234
56.23000 303.127
56.24000 294.761
56.25000 283.732
56.26000 272.004
56.27000 261.687
56.28000 251.538
56.29000 242.828
56.30000 235.355
56.31000 232.913
56.32000 231.006
56.33000 226.952
56.34000 216.988
56.35000 206.682
56.36000 199.904
56.37000 203.542
56.38000 206.398
56.39000 205.838
56.40000 200.971
56.41000 196.083
56.42000 188.251
56.43000 178.010
56.44000 167.907
56.45000 166.033
56.46000 168.597
56.47000 170.865
56.48000 167.692
56.49000 162.483
56.50000 157.644
56.51000 156.410
56.52000 156.089
56.53000 155.809
56.54000 158.368
56.55000 160.965
56.56000 161.415
56.57000 153.442
56.58000 144.614
56.59000 138.486
56.60000 139.534
56.61000 140.968
56.62000 141.900
56.63000 150.168
56.64000 156.334
56.65000 156.587
56.66000 149.661
56.67000 142.727
56.68000 138.036
56.69000 135.111
56.70000 132.231
56.71000 133.724
56.72000 137.414
56.73000 140.902
56.74000 140.919
56.75000 139.682
56.76000 138.802
56.77000 141.242
56.78000 144.493
56.79000 147.320
56.80000 146.850
56.81000 146.000
56.82000 144.536
56.83000 140.747
56.84000 136.733
56.85000 133.822
56.86000 133.740
56.87000 133.800
56.88000 133.839
56.89000 136.944
56.90000 139.247
56.91000 138.449
56.92000 134.029
56.93000 129.632
56.94000 131.302
56.95000 137.571
56.96000 143.733
56.97000 145.374
56.98000 144.728
56.99000 143.699
57.00000 136.535
57.01000 127.232
57.02000 119.373
57.03000 124.298
57.04000 132.232
57.05000 139.086
57.06000 136.521
57.07000 133.121
57.08000 129.042
57.09000 122.484
57.10000 115.700
57.11000 112.907
57.12000 120.006
57.13000 127.567
57.14000 132.343
57.15000 133.095
57.16000 133.592
57.17000 136.157
57.18000 141.042
57.19000 145.889
57.20000 144.004
57.21000 137.201
57.22000 130.527
57.23000 127.463
57.24000 126.228
57.25000 125.023
57.26000 124.285
57.27000 123.706
57.28000 123.295
57.29000 124.315
57.30000 125.660
57.31000 126.814
57.32000 128.156
57.33000 129.313
57.34000 130.416
57.35000 131.327
57.36000 132.222
57.37000 132.074
57.38000 129.429
57.39000 126.677
57.40000 124.963
57.41000 127.723
57.42000 129.757
57.43000 129.562
57.44000 126.964
57.45000 124.396
57.46000 126.100
57.47000 130.810
57.48000 135.422
57.49000 134.552
57.50000 131.209
57.51000 128.007
57.52000 126.791
57.53000 126.222
57.54000 125.832
57.55000 126.901
57.56000 128.287
57.57000 129.470
57.58000 124.526
57.59000 119.642
57.60000 115.882
57.61000 115.936
57.62000 116.303
57.63000 117.736
57.64000 121.631
57.65000 125.625
57.66000 128.077
57.67000 126.012
57.68000 124.494
57.69000 124.266
57.70000 125.375
57.71000 126.496
57.72000 128.941
57.73000 132.283
57.74000 135.547
57.75000 134.979
57.76000 132.748
57.77000 130.662
57.78000 130.521
57.79000 130.990
57.80000 130.891
57.81000 126.414
57.82000 121.017
57.83000 116.444
57.84000 118.945
57.85000 121.835
57.86000 124.358
57.87000 125.679
57.88000 126.905
57.89000 127.236
57.90000 125.565
57.91000 123.820
57.92000 122.765
57.93000 119.216
57.94000 116.669
57.95000 117.338
57.96000 121.205
57.97000 125.020
57.98000 123.902
57.99000 119.556
58.00000 115.322
58.01000 116.997
58.02000 121.098
58.03000 124.882
58.04000 124.642
58.05000 123.183
58.06000 121.942
58.07000 122.310
58.08000 123.003
58.09000 123.586
58.10000 127.143
58.11000 130.428
58.12000 132.837
58.13000 132.475
58.14000 131.910
58.15000 130.350
58.16000 126.646
58.17000 122.870
58.18000 120.621
58.19000 124.345
58.20000 127.019
58.21000 127.829
58.22000 126.859
58.23000 125.904
58.24000 126.186
58.25000 127.248
58.26000 128.281
58.27000 126.015
58.28000 122.515
58.29000 119.290
58.30000 119.367
58.31000 120.408
58.32000 121.784
58.33000 125.519
58.34000 129.713
58.35000 133.219
58.36000 126.797
58.37000 120.455
58.38000 116.573
58.39000 120.191
58.40000 124.329
58.41000 127.525
58.42000 128.759
58.43000 129.933
58.44000 130.621
58.45000 124.073
58.46000 119.425
58.47000 117.210
58.48000 117.225
58.49000 117.277
58.50000 119.842
58.51000 123.936
58.52000 127.907
58.53000 125.625
58.54000 121.010
58.55000 116.859
58.56000 117.976
58.57000 120.576
58.58000 123.133
58.59000 125.401
58.60000 127.615
58.61000 129.452
58.62000 125.825
58.63000 122.298
58.64000 119.448
58.65000 118.591
58.66000 117.864
58.67000 117.338
58.68000 117.219
58.69000 117.111
58.70000 117.049
58.71000 113.263
58.72000 110.600
58.73000 110.976
58.74000 114.032
58.75000 117.092
58.76000 120.411
58.77000 123.880
58.78000 127.236
58.79000 125.686
58.80000 122.372
58.81000 119.597
58.82000 122.637
58.83000 127.257
58.84000 130.717
58.85000 126.670
58.86000 121.275
58.87000 116.830
58.88000 114.850
58.89000 113.447
58.90000 112.559
58.91000 113.134
58.92000 113.799
58.93000 115.693
58.94000 119.974
58.95000 124.316
58.96000 126.780
58.97000 124.906
58.98000 123.590
58.99000 123.242
59.00000 123.714
59.01000 124.138
59.02000 122.018
59.03000 118.457
59.04000 115.023
59.05000 115.177
59.06000 116.624
59.07000 117.973
59.08000 118.300
59.09000 118.360
59.10000 118.937
59.11000 122.720
59.12000 127.056
59.13000 130.601
59.14000 126.388
59.15000 122.262
59.16000 119.712
59.17000 121.484
59.18000 123.505
59.19000 123.900
59.20000 121.249
59.21000 118.529
59.22000 117.012
59.23000 122.691
59.24000 126.629
59.25000 127.052
59.26000 124.608
59.27000 122.190
59.28000 120.999
59.29000 120.479
59.30000 119.979
59.31000 117.922
59.32000 115.450
59.33000 113.256
59.34000 113.755
59.35000 114.935
59.36000 116.193
59.37000 117.920
59.38000 119.725
59.39000 121.190
59.40000 119.860
59.41000 118.546
59.42000 118.830
59.43000 123.347
59.44000 128.090
59.45000 128.792
59.46000 122.189
59.47000 115.436
59.48000 111.735
59.49000 112.272
59.50000 112.653
59.51000 114.519
59.52000 117.550
59.53000 120.484
59.54000 119.377
59.55000 116.137
59.56000 113.030
59.57000 113.164
59.58000 114.379
59.59000 115.440
59.60000 115.085
59.61000 114.384
59.62000 114.241
59.63000 117.290
59.64000 120.845
59.65000 123.708
59.66000 125.207
59.67000 126.317
59.68000 127.052
59.69000 126.826
59.70000 126.552
59.71000 125.956
59.72000 124.798
59.73000 123.630
59.74000 123.002
59.75000 122.814
59.76000 122.675
59.77000 120.191
59.78000 115.936
59.79000 111.744
59.80000 109.963
59.81000 109.410
59.82000 108.881
59.83000 109.230
59.84000 109.838
59.85000 110.489
59.86000 111.513
59.87000 112.624
59.88000 113.373
59.89000 112.126
59.90000 110.575
59.91000 109.337
59.92000 112.506
59.93000 115.390
59.94000 116.641
59.95000 113.854
59.96000 110.879
59.97000 109.764
59.98000 111.779
59.99000 113.844
60.00000 114.935
60.01000 119.802
60.02000 123.090
60.03000 123.310
60.04000 121.294
60.05000 119.255
60.06000 116.401
60.07000 113.145
60.08000 110.045
60.09000 109.733
60.10000 110.312
60.11000 110.956
60.12000 112.150
60.13000 113.469
60.14000 114.340
60.15000 112.855
60.16000 111.025
60.17000 109.576
60.18000 115.036
60.19000 119.907
60.20000 121.581
60.21000 115.630
60.22000 109.350
60.23000 107.037
60.24000 111.167
60.25000 115.387
60.26000 117.573
60.27000 121.866
60.28000 124.711
60.29000 120.652
60.30000 111.749
60.31000 103.217
60.32000 106.248
60.33000 114.771
60.34000 122.861
60.35000 121.526
60.36000 117.475
60.37000 114.139
60.38000 116.542
60.39000 120.194
60.40000 123.029
60.41000 121.723
60.42000 119.839
60.43000 118.358
60.44000 116.280
60.45000 114.578
60.46000 114.932
60.47000 120.022
60.48000 125.301
60.49000 125.922
60.50000 119.251
60.51000 112.492
60.52000 109.058
60.53000 109.755
60.54000 110.226
60.55000 111.066
60.56000 112.157
60.57000 113.207
60.58000 113.125
60.59000 112.524
60.60000 111.956
60.61000 111.315
60.62000 110.706
60.63000 110.104
60.64000 109.554
60.65000 109.014
60.66000 108.834
60.67000 110.406
60.68000 112.211
60.69000 113.617
60.70000 119.479
60.71000 124.421
60.72000 126.759
60.73000 123.299
60.74000 119.627
60.75000 117.968
60.76000 119.351
60.77000 120.764
60.78000 118.725
60.79000 113.265
60.80000 107.854
60.81000 106.917
60.82000 108.896
60.83000 110.886
60.84000 113.130
60.85000 115.487
60.86000 117.708
60.87000 118.208
60.88000 118.190
60.89000 117.840
60.90000 115.054
60.91000 111.778
60.92000 109.826
60.93000 114.097
60.94000 119.163
60.95000 123.072
60.96000 121.947
60.97000 120.763
60.98000 119.235
60.99000 116.967
61.00000 114.674
61.01000 112.689
61.02000 111.152
61.03000 109.619
61.04000 110.528
61.05000 113.760
61.06000 117.018
61.07000 122.307
61.08000 128.873
61.09000 135.150
61.10000 134.405
61.11000 130.657
61.12000 127.138
61.13000 122.746
61.14000 118.508
61.15000 115.112
61.16000 117.629
61.17000 121.291
61.18000 124.689
61.19000 126.894
61.20000 128.953
61.21000 130.527
61.22000 128.564
61.23000 126.823
61.24000 125.998
61.25000 127.075
61.26000 128.211
61.27000 127.252
61.28000 123.355
61.29000 119.439
61.30000 120.300
61.31000 125.524
61.32000 130.684
61.33000 131.423
61.34000 129.482
61.35000 127.547
61.36000 125.730
61.37000 123.962
61.38000 122.309
61.39000 119.455
61.40000 116.556
61.41000 114.026
61.42000 113.973
61.43000 114.381
61.44000 115.312
61.45000 118.525
61.46000 122.004
61.47000 124.639
61.48000 132.068
61.49000 138.145
61.50000 142.844
61.51000 144.784
61.52000 146.647
61.53000 153.339
61.54000 166.554
61.55000 179.798
61.56000 191.868
61.57000 202.888
61.58000 213.899
61.59000 224.313
61.60000 234.379
61.61000 244.481
61.62000 255.342
61.63000 266.505
61.64000 276.905
61.65000 282.468
61.66000 286.315
61.67000 288.392
61.68000 279.053
61.69000 267.672
61.70000 260.677
61.71000 272.089
61.72000 285.546
61.73000 295.643
61.74000 289.010
61.75000 283.032
61.76000 275.717
61.77000 265.819
61.78000 255.855
61.79000 244.971
61.80000 232.888
61.81000 220.812
61.82000 206.360
61.83000 189.942
61.84000 173.620
61.85000 162.385
61.86000 154.022
61.87000 145.932
61.88000 143.152
61.89000 142.416
61.90000 141.734
61.91000 138.743
61.92000 135.506
61.93000 133.103
61.94000 135.861
61.95000 139.506
61.96000 141.645
61.97000 137.694
61.98000 133.100
61.99000 129.686
62.00000 131.448
62.01000 133.048
62.02000 132.473
62.03000 127.838
62.04000 123.111
62.05000 121.514
62.06000 123.839
62.07000 126.172
62.08000 126.709
62.09000 125.787
62.10000 124.829
62.11000 122.135
62.12000 118.497
62.13000 115.118
62.14000 116.433
62.15000 119.495
62.16000 122.323
62.17000 124.459
62.18000 126.220
62.19000 127.647
62.20000 127.093
62.21000 126.212
62.22000 125.366
62.23000 124.654
62.24000 123.956
62.25000 123.443
62.26000 126.030
62.27000 128.160
62.28000 128.685
62.29000 126.320
62.30000 123.896
62.31000 122.011
62.32000 120.777
62.33000 119.546
62.34000 122.832
62.35000 129.619
62.36000 136.238
62.37000 135.895
62.38000 131.890
62.39000 128.073
62.40000 127.441
62.41000 127.954
62.42000 128.425
62.43000 130.801
62.44000 133.337
62.45000 134.687
62.46000 129.273
62.47000 122.789
62.48000 118.621
62.49000 123.154
62.50000 128.519
62.51000 132.425
62.52000 131.481
62.53000 130.568
62.54000 129.929
62.55000 129.763
62.56000 129.606
62.57000 130.598
62.58000 132.923
62.59000 135.243
62.60000 134.097
62.61000 130.364
62.62000 126.719
62.63000 126.349
62.64000 127.642
62.65000 128.815
62.66000 128.073
62.67000 126.668
62.68000 125.381
62.69000 129.061
62.70000 133.369
62.71000 136.419
62.72000 132.580
62.73000 127.696
62.74000 123.251
62.75000 120.398
62.76000 117.690
62.77000 115.738
62.78000 120.918
62.79000 125.138
62.80000 128.351
62.81000 129.873
62.82000 131.368
62.83000 133.462
62.84000 136.223
62.85000 138.976
62.86000 138.516
62.87000 135.748
62.88000 133.058
62.89000 133.017
62.90000 134.276
62.91000 135.495
62.92000 136.119
62.93000 136.544
62.94000 136.932
62.95000 137.096
62.96000 137.197
62.97000 136.777
62.98000 133.618
62.99000 130.061
63.00000 126.975
63.01000 125.534
63.02000 124.235
63.03000 123.309
63.04000 129.737
63.05000 134.877
63.06000 136.818
63.07000 133.583
63.08000 130.277
63.09000 127.975
63.10000 126.751
63.11000 125.532
63.12000 125.179
63.13000 125.429
63.14000 125.727
63.15000 127.471
63.16000 129.902
63.17000 132.118
63.18000 131.318
63.19000 129.544
63.20000 127.936
63.21000 128.137
63.22000 128.661
63.23000 129.433
63.24000 131.456
63.25000 133.653
63.26000 135.707
63.27000 137.279
63.28000 138.811
63.29000 139.891
63.30000 138.379
63.31000 137.154
63.32000 135.336
63.33000 132.592
63.34000 129.837
63.35000 130.063
63.36000 133.357
63.37000 136.633
63.38000 137.426
63.39000 136.557
63.40000 135.753
63.41000 136.799
63.42000 138.692
63.43000 140.460
63.44000 140.577
63.45000 140.181
63.46000 139.822
63.47000 137.274
63.48000 134.633
63.49000 132.283
63.50000 131.352
63.51000 130.608
63.52000 129.525
63.53000 127.334
63.54000 125.058
63.55000 123.472
63.56000 128.716
63.57000 132.861
63.58000 134.610
63.59000 132.754
63.60000 130.862
63.61000 131.299
63.62000 134.037
63.63000 136.756
63.64000 137.466
63.65000 136.879
63.66000 136.234
63.67000 134.095
63.68000 131.297
63.69000 128.937
63.70000 132.062
63.71000 136.838
63.72000 141.126
63.73000 140.781
63.74000 139.666
63.75000 138.746
63.76000 138.741
63.77000 138.853
63.78000 138.898
63.79000 138.731
63.80000 138.549
63.81000 138.424
63.82000 139.523
63.83000 140.379
63.84000 140.076
63.85000 138.090
63.86000 136.091
63.87000 136.791
63.88000 140.049
63.89000 143.282
63.90000 142.665
63.91000 139.686
63.92000 136.848
63.93000 137.383
63.94000 139.356
63.95000 141.126
63.96000 140.493
63.97000 139.163
63.98000 137.975
63.99000 138.033
64.00000 138.293
64.01000 139.441
64.02000 144.598
64.03000 150.242
64.04000 153.267
64.05000 148.352
64.06000 142.892
64.07000 139.176
64.08000 139.916
64.09000 140.571
64.10000 141.868
64.11000 144.062
64.12000 146.261
64.13000 146.126
64.14000 143.863
64.15000 141.620
64.16000 140.750
64.17000 140.710
64.18000 140.817
64.19000 144.205
64.20000 148.944
64.21000 153.088
64.22000 150.538
64.23000 146.114
64.24000 142.185
64.25000 143.285
64.26000 145.048
64.27000 146.595
64.28000 147.199
64.29000 147.693
64.30000 147.533
64.31000 145.459
64.32000 143.261
64.33000 141.783
64.34000 144.947
64.35000 147.394
64.36000 148.898
64.37000 149.134
64.38000 149.364
64.39000 151.885
64.40000 156.410
64.41000 160.887
64.42000 161.789
64.43000 160.631
64.44000 159.483
64.45000 158.553
64.46000 157.709
64.47000 156.944
64.48000 157.023
64.49000 157.331
64.50000 157.602
64.51000 160.680
64.52000 163.770
64.53000 165.966
64.54000 164.423
64.55000 162.467
64.56000 160.530
64.57000 158.647
64.58000 156.769
64.59000 155.521
64.60000 158.197
64.61000 160.248
64.62000 161.972
64.63000 163.269
64.64000 164.563
64.65000 164.299
64.66000 162.725
64.67000 161.169
64.68000 160.889
64.69000 161.316
64.70000 161.735
64.71000 162.006
64.72000 162.221
64.73000 162.630
64.74000 165.017
64.75000 167.919
64.76000 170.468
64.77000 173.521
64.78000 176.219
64.79000 177.424
64.80000 172.610
64.81000 167.161
64.82000 163.792
64.83000 166.093
64.84000 168.716
64.85000 170.435
64.86000 176.774
64.87000 181.511
64.88000 183.907
64.89000 183.379
64.90000 182.840
64.91000 181.864
64.92000 180.532
64.93000 179.219
64.94000 178.927
64.95000 179.181
64.96000 179.514
64.97000 181.264
64.98000 183.539
64.99000 185.856
65.00000 188.571
65.01000 191.387
65.02000 193.845
65.03000 191.379
65.04000 188.575
65.05000 186.404
65.06000 186.689
65.07000 187.219
65.08000 188.988
65.09000 194.019
65.10000 199.223
65.11000 202.590
65.12000 203.537
65.13000 204.194
65.14000 206.099
65.15000 209.503
65.16000 212.901
65.17000 214.054
65.18000 213.455
65.19000 212.864
65.20000 213.913
65.21000 215.762
65.22000 217.593
65.23000 219.134
65.24000 220.571
65.25000 222.011
65.26000 223.473
65.27000 224.941
65.28000 226.215
65.29000 230.962
65.30000 235.473
65.31000 239.389
65.32000 241.074
65.33000 242.547
65.34000 244.577
65.35000 248.025
65.36000 251.542
65.37000 253.788
65.38000 254.850
65.39000 255.607
65.40000 259.517
65.41000 267.073
65.42000 274.608
65.43000 277.040
65.44000 275.640
65.45000 274.264
65.46000 274.687
65.47000 275.976
65.48000 277.228
65.49000 277.896
65.50000 278.363
65.51000 280.185
65.52000 293.871
65.53000 310.322
65.54000 324.514
65.55000 329.168
65.56000 331.893
65.57000 335.332
65.58000 341.347
65.59000 347.595
65.60000 355.098
65.61000 365.682
65.62000 376.408
65.63000 383.160
65.64000 413.190
65.65000 435.181
65.66000 469.891
65.67000 518.735
65.68000 567.693
65.69000 633.075
65.70000 710.343
65.71000 786.103
65.72000 880.666
65.73000 980.565
65.74000 1081.778
65.75000 1202.514
65.76000 1329.764
65.77000 1454.673
65.78000 1560.038
65.79000 1661.015
65.80000 1747.577
65.81000 1804.572
65.82000 1849.091
65.83000 1884.290
65.84000 1887.010
65.85000 1886.945
65.86000 1889.954
65.87000 1900.252
65.88000 1910.860
65.89000 1917.443
65.90000 1903.573
65.91000 1893.394
65.92000 1855.883
65.93000 1789.185
65.94000 1722.334
65.95000 1636.864
65.96000 1538.409
65.97000 1442.082
65.98000 1299.363
65.99000 1141.382
66.00000 986.815
66.01000 880.072
66.02000 788.732
66.03000 701.090
66.04000 642.935
66.05000 591.154
66.06000 547.052
66.07000 511.438
66.08000 482.484
66.09000 454.915
66.10000 432.001
66.11000 409.465
66.12000 393.171
66.13000 391.178
66.14000 389.747
66.15000 388.871
66.16000 378.915
66.17000 371.715
66.18000 367.002
66.19000 364.838
66.20000 362.723
66.21000 365.681
66.22000 372.049
66.23000 378.266
66.24000 382.922
66.25000 386.694
66.26000 391.438
66.27000 409.022
66.28000 430.596
66.29000 452.199
66.30000 474.020
66.31000 495.887
66.32000 514.387
66.33000 536.344
66.34000 555.104
66.35000 572.700
66.36000 586.514
66.37000 600.037
66.38000 609.483
66.39000 609.908
66.40000 610.007
66.41000 610.066
66.42000 615.988
66.43000 620.243
66.44000 618.775
66.45000 611.674
66.46000 604.605
66.47000 600.400
66.48000 598.050
66.49000 595.761
66.50000 577.315
66.51000 552.952
66.52000 528.482
66.53000 502.677
66.54000 476.472
66.55000 450.912
66.56000 430.061
66.57000 410.153
66.58000 393.424
66.59000 380.467
66.60000 370.069
66.61000 362.314
66.62000 362.836
66.63000 363.957
66.64000 360.680
66.65000 348.006
66.66000 335.021
66.67000 327.317
66.68000 332.635
66.69000 336.473
66.70000 340.723
66.71000 345.361
66.72000 349.977
66.73000 352.864
66.74000 354.669
66.75000 356.423
66.76000 354.992
66.77000 352.347
66.78000 349.700
66.79000 347.024
66.80000 344.340
66.81000 342.426
66.82000 345.888
66.83000 350.385
66.84000 354.137
66.85000 352.189
66.86000 350.001
66.87000 349.045
66.88000 351.811
66.89000 354.831
66.90000 356.211
66.91000 354.209
66.92000 352.105
66.93000 350.876
66.94000 359.116
66.95000 364.952
66.96000 363.463
66.97000 355.321
66.98000 347.339
66.99000 349.900
67.00000 358.817
67.01000 367.459
67.02000 365.365
67.03000 359.211
67.04000 353.807
67.05000 356.786
67.06000 362.105
67.07000 366.191
67.08000 362.032
67.09000 356.349
67.10000 351.640
67.11000 356.127
67.12000 360.708
67.13000 364.424
67.14000 365.615
67.15000 366.643
67.16000 369.487
67.17000 375.949
67.18000 382.510
67.19000 386.279
67.20000 381.061
67.21000 377.385
67.22000 379.331
67.23000 386.184
67.24000 392.943
67.25000 394.229
67.26000 392.330
67.27000 390.496
67.28000 389.150
67.29000 388.063
67.30000 387.129
67.31000 387.824
67.32000 388.956
67.33000 389.122
67.34000 383.092
67.35000 375.961
67.36000 370.097
67.37000 383.507
67.38000 396.273
67.39000 405.125
67.40000 402.953
67.41000 400.116
67.42000 400.971
67.43000 408.923
67.44000 417.052
67.45000 421.644
67.46000 414.593
67.47000 409.671
67.48000 410.660
67.49000 416.612
67.50000 422.437
67.51000 421.739
67.52000 417.379
67.53000 413.178
67.54000 422.561
67.55000 436.266
67.56000 448.281
67.57000 443.237
67.58000 433.765
67.59000 425.285
67.60000 422.900
67.61000 421.556
67.62000 420.459
67.63000 423.369
67.64000 426.093
67.65000 429.416
67.66000 434.372
67.67000 439.419
67.68000 442.603
67.69000 442.330
67.70000 441.979
67.71000 441.785
67.72000 440.696
67.73000 439.957
67.74000 444.488
67.75000 453.276
67.76000 461.910
67.77000 463.508
67.78000 461.293
67.79000 459.166
67.80000 459.919
67.81000 461.620
67.82000 462.960
67.83000 460.821
67.84000 457.810
67.85000 456.119
67.86000 462.208
67.87000 469.571
67.88000 475.534
67.89000 478.616
67.90000 480.891
67.91000 484.807
67.92000 493.033
67.93000 501.486
67.94000 503.437
67.95000 493.742
67.96000 483.815
67.97000 478.399
67.98000 474.272
67.99000 471.474
68.00000 477.591
68.01000 490.640
68.02000 503.528
68.03000 509.787
68.04000 512.581
68.05000 515.257
68.06000 513.972
68.07000 511.455
68.08000 509.379
68.09000 511.328
68.10000 514.249
68.11000 517.006
68.12000 518.840
68.13000 520.529
68.14000 521.885
68.15000 520.691
68.16000 519.528
68.17000 520.641
68.18000 527.531
68.19000 534.705
68.20000 537.606
68.21000 533.121
68.22000 528.506
68.23000 526.034
68.24000 541.285
68.25000 551.697
68.26000 560.001
68.27000 566.727
68.28000 573.283
68.29000 573.555
68.30000 570.655
68.31000 567.886
68.32000 570.559
68.33000 574.786
68.34000 579.049
68.35000 583.632
68.36000 588.289
68.37000 594.241
68.38000 607.229
68.39000 621.276
68.40000 632.473
68.41000 633.496
68.42000 633.583
68.43000 634.301
68.44000 636.563
68.45000 638.896
68.46000 642.720
68.47000 649.031
68.48000 655.380
68.49000 658.718
68.50000 680.580
68.51000 695.387
68.52000 706.348
68.53000 714.534
68.54000 722.720
68.55000 730.859
68.56000 738.975
68.57000 746.699
68.58000 770.287
68.59000 797.004
68.60000 822.778
68.61000 840.712
68.62000 856.891
68.63000 876.080
68.64000 911.010
68.65000 948.210
68.66000 977.613
68.67000 1036.734
68.68000 1086.244
68.69000 1132.945
68.70000 1173.005
68.71000 1212.784
68.72000 1254.763
68.73000 1300.282
68.74000 1345.849
68.75000 1369.345
68.76000 1417.369
68.77000 1449.790
68.78000 1490.911
68.79000 1538.078
68.80000 1585.413
68.81000 1637.872
68.82000 1692.741
68.83000 1744.784
68.84000 1803.662
68.85000 1859.972
68.86000 1922.737
68.87000 2036.793
68.88000 2161.898
68.89000 2313.208
68.90000 2596.256
68.91000 2897.498
68.92000 3133.577
68.93000 4255.630
68.94000 5209.566
68.95000 6529.640
68.96000 8686.005
68.97000 10875.040
68.98000 13508.556
68.99000 16831.771
69.00000 20162.904
69.01000 21846.740
69.02000 26712.711
69.03000 29962.717
69.04000 32598.637
69.05000 34823.059
69.06000 37019.422
69.07000 38430.695
69.08000 39485.160
69.09000 40481.770
69.10000 41112.270
69.11000 41587.109
69.12000 42090.809
69.13000 42813.652
69.14000 43581.934
69.15000 44336.961
69.16000 45027.898
69.17000 45710.371
69.18000 46240.566
69.19000 45603.891
69.20000 45026.605
69.21000 43868.473
69.22000 41429.168
69.23000 38943.801
69.24000 36343.207
69.25000 33570.211
69.26000 30795.574
69.27000 28540.410
69.28000 26794.969
69.29000 25054.502
69.30000 23752.279
69.31000 22733.199
69.32000 21736.020
69.33000 21302.605
69.34000 21116.619
69.35000 20941.479
69.36000 20446.109
69.37000 19905.377
69.38000 19303.193
69.39000 18254.678
69.40000 17117.137
69.41000 15868.227
69.42000 14100.987
69.43000 12268.295
69.44000 10857.212
69.45000 8859.359
69.46000 7244.309
69.47000 5836.056
69.48000 4868.259
69.49000 3914.977
69.50000 3148.217
69.51000 2650.458
69.52000 2154.917
69.53000 1811.641
69.54000 1611.885
69.55000 1413.258
69.56000 1299.805
69.57000 1239.424
69.58000 1178.940
69.59000 1116.025
69.60000 1052.080
69.61000 992.092
69.62000 948.117
69.63000 912.261
69.64000 876.927
69.65000 845.215
69.66000 814.198
69.67000 785.891
69.68000 769.733
69.69000 755.039
69.70000 743.829
69.71000 730.722
69.72000 720.295
69.73000 706.833
69.74000 687.132
69.75000 667.243
69.76000 652.553
69.77000 645.088
69.78000 637.673
69.79000 630.045
69.80000 622.231
69.81000 614.422
69.82000 606.893
69.83000 599.532
69.84000 592.028
69.85000 581.360
69.86000 569.397
69.87000 558.219
69.88000 547.762
69.89000 538.455
69.90000 529.608
69.91000 523.824
69.92000 518.606
69.93000 514.463
69.94000 514.963
69.95000 515.997
69.96000 516.779
69.97000 511.722
69.98000 507.465
69.99000 502.766
70.00000 497.189
