20.00000 475.926
20.01000 474.814
20.02000 473.543
20.03000 471.580
20.04000 466.891
20.05000 461.924
20.06000 458.261
20.07000 468.767
20.08000 477.501
20.09000 482.974
20.10000 482.519
20.11000 481.940
20.12000 479.593
20.13000 475.094
20.14000 470.599
20.15000 468.374
20.16000 467.947
20.17000 467.501
20.18000 466.251
20.19000 464.574
20.20000 463.270
20.21000 468.389
20.22000 475.834
20.23000 482.690
20.24000 477.172
20.25000 469.526
20.26000 464.224
20.27000 472.423
20.28000 482.780
20.29000 490.113
20.30000 485.970
20.31000 480.716
20.32000 476.880
20.33000 475.280
20.34000 474.134
20.35000 473.412
20.36000 473.435
20.37000 473.471
20.38000 470.614
20.39000 464.366
20.40000 458.130
20.41000 452.620
20.42000 447.696
20.43000 443.086
20.44000 450.541
20.45000 464.179
20.46000 477.036
20.47000 477.289
20.48000 473.134
20.49000 469.325
20.50000 466.218
20.51000 463.599
20.52000 460.933
20.53000 458.010
20.54000 455.047
20.55000 453.623
20.56000 457.825
20.57000 462.545
20.58000 465.955
20.59000 460.723
20.60000 456.397
20.61000 457.014
20.62000 465.998
20.63000 475.119
20.64000 479.620
20.65000 478.918
20.66000 478.214
20.67000 475.057
20.68000 470.143
20.69000 465.103
20.70000 455.671
20.71000 444.066
20.72000 433.296
20.73000 435.198
20.74000 441.378
20.75000 447.017
20.76000 456.196
20.77000 465.051
20.78000 472.125
20.79000 469.732
20.80000 465.947
20.81000 462.472
20.82000 460.091
20.83000 457.805
20.84000 456.172
20.85000 456.602
20.86000 457.000
20.87000 460.448
20.88000 468.880
20.89000 477.384
20.90000 477.581
20.91000 468.786
20.92000 460.025
20.93000 455.774
20.94000 454.720
20.95000 453.827
20.96000 458.044
20.97000 464.702
20.98000 471.017
20.99000 472.417
21.00000 472.215
21.01000 472.032
21.02000 472.089
21.03000 472.185
21.04000 471.756
21.05000 468.637
21.06000 465.139
21.07000 462.582
21.08000 463.223
21.09000 464.130
21.10000 464.770
21.11000 467.617
21.12000 469.846
21.13000 469.157
21.14000 463.871
21.15000 458.528
21.16000 456.381
21.17000 457.558
21.18000 458.729
21.19000 460.783
21.20000 463.407
21.21000 465.972
21.22000 466.844
21.23000 466.935
21.24000 466.678
21.25000 461.737
21.26000 455.322
21.27000 449.525
21.28000 460.576
21.29000 473.416
21.30000 482.768
21.31000 474.969
21.32000 464.860
21.33000 457.035
21.34000 456.705
21.35000 456.961
21.36000 457.140
21.37000 448.604
21.38000 441.909
21.39000 443.329
21.40000 457.078
21.41000 470.956
21.42000 476.719
21.43000 474.384
21.44000 472.062
21.45000 469.121
21.46000 465.820
21.47000 462.738
21.48000 465.463
21.49000 470.775
21.50000 475.703
21.51000 475.737
21.52000 474.285
21.53000 472.980
21.54000 467.436
21.55000 461.829
21.56000 457.319
21.57000 457.998
21.58000 459.346
21.59000 460.075
21.60000 458.843
21.61000 457.466
21.62000 456.514
21.63000 461.427
21.64000 465.271
21.65000 467.590
21.66000 467.676
21.67000 467.742
21.68000 466.633
21.69000 464.397
21.70000 462.179
21.71000 465.496
21.72000 472.201
21.73000 478.642
21.74000 478.576
21.75000 475.711
21.76000 472.888
21.77000 470.564
21.78000 468.386
21.79000 466.439
21.80000 477.031
21.81000 488.398
21.82000 496.254
21.83000 488.115
21.84000 478.010
21.85000 468.964
21.86000 463.154
21.87000 457.569
21.88000 453.756
21.89000 466.788
21.90000 476.929
21.91000 482.638
21.92000 482.091
21.93000 481.500
21.94000 481.255
21.95000 481.329
21.96000 481.403
21.97000 485.746
21.98000 492.560
21.99000 498.990
22.00000 496.677
22.01000 490.734
22.02000 485.324
22.03000 486.002
22.04000 488.399
22.05000 490.531
22.06000 485.299
22.07000 479.558
22.08000 474.941
22.09000 475.250
22.10000 476.138
22.11000 477.939
22.12000 482.436
22.13000 487.110
22.14000 490.263
22.15000 490.193
22.16000 490.073
22.17000 488.939
22.18000 486.424
22.19000 483.902
22.20000 481.018
22.21000 477.815
22.22000 474.644
22.23000 475.883
22.24000 479.634
22.25000 483.256
22.26000 484.156
22.27000 483.964
22.28000 483.555
22.29000 480.801
22.30000 477.408
22.31000 474.405
22.32000 476.463
22.33000 479.029
22.34000 479.520
22.35000 471.248
22.36000 461.994
22.37000 454.013
22.38000 449.659
22.39000 445.529
22.40000 442.778
22.41000 451.070
22.42000 457.418
22.43000 460.224
22.44000 458.390
22.45000 456.538
22.46000 456.676
22.47000 458.506
22.48000 460.315
22.49000 458.574
22.50000 454.909
22.51000 451.164
22.52000 445.855
22.53000 439.940
22.54000 434.642
22.55000 435.688
22.56000 438.402
22.57000 440.789
22.58000 437.068
22.59000 432.957
22.60000 430.879
22.61000 437.076
22.62000 444.155
22.63000 447.562
22.64000 440.858
22.65000 433.571
22.66000 428.778
22.67000 438.454
22.68000 445.826
22.69000 449.370
22.70000 448.085
22.71000 446.794
22.72000 449.387
22.73000 455.160
22.74000 460.855
22.75000 451.740
22.76000 434.979
22.77000 419.245
22.78000 422.344
22.79000 432.487
22.80000 441.968
22.81000 444.981
22.82000 446.354
22.83000 447.555
22.84000 441.745
22.85000 435.770
22.86000 431.081
22.87000 431.436
22.88000 432.303
22.89000 432.078
22.90000 428.951
22.91000 425.669
22.92000 423.537
22.93000 436.759
22.94000 446.675
22.95000 452.080
22.96000 452.008
22.97000 451.908
22.98000 447.390
22.99000 439.391
23.00000 431.513
23.01000 431.509
23.02000 435.546
23.03000 439.577
23.04000 443.504
23.05000 447.394
23.06000 450.842
23.07000 450.177
23.08000 448.508
23.09000 447.057
23.10000 450.490
23.11000 454.083
23.12000 454.697
23.13000 444.048
23.14000 432.312
23.15000 426.699
23.16000 436.798
23.17000 447.688
23.18000 454.664
23.19000 452.358
23.20000 450.554
23.21000 447.582
23.22000 443.246
23.23000 438.930
23.24000 439.657
23.25000 444.208
23.26000 448.681
23.27000 446.624
23.28000 441.412
23.29000 436.410
23.30000 434.804
23.31000 434.381
23.32000 434.342
23.33000 437.698
23.34000 441.853
23.35000 445.443
23.36000 431.942
23.37000 418.259
23.38000 409.925
23.39000 421.096
23.40000 434.054
23.41000 441.186
23.42000 433.878
23.43000 425.893
23.44000 420.849
23.45000 436.084
23.46000 447.360
23.47000 446.972
23.48000 433.489
23.49000 420.053
23.50000 416.349
23.51000 419.756
23.52000 423.098
23.53000 431.753
23.54000 442.618
23.55000 452.738
23.56000 451.611
23.57000 446.696
23.58000 442.861
23.59000 448.154
23.60000 455.515
23.61000 461.836
23.62000 451.438
23.63000 440.577
23.64000 433.662
23.65000 440.626
23.66000 448.795
23.67000 455.322
23.68000 457.917
23.69000 460.342
23.70000 461.852
23.71000 457.758
23.72000 454.752
23.73000 453.622
23.74000 454.518
23.75000 455.444
23.76000 460.419
23.77000 468.242
23.78000 475.901
23.79000 472.942
23.80000 465.243
23.81000 458.244
23.82000 461.201
23.83000 467.393
23.84000 473.205
23.85000 475.947
23.86000 478.019
23.87000 479.787
23.88000 488.476
23.89000 496.606
23.90000 505.297
23.91000 515.890
23.92000 526.640
23.93000 532.692
23.94000 527.888
23.95000 522.647
23.96000 519.430
23.97000 511.491
23.98000 505.762
23.99000 502.765
24.00000 502.602
24.01000 502.429
24.02000 501.103
24.03000 498.995
24.04000 496.937
24.05000 499.902
24.06000 504.952
24.07000 508.900
24.08000 498.067
24.09000 482.597
24.10000 469.621
24.11000 475.872
24.12000 486.163
24.13000 494.884
24.14000 491.969
24.15000 488.218
24.16000 485.197
24.17000 484.561
24.18000 484.110
24.19000 479.435
24.20000 465.332
24.21000 450.881
24.22000 442.140
24.23000 444.918
24.24000 446.981
24.25000 445.156
24.26000 439.463
24.27000 433.828
24.28000 433.605
24.29000 436.922
24.30000 440.154
24.31000 445.988
24.32000 452.657
24.33000 458.250
24.34000 450.211
24.35000 438.045
24.36000 426.595
24.37000 420.414
24.38000 415.299
24.39000 410.992
24.40000 420.461
24.41000 429.833
24.42000 436.197
24.43000 433.056
24.44000 429.217
24.45000 426.143
24.46000 424.721
24.47000 423.354
24.48000 422.540
24.49000 412.689
24.50000 405.655
24.51000 407.834
24.52000 418.810
24.53000 429.637
24.54000 428.573
24.55000 420.008
24.56000 411.682
24.57000 409.954
24.58000 411.002
24.59000 411.770
24.60000 409.176
24.61000 405.601
24.62000 402.641
24.63000 404.021
24.64000 406.244
24.65000 408.103
24.66000 416.206
24.67000 423.569
24.68000 428.265
24.69000 424.825
24.70000 420.821
24.71000 415.154
24.72000 406.026
24.73000 396.789
24.74000 391.374
24.75000 396.864
24.76000 400.782
24.77000 399.837
24.78000 394.429
24.79000 389.160
24.80000 393.388
24.81000 403.396
24.82000 413.099
24.83000 412.419
24.84000 407.700
24.85000 403.254
24.86000 401.900
24.87000 401.418
24.88000 400.664
24.89000 398.073
24.90000 395.138
24.91000 392.702
24.92000 403.314
24.93000 413.348
24.94000 420.167
24.95000 417.525
24.96000 414.266
24.97000 410.443
24.98000 405.487
24.99000 400.498
25.00000 397.620
25.01000 408.298
25.02000 415.827
25.03000 421.621
25.04000 425.884
25.05000 430.046
25.06000 428.241
25.07000 422.933
25.08000 417.799
25.09000 415.016
25.10000 413.277
25.11000 411.573
25.12000 410.254
25.13000 409.039
25.14000 408.288
25.15000 410.535
25.16000 413.321
25.17000 415.617
25.18000 405.877
25.19000 396.758
25.20000 390.212
25.21000 390.978
25.22000 392.192
25.23000 393.942
25.24000 396.731
25.25000 399.546
25.26000 401.143
25.27000 401.115
25.28000 401.091
25.29000 402.278
25.30000 404.490
25.31000 406.649
25.32000 405.989
25.33000 403.734
25.34000 401.558
25.35000 398.062
25.36000 394.293
25.37000 390.550
25.38000 387.071
25.39000 383.661
25.40000 380.986
25.41000 382.877
25.42000 385.555
25.43000 387.745
25.44000 400.955
25.45000 412.733
25.46000 418.318
25.47000 406.907
25.48000 394.522
25.49000 388.883
25.50000 395.880
25.51000 403.168
25.52000 407.232
25.53000 402.810
25.54000 399.730
25.55000 396.004
25.56000 391.752
25.57000 387.530
25.58000 384.685
25.59000 382.593
25.60000 380.582
25.61000 387.462
25.62000 397.018
25.63000 405.128
25.64000 399.175
25.65000 389.670
25.66000 381.690
25.67000 382.803
25.68000 385.420
25.69000 387.544
25.70000 387.126
25.71000 386.575
25.72000 387.549
25.73000 392.564
25.74000 397.795
25.75000 401.941
25.76000 404.127
25.77000 406.273
25.78000 407.449
25.79000 407.202
25.80000 407.022
25.81000 404.442
25.82000 399.978
25.83000 395.492
25.84000 390.100
25.85000 384.231
25.86000 378.604
25.87000 382.010
25.88000 388.227
25.89000 393.793
25.90000 393.329
25.91000 391.396
25.92000 390.131
25.93000 392.685
25.94000 395.845
25.95000 398.389
25.96000 393.363
25.97000 388.695
25.98000 384.058
25.99000 379.505
26.00000 374.955
26.01000 377.032
26.02000 390.669
26.03000 404.516
26.04000 411.969
26.05000 414.102
26.06000 415.524
26.07000 410.459
26.08000 400.488
26.09000 390.670
26.10000 386.648
26.11000 385.579
26.12000 384.557
26.13000 382.781
26.14000 380.884
26.15000 379.147
26.16000 378.815
26.17000 378.812
26.18000 378.322
26.19000 375.158
26.20000 371.585
26.21000 368.732
26.22000 369.088
26.23000 369.611
26.24000 370.166
26.25000 370.798
26.26000 371.433
26.27000 377.076
26.28000 391.148
26.29000 405.356
26.30000 412.861
26.31000 400.983
26.32000 392.932
26.33000 389.251
26.34000 388.751
26.35000 388.157
26.36000 384.326
26.37000 378.902
26.38000 373.736
26.39000 370.382
26.40000 367.839
26.41000 365.782
26.42000 367.825
26.43000 370.793
26.44000 373.951
26.45000 378.108
26.46000 382.411
26.47000 385.820
26.48000 374.573
26.49000 364.513
26.50000 359.384
26.51000 366.026
26.52000 373.175
26.53000 375.650
26.54000 370.534
26.55000 365.312
26.56000 362.606
26.57000 375.005
26.58000 383.340
26.59000 387.130
26.60000 387.730
26.61000 388.203
26.62000 384.731
26.63000 379.385
26.64000 374.310
26.65000 377.844
26.66000 383.680
26.67000 388.507
26.68000 385.213
26.69000 380.154
26.70000 375.629
26.71000 373.816
26.72000 372.382
26.73000 371.256
26.74000 372.517
26.75000 373.682
26.76000 374.211
26.77000 373.274
26.78000 372.279
26.79000 370.753
26.80000 368.394
26.81000 366.026
26.82000 364.823
26.83000 374.504
26.84000 380.923
26.85000 379.770
26.86000 373.494
26.87000 367.566
26.88000 371.581
26.89000 380.156
26.90000 388.268
26.91000 390.132
26.92000 390.049
26.93000 389.330
26.94000 383.720
26.95000 377.087
26.96000 371.922
26.97000 373.937
26.98000 376.911
26.99000 379.226
27.00000 381.313
27.01000 382.960
27.02000 381.498
27.03000 373.113
27.04000 364.475
27.05000 361.019
27.06000 365.388
27.07000 369.836
27.08000 371.031
27.09000 368.998
27.10000 367.003
27.11000 368.407
27.12000 372.028
27.13000 375.568
27.14000 376.982
27.15000 377.454
27.16000 377.899
27.17000 380.366
27.18000 383.184
27.19000 384.051
27.20000 370.591
27.21000 354.244
27.22000 342.197
27.23000 350.357
27.24000 361.099
27.25000 369.389
27.26000 370.760
27.27000 371.445
27.28000 373.459
27.29000 378.327
27.30000 383.292
27.31000 384.251
27.32000 379.376
27.33000 374.453
27.34000 375.910
27.35000 383.439
27.36000 390.886
27.37000 391.925
27.38000 388.934
27.39000 386.018
27.40000 384.946
27.41000 384.661
27.42000 384.394
27.43000 375.857
27.44000 365.874
27.45000 357.728
27.46000 362.494
27.47000 369.761
27.48000 374.897
27.49000 370.392
27.50000 364.710
27.51000 360.365
27.52000 362.900
27.53000 365.274
27.54000 365.286
27.55000 360.397
27.56000 355.358
27.57000 355.178
27.58000 361.818
27.59000 368.503
27.60000 373.127
27.61000 375.866
27.62000 378.558
27.63000 378.075
27.64000 375.665
27.65000 373.509
27.66000 377.047
27.67000 382.936
27.68000 388.444
27.69000 378.186
27.70000 364.845
27.71000 353.212
27.72000 353.085
27.73000 355.101
27.74000 358.476
27.75000 367.779
27.76000 377.771
27.77000 385.341
27.78000 372.181
27.79000 360.794
27.80000 354.331
27.81000 357.734
27.82000 361.414
27.83000 365.142
27.84000 368.936
27.85000 372.728
27.86000 373.170
27.87000 370.672
27.88000 368.236
27.89000 369.542
27.90000 373.037
27.91000 376.317
27.92000 375.107
27.93000 372.107
27.94000 369.312
27.95000 361.185
27.96000 352.525
27.97000 345.608
27.98000 349.938
27.99000 356.281
28.00000 360.963
28.01000 358.676
28.02000 355.614
28.03000 353.317
28.04000 352.423
28.05000 351.792
28.06000 351.021
28.07000 349.981
28.08000 348.934
28.09000 349.236
28.10000 351.294
28.11000 353.357
28.12000 356.559
28.13000 360.713
28.14000 364.797
28.15000 365.211
28.16000 363.552
28.17000 362.198
28.18000 366.760
28.19000 373.600
28.20000 379.947
28.21000 378.361
28.22000 375.064
28.23000 372.238
28.24000 372.318
28.25000 372.897
28.26000 371.773
28.27000 363.757
28.28000 355.012
28.29000 348.514
28.30000 352.064
28.31000 355.270
28.32000 355.706
28.33000 350.970
28.34000 346.116
28.35000 344.231
28.36000 346.065
28.37000 347.909
28.38000 351.547
28.39000 356.626
28.40000 361.559
28.41000 359.758
28.42000 354.285
28.43000 349.019
28.44000 347.515
28.45000 347.409
28.46000 347.311
28.47000 355.311
28.48000 364.318
28.49000 371.883
28.50000 370.884
28.51000 368.474
28.52000 366.612
28.53000 366.889
28.54000 367.383
28.55000 367.745
28.56000 364.812
28.57000 362.406
28.58000 363.113
28.59000 369.431
28.60000 375.863
28.61000 377.732
28.62000 374.100
28.63000 370.464
28.64000 365.495
28.65000 359.514
28.66000 353.600
28.67000 350.500
28.68000 348.879
28.69000 347.624
28.70000 352.570
28.71000 359.743
28.72000 366.340
28.73000 360.230
28.74000 352.014
28.75000 345.581
28.76000 349.315
28.77000 354.657
28.78000 359.608
28.79000 363.085
28.80000 366.422
28.81000 368.852
28.82000 356.356
28.83000 346.164
28.84000 341.331
28.85000 345.820
28.86000 350.476
28.87000 352.759
28.88000 352.290
28.89000 351.818
28.90000 350.834
28.91000 349.472
28.92000 348.200
28.93000 350.258
28.94000 354.008
28.95000 357.525
28.96000 357.344
28.97000 355.879
28.98000 354.538
28.99000 352.945
29.00000 351.475
29.01000 350.090
29.02000 349.171
29.03000 348.323
29.04000 346.951
29.05000 343.682
29.06000 340.241
29.07000 337.761
29.08000 347.098
29.09000 354.669
29.10000 360.645
29.11000 363.942
29.12000 367.197
29.13000 367.639
29.14000 364.943
29.15000 362.255
29.16000 362.482
29.17000 364.805
29.18000 366.948
29.19000 362.963
29.20000 355.974
29.21000 349.432
29.22000 349.598
29.23000 352.007
29.24000 354.203
29.25000 359.452
29.26000 364.712
29.27000 369.470
29.28000 371.584
29.29000 373.314
29.30000 372.240
29.31000 361.362
29.32000 349.638
29.33000 341.283
29.34000 338.393
29.35000 336.368
29.36000 339.340
29.37000 350.400
29.38000 361.570
29.39000 365.777
29.40000 362.519
29.41000 359.274
29.42000 361.938
29.43000 368.664
29.44000 375.043
29.45000 370.664
29.46000 361.192
29.47000 352.123
29.48000 348.744
29.49000 347.204
29.50000 345.807
29.51000 346.533
29.52000 347.580
29.53000 349.325
29.54000 354.605
29.55000 360.378
29.56000 363.710
29.57000 358.811
29.58000 353.241
29.59000 349.315
29.60000 356.170
29.61000 361.693
29.62000 363.783
29.63000 360.511
29.64000 357.176
29.65000 357.689
29.66000 362.163
29.67000 366.612
29.68000 364.621
29.69000 358.369
29.70000 352.281
29.71000 350.858
29.72000 351.568
29.73000 352.198
29.74000 351.755
29.75000 350.978
29.76000 350.276
29.77000 352.305
29.78000 354.587
29.79000 356.736
29.80000 358.230
29.81000 359.637
29.82000 361.408
29.83000 364.362
29.84000 367.408
29.85000 369.530
29.86000 374.501
29.87000 378.331
29.88000 381.044
29.89000 382.073
29.90000 383.086
29.91000 381.483
29.92000 377.293
29.93000 373.132
29.94000 368.839
29.95000 364.525
29.96000 360.460
29.97000 362.910
29.98000 368.236
29.99000 373.406
30.00000 376.613
30.01000 379.229
30.02000 381.578
30.03000 378.866
30.04000 375.605
30.05000 372.770
30.06000 371.935
30.07000 371.355
30.08000 371.363
30.09000 373.219
30.10000 375.210
30.11000 376.581
30.12000 379.726
30.13000 382.133
30.14000 381.699
30.15000 377.145
30.16000 372.556
30.17000 368.930
30.18000 366.216
30.19000 363.524
30.20000 366.395
30.21000 372.644
30.22000 378.519
30.23000 375.393
30.24000 368.430
30.25000 361.796
30.26000 359.069
30.27000 357.475
30.28000 356.053
30.29000 355.348
30.30000 354.856
30.31000 355.656
30.32000 362.288
30.33000 369.629
30.34000 374.576
30.35000 372.263
30.36000 369.453
30.37000 367.540
30.38000 364.268
30.39000 361.793
30.40000 361.330
30.41000 363.680
30.42000 366.048
30.43000 365.579
30.44000 362.525
30.45000 359.500
30.46000 363.377
30.47000 371.269
30.48000 378.753
30.49000 377.129
30.50000 371.755
30.51000 366.464
30.52000 362.094
30.53000 357.982
30.54000 354.330
30.55000 360.879
30.56000 368.200
30.57000 373.251
30.58000 368.441
30.59000 362.487
30.60000 357.245
30.61000 354.091
30.62000 351.071
30.63000 349.041
30.64000 351.174
30.65000 352.845
30.66000 355.960
30.67000 361.020
30.68000 366.093
30.69000 372.018
30.70000 378.690
30.71000 385.291
30.72000 379.797
30.73000 367.529
30.74000 355.835
30.75000 356.050
30.76000 360.999
30.77000 366.008
30.78000 371.645
30.79000 377.452
30.80000 382.582
30.81000 383.280
30.82000 383.201
30.83000 383.713
30.84000 386.705
30.85000 389.972
30.86000 394.549
30.87000 402.832
30.88000 411.339
30.89000 416.988
30.90000 415.201
30.91000 413.742
30.92000 415.530
30.93000 421.534
30.94000 427.544
30.95000 427.736
30.96000 423.025
30.97000 418.372
30.98000 425.385
30.99000 438.623
31.00000 451.612
31.01000 459.782
31.02000 466.102
31.03000 471.953
31.04000 473.059
31.05000 472.929
31.06000 472.815
31.07000 484.372
31.08000 496.026
31.09000 508.313
31.10000 523.153
31.11000 538.263
31.12000 551.746
31.13000 560.793
31.14000 569.588
31.15000 575.354
31.16000 599.152
31.17000 616.951
31.18000 636.775
31.19000 659.128
31.20000 681.476
31.21000 699.294
31.22000 713.438
31.23000 727.386
31.24000 751.191
31.25000 779.532
31.26000 807.077
31.27000 820.269
31.28000 828.138
31.29000 836.824
31.30000 853.379
31.31000 871.911
31.32000 888.094
31.33000 905.902
31.34000 921.372
31.35000 932.442
31.36000 926.414
31.37000 918.671
31.38000 915.040
31.39000 922.240
31.40000 930.014
31.41000 935.044
31.42000 923.377
31.43000 914.597
31.44000 906.407
31.45000 898.925
31.46000 891.391
31.47000 869.170
31.48000 835.490
31.49000 802.338
31.50000 776.462
31.51000 755.088
31.52000 734.432
31.53000 725.878
31.54000 721.657
31.55000 715.804
31.56000 694.967
31.57000 670.503
31.58000 649.268
31.59000 631.494
31.60000 616.815
31.61000 602.331
31.62000 588.581
31.63000 574.901
31.64000 560.857
31.65000 545.888
31.66000 530.874
31.67000 521.289
31.68000 510.072
31.69000 501.890
31.70000 492.093
31.71000 480.428
31.72000 468.782
31.73000 461.592
31.74000 457.752
31.75000 453.978
31.76000 446.244
31.77000 436.835
31.78000 428.332
31.79000 434.160
31.80000 444.942
31.81000 453.859
31.82000 446.453
31.83000 435.242
31.84000 425.570
31.85000 408.717
31.86000 393.500
31.87000 382.033
31.88000 384.120
31.89000 387.434
31.90000 390.125
31.91000 391.289
31.92000 392.383
31.93000 393.071
31.94000 392.481
31.95000 392.040
31.96000 390.443
31.97000 387.560
31.98000 384.682
31.99000 382.663
32.00000 381.265
32.01000 379.895
32.02000 382.746
32.03000 387.478
32.04000 391.536
32.05000 385.555
32.06000 376.224
32.07000 367.657
32.08000 365.466
32.09000 364.706
32.10000 364.055
32.11000 356.798
32.12000 349.861
32.13000 346.068
32.14000 353.232
32.15000 361.335
32.16000 366.270
32.17000 363.689
32.18000 360.788
32.19000 358.987
32.20000 341.373
32.21000 328.543
32.22000 326.125
32.23000 334.828
32.24000 343.482
32.25000 345.515
32.26000 342.930
32.27000 340.400
32.28000 337.983
32.29000 335.716
32.30000 333.628
32.31000 334.067
32.32000 335.319
32.33000 335.926
32.34000 331.389
32.35000 325.739
32.36000 320.928
32.37000 326.732
32.38000 332.850
32.39000 336.005
32.40000 329.196
32.41000 321.579
32.42000 316.638
32.43000 317.827
32.44000 319.258
32.45000 320.133
32.46000 333.627
32.47000 343.389
32.48000 346.765
32.49000 343.589
32.50000 340.434
32.51000 339.389
32.52000 339.762
32.53000 340.127
32.54000 339.457
32.55000 338.366
32.56000 337.194
32.57000 334.960
32.58000 332.395
32.59000 329.606
32.60000 325.111
32.61000 320.261
32.62000 316.158
32.63000 312.813
32.64000 310.097
32.65000 308.317
32.66000 309.569
32.67000 311.054
32.68000 315.170
32.69000 325.107
32.70000 335.256
32.71000 341.370
32.72000 334.359
32.73000 329.278
32.74000 324.450
32.75000 319.870
32.76000 315.378
32.77000 318.637
32.78000 326.921
32.79000 334.989
32.80000 338.633
32.81000 340.252
32.82000 343.154
32.83000 362.092
32.84000 385.841
32.85000 408.578
32.86000 423.934
32.87000 437.813
32.88000 449.475
32.89000 471.438
32.90000 490.825
32.91000 506.494
32.92000 510.517
32.93000 513.697
32.94000 518.965
32.95000 528.695
32.96000 538.572
32.97000 544.432
32.98000 552.451
32.99000 558.136
33.00000 557.739
33.01000 551.592
33.02000 545.410
33.03000 536.526
33.04000 525.954
33.05000 515.684
33.06000 497.200
33.07000 476.325
33.08000 455.286
33.09000 432.315
33.10000 408.785
33.11000 387.080
33.12000 378.110
33.13000 371.590
33.14000 366.150
33.15000 358.362
33.16000 351.666
33.17000 342.709
33.18000 326.916
33.19000 310.657
33.20000 299.339
33.21000 298.212
33.22000 297.393
33.23000 296.916
33.24000 287.353
33.25000 280.588
33.26000 282.559
33.27000 292.466
33.28000 302.316
33.29000 308.437
33.30000 312.310
33.31000 316.062
33.32000 311.170
33.33000 303.180
33.34000 295.786
33.35000 295.059
33.36000 296.195
33.37000 297.049
33.38000 296.021
33.39000 294.644
33.40000 293.504
33.41000 290.661
33.42000 288.152
33.43000 286.416
33.44000 286.939
33.45000 287.607
33.46000 287.259
33.47000 284.890
33.48000 282.465
33.49000 281.071
33.50000 295.635
33.51000 305.868
33.52000 307.459
33.53000 301.502
33.54000 295.629
33.55000 294.618
33.56000 296.436
33.57000 298.193
33.58000 295.524
33.59000 291.351
33.60000 287.826
33.61000 291.198
33.62000 296.427
33.63000 300.173
33.64000 294.425
33.65000 286.989
33.66000 280.874
33.67000 284.370
33.68000 288.113
33.69000 291.684
33.70000 294.765
33.71000 297.817
33.72000 300.097
33.73000 300.894
33.74000 301.655
33.75000 302.084
33.76000 297.778
33.77000 294.774
33.78000 293.317
33.79000 293.158
33.80000 293.001
33.81000 292.932
33.82000 292.913
33.83000 292.895
33.84000 295.958
33.85000 299.946
33.86000 303.437
33.87000 301.917
33.88000 299.096
33.89000 296.740
33.90000 297.243
33.91000 298.234
33.92000 299.043
33.93000 296.364
33.94000 293.874
33.95000 292.274
33.96000 293.097
33.97000 294.056
33.98000 296.461
33.99000 301.547
34.00000 306.693
34.01000 309.551
34.02000 303.542
34.03000 299.385
34.04000 299.680
34.05000 303.573
34.06000 307.476
34.07000 311.792
34.08000 316.332
34.09000 320.695
34.10000 322.707
34.11000 323.777
34.12000 324.246
34.13000 318.934
34.14000 312.176
34.15000 306.134
34.16000 304.322
34.17000 303.202
34.18000 302.294
34.19000 295.806
34.20000 290.069
34.21000 288.605
34.22000 298.364
34.23000 308.714
34.24000 313.403
34.25000 307.948
34.26000 302.291
34.27000 299.205
34.28000 309.429
34.29000 316.447
34.30000 317.999
34.31000 315.301
34.32000 312.649
34.33000 311.874
34.34000 312.082
34.35000 312.280
34.36000 314.177
34.37000 316.511
34.38000 318.110
34.39000 312.976
34.40000 306.219
34.41000 300.212
34.42000 298.452
34.43000 297.360
34.44000 296.483
34.45000 301.056
34.46000 305.183
34.47000 308.299
34.48000 308.853
34.49000 309.282
34.50000 311.371
34.51000 316.332
34.52000 321.343
34.53000 324.028
34.54000 314.000
34.55000 307.156
34.56000 302.139
34.57000 298.491
34.58000 294.894
34.59000 293.172
34.60000 292.397
34.61000 291.657
34.62000 292.442
34.63000 293.659
34.64000 294.493
34.65000 291.989
34.66000 288.709
34.67000 285.679
34.68000 284.012
34.69000 282.551
34.70000 281.386
34.71000 286.710
34.72000 291.476
34.73000 293.660
34.74000 289.517
34.75000 285.085
34.76000 284.135
34.77000 288.994
34.78000 293.943
34.79000 296.544
34.80000 294.881
34.81000 293.746
34.82000 291.887
34.83000 289.505
34.84000 287.206
34.85000 287.671
34.86000 289.482
34.87000 291.206
34.88000 284.967
34.89000 276.739
34.90000 269.034
34.91000 265.677
34.92000 263.293
34.93000 261.890
34.94000 265.613
34.95000 270.077
34.96000 273.605
34.97000 268.895
34.98000 264.549
34.99000 262.423
35.00000 265.552
35.01000 268.903
35.02000 267.005
35.03000 256.658
35.04000 246.199
35.05000 240.805
35.06000 248.922
35.07000 254.408
35.08000 261.858
35.09000 270.673
35.10000 279.251
35.11000 280.593
35.12000 278.527
35.13000 276.568
35.14000 275.728
35.15000 275.285
35.16000 275.125
35.17000 277.219
35.18000 279.799
35.19000 281.533
35.20000 279.017
35.21000 275.913
35.22000 273.481
35.23000 274.788
35.24000 276.075
35.25000 275.839
35.26000 272.125
35.27000 268.276
35.28000 266.389
35.29000 267.548
35.30000 268.741
35.31000 269.345
35.32000 261.487
35.33000 256.283
35.34000 256.660
35.35000 260.778
35.36000 264.757
35.37000 264.818
35.38000 263.099
35.39000 261.475
35.40000 259.159
35.41000 256.836
35.42000 255.511
35.43000 261.760
35.44000 269.580
35.45000 275.416
35.46000 271.653
35.47000 266.623
35.48000 262.714
35.49000 263.282
35.50000 264.006
35.51000 262.913
35.52000 257.810
35.53000 252.564
35.54000 252.432
35.55000 259.952
35.56000 267.546
35.57000 270.810
35.58000 269.825
35.59000 268.818
35.60000 265.915
35.61000 261.786
35.62000 257.657
35.63000 253.515
35.64000 249.366
35.65000 245.460
35.66000 251.644
35.67000 260.062
35.68000 266.689
35.69000 260.313
35.70000 251.343
35.71000 244.981
35.72000 250.757
35.73000 258.066
35.74000 263.693
35.75000 259.216
35.76000 255.095
35.77000 251.869
35.78000 250.548
35.79000 249.289
35.80000 250.582
35.81000 255.554
35.82000 260.555
35.83000 263.182
35.84000 263.574
35.85000 263.946
35.86000 262.901
35.87000 260.973
35.88000 259.022
35.89000 256.544
35.90000 253.843
35.91000 251.310
35.92000 256.063
35.93000 262.309
35.94000 266.884
35.95000 259.832
35.96000 250.551
35.97000 243.445
35.98000 246.093
35.99000 249.917
36.00000 252.835
36.01000 249.136
36.02000 245.867
36.03000 247.611
36.04000 259.664
36.05000 272.027
36.06000 277.123
36.07000 272.117
36.08000 267.046
36.09000 261.113
36.10000 254.406
36.11000 247.766
36.12000 245.506
36.13000 245.881
36.14000 246.280
36.15000 247.233
36.16000 248.412
36.17000 249.514
36.18000 252.445
36.19000 255.567
36.20000 258.072
36.21000 256.472
36.22000 254.115
36.23000 252.361
36.24000 253.210
36.25000 254.359
36.26000 255.228
36.27000 259.386
36.28000 262.812
36.29000 262.858
36.30000 256.196
36.31000 249.350
36.32000 245.288
36.33000 244.953
36.34000 244.637
36.35000 244.198
36.36000 243.652
36.37000 243.155
36.38000 245.468
36.39000 249.410
36.40000 253.192
36.41000 253.688
36.42000 252.886
36.43000 252.140
36.44000 249.118
36.45000 245.835
36.46000 243.808
36.47000 249.807
36.48000 257.227
36.49000 262.457
36.50000 258.579
36.51000 253.701
36.52000 250.050
36.53000 248.356
36.54000 247.126
36.55000 245.935
36.56000 244.820
36.57000 243.707
36.58000 241.954
36.59000 239.374
36.60000 236.795
36.61000 238.996
36.62000 245.181
36.63000 251.300
36.64000 254.066
36.65000 254.955
36.66000 255.667
36.67000 253.009
36.68000 249.064
36.69000 245.408
36.70000 245.025
36.71000 245.442
36.72000 246.089
36.73000 248.139
36.74000 250.427
36.75000 251.789
36.76000 249.440
36.77000 246.704
36.78000 244.676
36.79000 249.886
36.80000 254.247
36.81000 257.669
36.82000 259.354
36.83000 261.001
36.84000 264.391
36.85000 269.945
36.86000 275.497
36.87000 273.489
36.88000 265.425
36.89000 257.487
36.90000 255.257
36.91000 256.111
36.92000 256.753
36.93000 253.634
36.94000 249.129
36.95000 244.971
36.96000 250.703
36.97000 258.053
36.98000 264.597
36.99000 266.410
37.00000 267.451
37.01000 268.179
37.02000 267.700
37.03000 267.101
37.04000 266.662
37.05000 258.487
37.06000 251.856
37.07000 248.318
37.08000 250.301
37.09000 252.393
37.10000 253.102
37.11000 252.158
37.12000 251.213
37.13000 253.186
37.14000 257.400
37.15000 261.517
37.16000 261.783
37.17000 260.039
37.18000 258.335
37.19000 257.284
37.20000 256.466
37.21000 255.714
37.22000 253.115
37.23000 250.398
37.24000 248.143
37.25000 248.487
37.26000 249.239
37.27000 249.315
37.28000 246.871
37.29000 244.190
37.30000 242.242
37.31000 245.975
37.32000 249.058
37.33000 250.013
37.34000 247.299
37.35000 244.521
37.36000 243.333
37.37000 243.972
37.38000 244.612
37.39000 246.708
37.40000 249.869
37.41000 253.023
37.42000 255.888
37.43000 258.608
37.44000 260.749
37.45000 253.821
37.46000 243.778
37.47000 234.594
37.48000 236.268
37.49000 239.992
37.50000 243.202
37.51000 243.621
37.52000 243.622
37.53000 243.490
37.54000 242.885
37.55000 242.238
37.56000 241.772
37.57000 244.010
37.58000 245.816
37.59000 247.330
37.60000 248.355
37.61000 249.374
37.62000 248.533
37.63000 245.639
37.64000 242.755
37.65000 245.032
37.66000 250.967
37.67000 256.810
37.68000 259.592
37.69000 260.887
37.70000 261.794
37.71000 256.992
37.72000 250.296
37.73000 244.201
37.74000 244.477
37.75000 245.979
37.76000 247.118
37.77000 246.372
37.78000 245.355
37.79000 245.912
37.80000 251.922
37.81000 258.396
37.82000 262.997
37.83000 261.570
37.84000 260.290
37.85000 257.526
37.86000 252.380
37.87000 247.203
37.88000 246.973
37.89000 251.992
37.90000 256.988
37.91000 259.082
37.92000 259.163
37.93000 259.307
37.94000 261.354
37.95000 264.294
37.96000 266.710
37.97000 261.868
37.98000 254.700
37.99000 248.208
38.00000 253.003
38.01000 259.365
38.02000 264.327
38.03000 262.268
38.04000 259.244
38.05000 256.594
38.06000 255.197
38.07000 253.901
38.08000 252.989
38.09000 250.665
38.10000 248.863
38.11000 250.497
38.12000 257.449
38.13000 264.461
38.14000 265.713
38.15000 261.096
38.16000 256.505
38.17000 254.443
38.18000 254.075
38.19000 253.715
38.20000 253.595
38.21000 253.584
38.22000 253.632
38.23000 254.446
38.24000 255.497
38.25000 256.444
38.26000 266.505
38.27000 276.987
38.28000 285.200
38.29000 282.466
38.30000 278.292
38.31000 276.114
38.32000 280.378
38.33000 285.132
38.34000 288.435
38.35000 288.473
38.36000 288.414
38.37000 291.655
38.38000 299.817
38.39000 308.026
38.40000 316.021
38.41000 323.807
38.42000 331.538
38.43000 339.505
38.44000 347.497
38.45000 355.359
38.46000 359.907
38.47000 363.004
38.48000 366.836
38.49000 379.767
38.50000 395.410
38.51000 409.437
38.52000 409.605
38.53000 407.344
38.54000 408.610
38.55000 426.240
38.56000 445.929
38.57000 464.678
38.58000 480.501
38.59000 496.113
38.60000 506.837
38.61000 523.090
38.62000 535.413
38.63000 549.639
38.64000 566.602
38.65000 583.583
38.66000 588.918
38.67000 583.315
38.68000 577.757
38.69000 575.292
38.70000 574.758
38.71000 574.187
38.72000 572.728
38.73000 570.895
38.74000 568.637
38.75000 561.399
38.76000 552.729
38.77000 544.995
38.78000 527.577
38.79000 510.811
38.80000 494.761
38.81000 481.911
38.82000 469.445
38.83000 457.462
38.84000 446.930
38.85000 436.496
38.86000 429.415
38.87000 414.852
38.88000 403.821
38.89000 391.654
38.90000 377.913
38.91000 364.161
38.92000 351.082
38.93000 338.610
38.94000 326.257
38.95000 321.384
38.96000 321.002
38.97000 320.444
38.98000 316.043
38.99000 310.072
39.00000 304.080
39.01000 297.853
39.02000 291.561
39.03000 285.980
39.04000 280.548
39.05000 275.867
39.06000 272.105
39.07000 272.298
39.08000 272.944
39.09000 271.103
39.10000 262.043
39.11000 252.524
39.12000 246.143
39.13000 242.402
39.14000 239.678
39.15000 238.380
39.16000 238.984
39.17000 239.601
39.18000 243.532
39.19000 250.336
39.20000 257.066
39.21000 255.072
39.22000 248.199
39.23000 241.724
39.24000 243.379
39.25000 248.238
39.26000 252.025
39.27000 244.522
39.28000 233.997
39.29000 224.713
39.30000 231.329
39.31000 239.457
39.32000 245.731
39.33000 244.322
39.34000 242.072
39.35000 239.638
39.36000 236.682
39.37000 233.695
39.38000 231.718
39.39000 237.573
39.40000 242.037
39.41000 245.434
39.42000 247.458
39.43000 249.467
39.44000 246.538
39.45000 239.488
39.46000 232.528
39.47000 232.213
39.48000 235.519
39.49000 238.567
39.50000 236.730
39.51000 233.034
39.52000 229.376
39.53000 226.099
39.54000 222.921
39.55000 220.133
39.56000 228.796
39.57000 237.902
39.58000 243.950
39.59000 237.785
39.60000 230.349
39.61000 225.254
39.62000 226.493
39.63000 228.084
39.64000 229.125
39.65000 232.289
39.66000 234.647
39.67000 235.902
39.68000 235.792
39.69000 235.677
39.70000 235.206
39.71000 234.447
39.72000 233.700
39.73000 234.206
39.74000 235.352
39.75000 236.338
39.76000 234.467
39.77000 231.548
39.78000 228.883
39.79000 228.656
39.80000 229.035
39.81000 229.365
39.82000 226.971
39.83000 224.546
39.84000 223.447
39.85000 227.459
39.86000 231.976
39.87000 236.014
39.88000 238.800
39.89000 241.520
39.90000 243.274
39.91000 242.412
39.92000 241.744
39.93000 240.225
39.94000 237.692
39.95000 235.160
39.96000 233.282
39.97000 231.911
39.98000 230.561
39.99000 228.662
40.00000 226.547
40.01000 224.635
40.02000 226.102
40.03000 228.769
40.04000 230.647
40.05000 225.380
40.06000 218.400
40.07000 212.350
40.08000 215.615
40.09000 219.632
40.10000 223.880
40.11000 228.983
40.12000 234.166
40.13000 236.316
40.14000 230.816
40.15000 224.944
40.16000 221.209
40.17000 218.365
40.18000 216.310
40.19000 215.610
40.20000 216.461
40.21000 217.319
40.22000 219.294
40.23000 222.100
40.24000 224.856
40.25000 226.677
40.26000 227.982
40.27000 229.153
40.28000 228.244
40.29000 226.621
40.30000 225.324
40.31000 226.845
40.32000 229.016
40.33000 230.886
40.34000 222.785
40.35000 214.657
40.36000 209.297
40.37000 213.850
40.38000 219.288
40.39000 222.395
40.40000 219.823
40.41000 216.995
40.42000 215.221
40.43000 212.196
40.44000 209.996
40.45000 213.438
40.46000 223.090
40.47000 232.683
40.48000 232.970
40.49000 226.583
40.50000 220.324
40.51000 217.448
40.52000 216.259
40.53000 215.136
40.54000 214.974
40.55000 215.130
40.56000 215.639
40.57000 219.057
40.58000 223.123
40.59000 226.603
40.60000 221.198
40.61000 215.565
40.62000 210.578
40.63000 207.818
40.64000 205.247
40.65000 203.453
40.66000 203.485
40.67000 203.594
40.68000 203.662
40.69000 211.085
40.70000 216.489
40.71000 220.632
40.72000 223.442
40.73000 226.228
40.74000 226.244
40.75000 224.346
40.76000 222.489
40.77000 218.841
40.78000 214.539
40.79000 210.603
40.80000 211.725
40.81000 214.461
40.82000 216.802
40.83000 216.028
40.84000 214.587
40.85000 213.363
40.86000 214.491
40.87000 215.709
40.88000 216.405
40.89000 215.364
40.90000 214.183
40.91000 212.941
40.92000 211.559
40.93000 210.172
40.94000 209.326
40.95000 206.885
40.96000 205.127
40.97000 204.156
40.98000 203.983
40.99000 203.829
41.00000 205.469
41.01000 208.306
41.02000 211.074
41.03000 215.445
41.04000 220.315
41.05000 224.680
41.06000 222.451
41.07000 218.191
41.08000 214.260
41.09000 212.819
41.10000 211.890
41.11000 211.106
41.12000 209.893
41.13000 208.832
41.14000 207.513
41.15000 205.363
41.16000 203.150
41.17000 202.224
41.18000 204.120
41.19000 206.116
41.20000 207.314
41.21000 209.641
41.22000 211.303
41.23000 210.974
41.24000 208.705
41.25000 206.507
41.26000 210.359
41.27000 218.097
41.28000 225.629
41.29000 222.384
41.30000 214.814
41.31000 207.632
41.32000 205.230
41.33000 204.248
41.34000 203.388
41.35000 203.404
41.36000 203.594
41.37000 203.754
41.38000 209.958
41.39000 215.752
41.40000 219.263
41.41000 215.688
41.42000 211.607
41.43000 208.581
41.44000 207.792
41.45000 207.075
41.46000 206.651
41.47000 211.583
41.48000 215.096
41.49000 214.929
41.50000 211.316
41.51000 207.724
41.52000 205.709
41.53000 204.670
41.54000 203.661
41.55000 201.021
41.56000 197.863
41.57000 195.352
41.58000 200.388
41.59000 207.588
41.60000 213.607
41.61000 211.462
41.62000 207.761
41.63000 204.679
41.64000 198.483
41.65000 193.042
41.66000 189.985
41.67000 194.075
41.68000 198.644
41.69000 201.017
41.70000 198.896
41.71000 196.643
41.72000 195.332
41.73000 195.209
41.74000 195.127
41.75000 195.787
41.76000 197.113
41.77000 198.474
41.78000 202.111
41.79000 207.108
41.80000 211.947
41.81000 213.321
41.82000 213.286
41.83000 213.345
41.84000 214.449
41.85000 215.841
41.86000 217.020
41.87000 216.788
41.88000 216.298
41.89000 215.893
41.90000 218.537
41.91000 221.005
41.92000 221.566
41.93000 216.611
41.94000 211.307
41.95000 208.947
41.96000 212.402
41.97000 216.014
41.98000 218.080
41.99000 216.425
42.00000 215.256
42.01000 213.230
42.02000 210.464
42.03000 207.790
42.04000 210.282
42.05000 215.753
42.06000 221.037
42.07000 220.674
42.08000 218.241
42.09000 215.893
42.10000 214.437
42.11000 213.218
42.12000 211.861
42.13000 209.627
42.14000 207.239
42.15000 205.278
42.16000 210.074
42.17000 214.615
42.18000 218.478
42.19000 220.446
42.20000 222.302
42.21000 222.175
42.22000 218.271
42.23000 214.275
42.24000 212.027
42.25000 209.076
42.26000 207.031
42.27000 207.158
42.28000 209.093
42.29000 211.003
42.30000 211.727
42.31000 211.792
42.32000 211.854
42.33000 211.791
42.34000 211.687
42.35000 211.917
42.36000 215.473
42.37000 219.885
42.38000 222.956
42.39000 217.865
42.40000 211.396
42.41000 206.125
42.42000 205.153
42.43000 204.722
42.44000 204.295
42.45000 203.877
42.46000 203.460
42.47000 202.824
42.48000 201.783
42.49000 200.733
42.50000 200.153
42.51000 201.284
42.52000 202.072
42.53000 204.177
42.54000 207.337
42.55000 210.393
42.56000 208.840
42.57000 204.810
42.58000 200.941
42.59000 201.356
42.60000 203.213
42.61000 204.633
42.62000 201.902
42.63000 198.142
42.64000 195.204
42.65000 197.069
42.66000 199.711
42.67000 201.847
42.68000 199.834
42.69000 197.864
42.70000 197.333
42.71000 200.549
42.72000 203.960
42.73000 205.574
42.74000 204.001
42.75000 202.365
42.76000 201.477
42.77000 200.962
42.78000 200.615
42.79000 201.581
42.80000 203.560
42.81000 205.469
42.82000 204.616
42.83000 202.329
42.84000 200.141
42.85000 208.755
42.86000 220.343
42.87000 229.741
42.88000 219.343
42.89000 204.213
42.90000 191.085
42.91000 189.172
42.92000 189.003
42.93000 188.867
42.94000 196.272
42.95000 202.839
42.96000 207.330
42.97000 206.604
42.98000 205.627
42.99000 203.659
43.00000 199.995
43.01000 196.302
43.02000 194.333
43.03000 203.067
43.04000 209.003
43.05000 210.648
43.06000 209.109
43.07000 207.592
43.08000 206.846
43.09000 206.485
43.10000 206.141
43.11000 202.520
43.12000 198.120
43.13000 194.403
43.14000 196.583
43.15000 200.121
43.16000 202.933
43.17000 201.841
43.18000 200.168
43.19000 198.837
43.20000 201.135
43.21000 203.246
43.22000 203.218
43.23000 197.997
43.24000 192.543
43.25000 189.340
43.26000 189.860
43.27000 190.436
43.28000 190.737
43.29000 199.444
43.30000 205.295
43.31000 204.304
43.32000 198.423
43.33000 192.665
43.34000 190.933
43.35000 191.145
43.36000 191.346
43.37000 191.931
43.38000 192.588
43.39000 193.070
43.40000 192.109
43.41000 190.828
43.42000 190.608
43.43000 195.884
43.44000 201.945
43.45000 206.725
43.46000 201.245
43.47000 196.157
43.48000 192.253
43.49000 191.126
43.50000 190.115
43.51000 190.696
43.52000 193.819
43.53000 196.974
43.54000 198.593
43.55000 186.532
43.56000 178.449
43.57000 173.997
43.58000 172.046
43.59000 170.314
43.60000 175.157
43.61000 183.068
43.62000 190.565
43.63000 192.482
43.64000 192.611
43.65000 192.488
43.66000 190.378
43.67000 187.845
43.68000 186.593
43.69000 191.722
43.70000 197.724
43.71000 202.417
43.72000 199.809
43.73000 197.264
43.74000 194.072
43.75000 189.416
43.76000 184.703
43.77000 183.996
43.78000 189.448
43.79000 194.967
43.80000 197.743
43.81000 197.105
43.82000 196.671
43.83000 195.454
43.84000 193.717
43.85000 192.102
43.86000 193.856
43.87000 197.128
43.88000 200.217
43.89000 199.609
43.90000 198.008
43.91000 196.253
43.92000 193.340
43.93000 190.191
43.94000 188.270
43.95000 192.235
43.96000 196.970
43.97000 200.640
43.98000 201.958
43.99000 202.864
44.00000 202.156
44.01000 197.917
44.02000 193.553
44.03000 190.565
44.04000 189.616
44.05000 188.686
44.06000 188.425
44.07000 188.815
44.08000 189.195
44.09000 188.807
44.10000 187.926
44.11000 187.107
44.12000 187.867
44.13000 189.313
44.14000 190.674
44.15000 192.328
44.16000 193.919
44.17000 195.496
44.18000 196.966
44.19000 198.415
44.20000 199.119
44.21000 196.387
44.22000 193.226
44.23000 190.797
44.24000 193.265
44.25000 195.492
44.26000 197.142
44.27000 197.575
44.28000 197.969
44.29000 195.840
44.30000 190.104
44.31000 184.341
44.32000 185.410
44.33000 192.847
44.34000 200.190
44.35000 200.628
44.36000 196.803
44.37000 193.263
44.38000 196.361
44.39000 202.248
44.40000 207.766
44.41000 204.673
44.42000 199.616
44.43000 194.780
44.44000 191.462
44.45000 188.431
44.46000 186.466
44.47000 189.228
44.48000 192.554
44.49000 195.086
44.50000 197.465
44.51000 199.328
44.52000 201.157
44.53000 202.914
44.54000 204.670
44.55000 204.088
44.56000 200.288
44.57000 196.469
44.58000 192.657
44.59000 188.854
44.60000 185.129
44.61000 186.348
44.62000 190.512
44.63000 194.697
44.64000 199.318
44.65000 204.116
44.66000 208.596
44.67000 212.678
44.68000 216.279
44.69000 219.083
44.70000 216.638
44.71000 213.235
44.72000 210.653
44.73000 211.582
44.74000 212.911
44.75000 213.913
44.76000 214.052
44.77000 214.118
44.78000 213.309
44.79000 210.778
44.80000 208.201
44.81000 206.189
44.82000 204.926
44.83000 203.669
44.84000 205.128
44.85000 208.921
44.86000 212.671
44.87000 213.968
44.88000 213.856
44.89000 213.698
44.90000 212.630
44.91000 211.205
44.92000 209.881
44.93000 208.940
44.94000 208.184
44.95000 207.986
44.96000 211.319
44.97000 215.270
44.98000 217.620
44.99000 213.370
45.00000 208.404
45.01000 204.696
45.02000 218.781
45.03000 230.575
45.04000 232.679
45.05000 216.368
45.06000 199.615
45.07000 194.824
45.08000 205.312
45.09000 215.843
45.10000 220.690
45.11000 220.823
45.12000 220.881
45.13000 217.195
45.14000 211.433
45.15000 206.194
45.16000 210.745
45.17000 219.002
45.18000 226.646
45.19000 222.616
45.20000 216.302
45.21000 210.844
45.22000 210.579
45.23000 211.189
45.24000 211.691
45.25000 211.767
45.26000 211.799
45.27000 211.822
45.28000 206.285
45.29000 201.753
45.30000 200.362
45.31000 204.731
45.32000 209.224
45.33000 210.467
45.34000 207.715
45.35000 204.957
45.36000 204.907
45.37000 207.009
45.38000 208.989
45.39000 205.597
45.40000 199.330
45.41000 193.304
45.42000 191.502
45.43000 191.244
45.44000 191.006
45.45000 191.261
45.46000 191.600
45.47000 191.838
45.48000 191.494
45.49000 191.056
45.50000 191.202
45.51000 193.581
45.52000 196.180
45.53000 198.082
45.54000 192.545
45.55000 187.976
45.56000 186.775
45.57000 191.536
45.58000 196.411
45.59000 196.795
45.60000 191.865
45.61000 186.937
45.62000 183.414
45.63000 180.983
45.64000 178.641
45.65000 179.797
45.66000 182.761
45.67000 185.516
45.68000 184.836
45.69000 182.943
45.70000 181.206
45.71000 186.608
45.72000 192.939
45.73000 197.295
45.74000 190.611
45.75000 182.216
45.76000 175.348
45.77000 174.110
45.78000 173.398
45.79000 172.882
45.80000 177.439
45.81000 181.126
45.82000 184.599
45.83000 187.706
45.84000 190.806
45.85000 191.215
45.86000 188.563
45.87000 185.916
45.88000 183.765
45.89000 181.997
45.90000 180.219
45.91000 178.095
45.92000 175.798
45.93000 173.516
45.94000 171.463
45.95000 169.487
45.96000 167.682
45.97000 168.964
45.98000 170.731
45.99000 172.852
46.00000 176.874
46.01000 181.178
46.02000 184.642
46.03000 185.114
46.04000 185.321
46.05000 185.470
46.06000 183.165
46.07000 181.320
46.08000 178.599
46.09000 174.433
46.10000 170.246
46.11000 170.074
46.12000 174.291
46.13000 178.493
46.14000 181.326
46.15000 183.167
46.16000 184.923
46.17000 183.939
46.18000 181.634
46.19000 179.540
46.20000 180.505
46.21000 182.476
46.22000 184.267
46.23000 178.861
46.24000 172.676
46.25000 167.493
46.26000 167.485
46.27000 168.214
46.28000 169.723
46.29000 173.910
46.30000 178.323
46.31000 181.450
46.32000 175.248
46.33000 170.239
46.34000 168.981
46.35000 173.686
46.36000 178.467
46.37000 179.530
46.38000 176.686
46.39000 173.855
46.40000 174.558
46.41000 177.649
46.42000 180.497
46.43000 176.106
46.44000 168.347
46.45000 161.285
46.46000 163.746
46.47000 169.230
46.48000 174.191
46.49000 177.918
46.50000 180.968
46.51000 182.940
46.52000 179.558
46.53000 175.448
46.54000 173.132
46.55000 176.757
46.56000 180.854
46.57000 183.725
46.58000 175.425
46.59000 168.824
46.60000 164.684
46.61000 164.315
46.62000 163.988
46.63000 162.526
46.64000 159.920
46.65000 157.329
46.66000 160.849
46.67000 168.309
46.68000 175.605
46.69000 178.422
46.70000 179.226
46.71000 179.988
46.72000 180.201
46.73000 180.245
46.74000 180.286
46.75000 174.299
46.76000 167.970
46.77000 162.782
46.78000 163.044
46.79000 164.016
46.80000 167.065
46.81000 176.758
46.82000 186.948
46.83000 194.010
46.84000 183.699
46.85000 175.482
46.86000 170.712
46.87000 171.038
46.88000 171.411
46.89000 172.042
46.90000 172.921
46.91000 173.794
46.92000 172.435
46.93000 169.696
46.94000 166.901
46.95000 162.695
46.96000 157.877
46.97000 153.549
46.98000 155.192
46.99000 158.601
47.00000 161.653
47.01000 162.550
47.02000 162.962
47.03000 163.544
47.04000 164.907
47.05000 166.368
47.06000 168.143
47.07000 170.888
47.08000 173.702
47.09000 175.628
47.10000 177.791
47.11000 179.416
47.12000 180.871
47.13000 182.083
47.14000 183.291
47.15000 180.110
47.16000 172.846
47.17000 165.645
47.18000 163.959
47.19000 165.638
47.20000 167.191
47.21000 165.843
47.22000 163.280
47.23000 161.017
47.24000 162.229
47.25000 164.433
47.26000 166.396
47.27000 163.241
47.28000 159.658
47.29000 156.989
47.30000 158.370
47.31000 160.231
47.32000 161.550
47.33000 161.256
47.34000 160.855
47.35000 160.583
47.36000 160.631
47.37000 160.674
47.38000 162.235
47.39000 165.878
47.40000 169.531
47.41000 170.049
47.42000 167.767
47.43000 165.508
47.44000 167.513
47.45000 171.955
47.46000 176.026
47.47000 172.105
47.48000 164.952
47.49000 158.346
47.50000 157.735
47.51000 158.772
47.52000 159.691
47.53000 157.312
47.54000 154.735
47.55000 152.538
47.56000 151.963
47.57000 151.572
47.58000 151.453
47.59000 152.118
47.60000 152.831
47.61000 153.308
47.62000 155.978
47.63000 157.999
47.64000 159.913
47.65000 161.685
47.66000 163.453
47.67000 162.580
47.68000 159.438
47.69000 156.332
47.70000 158.640
47.71000 163.921
47.72000 168.902
47.73000 167.886
47.74000 164.527
47.75000 161.528
47.76000 162.273
47.77000 164.010
47.78000 165.541
47.79000 165.860
47.80000 165.952
47.81000 165.754
47.82000 164.364
47.83000 162.846
47.84000 160.273
47.85000 154.773
47.86000 149.101
47.87000 145.358
47.88000 147.781
47.89000 149.676
47.90000 154.356
47.91000 162.584
47.92000 170.805
47.93000 170.028
47.94000 161.815
47.95000 153.710
47.96000 152.774
47.97000 155.723
47.98000 158.649
47.99000 161.156
48.00000 163.507
48.01000 165.940
48.02000 169.203
48.03000 172.677
48.04000 175.719
48.05000 173.215
48.06000 170.269
48.07000 167.466
48.08000 165.231
48.09000 163.053
48.10000 161.245
48.11000 160.429
48.12000 159.667
48.13000 159.171
48.14000 162.034
48.15000 164.186
48.16000 163.147
48.17000 158.196
48.18000 153.247
48.19000 151.648
48.20000 152.715
48.21000 153.767
48.22000 155.996
48.23000 158.769
48.24000 161.544
48.25000 164.348
48.26000 167.163
48.27000 169.790
48.28000 170.641
48.29000 171.054
48.30000 171.414
48.31000 166.641
48.32000 161.858
48.33000 157.798
48.34000 156.492
48.35000 155.456
48.36000 155.572
48.37000 158.674
48.38000 161.929
48.39000 164.021
48.40000 158.300
48.41000 154.018
48.42000 153.966
48.43000 158.901
48.44000 163.817
48.45000 162.497
48.46000 156.403
48.47000 150.410
48.48000 150.882
48.49000 154.563
48.50000 158.213
48.51000 161.352
48.52000 164.311
48.53000 166.739
48.54000 164.410
48.55000 160.951
48.56000 157.958
48.57000 153.792
48.58000 150.096
48.59000 148.142
48.60000 152.601
48.61000 157.655
48.62000 160.259
48.63000 156.741
48.64000 152.931
48.65000 150.516
48.66000 156.077
48.67000 160.209
48.68000 160.893
48.69000 157.668
48.70000 154.460
48.71000 154.824
48.72000 157.822
48.73000 160.765
48.74000 160.658
48.75000 159.091
48.76000 157.620
48.77000 157.620
48.78000 158.120
48.79000 158.530
48.80000 158.170
48.81000 157.634
48.82000 157.174
48.83000 160.538
48.84000 163.865
48.85000 165.623
48.86000 161.815
48.87000 157.517
48.88000 156.218
48.89000 162.159
48.90000 168.419
48.91000 172.333
48.92000 167.752
48.93000 164.357
48.94000 162.780
48.95000 163.183
48.96000 163.563
48.97000 160.513
48.98000 155.027
48.99000 149.654
49.00000 151.832
49.01000 157.413
49.02000 162.492
49.03000 160.320
49.04000 155.771
49.05000 151.889
49.06000 153.439
49.07000 156.185
49.08000 158.532
49.09000 156.192
49.10000 153.661
49.11000 151.997
49.12000 153.301
49.13000 154.853
49.14000 155.129
49.15000 152.427
49.16000 149.604
49.17000 147.864
49.18000 153.323
49.19000 157.305
49.20000 157.448
49.21000 153.572
49.22000 149.733
49.23000 150.326
49.24000 153.952
49.25000 157.497
49.26000 159.612
49.27000 161.005
49.28000 161.969
49.29000 157.110
49.30000 150.408
49.31000 144.476
49.32000 144.543
49.33000 145.881
49.34000 147.018
49.35000 149.130
49.36000 151.013
49.37000 152.559
49.38000 152.990
49.39000 153.334
49.40000 152.423
49.41000 148.687
49.42000 144.844
49.43000 142.511
49.44000 149.154
49.45000 153.963
49.46000 157.507
49.47000 159.780
49.48000 162.034
49.49000 162.519
49.50000 161.835
49.51000 161.168
49.52000 159.053
49.53000 156.413
49.54000 153.969
49.55000 154.045
49.56000 154.891
49.57000 155.331
49.58000 152.750
49.59000 149.551
49.60000 146.855
49.61000 150.742
49.62000 154.700
49.63000 157.516
49.64000 156.690
49.65000 155.592
49.66000 154.323
49.67000 152.681
49.68000 151.026
49.69000 150.036
49.70000 149.293
49.71000 148.768
49.72000 147.926
49.73000 146.778
49.74000 145.705
49.75000 150.844
49.76000 159.938
49.77000 168.783
49.78000 162.912
49.79000 151.267
49.80000 140.370
49.81000 138.563
49.82000 139.435
49.83000 140.474
49.84000 142.706
49.85000 145.173
49.86000 147.238
49.87000 148.868
49.88000 150.178
49.89000 150.867
49.90000 149.647
49.91000 148.293
49.92000 146.837
49.93000 145.166
49.94000 143.488
49.95000 142.500
49.96000 148.671
49.97000 153.059
49.98000 153.390
49.99000 149.960
50.00000 146.604
50.01000 148.508
50.02000 153.642
50.03000 158.623
50.04000 158.293
50.05000 155.875
50.06000 153.958
50.07000 157.789
50.08000 163.254
50.09000 167.598
50.10000 164.293
50.11000 159.545
50.12000 155.597
50.13000 153.962
50.14000 152.836
50.15000 152.514
50.16000 154.582
50.17000 156.808
50.18000 157.426
50.19000 154.786
50.20000 152.052
50.21000 150.468
50.22000 158.750
50.23000 164.594
50.24000 163.119
50.25000 155.126
50.26000 147.269
50.27000 147.810
50.28000 153.324
50.29000 158.661
50.30000 159.116
50.31000 157.686
50.32000 156.294
50.33000 155.315
50.34000 154.450
50.35000 154.514
50.36000 160.662
50.37000 167.913
50.38000 173.899
50.39000 169.514
50.40000 164.938
50.41000 161.462
50.42000 161.134
50.43000 161.003
50.44000 159.679
50.45000 156.022
50.46000 152.304
50.47000 150.185
50.48000 159.173
50.49000 165.468
50.50000 166.704
50.51000 163.608
50.52000 160.559
50.53000 160.051
50.54000 160.995
50.55000 161.906
50.56000 162.286
50.57000 162.448
50.58000 162.548
50.59000 161.997
50.60000 161.274
50.61000 160.484
50.62000 159.276
50.63000 157.995
50.64000 156.946
50.65000 164.441
50.66000 171.340
50.67000 175.243
50.68000 170.850
50.69000 165.974
50.70000 163.935
50.71000 167.258
50.72000 170.707
50.73000 172.639
50.74000 169.720
50.75000 167.686
50.76000 165.900
50.77000 164.320
50.78000 162.780
50.79000 163.215
50.80000 164.738
50.81000 166.204
50.82000 168.478
50.83000 170.895
50.84000 172.783
50.85000 169.473
50.86000 164.837
50.87000 160.572
50.88000 158.536
50.89000 156.873
50.90000 155.520
50.91000 156.987
50.92000 158.419
50.93000 159.328
50.94000 158.838
50.95000 158.272
50.96000 157.174
50.97000 155.106
50.98000 153.017
50.99000 151.867
51.00000 148.190
51.01000 145.662
51.02000 145.855
51.03000 148.205
51.04000 150.580
51.05000 154.019
51.06000 158.024
51.07000 161.866
51.08000 160.476
51.09000 157.400
51.10000 154.517
51.11000 153.428
51.12000 152.780
51.13000 151.659
51.14000 147.800
51.15000 143.501
51.16000 140.034
51.17000 137.706
51.18000 135.905
51.19000 136.954
51.20000 145.360
51.21000 154.139
51.22000 159.038
51.23000 157.107
51.24000 155.047
51.25000 153.934
51.26000 149.163
51.27000 145.900
51.28000 144.290
51.29000 143.941
51.30000 143.654
51.31000 145.751
51.32000 149.072
51.33000 152.249
51.34000 152.311
51.35000 151.351
51.36000 150.344
51.37000 148.921
51.38000 147.400
51.39000 145.518
51.40000 141.635
51.41000 137.444
51.42000 134.090
51.43000 138.795
51.44000 143.203
51.45000 145.566
51.46000 142.836
51.47000 139.864
51.48000 139.240
51.49000 142.603
51.50000 146.031
51.51000 147.850
51.52000 150.092
51.53000 151.599
51.54000 149.849
51.55000 145.706
51.56000 141.667
51.57000 141.285
51.58000 142.719
51.59000 144.085
51.60000 147.131
51.61000 150.483
51.62000 153.315
51.63000 151.722
51.64000 149.119
51.65000 146.995
51.66000 147.423
51.67000 148.227
51.68000 148.866
51.69000 146.159
51.70000 143.744
51.71000 142.397
51.72000 143.620
51.73000 144.955
51.74000 145.396
51.75000 144.369
51.76000 143.322
51.77000 142.777
51.78000 140.657
51.79000 139.231
51.80000 138.808
51.81000 139.096
51.82000 139.426
51.83000 141.087
51.84000 143.385
51.85000 145.569
51.86000 142.050
51.87000 137.077
51.88000 133.008
51.89000 136.278
51.90000 141.161
51.91000 144.833
51.92000 142.305
51.93000 138.900
51.94000 136.221
51.95000 138.462
51.96000 140.584
51.97000 141.129
51.98000 138.009
51.99000 134.740
52.00000 134.939
52.01000 140.621
52.02000 146.371
52.03000 149.307
52.04000 138.717
52.05000 131.667
52.06000 131.546
52.07000 136.154
52.08000 140.605
52.09000 140.452
52.10000 138.169
52.11000 136.008
52.12000 136.967
52.13000 138.756
52.14000 140.220
52.15000 139.168
52.16000 137.585
52.17000 135.918
52.18000 133.841
52.19000 131.708
52.20000 130.044
52.21000 130.552
52.22000 131.093
52.23000 133.051
52.24000 138.189
52.25000 143.447
52.26000 145.014
52.27000 140.956
52.28000 136.840
52.29000 134.780
52.30000 137.607
52.31000 139.465
52.32000 138.733
52.33000 136.295
52.34000 134.045
52.35000 136.841
52.36000 141.890
52.37000 146.653
52.38000 146.624
52.39000 145.260
52.40000 143.752
52.41000 141.176
52.42000 138.382
52.43000 136.385
52.44000 138.170
52.45000 140.444
52.46000 142.202
52.47000 144.178
52.48000 145.759
52.49000 146.634
52.50000 145.978
52.51000 145.270
52.52000 144.548
52.53000 143.806
52.54000 143.064
52.55000 143.503
52.56000 145.079
52.57000 146.628
52.58000 146.048
52.59000 144.116
52.60000 142.255
52.61000 142.156
52.62000 142.818
52.63000 143.440
52.64000 142.084
52.65000 140.317
52.66000 138.525
52.67000 136.563
52.68000 134.568
52.69000 133.562
52.70000 137.076
52.71000 141.147
52.72000 144.268
52.73000 137.997
52.74000 132.526
52.75000 128.999
52.76000 129.541
52.77000 130.212
52.78000 131.423
52.79000 133.398
52.80000 135.378
52.81000 136.765
52.82000 137.604
52.83000 138.401
52.84000 136.316
52.85000 132.467
52.86000 128.914
52.87000 132.141
52.88000 138.192
52.89000 143.858
52.90000 140.992
52.91000 136.188
52.92000 132.242
52.93000 134.139
52.94000 137.134
52.95000 140.129
52.96000 143.121
52.97000 146.113
52.98000 148.385
52.99000 140.602
53.00000 133.964
53.01000 130.266
53.02000 132.511
53.03000 134.926
53.04000 136.206
53.05000 135.939
53.06000 135.663
53.07000 137.475
53.08000 141.136
53.09000 144.759
53.10000 145.994
53.11000 145.820
53.12000 145.619
53.13000 144.834
53.14000 143.814
53.15000 142.863
53.16000 143.953
53.17000 145.445
53.18000 147.038
53.19000 149.280
53.20000 151.639
53.21000 152.507
53.22000 147.055
53.23000 140.893
53.24000 136.258
53.25000 140.004
53.26000 143.339
53.27000 143.942
53.28000 139.216
53.29000 134.351
53.30000 132.888
53.31000 135.897
53.32000 138.923
53.33000 141.017
53.34000 142.312
53.35000 143.607
53.36000 144.906
53.37000 146.207
53.38000 147.352
53.39000 145.404
53.40000 142.254
53.41000 139.328
53.42000 142.873
53.43000 147.607
53.44000 150.957
53.45000 145.647
53.46000 138.834
53.47000 133.564
53.48000 134.592
53.49000 136.295
53.50000 137.563
53.51000 138.393
53.52000 139.020
53.53000 139.831
53.54000 140.990
53.55000 142.158
53.56000 141.611
53.57000 138.896
53.58000 136.177
53.59000 133.435
53.60000 130.685
53.61000 127.963
53.62000 126.589
53.63000 125.956
53.64000 125.578
53.65000 129.879
53.66000 135.935
53.67000 141.536
53.68000 139.730
53.69000 136.416
53.70000 133.925
53.71000 136.363
53.72000 139.622
53.73000 142.597
53.74000 144.453
53.75000 146.196
53.76000 147.481
53.77000 142.478
53.78000 138.339
53.79000 136.298
53.80000 138.072
53.81000 139.927
53.82000 139.313
53.83000 135.696
53.84000 132.078
53.85000 132.237
53.86000 135.366
53.87000 138.491
53.88000 141.450
53.89000 144.320
53.90000 146.717
53.91000 140.964
53.92000 132.259
53.93000 124.244
53.94000 128.647
53.95000 135.305
53.96000 140.815
53.97000 139.709
53.98000 137.546
53.99000 135.749
54.00000 135.340
54.01000 135.065
54.02000 134.864
54.03000 136.327
54.04000 137.519
54.05000 137.208
54.06000 134.260
54.07000 131.263
54.08000 131.301
54.09000 134.893
54.10000 138.482
54.11000 138.307
54.12000 135.287
54.13000 132.358
54.14000 132.888
54.15000 135.190
54.16000 137.212
54.17000 134.713
54.18000 130.633
54.19000 126.893
54.20000 128.538
54.21000 131.134
54.22000 133.174
54.23000 132.138
54.24000 130.631
54.25000 130.100
54.26000 133.140
54.27000 136.510
54.28000 138.943
54.29000 139.065
54.30000 139.075
54.31000 138.523
54.32000 137.017
54.33000 135.496
54.34000 135.874
54.35000 138.392
54.36000 140.903
54.37000 140.338
54.38000 137.541
54.39000 134.795
54.40000 133.790
54.41000 133.646
54.42000 133.507
54.43000 133.430
54.44000 133.375
54.45000 133.324
54.46000 135.100
54.47000 137.043
54.48000 137.907
54.49000 133.038
54.50000 127.326
54.51000 123.822
54.52000 128.102
54.53000 133.061
54.54000 136.606
54.55000 135.267
54.56000 134.083
54.57000 133.232
54.58000 132.924
54.59000 132.625
54.60000 132.591
54.61000 132.845
54.62000 133.099
54.63000 135.607
54.64000 139.665
54.65000 143.537
54.66000 141.493
54.67000 136.623
54.68000 132.307
54.69000 135.917
54.70000 142.110
54.71000 147.734
54.72000 139.891
54.73000 130.360
54.74000 123.068
54.75000 127.209
54.76000 132.958
54.77000 137.235
54.78000 136.499
54.79000 135.350
54.80000 134.538
54.81000 136.500
54.82000 138.075
54.83000 138.965
54.84000 138.778
54.85000 138.577
54.86000 138.764
54.87000 139.353
54.88000 139.940
54.89000 140.910
54.90000 142.125
54.91000 143.306
54.92000 143.496
54.93000 143.228
54.94000 143.107
54.95000 144.962
54.96000 147.439
54.97000 149.677
54.98000 146.063
54.99000 141.800
55.00000 138.211
55.01000 137.935
55.02000 138.103
55.03000 138.320
55.04000 138.693
55.05000 139.078
55.06000 139.347
55.07000 141.580
55.08000 143.323
55.09000 145.075
55.10000 146.841
55.11000 148.607
55.12000 145.988
55.13000 138.994
55.14000 132.044
55.15000 132.739
55.16000 138.367
55.17000 143.860
55.18000 145.734
55.19000 145.997
55.20000 145.975
55.21000 142.330
55.22000 137.585
55.23000 133.319
55.24000 135.831
55.25000 139.233
55.26000 142.146
55.27000 142.746
55.28000 143.048
55.29000 144.101
55.30000 147.534
55.31000 151.143
55.32000 153.636
55.33000 156.841
55.34000 159.269
55.35000 160.685
55.36000 160.621
55.37000 160.545
55.38000 160.805
55.39000 161.388
55.40000 161.967
55.41000 162.336
55.42000 162.568
55.43000 162.914
55.44000 166.064
55.45000 170.421
55.46000 174.227
55.47000 171.407
55.48000 166.646
55.49000 162.389
55.50000 168.091
55.51000 174.757
55.52000 179.826
55.53000 177.629
55.54000 174.538
55.55000 174.092
55.56000 181.738
55.57000 189.947
55.58000 195.551
55.59000 192.286
55.60000 189.637
55.61000 187.447
55.62000 185.905
55.63000 184.368
55.64000 184.609
55.65000 186.484
55.66000 188.344
55.67000 192.694
55.68000 198.451
55.69000 204.236
55.70000 210.661
55.71000 217.351
55.72000 223.411
55.73000 222.292
55.74000 219.144
55.75000 216.344
55.76000 223.092
55.77000 230.505
55.78000 237.580
55.79000 243.176
55.80000 248.599
55.81000 252.430
55.82000 251.564
55.83000 250.390
55.84000 249.598
55.85000 253.598
55.86000 256.675
55.87000 259.723
55.88000 262.730
55.89000 265.735
55.90000 267.769
55.91000 268.943
55.92000 270.104
55.93000 266.857
55.94000 261.143
55.95000 255.689
55.96000 255.726
55.97000 257.966
55.98000 259.750
55.99000 256.618
56.00000 252.145
56.01000 248.189
56.02000 247.317
56.03000 247.045
56.04000 247.303
56.05000 249.804
56.06000 252.557
56.07000 253.426
56.08000 248.928
56.09000 244.100
56.10000 240.883
56.11000 229.872
56.12000 221.574
56.13000 216.962
56.14000 217.179
56.15000 217.417
56.16000 217.162
56.17000 216.488
56.18000 215.822
56.19000 214.363
56.20000 212.501
56.21000 210.633
56.22000 208.642
56.23000 206.604
56.24000 204.658
56.25000 203.654
56.26000 202.897
56.27000 202.232
56.28000 191.660
56.29000 181.087
56.30000 173.067
56.31000 175.431
56.32000 178.902
56.33000 180.699
56.34000 177.888
56.35000 174.811
56.36000 172.787
56.37000 169.191
56.38000 166.516
56.39000 164.673
56.40000 163.878
56.41000 163.087
56.42000 162.366
56.43000 161.702
56.44000 161.047
56.45000 158.628
56.46000 155.334
56.47000 152.280
56.48000 153.610
56.49000 156.580
56.50000 159.096
56.51000 157.183
56.52000 154.148
56.53000 151.494
56.54000 150.267
56.55000 149.419
56.56000 148.693
56.57000 148.450
56.58000 148.255
56.59000 146.581
56.60000 140.975
56.61000 135.158
56.62000 131.382
56.63000 135.600
56.64000 138.811
56.65000 140.672
56.66000 140.894
56.67000 141.111
56.68000 140.645
56.69000 139.642
56.70000 138.655
56.71000 139.827
56.72000 142.073
56.73000 144.223
56.74000 144.733
56.75000 144.650
56.76000 144.306
56.77000 141.526
56.78000 138.150
56.79000 135.216
56.80000 134.962
56.81000 135.109
56.82000 134.728
56.83000 132.345
56.84000 129.769
56.85000 128.308
56.86000 129.708
56.87000 131.253
56.88000 132.242
56.89000 131.319
56.90000 130.622
56.91000 129.876
56.92000 129.073
56.93000 128.272
56.94000 128.029
56.95000 128.210
56.96000 128.387
56.97000 129.462
56.98000 130.943
56.99000 132.399
57.00000 133.448
57.01000 134.355
57.02000 134.719
57.03000 130.283
57.04000 124.717
57.05000 119.907
57.06000 121.299
57.07000 123.285
57.08000 125.754
57.09000 129.982
57.10000 134.372
57.11000 136.387
57.12000 132.516
57.13000 128.369
57.14000 125.750
57.15000 126.965
57.16000 127.889
57.17000 128.695
57.18000 129.366
57.19000 130.036
57.20000 130.585
57.21000 131.047
57.22000 131.499
57.23000 130.551
57.24000 128.971
57.25000 127.340
57.26000 124.928
57.27000 122.254
57.28000 120.149
57.29000 122.846
57.30000 126.632
57.31000 129.883
57.32000 129.938
57.33000 129.588
57.34000 129.940
57.35000 132.757
57.36000 135.787
57.37000 135.823
57.38000 128.692
57.39000 121.249
57.40000 116.614
57.41000 124.009
57.42000 129.459
57.43000 132.182
57.44000 131.964
57.45000 131.736
57.46000 130.455
57.47000 128.433
57.48000 126.453
57.49000 127.423
57.50000 129.703
57.51000 131.700
57.52000 129.680
57.53000 126.355
57.54000 123.408
57.55000 123.511
57.56000 124.281
57.57000 124.937
57.58000 129.459
57.59000 133.721
57.60000 135.542
57.61000 129.077
57.62000 121.931
57.63000 116.894
57.64000 116.730
57.65000 116.762
57.66000 116.781
57.67000 117.500
57.68000 118.022
57.69000 119.166
57.70000 120.954
57.71000 122.743
57.72000 124.583
57.73000 126.456
57.74000 128.286
57.75000 124.968
57.76000 119.525
57.77000 114.697
57.78000 118.125
57.79000 124.142
57.80000 129.473
57.81000 129.519
57.82000 128.456
57.83000 127.555
57.84000 124.021
57.85000 120.764
57.86000 118.551
57.87000 119.750
57.88000 121.215
57.89000 121.905
57.90000 120.863
57.91000 119.757
57.92000 119.088
57.93000 118.757
57.94000 118.525
57.95000 120.178
57.96000 123.706
57.97000 127.224
57.98000 129.656
57.99000 131.378
58.00000 133.056
58.01000 131.035
58.02000 127.540
58.03000 124.359
58.04000 125.163
58.05000 127.174
58.06000 128.523
58.07000 124.997
58.08000 120.485
58.09000 116.687
58.10000 118.772
58.11000 121.140
58.12000 122.430
58.13000 120.315
58.14000 117.949
58.15000 117.942
58.16000 123.018
58.17000 128.266
58.18000 131.391
58.19000 127.057
58.20000 123.941
58.21000 121.551
58.22000 119.854
58.23000 118.179
58.24000 118.160
58.25000 119.185
58.26000 120.182
58.27000 119.942
58.28000 119.209
58.29000 118.493
58.30000 117.986
58.31000 117.540
58.32000 117.345
58.33000 118.923
58.34000 120.845
58.35000 122.452
58.36000 123.301
58.37000 123.929
58.38000 123.436
58.39000 119.521
58.40000 115.369
58.41000 113.856
58.42000 117.834
58.43000 121.983
58.44000 124.415
58.45000 115.991
58.46000 110.005
58.47000 108.613
58.48000 111.436
58.49000 114.302
58.50000 120.180
58.51000 127.891
58.52000 135.367
58.53000 135.384
58.54000 132.473
58.55000 129.633
58.56000 127.589
58.57000 125.769
58.58000 123.598
58.59000 119.048
58.60000 114.054
58.61000 109.909
58.62000 114.675
58.63000 119.476
58.64000 122.093
58.65000 118.280
58.66000 114.049
58.67000 113.851
58.68000 121.754
58.69000 129.887
58.70000 134.578
58.71000 121.729
58.72000 112.670
58.73000 111.641
58.74000 117.692
58.75000 123.666
58.76000 125.077
58.77000 123.810
58.78000 122.584
58.79000 121.914
58.80000 121.491
58.81000 120.954
58.82000 119.190
58.83000 117.093
58.84000 115.431
58.85000 116.581
58.86000 118.236
58.87000 119.600
58.88000 118.841
58.89000 118.023
58.90000 119.126
58.91000 125.693
58.92000 132.594
58.93000 135.790
58.94000 131.802
58.95000 127.629
58.96000 125.262
58.97000 116.614
58.98000 110.584
58.99000 110.126
59.00000 114.393
59.01000 118.598
59.02000 119.601
59.03000 118.789
59.04000 118.005
59.05000 115.888
59.06000 113.411
59.07000 111.313
59.08000 113.086
59.09000 115.873
59.10000 118.638
59.11000 121.271
59.12000 123.881
59.13000 126.015
59.14000 123.724
59.15000 121.463
59.16000 119.898
59.17000 120.243
59.18000 120.698
59.19000 120.712
59.20000 119.904
59.21000 119.077
59.22000 118.615
59.23000 115.565
59.24000 113.452
59.25000 113.074
59.26000 114.111
59.27000 115.169
59.28000 117.200
59.29000 119.763
59.30000 122.228
59.31000 123.111
59.32000 123.385
59.33000 123.683
59.34000 124.220
59.35000 124.816
59.36000 124.635
59.37000 119.819
59.38000 114.236
59.39000 109.706
59.40000 111.027
59.41000 112.586
59.42000 113.940
59.43000 114.752
59.44000 115.535
59.45000 116.045
59.46000 116.065
59.47000 116.074
59.48000 116.079
59.49000 117.007
59.50000 117.651
59.51000 119.794
59.52000 123.112
59.53000 126.250
59.54000 121.855
59.55000 113.486
59.56000 105.462
59.57000 106.767
59.58000 111.121
59.59000 115.324
59.60000 118.129
59.61000 120.594
59.62000 122.394
59.63000 120.394
59.64000 117.791
59.65000 115.695
59.66000 119.198
59.67000 122.477
59.68000 124.166
59.69000 121.788
59.70000 119.207
59.71000 117.815
59.72000 118.498
59.73000 119.219
59.74000 119.607
59.75000 118.457
59.76000 117.677
59.77000 118.340
59.78000 120.093
59.79000 121.799
59.80000 121.693
59.81000 120.665
59.82000 119.683
59.83000 119.723
59.84000 120.091
59.85000 120.658
59.86000 122.987
59.87000 125.730
59.88000 127.688
59.89000 125.342
59.90000 122.340
59.91000 119.943
59.92000 120.965
59.93000 122.043
59.94000 122.663
59.95000 122.151
59.96000 121.587
59.97000 120.900
59.98000 120.007
59.99000 119.111
60.00000 118.638
60.01000 122.637
60.02000 125.321
60.03000 122.292
60.04000 115.104
60.05000 108.095
60.06000 107.258
60.07000 109.456
60.08000 111.550
60.09000 112.408
60.10000 112.818
60.11000 113.054
60.12000 111.821
60.13000 110.257
60.14000 109.045
60.15000 109.691
60.16000 110.608
60.17000 111.335
60.18000 117.874
60.19000 123.534
60.20000 126.673
60.21000 123.793
60.22000 120.653
60.23000 117.752
60.24000 115.236
60.25000 112.726
60.26000 111.426
60.27000 112.395
60.28000 113.042
60.29000 112.809
60.30000 111.956
60.31000 111.125
60.32000 110.921
60.33000 111.017
60.34000 111.107
60.35000 111.710
60.36000 112.420
60.37000 113.346
60.38000 116.013
60.39000 119.058
60.40000 121.678
60.41000 122.139
60.42000 122.298
60.43000 122.423
60.44000 120.307
60.45000 118.467
60.46000 116.533
60.47000 114.382
60.48000 112.223
60.49000 111.183
60.50000 111.898
60.51000 112.633
60.52000 113.007
60.53000 119.204
60.54000 123.328
60.55000 124.056
60.56000 122.489
60.57000 120.926
60.58000 119.515
60.59000 118.173
60.60000 116.903
60.61000 115.544
60.62000 114.269
60.63000 113.057
60.64000 112.335
60.65000 111.715
60.66000 111.134
60.67000 110.747
60.68000 110.387
60.69000 110.106
60.70000 114.881
60.71000 118.996
60.72000 122.686
60.73000 125.430
60.74000 128.139
60.75000 126.826
60.76000 119.438
60.77000 111.990
60.78000 110.576
60.79000 115.143
60.80000 119.646
60.81000 118.192
60.82000 112.855
60.83000 107.787
60.84000 109.783
60.85000 114.906
60.86000 119.735
60.87000 120.894
60.88000 120.941
60.89000 120.979
60.90000 120.949
60.91000 120.906
60.92000 120.261
60.93000 116.786
60.94000 112.950
60.95000 109.990
60.96000 114.732
60.97000 118.937
60.98000 120.938
60.99000 118.203
61.00000 115.309
61.01000 113.670
61.02000 113.858
61.03000 114.061
61.04000 117.429
61.05000 123.808
61.06000 130.106
61.07000 130.004
61.08000 125.878
61.09000 121.787
61.10000 118.536
61.11000 115.643
61.12000 112.927
61.13000 116.570
61.14000 121.582
61.15000 126.104
61.16000 127.185
61.17000 127.600
61.18000 127.747
61.19000 126.681
61.20000 125.467
61.21000 124.538
61.22000 119.353
61.23000 115.031
61.24000 112.883
61.25000 115.244
61.26000 117.744
61.27000 120.689
61.28000 124.261
61.29000 127.837
61.30000 128.474
61.31000 126.427
61.32000 124.405
61.33000 124.097
61.34000 124.828
61.35000 125.537
61.36000 125.731
61.37000 125.713
61.38000 125.696
61.39000 126.820
61.40000 128.132
61.41000 129.453
61.42000 130.831
61.43000 132.220
61.44000 132.749
61.45000 129.532
61.46000 125.878
61.47000 123.110
61.48000 124.722
61.49000 126.211
61.50000 130.028
61.51000 138.509
61.52000 147.122
61.53000 157.033
61.54000 168.701
61.55000 180.371
61.56000 192.863
61.57000 206.058
61.58000 219.290
61.59000 234.712
61.60000 251.416
61.61000 267.650
61.62000 274.076
61.63000 276.592
61.64000 278.936
61.65000 283.167
61.66000 287.457
61.67000 291.548
61.68000 294.356
61.69000 296.935
61.70000 299.320
61.71000 300.897
61.72000 302.384
61.73000 303.500
61.74000 290.801
61.75000 280.223
61.76000 271.381
61.77000 265.897
61.78000 260.498
61.79000 249.764
61.80000 232.087
61.81000 214.398
61.82000 202.825
61.83000 196.438
61.84000 189.991
61.85000 180.361
61.86000 168.935
61.87000 157.777
61.88000 151.826
61.89000 147.881
61.90000 144.221
61.91000 143.931
61.92000 144.462
61.93000 144.339
61.94000 140.171
61.95000 135.308
61.96000 131.282
61.97000 130.637
61.98000 130.350
61.99000 130.136
62.00000 129.605
62.01000 129.177
62.02000 129.491
62.03000 131.188
62.04000 132.917
62.05000 132.141
62.06000 128.227
62.07000 124.310
62.08000 124.188
62.09000 127.141
62.10000 130.072
62.11000 132.020
62.12000 133.431
62.13000 134.486
62.14000 129.091
62.15000 121.297
62.16000 114.097
62.17000 114.670
62.18000 116.940
62.19000 119.534
62.20000 124.047
62.21000 128.876
62.22000 132.243
62.23000 129.909
62.24000 127.001
62.25000 124.862
62.26000 127.788
62.27000 130.260
62.28000 131.236
62.29000 129.515
62.30000 127.739
62.31000 127.624
62.32000 129.513
62.33000 131.402
62.34000 132.420
62.35000 132.754
62.36000 133.055
62.37000 131.948
62.38000 130.102
62.39000 128.593
62.40000 132.790
62.41000 139.035
62.42000 144.780
62.43000 139.313
62.44000 131.998
62.45000 126.225
62.46000 129.247
62.47000 133.661
62.48000 135.633
62.49000 128.431
62.50000 120.352
62.51000 114.470
62.52000 121.164
62.53000 126.799
62.54000 131.780
62.55000 135.624
62.56000 139.447
62.57000 138.674
62.58000 132.570
62.59000 126.475
62.60000 127.351
62.61000 133.438
62.62000 139.413
62.63000 141.198
62.64000 140.855
62.65000 140.455
62.66000 139.147
62.67000 137.525
62.68000 136.039
62.69000 130.709
62.70000 125.167
62.71000 120.641
62.72000 121.678
62.73000 123.559
62.74000 126.036
62.75000 130.679
62.76000 135.517
62.77000 139.004
62.78000 133.867
62.79000 129.627
62.80000 126.559
62.81000 125.458
62.82000 124.388
62.83000 124.189
62.84000 124.960
62.85000 125.729
62.86000 127.456
62.87000 129.856
62.88000 132.187
62.89000 132.127
62.90000 130.895
62.91000 129.728
62.92000 129.533
62.93000 129.663
62.94000 129.782
62.95000 131.520
62.96000 133.384
62.97000 135.242
62.98000 137.068
62.99000 138.889
63.00000 139.881
63.01000 137.973
63.02000 135.816
63.03000 134.278
63.04000 135.855
63.05000 137.159
63.06000 136.933
63.07000 134.231
63.08000 131.496
63.09000 132.908
63.10000 138.766
63.11000 144.598
63.12000 145.780
63.13000 143.731
63.14000 141.689
63.15000 139.868
63.16000 138.153
63.17000 136.673
63.18000 138.517
63.19000 141.434
63.20000 144.080
63.21000 141.994
63.22000 139.248
63.23000 137.100
63.24000 137.976
63.25000 139.273
63.26000 140.456
63.27000 141.257
63.28000 142.026
63.29000 142.569
63.30000 139.509
63.31000 137.080
63.32000 134.816
63.33000 132.808
63.34000 130.803
63.35000 132.418
63.36000 137.757
63.37000 143.067
63.38000 142.970
63.39000 139.276
63.40000 135.693
63.41000 135.293
63.42000 136.347
63.43000 137.461
63.44000 139.379
63.45000 141.547
63.46000 143.504
63.47000 142.080
63.48000 140.209
63.49000 139.290
63.50000 143.007
63.51000 147.341
63.52000 148.757
63.53000 140.675
63.54000 131.860
63.55000 125.717
63.56000 132.106
63.57000 137.271
63.58000 139.624
63.59000 137.744
63.60000 135.822
63.61000 134.242
63.62000 133.000
63.63000 131.767
63.64000 132.146
63.65000 133.552
63.66000 134.962
63.67000 136.462
63.68000 138.002
63.69000 139.480
63.70000 140.180
63.71000 140.647
63.72000 141.065
63.73000 139.969
63.74000 138.744
63.75000 137.623
63.76000 136.989
63.77000 136.417
63.78000 136.240
63.79000 137.308
63.80000 138.466
63.81000 139.264
63.82000 142.934
63.83000 145.762
63.84000 147.626
63.85000 148.094
63.86000 148.550
63.87000 148.145
63.88000 146.923
63.89000 145.712
63.90000 145.709
63.91000 146.452
63.92000 147.022
63.93000 143.436
63.94000 138.078
63.95000 133.426
63.96000 137.150
63.97000 143.304
63.98000 148.801
63.99000 148.298
64.00000 146.850
64.01000 145.829
64.02000 146.729
64.03000 147.861
64.04000 147.735
64.05000 143.791
64.06000 139.585
64.07000 136.722
64.08000 133.451
64.09000 130.999
64.10000 131.100
64.11000 134.770
64.12000 138.465
64.13000 142.399
64.14000 146.552
64.15000 150.666
64.16000 153.398
64.17000 155.256
64.18000 156.831
64.19000 152.093
64.20000 144.756
64.21000 138.189
64.22000 140.290
64.23000 144.818
64.24000 148.840
64.25000 152.958
64.26000 156.544
64.27000 159.236
64.28000 158.051
64.29000 156.416
64.30000 155.173
64.31000 155.081
64.32000 155.062
64.33000 155.049
64.34000 157.855
64.35000 159.999
64.36000 159.280
64.37000 154.704
64.38000 150.114
64.39000 150.307
64.40000 154.691
64.41000 159.028
64.42000 158.879
64.43000 156.176
64.44000 153.583
64.45000 153.272
64.46000 153.868
64.47000 154.528
64.48000 155.855
64.49000 157.362
64.50000 158.694
64.51000 161.569
64.52000 164.290
64.53000 166.106
64.54000 164.143
64.55000 161.761
64.56000 161.479
64.57000 167.130
64.58000 173.140
64.59000 177.132
64.60000 176.549
64.61000 176.033
64.62000 173.723
64.63000 169.084
64.64000 164.443
64.65000 163.514
64.66000 165.712
64.67000 167.884
64.68000 171.753
64.69000 176.456
64.70000 180.844
64.71000 179.174
64.72000 175.179
64.73000 171.745
64.74000 174.017
64.75000 177.774
64.76000 181.075
64.77000 173.658
64.78000 165.705
64.79000 160.428
64.80000 165.939
64.81000 172.587
64.82000 176.965
64.83000 175.148
64.84000 172.980
64.85000 171.559
64.86000 170.592
64.87000 169.888
64.88000 170.067
64.89000 171.348
64.90000 172.636
64.91000 175.215
64.92000 178.840
64.93000 182.414
64.94000 184.181
64.95000 184.943
64.96000 185.750
64.97000 187.339
64.98000 189.218
64.99000 190.775
65.00000 189.229
65.01000 186.904
65.02000 184.874
65.03000 183.066
65.04000 181.551
65.05000 181.607
65.06000 187.767
65.07000 194.538
65.08000 199.336
65.09000 198.935
65.10000 198.257
65.11000 197.819
65.12000 201.494
65.13000 204.242
65.14000 207.535
65.15000 211.482
65.16000 215.418
65.17000 215.962
65.18000 213.860
65.19000 211.790
65.20000 213.538
65.21000 217.171
65.22000 220.458
65.23000 217.917
65.24000 213.291
65.25000 208.857
65.26000 206.194
65.27000 203.960
65.28000 202.021
65.29000 206.459
65.30000 211.096
65.31000 216.603
65.32000 225.368
65.33000 234.443
65.34000 240.828
65.35000 240.369
65.36000 239.572
65.37000 239.064
65.38000 243.909
65.39000 247.503
65.40000 250.013
65.41000 251.271
65.42000 252.562
65.43000 260.797
65.44000 274.251
65.45000 287.468
65.46000 284.670
65.47000 274.134
65.48000 264.417
65.49000 267.657
65.50000 275.375
65.51000 283.688
65.52000 297.209
65.53000 311.945
65.54000 324.657
65.55000 326.481
65.56000 326.632
65.57000 326.686
65.58000 326.388
65.59000 326.059
65.60000 329.649
65.61000 342.871
65.62000 356.535
65.63000 365.136
65.64000 404.216
65.65000 432.837
65.66000 464.322
65.67000 498.991
65.68000 533.813
65.69000 592.505
65.70000 668.473
65.71000 742.957
65.72000 845.882
65.73000 958.369
65.74000 1071.678
65.75000 1197.220
65.76000 1326.842
65.77000 1454.686
65.78000 1567.673
65.79000 1677.326
65.80000 1771.324
65.81000 1862.785
65.82000 1939.716
65.83000 1998.760
65.84000 1995.470
65.85000 1986.836
65.86000 1986.389
65.87000 2005.361
65.88000 2025.160
65.89000 2037.447
65.90000 1995.957
65.91000 1965.576
65.92000 1923.973
65.93000 1870.383
65.94000 1816.474
65.95000 1721.928
65.96000 1599.044
65.97000 1478.814
65.98000 1359.997
65.99000 1246.607
66.00000 1132.854
66.01000 1013.999
66.02000 893.501
66.03000 778.098
66.04000 703.330
66.05000 637.343
66.06000 581.142
66.07000 529.964
66.08000 487.522
66.09000 451.170
66.10000 435.297
66.11000 421.087
66.12000 408.643
66.13000 400.248
66.14000 392.012
66.15000 386.974
66.16000 370.686
66.17000 358.937
66.18000 354.730
66.19000 358.261
66.20000 361.809
66.21000 367.191
66.22000 373.804
66.23000 380.260
66.24000 393.892
66.25000 410.060
66.26000 425.843
66.27000 436.527
66.28000 445.628
66.29000 456.452
66.30000 480.416
66.31000 507.113
66.32000 529.700
66.33000 549.138
66.34000 565.058
66.35000 581.383
66.36000 599.019
66.37000 616.756
66.38000 631.454
66.39000 639.429
66.40000 647.162
66.41000 651.820
66.42000 636.601
66.43000 625.633
66.44000 624.480
66.45000 632.991
66.46000 641.325
66.47000 633.826
66.48000 616.067
66.49000 598.772
66.50000 581.536
66.51000 565.130
66.52000 548.575
66.53000 530.154
66.54000 511.172
66.55000 492.694
66.56000 477.891
66.57000 463.822
66.58000 452.001
66.59000 434.525
66.60000 419.366
66.61000 405.745
66.62000 396.934
66.63000 388.472
66.64000 381.964
66.65000 379.631
66.66000 377.437
66.67000 376.136
66.68000 362.926
66.69000 353.513
66.70000 353.019
66.71000 360.957
66.72000 368.812
66.73000 370.413
66.74000 368.105
66.75000 365.863
66.76000 369.007
66.77000 374.167
66.78000 378.633
66.79000 374.892
66.80000 368.776
66.81000 363.620
66.82000 365.165
66.83000 367.999
66.84000 370.365
66.85000 359.743
66.86000 349.630
66.87000 343.444
66.88000 349.130
66.89000 355.626
66.90000 360.410
66.91000 361.662
66.92000 362.808
66.93000 363.477
66.94000 372.253
66.95000 378.462
66.96000 378.555
66.97000 373.096
66.98000 367.759
66.99000 370.528
67.00000 378.184
67.01000 385.602
67.02000 388.596
67.03000 389.711
67.04000 390.945
67.05000 393.513
67.06000 396.454
67.07000 397.731
67.08000 387.887
67.09000 375.986
67.10000 366.127
67.11000 373.670
67.12000 381.558
67.13000 389.281
67.14000 396.522
67.15000 403.733
67.16000 406.444
67.17000 400.196
67.18000 393.701
67.19000 389.970
67.20000 385.834
67.21000 382.945
67.22000 384.445
67.23000 389.777
67.24000 395.136
67.25000 402.022
67.26000 409.797
67.27000 417.310
67.28000 421.612
67.29000 424.469
67.30000 426.616
67.31000 421.215
67.32000 413.783
67.33000 407.368
67.34000 407.475
67.35000 408.741
67.36000 409.782
67.37000 412.779
67.38000 415.419
67.39000 418.886
67.40000 424.684
67.41000 430.622
67.42000 435.889
67.43000 439.865
67.44000 443.809
67.45000 446.037
67.46000 436.185
67.47000 429.313
67.48000 427.945
67.49000 431.198
67.50000 434.310
67.51000 430.193
67.52000 422.018
67.53000 414.140
67.54000 419.743
67.55000 429.857
67.56000 438.880
67.57000 436.887
67.58000 432.034
67.59000 429.254
67.60000 439.219
67.61000 451.357
67.62000 461.265
67.63000 464.310
67.64000 466.211
67.65000 468.782
67.66000 473.169
67.67000 477.659
67.68000 482.042
67.69000 486.226
67.70000 490.405
67.71000 492.726
67.72000 474.131
67.73000 461.264
67.74000 456.585
67.75000 458.521
67.76000 460.531
67.77000 465.900
67.78000 473.089
67.79000 479.997
67.80000 479.986
67.81000 477.581
67.82000 475.251
67.83000 473.643
67.84000 472.216
67.85000 472.446
67.86000 482.442
67.87000 494.039
67.88000 503.431
67.89000 507.416
67.90000 510.221
67.91000 509.988
67.92000 501.774
67.93000 493.140
67.94000 491.397
67.95000 502.000
67.96000 512.848
67.97000 518.767
67.98000 518.222
67.99000 517.837
68.00000 516.771
68.01000 515.176
68.02000 513.657
68.03000 515.264
68.04000 518.504
68.05000 521.608
68.06000 518.728
68.07000 514.049
68.08000 510.653
68.09000 518.988
68.10000 530.152
68.11000 539.707
68.12000 540.154
68.13000 539.169
68.14000 538.377
68.15000 550.978
68.16000 562.221
68.17000 569.400
68.18000 566.269
68.19000 562.632
68.20000 560.514
68.21000 561.024
68.22000 561.580
68.23000 561.878
68.24000 571.662
68.25000 578.313
68.26000 578.349
68.27000 573.432
68.28000 568.933
68.29000 579.841
68.30000 598.528
68.31000 616.372
68.32000 622.768
68.33000 625.045
68.34000 626.802
68.35000 624.023
68.36000 620.190
68.37000 618.060
68.38000 625.198
68.39000 633.730
68.40000 640.531
68.41000 648.353
68.42000 654.738
68.43000 658.532
68.44000 655.979
68.45000 653.136
68.46000 657.411
68.47000 673.557
68.48000 689.886
68.49000 698.471
68.50000 709.265
68.51000 716.591
68.52000 724.987
68.53000 734.156
68.54000 743.474
68.55000 757.750
68.56000 774.443
68.57000 790.330
68.58000 808.432
68.59000 825.869
68.60000 845.204
68.61000 880.320
68.62000 918.967
68.63000 956.454
68.64000 987.872
68.65000 1018.414
68.66000 1042.555
68.67000 1091.848
68.68000 1133.153
68.69000 1175.600
68.70000 1220.746
68.71000 1266.007
68.72000 1305.963
68.73000 1337.384
68.74000 1368.690
68.75000 1384.834
68.76000 1470.273
68.77000 1527.729
68.78000 1571.696
68.79000 1606.286
68.80000 1641.644
68.81000 1700.411
68.82000 1770.197
68.83000 1836.388
68.84000 1893.994
68.85000 1944.565
68.86000 2003.841
68.87000 2132.274
68.88000 2275.604
68.89000 2441.223
68.90000 2718.886
68.91000 3012.023
68.92000 3241.752
68.93000 4247.899
68.94000 5102.132
68.95000 6331.775
68.96000 8418.887
68.97000 10539.496
68.98000 13183.968
68.99000 16641.314
69.00000 20107.992
69.01000 21860.344
69.02000 27236.658
69.03000 30827.158
69.04000 33700.770
69.05000 36093.996
69.06000 38459.395
69.07000 40046.105
69.08000 41278.918
69.09000 42444.090
69.10000 43204.832
69.11000 43788.375
69.12000 44382.195
69.13000 45054.055
69.14000 45742.090
69.15000 46444.531
69.16000 47216.633
69.17000 47997.938
69.18000 48604.914
69.19000 48264.293
69.20000 47935.809
69.21000 46971.363
69.22000 44604.195
69.23000 42186.594
69.24000 39504.156
69.25000 36425.484
69.26000 33343.008
69.27000 30786.193
69.28000 28745.184
69.29000 26711.049
69.30000 25282.850
69.31000 24246.139
69.32000 23227.740
69.33000 22680.756
69.34000 22340.664
69.35000 22020.410
69.36000 21573.762
69.37000 21130.621
69.38000 20622.875
69.39000 19645.883
69.40000 18575.295
69.41000 17372.588
69.42000 15554.979
69.43000 13659.722
69.44000 12200.468
69.45000 9938.306
69.46000 8101.691
69.47000 6502.053
69.48000 5407.154
69.49000 4328.888
69.50000 3464.594
69.51000 2908.888
69.52000 2355.724
69.53000 1986.829
69.54000 1791.604
69.55000 1597.107
69.56000 1457.419
69.57000 1351.883
69.58000 1248.012
69.59000 1183.712
69.60000 1136.185
69.61000 1091.599
69.62000 1033.470
69.63000 976.951
69.64000 926.013
69.65000 913.874
69.66000 909.177
69.67000 899.974
69.68000 870.576
69.69000 838.743
69.70000 814.457
69.71000 780.597
69.72000 753.408
69.73000 730.633
69.74000 716.935
69.75000 703.510
69.76000 686.623
69.77000 664.927
69.78000 643.207
69.79000 628.454
69.80000 620.015
69.81000 611.597
69.82000 604.471
69.83000 598.123
69.84000 591.958
69.85000 589.846
69.86000 589.391
69.87000 588.966
69.88000 576.499
69.89000 562.145
69.90000 548.822
69.91000 542.363
69.92000 537.170
69.93000 530.949
69.94000 520.290
69.95000 509.120
69.96000 500.678
69.97000 506.416
69.98000 511.623
69.99000 512.526
70.00000 504.880
