20.00000 473.711
20.01000 477.632
20.02000 482.113
20.03000 484.714
20.04000 479.921
20.05000 474.373
20.06000 470.282
20.07000 464.185
20.08000 459.378
20.09000 460.226
20.10000 471.356
20.11000 482.702
20.12000 483.986
20.13000 473.014
20.14000 462.035
20.15000 459.083
20.16000 462.460
20.17000 465.723
20.18000 464.127
20.19000 459.950
20.20000 456.061
20.21000 457.118
20.22000 459.967
20.23000 462.590
20.24000 463.872
20.25000 464.725
20.26000 465.157
20.27000 463.169
20.28000 460.794
20.29000 458.684
20.30000 457.577
20.31000 456.567
20.32000 455.830
20.33000 451.769
20.34000 448.509
20.35000 450.842
20.36000 462.992
20.37000 475.325
20.38000 480.958
20.39000 478.743
20.40000 476.521
20.41000 477.827
20.42000 481.791
20.43000 485.524
20.44000 480.365
20.45000 470.648
20.46000 461.619
20.47000 463.694
20.48000 469.653
20.49000 475.115
20.50000 470.129
20.51000 463.491
20.52000 457.318
20.53000 453.720
20.54000 450.516
20.55000 449.993
20.56000 459.276
20.57000 469.461
20.58000 476.818
20.59000 463.693
20.60000 452.886
20.61000 446.827
20.62000 448.809
20.63000 450.922
20.64000 454.854
20.65000 460.834
20.66000 466.796
20.67000 467.797
20.68000 465.184
20.69000 462.535
20.70000 458.637
20.71000 454.122
20.72000 449.977
20.73000 451.462
20.74000 454.847
20.75000 457.935
20.76000 458.624
20.77000 458.750
20.78000 459.546
20.79000 463.902
20.80000 468.781
20.81000 472.751
20.82000 473.516
20.83000 474.001
20.84000 474.347
20.85000 465.350
20.86000 458.172
20.87000 452.897
20.88000 450.731
20.89000 448.609
20.90000 447.555
20.91000 447.657
20.92000 447.759
20.93000 451.326
20.94000 457.280
20.95000 463.143
20.96000 466.125
20.97000 467.731
20.98000 469.342
20.99000 471.025
21.00000 472.732
21.01000 474.281
21.02000 473.289
21.03000 471.922
21.04000 470.722
21.05000 470.378
21.06000 470.154
21.07000 468.925
21.08000 464.273
21.09000 459.339
21.10000 455.850
21.11000 452.937
21.12000 450.742
21.13000 450.358
21.14000 452.827
21.15000 455.332
21.16000 456.536
21.17000 456.387
21.18000 456.240
21.19000 456.165
21.20000 456.140
21.21000 456.127
21.22000 456.456
21.23000 456.943
21.24000 457.609
21.25000 460.683
21.26000 464.516
21.27000 467.978
21.28000 470.558
21.29000 472.662
21.30000 474.027
21.31000 471.753
21.32000 468.990
21.33000 465.393
21.34000 459.062
21.35000 452.517
21.36000 447.942
21.37000 455.508
21.38000 461.566
21.39000 463.500
21.40000 459.166
21.41000 454.766
21.42000 456.676
21.43000 464.885
21.44000 473.042
21.45000 474.179
21.46000 470.759
21.47000 467.311
21.48000 463.107
21.49000 458.565
21.50000 454.682
21.51000 459.173
21.52000 466.207
21.53000 472.531
21.54000 472.181
21.55000 470.691
21.56000 468.440
21.57000 462.593
21.58000 456.283
21.59000 451.946
21.60000 453.859
21.61000 456.234
21.62000 457.875
21.63000 454.970
21.64000 452.670
21.65000 452.690
21.66000 456.108
21.67000 459.556
21.68000 460.148
21.69000 458.003
21.70000 455.874
21.71000 456.889
21.72000 459.843
21.73000 462.869
21.74000 467.653
21.75000 473.192
21.76000 478.540
21.77000 481.572
21.78000 483.925
21.79000 486.030
21.80000 486.125
21.81000 485.865
21.82000 486.596
21.83000 491.832
21.84000 497.623
21.85000 500.778
21.86000 495.868
21.87000 490.396
21.88000 486.660
21.89000 494.492
21.90000 500.620
21.91000 506.641
21.92000 512.510
21.93000 518.375
21.94000 516.939
21.95000 508.780
21.96000 500.695
21.97000 505.225
21.98000 517.219
21.99000 528.639
22.00000 527.009
22.01000 519.958
22.02000 513.405
22.03000 512.530
22.04000 513.259
22.05000 513.908
22.06000 523.138
22.07000 532.547
22.08000 539.358
22.09000 534.771
22.10000 528.847
22.11000 525.496
22.12000 529.744
22.13000 534.490
22.14000 537.691
22.15000 531.958
22.16000 527.503
22.17000 522.704
22.18000 517.438
22.19000 512.172
22.20000 510.376
22.21000 511.650
22.22000 512.911
22.23000 517.237
22.24000 523.235
22.25000 528.635
22.26000 521.428
22.27000 509.164
22.28000 497.236
22.29000 488.958
22.30000 481.674
22.31000 475.231
22.32000 471.149
22.33000 467.988
22.34000 466.168
22.35000 470.010
22.36000 474.487
22.37000 477.307
22.38000 475.405
22.39000 473.212
22.40000 471.752
22.41000 459.133
22.42000 449.580
22.43000 445.507
22.44000 448.613
22.45000 451.753
22.46000 455.832
22.47000 460.711
22.48000 465.532
22.49000 466.322
22.50000 464.860
22.51000 463.256
22.52000 458.854
22.53000 453.369
22.54000 448.318
22.55000 447.731
22.56000 448.317
22.57000 448.832
22.58000 449.642
22.59000 450.383
22.60000 450.303
22.61000 446.886
22.62000 443.113
22.63000 438.565
22.64000 431.882
22.65000 425.076
22.66000 420.600
22.67000 434.350
22.68000 444.786
22.69000 449.550
22.70000 447.161
22.71000 444.747
22.72000 441.271
22.73000 436.928
22.74000 432.644
22.75000 430.480
22.76000 429.506
22.77000 428.298
22.78000 422.796
22.79000 415.688
22.80000 409.622
22.81000 413.725
22.82000 420.404
22.83000 426.246
22.84000 430.891
22.85000 434.701
22.86000 436.714
22.87000 431.680
22.88000 425.932
22.89000 421.040
22.90000 418.428
22.91000 415.938
22.92000 414.322
22.93000 426.386
22.94000 435.430
22.95000 439.984
22.96000 439.087
22.97000 438.174
22.98000 435.929
22.99000 432.634
23.00000 429.390
23.01000 430.590
23.02000 434.033
23.03000 437.176
23.04000 435.168
23.05000 431.301
23.06000 428.131
23.07000 431.455
23.08000 436.364
23.09000 440.632
23.10000 442.596
23.11000 443.959
23.12000 444.055
23.13000 439.362
23.14000 434.208
23.15000 430.575
23.16000 430.848
23.17000 431.317
23.18000 431.618
23.19000 441.502
23.20000 448.831
23.21000 449.392
23.22000 442.050
23.23000 434.719
23.24000 432.296
23.25000 433.594
23.26000 434.870
23.27000 432.803
23.28000 429.154
23.29000 425.543
23.30000 422.541
23.31000 419.752
23.32000 416.676
23.33000 411.068
23.34000 404.863
23.35000 399.502
23.36000 405.941
23.37000 412.941
23.38000 419.342
23.39000 423.559
23.40000 427.575
23.41000 432.001
23.42000 437.439
23.43000 442.925
23.44000 446.391
23.45000 439.491
23.46000 434.370
23.47000 431.557
23.48000 431.336
23.49000 431.135
23.50000 434.011
23.51000 439.134
23.52000 444.160
23.53000 444.024
23.54000 441.440
23.55000 438.512
23.56000 430.382
23.57000 420.501
23.58000 411.980
23.59000 414.963
23.60000 420.553
23.61000 425.353
23.62000 427.239
23.63000 428.473
23.64000 430.864
23.65000 437.320
23.66000 444.130
23.67000 448.623
23.68000 447.572
23.69000 446.279
23.70000 445.474
23.71000 434.517
23.72000 426.519
23.73000 431.815
23.74000 451.456
23.75000 471.024
23.76000 480.104
23.77000 481.800
23.78000 483.461
23.79000 474.064
23.80000 459.979
23.81000 447.479
23.82000 457.506
23.83000 474.854
23.84000 490.560
23.85000 493.021
23.86000 492.591
23.87000 492.224
23.88000 496.149
23.89000 499.960
23.90000 501.820
23.91000 497.062
23.92000 491.759
23.93000 487.412
23.94000 485.276
23.95000 483.229
23.96000 481.972
23.97000 485.835
23.98000 488.648
23.99000 488.280
24.00000 484.615
24.01000 481.015
24.02000 484.725
24.03000 493.395
24.04000 501.863
24.05000 505.163
24.06000 506.047
24.07000 505.794
24.08000 490.305
24.09000 470.036
24.10000 452.547
24.11000 456.487
24.12000 464.928
24.13000 472.082
24.14000 469.611
24.15000 466.459
24.16000 462.305
24.17000 454.873
24.18000 447.186
24.19000 441.930
24.20000 442.100
24.21000 442.471
24.22000 442.695
24.23000 442.716
24.24000 442.729
24.25000 441.705
24.26000 439.650
24.27000 437.599
24.28000 435.959
24.29000 434.587
24.30000 433.251
24.31000 431.835
24.32000 430.452
24.33000 429.285
24.34000 430.857
24.35000 433.258
24.36000 435.382
24.37000 435.456
24.38000 435.115
24.39000 434.829
24.40000 428.895
24.41000 423.342
24.42000 418.320
24.43000 414.978
24.44000 411.759
24.45000 409.044
24.46000 407.415
24.47000 405.823
24.48000 404.874
24.49000 406.831
24.50000 408.235
24.51000 407.862
24.52000 405.792
24.53000 403.748
24.54000 403.741
24.55000 405.018
24.56000 406.260
24.57000 412.042
24.58000 419.391
24.59000 425.874
24.60000 421.982
24.61000 415.060
24.62000 408.760
24.63000 406.846
24.64000 405.784
24.65000 404.896
24.66000 402.553
24.67000 400.458
24.68000 398.359
24.69000 396.244
24.70000 394.128
24.71000 393.134
24.72000 394.477
24.73000 395.893
24.74000 396.723
24.75000 399.364
24.76000 401.233
24.77000 400.726
24.78000 398.041
24.79000 395.415
24.80000 396.852
24.81000 400.761
24.82000 404.552
24.83000 402.022
24.84000 397.144
24.85000 392.867
24.86000 395.410
24.87000 399.875
24.88000 403.241
24.89000 399.176
24.90000 393.723
24.91000 389.197
24.92000 393.185
24.93000 397.304
24.94000 399.167
24.95000 394.385
24.96000 389.169
24.97000 385.558
24.98000 385.168
24.99000 384.870
25.00000 384.698
25.01000 388.086
25.02000 390.473
25.03000 393.076
25.04000 395.870
25.05000 398.644
25.06000 400.250
25.07000 401.169
25.08000 402.059
25.09000 400.286
25.10000 397.606
25.11000 395.025
25.12000 393.501
25.13000 392.263
25.14000 391.212
25.15000 391.367
25.16000 391.739
25.17000 392.045
25.18000 397.131
25.19000 401.756
25.20000 405.347
25.21000 406.002
25.22000 406.478
25.23000 406.687
25.24000 406.377
25.25000 406.054
25.26000 405.871
25.27000 400.593
25.28000 396.903
25.29000 393.385
25.30000 390.013
25.31000 386.768
25.32000 390.244
25.33000 397.527
25.34000 404.551
25.35000 404.705
25.36000 402.354
25.37000 399.515
25.38000 391.675
25.39000 382.526
25.40000 375.872
25.41000 384.715
25.42000 396.230
25.43000 405.647
25.44000 396.217
25.45000 386.854
25.46000 381.662
25.47000 387.914
25.48000 394.823
25.49000 396.957
25.50000 390.147
25.51000 383.132
25.52000 379.219
25.53000 381.234
25.54000 382.643
25.55000 384.236
25.56000 385.981
25.57000 387.693
25.58000 387.884
25.59000 387.243
25.60000 386.627
25.61000 381.813
25.62000 375.833
25.63000 370.309
25.64000 369.216
25.65000 369.241
25.66000 369.797
25.67000 373.511
25.68000 377.749
25.69000 381.188
25.70000 390.849
25.71000 399.238
25.72000 403.654
25.73000 397.543
25.74000 390.867
25.75000 386.366
25.76000 385.797
25.77000 385.309
25.78000 385.041
25.79000 379.498
25.80000 375.704
25.81000 379.350
25.82000 388.838
25.83000 398.178
25.84000 401.265
25.85000 401.054
25.86000 400.851
25.87000 394.812
25.88000 387.213
25.89000 380.042
25.90000 376.840
25.91000 374.604
25.92000 372.993
25.93000 374.962
25.94000 377.500
25.95000 379.543
25.96000 385.151
25.97000 389.981
25.98000 393.935
25.99000 395.651
26.00000 397.254
26.01000 396.656
26.02000 392.217
26.03000 387.708
26.04000 385.282
26.05000 375.848
26.06000 369.438
26.07000 372.307
26.08000 382.194
26.09000 391.879
26.10000 393.961
26.11000 392.170
26.12000 390.458
26.13000 388.362
26.14000 386.288
26.15000 384.910
26.16000 389.664
26.17000 395.857
26.18000 399.525
26.19000 389.318
26.20000 376.998
26.21000 367.158
26.22000 370.443
26.23000 374.063
26.24000 377.334
26.25000 379.741
26.26000 382.108
26.27000 382.234
26.28000 378.589
26.29000 374.883
26.30000 372.925
26.31000 379.706
26.32000 384.266
26.33000 380.632
26.34000 371.031
26.35000 361.814
26.36000 365.779
26.37000 376.228
26.38000 386.182
26.39000 387.393
26.40000 385.797
26.41000 384.280
26.42000 383.429
26.43000 382.729
26.44000 381.665
26.45000 378.676
26.46000 375.406
26.47000 372.817
26.48000 382.732
26.49000 391.572
26.50000 395.195
26.51000 386.367
26.52000 377.002
26.53000 372.049
26.54000 374.260
26.55000 376.572
26.56000 377.770
26.57000 377.175
26.58000 376.777
26.59000 376.787
26.60000 377.083
26.61000 377.258
26.62000 373.620
26.63000 368.170
26.64000 362.997
26.65000 360.143
26.66000 358.202
26.67000 357.052
26.68000 362.265
26.69000 368.861
26.70000 374.418
26.71000 374.694
26.72000 374.232
26.73000 373.869
26.74000 375.105
26.75000 376.199
26.76000 378.924
26.77000 385.408
26.78000 392.043
26.79000 394.730
26.80000 391.236
26.81000 387.667
26.82000 385.854
26.83000 374.049
26.84000 366.161
26.85000 360.997
26.86000 357.677
26.87000 354.558
26.88000 357.187
26.89000 362.453
26.90000 367.434
26.91000 373.146
26.92000 378.608
26.93000 383.250
26.94000 381.605
26.95000 378.643
26.96000 377.162
26.97000 382.910
26.98000 389.624
26.99000 394.852
27.00000 383.877
27.01000 374.138
27.02000 368.850
27.03000 373.467
27.04000 378.449
27.05000 381.673
27.06000 382.244
27.07000 382.788
27.08000 382.228
27.09000 380.573
27.10000 378.931
27.11000 378.423
27.12000 378.656
27.13000 378.895
27.14000 379.294
27.15000 379.763
27.16000 380.206
27.17000 381.453
27.18000 382.818
27.19000 383.190
27.20000 376.270
27.21000 367.880
27.22000 360.384
27.23000 357.084
27.24000 354.320
27.25000 352.187
27.26000 359.489
27.27000 365.824
27.28000 368.281
27.29000 362.402
27.30000 356.242
27.31000 351.941
27.32000 350.346
27.33000 348.774
27.34000 353.170
27.35000 363.245
27.36000 373.211
27.37000 374.637
27.38000 370.691
27.39000 366.897
27.40000 366.760
27.41000 368.188
27.42000 369.528
27.43000 366.910
27.44000 363.471
27.45000 361.372
27.46000 368.697
27.47000 377.848
27.48000 385.620
27.49000 387.157
27.50000 387.934
27.51000 388.527
27.52000 377.444
27.53000 368.066
27.54000 362.117
27.55000 363.282
27.56000 364.667
27.57000 367.168
27.58000 371.236
27.59000 375.315
27.60000 375.313
27.61000 371.584
27.62000 367.937
27.63000 369.905
27.64000 375.278
27.65000 380.290
27.66000 377.184
27.67000 370.726
27.68000 364.686
27.69000 360.312
27.70000 356.763
27.71000 355.688
27.72000 371.261
27.73000 389.935
27.74000 403.062
27.75000 392.021
27.76000 378.165
27.77000 367.667
27.78000 376.746
27.79000 384.871
27.80000 390.443
27.81000 390.901
27.82000 391.217
27.83000 390.841
27.84000 389.531
27.85000 388.217
27.86000 387.421
27.87000 387.081
27.88000 386.707
27.89000 384.285
27.90000 380.665
27.91000 377.057
27.92000 373.706
27.93000 370.456
27.94000 367.429
27.95000 365.960
27.96000 365.013
27.97000 364.274
27.98000 364.876
27.99000 365.719
28.00000 365.982
28.01000 363.810
28.02000 361.368
28.03000 359.536
28.04000 361.938
28.05000 364.016
28.06000 363.913
28.07000 359.591
28.08000 355.162
28.09000 354.284
28.10000 358.028
28.11000 361.787
28.12000 363.089
28.13000 362.316
28.14000 361.576
28.15000 362.529
28.16000 364.438
28.17000 366.156
28.18000 364.163
28.19000 360.740
28.20000 357.564
28.21000 358.446
28.22000 360.195
28.23000 361.605
28.24000 360.919
28.25000 359.873
28.26000 359.324
28.27000 360.790
28.28000 362.469
28.29000 363.716
28.30000 361.766
28.31000 360.108
28.32000 356.428
28.33000 348.974
28.34000 341.434
28.35000 340.176
28.36000 346.790
28.37000 353.420
28.38000 354.443
28.39000 350.919
28.40000 347.473
28.41000 347.614
28.42000 349.709
28.43000 351.850
28.44000 354.819
28.45000 358.096
28.46000 361.123
28.47000 355.150
28.48000 347.758
28.49000 342.554
28.50000 350.344
28.51000 360.278
28.52000 367.167
28.53000 362.188
28.54000 356.015
28.55000 351.473
28.56000 351.472
28.57000 351.658
28.58000 352.697
28.59000 355.270
28.60000 357.875
28.61000 356.728
28.62000 351.058
28.63000 345.390
28.64000 346.676
28.65000 353.370
28.66000 359.919
28.67000 360.457
28.68000 357.832
28.69000 354.940
28.70000 347.505
28.71000 338.439
28.72000 330.100
28.73000 334.956
28.74000 342.157
28.75000 347.913
28.76000 345.436
28.77000 341.657
28.78000 337.588
28.79000 332.432
28.80000 327.172
28.81000 323.342
28.82000 332.211
28.83000 339.525
28.84000 344.063
28.85000 343.773
28.86000 343.395
28.87000 342.450
28.88000 340.847
28.89000 339.246
28.90000 343.178
28.91000 351.223
28.92000 359.060
28.93000 359.061
28.94000 355.082
28.95000 351.228
28.96000 349.347
28.97000 348.151
28.98000 347.055
28.99000 353.835
29.00000 361.505
29.01000 366.479
29.02000 356.685
29.03000 344.652
29.04000 335.363
29.05000 336.022
29.06000 337.585
29.07000 338.710
29.08000 340.197
29.09000 341.349
29.10000 343.387
29.11000 346.914
29.12000 350.464
29.13000 353.004
29.14000 354.420
29.15000 355.829
29.16000 352.663
29.17000 346.231
29.18000 339.851
29.19000 335.240
29.20000 331.496
29.21000 328.595
29.22000 338.285
29.23000 352.188
29.24000 364.859
29.25000 362.000
29.26000 356.367
29.27000 352.431
29.28000 357.425
29.29000 363.717
29.30000 368.289
29.31000 366.845
29.32000 364.883
29.33000 363.485
29.34000 359.288
29.35000 355.998
29.36000 354.788
29.37000 356.946
29.38000 359.151
29.39000 357.931
29.40000 353.042
29.41000 348.173
29.42000 350.910
29.43000 358.883
29.44000 366.702
29.45000 369.733
29.46000 370.497
29.47000 370.678
29.48000 362.647
29.49000 351.963
29.50000 342.274
29.51000 342.001
29.52000 343.562
29.53000 344.233
29.54000 340.400
29.55000 335.941
29.56000 334.273
29.57000 342.021
29.58000 350.536
29.59000 356.538
29.60000 346.283
29.61000 338.016
29.62000 335.526
29.63000 342.054
29.64000 348.689
29.65000 353.693
29.66000 357.018
29.67000 360.325
29.68000 358.967
29.69000 354.521
29.70000 350.199
29.71000 349.377
29.72000 350.156
29.73000 350.758
29.74000 349.015
29.75000 346.540
29.76000 344.306
29.77000 352.656
29.78000 361.933
29.79000 368.982
29.80000 365.188
29.81000 359.951
29.82000 358.793
29.83000 370.909
29.84000 384.050
29.85000 393.208
29.86000 390.560
29.87000 388.237
29.88000 382.840
29.89000 372.814
29.90000 362.741
29.91000 369.093
29.92000 391.672
29.93000 414.101
29.94000 412.955
29.95000 396.730
29.96000 380.749
29.97000 371.153
29.98000 364.377
29.99000 358.340
30.00000 361.586
30.01000 367.625
30.02000 373.047
30.03000 371.861
30.04000 369.662
30.05000 368.356
30.06000 371.231
30.07000 374.637
30.08000 376.569
30.09000 373.869
30.10000 370.832
30.11000 368.740
30.12000 364.229
30.13000 360.781
30.14000 358.923
30.15000 359.373
30.16000 359.843
30.17000 361.009
30.18000 362.837
30.19000 364.650
30.20000 364.341
30.21000 362.729
30.22000 361.179
30.23000 361.102
30.24000 361.652
30.25000 362.214
30.26000 362.909
30.27000 363.643
30.28000 364.298
30.29000 369.564
30.30000 374.926
30.31000 376.961
30.32000 363.990
30.33000 349.195
30.34000 338.931
30.35000 342.403
30.36000 346.818
30.37000 349.823
30.38000 346.251
30.39000 343.432
30.40000 342.230
30.41000 343.287
30.42000 344.359
30.43000 343.948
30.44000 342.186
30.45000 340.439
30.46000 341.812
30.47000 345.005
30.48000 348.060
30.49000 348.015
30.50000 346.695
30.51000 345.829
30.52000 350.066
30.53000 355.733
30.54000 360.768
30.55000 360.525
30.56000 359.465
30.57000 358.735
30.58000 359.437
30.59000 360.305
30.60000 361.533
30.61000 363.817
30.62000 366.169
30.63000 367.751
30.64000 359.939
30.65000 353.941
30.66000 353.754
30.67000 361.399
30.68000 369.082
30.69000 372.964
30.70000 373.516
30.71000 374.063
30.72000 372.737
30.73000 370.372
30.74000 368.171
30.75000 369.350
30.76000 371.875
30.77000 373.714
30.78000 368.247
30.79000 360.805
30.80000 354.231
30.81000 357.187
30.82000 361.207
30.83000 365.254
30.84000 369.416
30.85000 373.589
30.86000 376.352
30.87000 375.130
30.88000 373.667
30.89000 372.695
30.90000 376.450
30.91000 379.314
30.92000 382.606
30.93000 386.453
30.94000 390.313
30.95000 399.780
30.96000 413.973
30.97000 427.993
30.98000 436.060
30.99000 440.657
31.00000 445.320
31.01000 451.284
31.02000 457.746
31.03000 464.324
31.04000 472.080
31.05000 480.143
31.06000 487.226
31.07000 492.126
31.08000 496.017
31.09000 504.016
31.10000 528.573
31.11000 554.875
31.12000 580.568
31.13000 604.600
31.14000 628.537
31.15000 644.230
31.16000 677.945
31.17000 703.036
31.18000 722.521
31.19000 735.004
31.20000 747.501
31.21000 772.928
31.22000 808.837
31.23000 844.248
31.24000 873.800
31.25000 899.425
31.26000 925.377
31.27000 957.208
31.28000 991.220
31.29000 1024.050
31.30000 1045.482
31.31000 1064.052
31.32000 1080.269
31.33000 1107.961
31.34000 1133.276
31.35000 1151.448
31.36000 1141.860
31.37000 1129.489
31.38000 1123.814
31.39000 1135.782
31.40000 1148.685
31.41000 1157.033
31.42000 1141.602
31.43000 1129.965
31.44000 1109.350
31.45000 1077.944
31.46000 1046.526
31.47000 1018.081
31.48000 991.956
31.49000 966.240
31.50000 942.642
31.51000 920.853
31.52000 898.881
31.53000 873.825
31.54000 847.665
31.55000 821.172
31.56000 791.628
31.57000 761.346
31.58000 735.059
31.59000 701.565
31.60000 672.057
31.61000 645.070
31.62000 627.533
31.63000 610.896
31.64000 594.688
31.65000 579.575
31.66000 564.515
31.67000 554.902
31.68000 519.815
31.69000 493.959
31.70000 475.787
31.71000 466.498
31.72000 457.220
31.73000 447.809
31.74000 438.297
31.75000 428.953
31.76000 422.545
31.77000 417.791
31.78000 412.737
31.79000 402.917
31.80000 391.451
31.81000 380.590
31.82000 375.037
31.83000 370.721
31.84000 366.998
31.85000 370.862
31.86000 375.113
31.87000 377.738
31.88000 374.490
31.89000 370.710
31.90000 367.307
31.91000 364.829
31.92000 362.393
31.93000 360.860
31.94000 359.593
31.95000 358.680
31.96000 359.346
31.97000 361.768
31.98000 364.185
31.99000 365.587
32.00000 366.252
32.01000 366.905
32.02000 359.859
32.03000 349.449
32.04000 339.614
32.05000 338.332
32.06000 339.904
32.07000 341.539
32.08000 343.696
32.09000 345.971
32.10000 347.922
32.11000 345.449
32.12000 342.819
32.13000 339.297
32.14000 332.664
32.15000 325.764
32.16000 321.797
32.17000 324.787
32.18000 328.073
32.19000 330.112
32.20000 339.872
32.21000 346.970
32.22000 346.550
32.23000 338.099
32.24000 329.703
32.25000 328.641
32.26000 332.694
32.27000 336.659
32.28000 331.199
32.29000 321.688
32.30000 312.986
32.31000 315.612
32.32000 321.886
32.33000 327.103
32.34000 323.880
32.35000 318.834
32.36000 314.535
32.37000 311.904
32.38000 309.887
32.39000 309.451
32.40000 314.334
32.41000 319.649
32.42000 323.305
32.43000 323.160
32.44000 322.865
32.45000 322.684
32.46000 328.321
32.47000 332.403
32.48000 329.057
32.49000 318.091
32.50000 307.221
32.51000 306.466
32.52000 312.513
32.53000 318.415
32.54000 319.052
32.55000 317.365
32.56000 315.482
32.57000 311.015
32.58000 305.744
32.59000 301.268
32.60000 302.856
32.61000 305.705
32.62000 308.116
32.63000 316.752
32.64000 324.671
32.65000 329.647
32.66000 325.073
32.67000 319.766
32.68000 314.020
32.69000 307.302
32.70000 300.549
32.71000 296.481
32.72000 308.685
32.73000 317.483
32.74000 321.469
32.75000 320.717
32.76000 319.993
32.77000 321.796
32.78000 325.238
32.79000 328.590
32.80000 341.872
32.81000 358.702
32.82000 374.862
32.83000 382.664
32.84000 387.960
32.85000 394.816
32.86000 413.055
32.87000 433.573
32.88000 450.814
32.89000 471.687
32.90000 489.462
32.91000 504.555
32.92000 511.248
32.93000 517.333
32.94000 520.897
32.95000 519.072
32.96000 517.068
32.97000 515.880
32.98000 517.624
32.99000 518.875
33.00000 518.696
33.01000 517.164
33.02000 515.531
33.03000 506.174
33.04000 491.989
33.05000 478.207
33.06000 454.614
33.07000 428.240
33.08000 402.903
33.09000 389.839
33.10000 380.327
33.11000 371.142
33.12000 364.247
33.13000 357.792
33.14000 352.405
33.15000 339.872
33.16000 328.759
33.17000 317.755
33.18000 307.078
33.19000 296.425
33.20000 288.928
33.21000 287.945
33.22000 287.159
33.23000 286.700
33.24000 296.767
33.25000 303.896
33.26000 307.000
33.27000 306.449
33.28000 305.893
33.29000 305.008
33.30000 303.925
33.31000 302.875
33.32000 303.029
33.33000 303.642
33.34000 304.230
33.35000 304.534
33.36000 304.759
33.37000 304.176
33.38000 298.191
33.39000 291.207
33.40000 285.421
33.41000 292.276
33.42000 299.142
33.43000 302.602
33.44000 296.125
33.45000 289.010
33.46000 285.475
33.47000 289.074
33.48000 292.869
33.49000 295.050
33.50000 294.110
33.51000 293.439
33.52000 290.618
33.53000 285.921
33.54000 281.283
33.55000 280.150
33.56000 281.055
33.57000 281.930
33.58000 286.773
33.59000 292.824
33.60000 298.152
33.61000 295.791
33.62000 291.359
33.63000 287.695
33.64000 288.947
33.65000 291.073
33.66000 292.821
33.67000 294.685
33.68000 296.227
33.69000 297.688
33.70000 298.920
33.71000 300.137
33.72000 301.211
33.73000 302.011
33.74000 302.805
33.75000 303.253
33.76000 301.162
33.77000 299.700
33.78000 297.724
33.79000 295.317
33.80000 292.920
33.81000 291.007
33.82000 289.366
33.83000 287.784
33.84000 293.903
33.85000 302.424
33.86000 310.098
33.87000 309.216
33.88000 306.113
33.89000 303.627
33.90000 304.928
33.91000 306.876
33.92000 308.465
33.93000 304.768
33.94000 301.290
33.95000 297.962
33.96000 295.040
33.97000 292.142
33.98000 292.543
33.99000 299.069
34.00000 305.732
34.01000 309.432
34.02000 311.286
34.03000 312.559
34.04000 311.791
34.05000 309.375
34.06000 307.033
34.07000 308.036
34.08000 310.852
34.09000 313.557
34.10000 310.762
34.11000 306.241
34.12000 302.490
34.13000 306.131
34.14000 311.622
34.15000 316.111
34.16000 314.694
34.17000 312.309
34.18000 310.378
34.19000 315.871
34.20000 320.948
34.21000 324.573
34.22000 324.386
34.23000 323.998
34.24000 323.190
34.25000 321.627
34.26000 320.050
34.27000 319.190
34.28000 327.822
34.29000 333.743
34.30000 334.618
34.31000 331.566
34.32000 328.532
34.33000 326.244
34.34000 324.346
34.35000 322.528
34.36000 325.780
34.37000 330.502
34.38000 334.408
34.39000 330.848
34.40000 325.487
34.41000 321.531
34.42000 325.532
34.43000 330.782
34.44000 335.001
34.45000 335.728
34.46000 336.049
34.47000 336.199
34.48000 335.917
34.49000 335.613
34.50000 333.552
34.51000 328.454
34.52000 323.302
34.53000 320.542
34.54000 325.857
34.55000 329.459
34.56000 326.667
34.57000 319.085
34.58000 311.723
34.59000 312.480
34.60000 317.337
34.61000 321.974
34.62000 317.950
34.63000 311.437
34.64000 305.603
34.65000 305.695
34.66000 307.164
34.67000 308.304
34.68000 307.655
34.69000 306.737
34.70000 306.005
34.71000 304.736
34.72000 303.673
34.73000 301.515
34.74000 296.672
34.75000 291.707
34.76000 287.971
34.77000 286.283
34.78000 284.627
34.79000 283.756
34.80000 281.394
34.81000 279.769
34.82000 274.524
34.83000 266.667
34.84000 259.194
34.85000 264.562
34.86000 276.190
34.87000 287.257
34.88000 284.729
34.89000 278.201
34.90000 272.237
34.91000 270.962
34.92000 270.737
34.93000 270.745
34.94000 271.974
34.95000 273.378
34.96000 274.488
34.97000 270.732
34.98000 267.382
34.99000 265.087
35.00000 265.287
35.01000 265.593
35.02000 264.599
35.03000 261.514
35.04000 258.401
35.05000 256.795
35.06000 260.893
35.07000 263.655
35.08000 266.547
35.09000 269.530
35.10000 272.486
35.11000 274.624
35.12000 276.376
35.13000 278.037
35.14000 277.813
35.15000 277.049
35.16000 276.021
35.17000 272.909
35.18000 269.347
35.19000 266.467
35.20000 267.014
35.21000 268.035
35.22000 268.835
35.23000 267.812
35.24000 266.876
35.25000 265.673
35.26000 263.858
35.27000 262.020
35.28000 260.470
35.29000 259.367
35.30000 258.268
35.31000 257.713
35.32000 270.294
35.33000 278.634
35.34000 278.783
35.35000 273.442
35.36000 268.200
35.37000 265.722
35.38000 264.501
35.39000 263.347
35.40000 261.813
35.41000 260.295
35.42000 259.290
35.43000 262.173
35.44000 265.863
35.45000 267.972
35.46000 262.441
35.47000 255.900
35.48000 250.818
35.49000 254.134
35.50000 257.281
35.51000 258.286
35.52000 254.561
35.53000 250.666
35.54000 252.276
35.55000 262.123
35.56000 272.049
35.57000 276.296
35.58000 274.969
35.59000 273.604
35.60000 268.837
35.61000 261.873
35.62000 255.113
35.63000 253.637
35.64000 254.479
35.65000 255.271
35.66000 254.391
35.67000 253.127
35.68000 252.236
35.69000 254.056
35.70000 256.416
35.71000 258.530
35.72000 259.500
35.73000 260.325
35.74000 260.961
35.75000 261.973
35.76000 262.796
35.77000 262.499
35.78000 259.816
35.79000 257.054
35.80000 256.581
35.81000 259.410
35.82000 262.265
35.83000 262.614
35.84000 260.604
35.85000 258.659
35.86000 261.684
35.87000 267.806
35.88000 273.637
35.89000 272.566
35.90000 268.568
35.91000 264.817
35.92000 261.011
35.93000 257.528
35.94000 254.657
35.95000 256.032
35.96000 258.222
35.97000 260.008
35.98000 259.979
35.99000 259.731
36.00000 259.542
36.01000 266.817
36.02000 272.949
36.03000 274.564
36.04000 266.888
36.05000 258.932
36.06000 253.672
36.07000 252.159
36.08000 250.670
36.09000 251.491
36.10000 254.399
36.11000 257.309
36.12000 260.337
36.13000 263.436
36.14000 266.306
36.15000 264.100
36.16000 259.816
36.17000 255.813
36.18000 258.433
36.19000 262.482
36.20000 265.377
36.21000 260.577
36.22000 254.358
36.23000 250.324
36.24000 255.721
36.25000 262.204
36.26000 267.104
36.27000 263.238
36.28000 259.767
36.29000 255.709
36.30000 250.482
36.31000 245.223
36.32000 243.937
36.33000 247.971
36.34000 252.029
36.35000 254.504
36.36000 255.599
36.37000 256.669
36.38000 256.250
36.39000 254.967
36.40000 253.702
36.41000 252.786
36.42000 252.008
36.43000 251.283
36.44000 249.048
36.45000 246.662
36.46000 245.063
36.47000 248.490
36.48000 252.806
36.49000 256.757
36.50000 259.185
36.51000 261.446
36.52000 263.138
36.53000 256.821
36.54000 251.517
36.55000 249.744
36.56000 254.741
36.57000 259.905
36.58000 259.904
36.59000 253.241
36.60000 246.560
36.61000 244.826
36.62000 247.225
36.63000 249.624
36.64000 252.022
36.65000 254.417
36.66000 256.778
36.67000 258.475
36.68000 259.919
36.69000 261.258
36.70000 264.372
36.71000 267.590
36.72000 269.333
36.73000 262.049
36.74000 253.228
36.75000 246.557
36.76000 248.492
36.77000 251.327
36.78000 253.429
36.79000 253.726
36.80000 253.879
36.81000 254.838
36.82000 257.290
36.83000 259.776
36.84000 260.505
36.85000 259.055
36.86000 257.600
36.87000 261.095
36.88000 268.546
36.89000 275.848
36.90000 276.436
36.91000 273.395
36.92000 270.548
36.93000 271.144
36.94000 273.010
36.95000 274.732
36.96000 278.690
36.97000 282.738
36.98000 285.922
36.99000 284.023
37.00000 281.294
37.01000 278.775
37.02000 277.067
37.03000 275.440
37.04000 274.245
37.05000 276.015
37.06000 277.502
37.07000 276.588
37.08000 271.383
37.09000 266.094
37.10000 268.546
37.11000 280.245
37.12000 291.936
37.13000 291.798
37.14000 282.539
37.15000 273.354
37.16000 267.101
37.17000 262.378
37.18000 257.935
37.19000 258.183
37.20000 260.101
37.21000 261.862
37.22000 260.703
37.23000 259.042
37.24000 257.435
37.25000 256.139
37.26000 254.892
37.27000 254.605
37.28000 257.893
37.29000 261.520
37.30000 264.154
37.31000 260.041
37.32000 256.625
37.33000 253.837
37.34000 252.128
37.35000 250.439
37.36000 247.630
37.37000 243.535
37.38000 239.451
37.39000 240.737
37.40000 245.995
37.41000 251.161
37.42000 252.978
37.43000 253.109
37.44000 253.040
37.45000 249.835
37.46000 245.553
37.47000 241.636
37.48000 243.951
37.49000 247.291
37.50000 250.839
37.51000 255.510
37.52000 260.350
37.53000 261.954
37.54000 251.935
37.55000 240.874
37.56000 232.927
37.57000 238.031
37.58000 242.390
37.59000 247.078
37.60000 252.310
37.61000 257.551
37.62000 261.244
37.63000 263.226
37.64000 265.200
37.65000 261.403
37.66000 253.528
37.67000 245.795
37.68000 242.793
37.69000 242.090
37.70000 241.616
37.71000 244.502
37.72000 248.503
37.73000 252.144
37.74000 253.709
37.75000 254.685
37.76000 255.404
37.77000 254.788
37.78000 253.980
37.79000 252.636
37.80000 249.434
37.81000 246.073
37.82000 243.685
37.83000 246.719
37.84000 249.202
37.85000 250.202
37.86000 248.820
37.87000 247.407
37.88000 247.139
37.89000 248.086
37.90000 249.029
37.91000 251.466
37.92000 254.900
37.93000 258.239
37.94000 258.703
37.95000 257.818
37.96000 257.206
37.97000 260.377
37.98000 264.759
37.99000 268.728
38.00000 258.844
38.01000 247.511
38.02000 239.303
38.03000 246.756
38.04000 256.365
38.05000 261.809
38.06000 253.335
38.07000 243.740
38.08000 236.997
38.09000 244.561
38.10000 250.711
38.11000 254.624
38.12000 255.073
38.13000 255.484
38.14000 254.957
38.15000 253.475
38.16000 252.001
38.17000 252.714
38.18000 254.857
38.19000 256.989
38.20000 258.796
38.21000 260.455
38.22000 262.142
38.23000 264.182
38.24000 266.331
38.25000 268.268
38.26000 272.484
38.27000 276.597
38.28000 279.918
38.29000 279.414
38.30000 278.407
38.31000 279.044
38.32000 284.983
38.33000 291.326
38.34000 295.733
38.35000 299.038
38.36000 301.499
38.37000 304.023
38.38000 306.642
38.39000 309.262
38.40000 317.873
38.41000 332.343
38.42000 346.712
38.43000 361.011
38.44000 375.042
38.45000 389.065
38.46000 402.905
38.47000 416.666
38.48000 430.603
38.49000 446.728
38.50000 463.507
38.51000 478.552
38.52000 504.792
38.53000 529.665
38.54000 555.378
38.55000 584.986
38.56000 615.084
38.57000 645.790
38.58000 678.388
38.59000 711.123
38.60000 733.607
38.61000 756.830
38.62000 774.261
38.63000 794.917
38.64000 820.208
38.65000 845.536
38.66000 873.684
38.67000 904.482
38.68000 935.026
38.69000 951.170
38.70000 958.236
38.71000 965.104
38.72000 967.285
38.73000 967.484
38.74000 966.839
38.75000 956.302
38.76000 942.918
38.77000 930.980
38.78000 917.568
38.79000 905.654
38.80000 893.823
38.81000 882.360
38.82000 870.942
38.83000 852.179
38.84000 811.340
38.85000 769.010
38.86000 740.282
38.87000 701.286
38.88000 671.968
38.89000 644.937
38.90000 621.077
38.91000 597.235
38.92000 570.898
38.93000 542.309
38.94000 513.994
38.95000 484.612
38.96000 455.211
38.97000 426.407
38.98000 410.665
38.99000 400.254
39.00000 388.929
39.01000 367.449
39.02000 343.152
39.03000 321.597
39.04000 310.325
39.05000 302.196
39.06000 295.554
39.07000 295.309
39.08000 295.797
39.09000 292.846
39.10000 279.919
39.11000 266.359
39.12000 257.269
39.13000 257.996
39.14000 258.732
39.15000 255.519
39.16000 247.033
39.17000 238.527
39.18000 235.928
39.19000 238.452
39.20000 240.947
39.21000 244.893
39.22000 249.566
39.23000 253.854
39.24000 250.319
39.25000 243.700
39.26000 237.891
39.27000 240.628
39.28000 245.653
39.29000 250.085
39.30000 252.125
39.31000 253.520
39.32000 253.163
39.33000 245.538
39.34000 237.120
39.35000 230.438
39.36000 228.617
39.37000 227.086
39.38000 226.073
39.39000 225.632
39.40000 225.317
39.41000 227.678
39.42000 233.477
39.43000 239.279
39.44000 239.809
39.45000 235.941
39.46000 232.122
39.47000 230.996
39.48000 231.362
39.49000 231.685
39.50000 231.176
39.51000 230.351
39.52000 230.042
39.53000 234.900
39.54000 241.091
39.55000 246.521
39.56000 238.674
39.57000 230.003
39.58000 224.740
39.59000 233.092
39.60000 242.861
39.61000 247.113
39.62000 236.445
39.63000 224.945
39.64000 217.430
39.65000 223.507
39.66000 228.188
39.67000 230.172
39.68000 228.817
39.69000 227.458
39.70000 227.469
39.71000 228.580
39.72000 229.676
39.73000 229.182
39.74000 227.870
39.75000 226.751
39.76000 229.043
39.77000 232.589
39.78000 235.635
39.79000 233.912
39.80000 231.003
39.81000 228.467
39.82000 232.353
39.83000 236.570
39.84000 238.966
39.85000 234.351
39.86000 229.043
39.87000 225.498
39.88000 226.558
39.89000 227.858
39.90000 228.697
39.91000 227.708
39.92000 226.959
39.93000 227.443
39.94000 229.395
39.95000 231.330
39.96000 228.457
39.97000 221.866
39.98000 215.382
39.99000 215.939
40.00000 220.023
40.01000 223.945
40.02000 225.170
40.03000 225.438
40.04000 225.423
40.05000 222.843
40.06000 219.647
40.07000 216.877
40.08000 215.326
40.09000 214.168
40.10000 213.511
40.11000 214.714
40.12000 216.092
40.13000 216.810
40.14000 215.862
40.15000 214.832
40.16000 214.178
40.17000 215.756
40.18000 216.930
40.19000 218.132
40.20000 219.366
40.21000 220.608
40.22000 223.307
40.23000 227.091
40.24000 230.806
40.25000 228.136
40.26000 222.465
40.27000 217.052
40.28000 215.667
40.29000 215.663
40.30000 215.441
40.31000 213.342
40.32000 210.809
40.33000 208.627
40.34000 211.985
40.35000 215.533
40.36000 219.032
40.37000 222.358
40.38000 225.669
40.39000 229.039
40.40000 232.553
40.41000 236.073
40.42000 238.281
40.43000 229.205
40.44000 222.523
40.45000 218.602
40.46000 217.719
40.47000 216.854
40.48000 218.446
40.49000 221.801
40.50000 225.088
40.51000 220.190
40.52000 211.662
40.53000 203.751
40.54000 204.893
40.55000 209.029
40.56000 212.284
40.57000 208.270
40.58000 202.640
40.59000 197.821
40.60000 201.235
40.61000 205.111
40.62000 208.952
40.63000 212.673
40.64000 216.384
40.65000 219.227
40.66000 220.029
40.67000 220.747
40.68000 221.190
40.69000 215.448
40.70000 211.264
40.71000 209.883
40.72000 211.467
40.73000 213.051
40.74000 214.546
40.75000 215.981
40.76000 217.383
40.77000 212.635
40.78000 205.322
40.79000 199.027
40.80000 206.796
40.81000 219.055
40.82000 229.574
40.83000 226.377
40.84000 220.244
40.85000 215.029
40.86000 213.217
40.87000 212.088
40.88000 211.329
40.89000 211.804
40.90000 212.379
40.91000 212.936
40.92000 213.454
40.93000 213.971
40.94000 214.285
40.95000 207.810
40.96000 203.129
40.97000 203.336
40.98000 208.509
40.99000 213.625
41.00000 213.115
41.01000 208.856
41.02000 204.701
41.03000 206.628
41.04000 211.095
41.05000 215.063
41.06000 212.515
41.07000 207.958
41.08000 204.428
41.09000 208.632
41.10000 214.430
41.11000 219.327
41.12000 216.326
41.13000 212.950
41.14000 209.659
41.15000 206.634
41.16000 203.630
41.17000 203.421
41.18000 209.343
41.19000 215.481
41.20000 219.166
41.21000 216.829
41.22000 215.128
41.23000 210.800
41.24000 203.914
41.25000 197.115
41.26000 197.789
41.27000 203.264
41.28000 208.593
41.29000 208.789
41.30000 206.842
41.31000 205.019
41.32000 204.715
41.33000 204.862
41.34000 205.107
41.35000 206.051
41.36000 207.134
41.37000 208.043
41.38000 207.041
41.39000 206.008
41.40000 204.273
41.41000 200.358
41.42000 196.288
41.43000 197.626
41.44000 210.414
41.45000 223.575
41.46000 231.352
41.47000 218.956
41.48000 210.089
41.49000 207.564
41.50000 210.975
41.51000 214.356
41.52000 215.499
41.53000 215.255
41.54000 215.019
41.55000 213.078
41.56000 210.555
41.57000 208.004
41.58000 205.132
41.59000 202.167
41.60000 199.602
41.61000 199.797
41.62000 200.517
41.63000 201.116
41.64000 208.175
41.65000 214.664
41.66000 218.793
41.67000 215.852
41.68000 212.436
41.69000 210.565
41.70000 211.855
41.71000 213.238
41.72000 214.043
41.73000 213.422
41.74000 212.980
41.75000 211.814
41.76000 209.997
41.77000 208.172
41.78000 205.808
41.79000 203.122
41.80000 200.522
41.81000 202.450
41.82000 206.017
41.83000 209.372
41.84000 210.380
41.85000 210.739
41.86000 210.915
41.87000 209.885
41.88000 208.635
41.89000 207.601
41.90000 207.062
41.91000 206.665
41.92000 207.847
41.93000 213.599
41.94000 219.639
41.95000 222.158
41.96000 217.722
41.97000 213.100
41.98000 210.455
41.99000 207.649
42.00000 205.691
42.01000 205.565
42.02000 207.023
42.03000 208.478
42.04000 209.779
42.05000 210.989
42.06000 212.159
42.07000 215.116
42.08000 218.564
42.09000 221.585
42.10000 220.124
42.11000 217.468
42.12000 214.380
42.13000 208.560
42.14000 202.259
42.15000 197.086
42.16000 199.975
42.17000 203.068
42.18000 205.585
42.19000 206.498
42.20000 207.315
42.21000 207.170
42.22000 205.192
42.23000 203.169
42.24000 202.031
42.25000 201.366
42.26000 200.908
42.27000 201.207
42.28000 202.136
42.29000 203.080
42.30000 204.822
42.31000 207.006
42.32000 209.109
42.33000 210.144
42.34000 210.735
42.35000 211.375
42.36000 212.499
42.37000 213.747
42.38000 214.491
42.39000 212.166
42.40000 209.323
42.41000 207.006
42.42000 201.147
42.43000 196.060
42.44000 193.156
42.45000 196.141
42.46000 199.453
42.47000 201.000
42.48000 199.299
42.49000 197.528
42.50000 196.549
42.51000 208.415
42.52000 216.605
42.53000 217.917
42.54000 213.725
42.55000 209.575
42.56000 207.276
42.57000 205.970
42.58000 204.716
42.59000 206.437
42.60000 209.067
42.61000 211.307
42.62000 209.850
42.63000 207.476
42.64000 204.989
42.65000 201.837
42.66000 198.577
42.67000 195.942
42.68000 196.918
42.69000 198.001
42.70000 199.781
42.71000 203.373
42.72000 207.060
42.73000 209.812
42.74000 210.906
42.75000 211.967
42.76000 212.543
42.77000 199.302
42.78000 190.233
42.79000 187.756
42.80000 190.357
42.81000 193.013
42.82000 197.891
42.83000 203.919
42.84000 209.689
42.85000 207.971
42.86000 203.902
42.87000 200.768
42.88000 206.093
42.89000 213.440
42.90000 219.268
42.91000 216.579
42.92000 212.567
42.93000 209.349
42.94000 201.503
42.95000 194.801
42.96000 189.959
42.97000 189.796
42.98000 189.859
42.99000 191.532
43.00000 195.961
43.01000 200.437
43.02000 202.824
43.03000 203.024
43.04000 203.158
43.05000 203.094
43.06000 202.883
43.07000 202.554
43.08000 197.945
43.09000 191.195
43.10000 184.755
43.11000 186.804
43.12000 191.397
43.13000 195.654
43.14000 197.010
43.15000 197.699
43.16000 198.499
43.17000 199.895
43.18000 201.380
43.19000 202.561
43.20000 201.289
43.21000 200.088
43.22000 197.361
43.23000 190.927
43.24000 184.327
43.25000 180.916
43.26000 182.775
43.27000 184.713
43.28000 185.728
43.29000 192.978
43.30000 197.860
43.31000 198.490
43.32000 196.082
43.33000 193.778
43.34000 194.877
43.35000 197.621
43.36000 200.230
43.37000 199.839
43.38000 198.564
43.39000 197.371
43.40000 196.856
43.41000 196.490
43.42000 196.252
43.43000 196.669
43.44000 197.179
43.45000 197.582
43.46000 195.614
43.47000 193.876
43.48000 191.169
43.49000 186.188
43.50000 181.114
43.51000 181.598
43.52000 190.948
43.53000 200.412
43.54000 205.269
43.55000 192.794
43.56000 184.447
43.57000 181.359
43.58000 181.895
43.59000 182.520
43.60000 185.793
43.61000 190.302
43.62000 194.576
43.63000 198.533
43.64000 202.087
43.65000 204.824
43.66000 201.155
43.67000 196.119
43.68000 191.427
43.69000 188.446
43.70000 185.699
43.71000 183.551
43.72000 184.223
43.73000 184.938
43.74000 185.842
43.75000 187.172
43.76000 188.519
43.77000 190.111
43.78000 192.080
43.79000 194.054
43.80000 195.047
43.81000 194.002
43.82000 193.316
43.83000 193.809
43.84000 195.085
43.85000 196.254
43.86000 194.484
43.87000 191.391
43.88000 188.470
43.89000 189.085
43.90000 190.646
43.91000 191.666
43.92000 188.624
43.93000 184.748
43.94000 182.465
43.95000 187.812
43.96000 194.156
43.97000 199.074
43.98000 193.290
43.99000 188.055
44.00000 184.525
44.01000 184.723
44.02000 185.053
44.03000 185.423
44.04000 185.853
44.05000 186.284
44.06000 187.763
44.07000 190.260
44.08000 192.735
44.09000 193.398
44.10000 192.900
44.11000 192.298
44.12000 189.109
44.13000 184.794
44.14000 180.734
44.15000 187.004
44.16000 195.531
44.17000 202.823
44.18000 201.242
44.19000 197.908
44.20000 194.361
44.21000 189.828
44.22000 185.173
44.23000 181.597
44.24000 181.857
44.25000 182.278
44.26000 185.284
44.27000 193.751
44.28000 202.394
44.29000 206.837
44.30000 205.278
44.31000 203.674
44.32000 199.998
44.33000 194.392
44.34000 188.888
44.35000 190.805
44.36000 197.303
44.37000 203.614
44.38000 205.560
44.39000 205.672
44.40000 205.777
44.41000 201.271
44.42000 195.969
44.43000 191.810
44.44000 195.508
44.45000 200.698
44.46000 205.881
44.47000 211.032
44.48000 216.179
44.49000 220.097
44.50000 215.565
44.51000 211.554
44.52000 208.629
44.53000 207.918
44.54000 207.273
44.55000 206.540
44.56000 205.688
44.57000 204.836
44.58000 204.451
44.59000 204.486
44.60000 204.566
44.61000 207.520
44.62000 212.185
44.63000 216.735
44.64000 218.777
44.65000 219.802
44.66000 220.759
44.67000 217.686
44.68000 213.893
44.69000 211.503
44.70000 218.361
44.71000 226.908
44.72000 232.878
44.73000 227.825
44.74000 221.518
44.75000 216.763
44.76000 220.568
44.77000 223.970
44.78000 227.688
44.79000 232.030
44.80000 236.390
44.81000 238.884
44.82000 238.903
44.83000 238.911
44.84000 240.597
44.85000 243.723
44.86000 246.823
44.87000 248.438
44.88000 249.200
44.89000 249.768
44.90000 246.433
44.91000 241.568
44.92000 237.045
44.93000 241.920
44.94000 248.580
44.95000 254.459
44.96000 255.415
44.97000 255.507
44.98000 254.099
44.99000 246.511
45.00000 238.253
45.01000 232.086
45.02000 238.793
45.03000 244.612
45.04000 249.047
45.05000 250.852
45.06000 252.594
45.07000 253.594
45.08000 253.648
45.09000 253.698
45.10000 254.695
45.11000 256.473
45.12000 258.220
45.13000 258.459
45.14000 257.863
45.15000 256.995
45.16000 251.053
45.17000 243.190
45.18000 235.911
45.19000 237.737
45.20000 241.479
45.21000 244.540
45.22000 243.477
45.23000 241.719
45.24000 240.149
45.25000 239.326
45.26000 238.581
45.27000 238.029
45.28000 229.075
45.29000 221.771
45.30000 216.973
45.31000 216.774
45.32000 216.674
45.33000 215.323
45.34000 212.437
45.35000 209.551
45.36000 208.400
45.37000 208.631
45.38000 208.917
45.39000 211.603
45.40000 215.574
45.41000 219.321
45.42000 219.151
45.43000 217.550
45.44000 216.074
45.45000 215.638
45.46000 215.478
45.47000 214.824
45.48000 211.300
45.49000 207.313
45.50000 204.941
45.51000 208.752
45.52000 213.171
45.53000 216.404
45.54000 210.945
45.55000 206.386
45.56000 203.940
45.57000 205.235
45.58000 206.601
45.59000 206.779
45.60000 205.550
45.61000 204.322
45.62000 201.787
45.63000 198.271
45.64000 194.879
45.65000 196.363
45.66000 200.368
45.67000 203.980
45.68000 201.138
45.69000 196.019
45.70000 191.322
45.71000 190.986
45.72000 191.613
45.73000 191.922
45.74000 190.461
45.75000 188.724
45.76000 187.819
45.77000 189.981
45.78000 192.429
45.79000 194.202
45.80000 192.227
45.81000 190.572
45.82000 189.987
45.83000 191.231
45.84000 192.506
45.85000 192.918
45.86000 192.350
45.87000 191.782
45.88000 190.189
45.89000 187.855
45.90000 185.570
45.91000 185.052
45.92000 185.416
45.93000 185.630
45.94000 183.539
45.95000 180.663
45.96000 178.036
45.97000 177.047
45.98000 176.503
45.99000 176.180
46.00000 177.043
46.01000 178.081
46.02000 179.025
46.03000 179.634
46.04000 180.214
46.05000 180.630
46.06000 183.968
46.07000 186.618
46.08000 186.888
46.09000 183.234
46.10000 179.523
46.11000 178.357
46.12000 179.974
46.13000 181.586
46.14000 180.679
46.15000 178.003
46.16000 175.412
46.17000 175.600
46.18000 177.127
46.19000 178.504
46.20000 177.715
46.21000 176.214
46.22000 174.849
46.23000 176.456
46.24000 178.457
46.25000 179.892
46.26000 178.401
46.27000 176.494
46.28000 175.156
46.29000 175.772
46.30000 176.552
46.31000 177.105
46.32000 177.635
46.33000 178.036
46.34000 178.406
46.35000 178.727
46.36000 179.046
46.37000 180.386
46.38000 182.797
46.39000 185.197
46.40000 181.118
46.41000 172.691
46.42000 164.507
46.43000 163.548
46.44000 165.950
46.45000 168.312
46.46000 170.120
46.47000 171.752
46.48000 173.228
46.49000 174.316
46.50000 175.200
46.51000 175.959
46.52000 176.094
46.53000 176.143
46.54000 176.462
46.55000 177.673
46.56000 178.955
46.57000 179.853
46.58000 174.681
46.59000 170.593
46.60000 169.205
46.61000 171.957
46.62000 174.753
46.63000 174.973
46.64000 172.594
46.65000 170.230
46.66000 169.880
46.67000 170.852
46.68000 171.776
46.69000 171.418
46.70000 170.484
46.71000 169.590
46.72000 169.214
46.73000 168.996
46.74000 168.799
46.75000 169.212
46.76000 169.683
46.77000 170.511
46.78000 173.039
46.79000 175.789
46.80000 177.147
46.81000 174.055
46.82000 170.630
46.83000 168.257
46.84000 168.071
46.85000 167.989
46.86000 167.879
46.87000 167.730
46.88000 167.580
46.89000 166.568
46.90000 164.723
46.91000 162.892
46.92000 163.819
46.93000 166.465
46.94000 168.998
46.95000 168.707
46.96000 167.191
46.97000 165.903
46.98000 167.402
46.99000 169.724
47.00000 171.804
47.01000 173.866
47.02000 175.662
47.03000 176.076
47.04000 170.132
47.05000 163.397
47.06000 158.538
47.07000 159.464
47.08000 160.800
47.09000 161.714
47.10000 168.384
47.11000 173.517
47.12000 175.052
47.13000 171.462
47.14000 167.833
47.15000 165.193
47.16000 163.471
47.17000 161.763
47.18000 163.587
47.19000 167.509
47.20000 171.373
47.21000 173.897
47.22000 175.858
47.23000 177.160
47.24000 170.846
47.25000 162.360
47.26000 154.802
47.27000 158.814
47.28000 164.205
47.29000 168.123
47.30000 165.526
47.31000 162.156
47.32000 159.503
47.33000 158.987
47.34000 158.614
47.35000 158.361
47.36000 167.307
47.37000 174.171
47.38000 174.413
47.39000 165.562
47.40000 156.664
47.41000 156.096
47.42000 162.971
47.43000 169.777
47.44000 174.851
47.45000 178.809
47.46000 182.343
47.47000 176.767
47.48000 167.504
47.49000 158.906
47.50000 157.584
47.51000 158.264
47.52000 158.866
47.53000 162.111
47.54000 165.336
47.55000 167.033
47.56000 162.221
47.57000 156.671
47.58000 152.757
47.59000 153.548
47.60000 154.633
47.61000 155.359
47.62000 155.216
47.63000 155.094
47.64000 155.242
47.65000 155.747
47.66000 156.258
47.67000 159.911
47.68000 166.263
47.69000 172.542
47.70000 171.702
47.71000 166.900
47.72000 162.240
47.73000 160.429
47.74000 159.730
47.75000 159.156
47.76000 159.873
47.77000 160.934
47.78000 161.868
47.79000 156.311
47.80000 150.547
47.81000 145.998
47.82000 146.443
47.83000 147.427
47.84000 147.998
47.85000 147.422
47.86000 146.778
47.87000 146.354
47.88000 148.497
47.89000 150.122
47.90000 153.159
47.91000 157.994
47.92000 162.823
47.93000 162.158
47.94000 156.952
47.95000 151.815
47.96000 150.970
47.97000 152.459
47.98000 154.025
47.99000 157.051
48.00000 160.626
48.01000 163.745
48.02000 162.347
48.03000 159.793
48.04000 157.557
48.05000 154.626
48.06000 152.012
48.07000 149.494
48.08000 147.359
48.09000 145.263
48.10000 144.286
48.11000 146.312
48.12000 148.501
48.13000 149.928
48.14000 148.715
48.15000 147.783
48.16000 152.001
48.17000 162.527
48.18000 173.036
48.19000 173.347
48.20000 165.548
48.21000 157.864
48.22000 155.747
48.23000 156.576
48.24000 157.441
48.25000 158.936
48.26000 160.660
48.27000 161.929
48.28000 158.914
48.29000 154.843
48.30000 151.299
48.31000 149.378
48.32000 147.960
48.33000 148.222
48.34000 154.893
48.35000 162.191
48.36000 166.100
48.37000 161.236
48.38000 155.923
48.39000 152.508
48.40000 158.849
48.41000 163.610
48.42000 165.209
48.43000 163.079
48.44000 160.943
48.45000 158.566
48.46000 156.006
48.47000 153.487
48.48000 156.955
48.49000 163.293
48.50000 169.360
48.51000 170.981
48.52000 171.037
48.53000 170.765
48.54000 167.542
48.55000 163.617
48.56000 160.221
48.57000 155.259
48.58000 150.834
48.59000 148.090
48.60000 151.534
48.61000 155.551
48.62000 157.327
48.63000 153.497
48.64000 149.400
48.65000 146.802
48.66000 151.681
48.67000 155.311
48.68000 159.211
48.69000 163.418
48.70000 167.589
48.71000 165.348
48.72000 158.379
48.73000 151.540
48.74000 151.607
48.75000 154.985
48.76000 158.093
48.77000 157.052
48.78000 154.602
48.79000 152.208
48.80000 150.291
48.81000 148.483
48.82000 146.928
48.83000 149.283
48.84000 151.766
48.85000 153.676
48.86000 153.548
48.87000 153.241
48.88000 153.651
48.89000 155.790
48.90000 158.006
48.91000 159.391
48.92000 159.228
48.93000 159.094
48.94000 158.559
48.95000 157.587
48.96000 156.619
48.97000 156.261
48.98000 156.336
48.99000 156.411
49.00000 158.037
49.01000 160.318
49.02000 162.165
49.03000 157.764
49.04000 151.314
49.05000 145.957
49.06000 149.519
49.07000 155.046
49.08000 159.769
49.09000 154.133
49.10000 148.146
49.11000 143.950
49.12000 145.880
49.13000 148.321
49.14000 150.706
49.15000 152.958
49.16000 155.204
49.17000 156.589
49.18000 155.376
49.19000 154.482
49.20000 154.265
49.21000 154.754
49.22000 155.229
49.23000 153.986
49.24000 151.567
49.25000 149.203
49.26000 148.553
49.27000 148.691
49.28000 148.923
49.29000 150.426
49.30000 152.330
49.31000 154.088
49.32000 154.701
49.33000 155.071
49.34000 155.385
49.35000 157.022
49.36000 158.546
49.37000 159.766
49.38000 159.983
49.39000 160.121
49.40000 158.992
49.41000 155.008
49.42000 150.917
49.43000 148.434
49.44000 152.774
49.45000 155.923
49.46000 156.662
49.47000 154.979
49.48000 153.309
49.49000 152.925
49.50000 153.389
49.51000 153.842
49.52000 151.906
49.53000 149.036
49.54000 146.335
49.55000 145.802
49.56000 145.932
49.57000 145.955
49.58000 145.188
49.59000 144.260
49.60000 143.477
49.61000 149.200
49.62000 154.683
49.63000 157.430
49.64000 151.455
49.65000 144.829
49.66000 140.871
49.67000 142.714
49.68000 144.758
49.69000 145.980
49.70000 149.678
49.71000 152.318
49.72000 152.405
49.73000 150.029
49.74000 147.639
49.75000 144.081
49.76000 139.779
49.77000 135.594
49.78000 136.246
49.79000 138.857
49.80000 141.580
49.81000 145.667
49.82000 150.157
49.83000 154.281
49.84000 155.801
49.85000 156.810
49.86000 157.654
49.87000 157.651
49.88000 157.560
49.89000 156.920
49.90000 154.586
49.91000 152.133
49.92000 151.350
49.93000 154.073
49.94000 156.906
49.95000 158.574
49.96000 155.516
49.97000 153.334
49.98000 150.236
49.99000 146.289
50.00000 142.384
50.01000 141.421
50.02000 142.266
50.03000 143.085
50.04000 145.598
50.05000 148.653
50.06000 151.358
50.07000 150.042
50.08000 147.582
50.09000 145.541
50.10000 146.358
50.11000 147.713
50.12000 148.841
50.13000 147.536
50.14000 146.217
50.15000 145.162
50.16000 144.885
50.17000 144.660
50.18000 145.346
50.19000 147.876
50.20000 150.460
50.21000 151.957
50.22000 156.691
50.23000 160.021
50.24000 159.642
50.25000 155.960
50.26000 152.255
50.27000 147.169
50.28000 141.265
50.29000 135.552
50.30000 141.547
50.31000 151.675
50.32000 161.089
50.33000 162.712
50.34000 162.199
50.35000 161.958
50.36000 163.505
50.37000 165.377
50.38000 166.921
50.39000 158.264
50.40000 150.185
50.41000 145.425
50.42000 150.179
50.43000 155.525
50.44000 159.981
50.45000 162.695
50.46000 165.363
50.47000 166.884
50.48000 165.423
50.49000 164.395
50.50000 163.509
50.51000 162.745
50.52000 161.980
50.53000 161.190
50.54000 160.384
50.55000 159.607
50.56000 160.923
50.57000 162.929
50.58000 164.719
50.59000 164.276
50.60000 163.242
50.61000 161.986
50.62000 159.339
50.63000 156.450
50.64000 154.083
50.65000 153.662
50.66000 153.488
50.67000 153.844
50.68000 155.669
50.69000 157.579
50.70000 159.699
50.71000 162.219
50.72000 164.748
50.73000 166.164
50.74000 160.943
50.75000 157.316
50.76000 156.788
50.77000 158.814
50.78000 160.875
50.79000 164.646
50.80000 169.360
50.81000 173.896
50.82000 171.276
50.83000 166.293
50.84000 161.660
50.85000 160.472
50.86000 160.163
50.87000 159.452
50.88000 156.319
50.89000 152.782
50.90000 149.906
50.91000 155.905
50.92000 161.544
50.93000 164.127
50.94000 158.546
50.95000 152.519
50.96000 148.661
50.97000 148.759
50.98000 148.940
50.99000 149.040
51.00000 152.921
51.01000 155.589
51.02000 154.744
51.03000 151.112
51.04000 147.536
51.05000 146.363
51.06000 146.468
51.07000 146.569
51.08000 144.855
51.09000 142.637
51.10000 140.679
51.11000 141.154
51.12000 142.227
51.13000 143.398
51.14000 145.133
51.15000 146.958
51.16000 148.431
51.17000 149.846
51.18000 150.992
51.19000 151.679
51.20000 151.185
51.21000 150.630
51.22000 150.236
51.23000 150.122
51.24000 150.014
51.25000 149.955
51.26000 152.151
51.27000 153.650
51.28000 153.628
51.29000 152.445
51.30000 151.249
51.31000 149.551
51.32000 147.595
51.33000 145.724
51.34000 143.201
51.35000 140.640
51.36000 138.398
51.37000 139.004
51.38000 140.284
51.39000 141.613
51.40000 143.211
51.41000 144.850
51.42000 146.162
51.43000 144.508
51.44000 142.948
51.45000 141.186
51.46000 138.918
51.47000 136.627
51.48000 135.362
51.49000 135.839
51.50000 136.345
51.51000 136.613
51.52000 143.924
51.53000 148.874
51.54000 148.967
51.55000 145.490
51.56000 142.112
51.57000 142.193
51.58000 143.991
51.59000 145.705
51.60000 143.905
51.61000 141.131
51.62000 138.792
51.63000 140.155
51.64000 142.362
51.65000 144.491
51.66000 146.210
51.67000 147.867
51.68000 149.183
51.69000 143.700
51.70000 138.807
51.71000 135.664
51.72000 136.736
51.73000 137.993
51.74000 139.064
51.75000 139.829
51.76000 140.589
51.77000 140.985
51.78000 132.968
51.79000 127.590
51.80000 128.229
51.81000 133.130
51.82000 137.905
51.83000 138.656
51.84000 137.480
51.85000 136.362
51.86000 133.206
51.87000 129.676
51.88000 126.924
51.89000 130.504
51.90000 135.474
51.91000 139.086
51.92000 135.731
51.93000 131.393
51.94000 127.979
51.95000 130.054
51.96000 132.082
51.97000 134.676
51.98000 138.587
51.99000 142.552
52.00000 144.031
52.01000 141.584
52.02000 139.088
52.03000 137.814
52.04000 137.415
52.05000 137.168
52.06000 139.254
52.07000 142.932
52.08000 146.484
52.09000 146.344
52.10000 144.496
52.11000 142.746
52.12000 142.278
52.13000 142.219
52.14000 142.439
52.15000 144.825
52.16000 147.668
52.17000 149.106
52.18000 143.613
52.19000 137.184
52.20000 132.168
52.21000 136.976
52.22000 141.424
52.23000 142.593
52.24000 136.398
52.25000 129.928
52.26000 127.246
52.27000 130.340
52.28000 133.494
52.29000 135.072
52.30000 142.040
52.31000 146.613
52.32000 144.252
52.33000 137.328
52.34000 130.686
52.35000 131.644
52.36000 135.996
52.37000 140.101
52.38000 140.421
52.39000 139.658
52.40000 139.143
52.41000 140.477
52.42000 142.187
52.43000 143.351
52.44000 141.928
52.45000 140.170
52.46000 138.811
52.47000 133.659
52.48000 129.347
52.49000 127.436
52.50000 130.732
52.51000 134.206
52.52000 134.743
52.53000 130.965
52.54000 127.149
52.55000 128.725
52.56000 135.483
52.57000 142.178
52.58000 143.715
52.59000 141.979
52.60000 140.353
52.61000 141.450
52.62000 143.720
52.63000 145.854
52.64000 144.730
52.65000 142.831
52.66000 140.930
52.67000 139.018
52.68000 137.104
52.69000 135.362
52.70000 134.407
52.71000 133.549
52.72000 132.892
52.73000 134.368
52.74000 135.652
52.75000 136.633
52.76000 136.980
52.77000 137.307
52.78000 138.180
52.79000 139.824
52.80000 141.473
52.81000 142.654
52.82000 143.404
52.83000 144.113
52.84000 141.936
52.85000 137.994
52.86000 134.224
52.87000 134.389
52.88000 136.194
52.89000 137.883
52.90000 137.579
52.91000 136.789
52.92000 135.840
52.93000 133.810
52.94000 131.578
52.95000 130.633
52.96000 135.350
52.97000 140.735
52.98000 144.824
52.99000 145.447
53.00000 145.757
53.01000 145.964
53.02000 145.967
53.03000 145.963
53.04000 144.001
53.05000 139.368
53.06000 134.721
53.07000 132.553
53.08000 132.585
53.09000 132.658
53.10000 135.297
53.11000 139.451
53.12000 143.492
53.13000 145.152
53.14000 145.853
53.15000 146.506
53.16000 143.490
53.17000 139.850
53.18000 137.017
53.19000 139.439
53.20000 142.811
53.21000 145.505
53.22000 145.321
53.23000 144.814
53.24000 144.432
53.25000 147.796
53.26000 150.608
53.27000 151.122
53.28000 147.151
53.29000 143.064
53.30000 142.757
53.31000 147.418
53.32000 152.097
53.33000 153.286
53.34000 151.499
53.35000 149.742
53.36000 149.530
53.37000 150.200
53.38000 150.879
53.39000 151.745
53.40000 152.684
53.41000 153.555
53.42000 151.634
53.43000 149.237
53.44000 147.040
53.45000 146.093
53.46000 145.364
53.47000 145.345
53.48000 148.222
53.49000 151.410
53.50000 153.785
53.51000 153.153
53.52000 152.525
53.53000 151.352
53.54000 149.154
53.55000 146.932
53.56000 146.390
53.57000 147.973
53.58000 149.561
53.59000 152.636
53.60000 156.916
53.61000 161.036
53.62000 157.483
53.63000 149.711
53.64000 142.353
53.65000 142.599
53.66000 145.699
53.67000 148.565
53.68000 149.809
53.69000 150.555
53.70000 150.561
53.71000 146.118
53.72000 140.935
53.73000 136.802
53.74000 136.804
53.75000 137.228
53.76000 137.540
53.77000 136.864
53.78000 136.299
53.79000 135.338
53.80000 133.657
53.81000 131.961
53.82000 133.282
53.83000 138.276
53.84000 143.270
53.85000 143.516
53.86000 140.027
53.87000 136.595
53.88000 135.574
53.89000 135.832
53.90000 136.046
53.91000 135.506
53.92000 134.692
53.93000 133.943
53.94000 133.551
53.95000 133.278
53.96000 133.162
53.97000 133.946
53.98000 134.874
53.99000 135.618
54.00000 135.667
54.01000 135.649
54.02000 135.636
54.03000 136.624
54.04000 137.424
54.05000 138.533
54.06000 140.181
54.07000 141.838
54.08000 141.680
54.09000 139.395
54.10000 137.112
54.11000 136.776
54.12000 137.914
54.13000 139.054
54.14000 140.266
54.15000 141.515
54.16000 142.607
54.17000 141.163
54.18000 138.832
54.19000 136.696
54.20000 139.607
54.21000 143.261
54.22000 146.251
54.23000 145.568
54.24000 144.321
54.25000 143.023
54.26000 141.536
54.27000 140.031
54.28000 138.944
54.29000 140.428
54.30000 141.660
54.31000 142.872
54.32000 144.052
54.33000 145.232
54.34000 144.628
54.35000 142.015
54.36000 139.409
54.37000 136.320
54.38000 132.906
54.39000 129.598
54.40000 129.982
54.41000 132.193
54.42000 134.023
54.43000 130.091
54.44000 124.213
54.45000 118.850
54.46000 124.701
54.47000 132.152
54.48000 138.399
54.49000 138.250
54.50000 137.162
54.51000 136.392
54.52000 136.746
54.53000 137.198
54.54000 137.521
54.55000 135.641
54.56000 134.132
54.57000 133.144
54.58000 133.005
54.59000 132.878
54.60000 132.009
54.61000 130.339
54.62000 128.675
54.63000 131.182
54.64000 136.578
54.65000 141.863
54.66000 143.615
54.67000 143.679
54.68000 143.564
54.69000 140.896
54.70000 137.397
54.71000 134.219
54.72000 134.085
54.73000 134.556
54.74000 134.926
54.75000 134.778
54.76000 134.558
54.77000 134.792
54.78000 136.574
54.79000 138.483
54.80000 139.833
54.81000 142.062
54.82000 143.782
54.83000 144.073
54.84000 142.113
54.85000 140.126
54.86000 139.694
54.87000 140.877
54.88000 142.055
54.89000 144.897
54.90000 148.825
54.91000 152.596
54.92000 151.870
54.93000 149.069
54.94000 146.060
54.95000 140.246
54.96000 133.548
54.97000 127.497
54.98000 134.521
54.99000 143.120
55.00000 149.989
55.01000 148.348
55.02000 145.561
55.03000 143.041
55.04000 141.394
55.05000 139.816
55.06000 138.713
55.07000 137.920
55.08000 137.330
55.09000 138.244
55.10000 141.442
55.11000 144.665
55.12000 145.836
55.13000 144.960
55.14000 144.089
55.15000 144.481
55.16000 145.683
55.17000 146.834
55.18000 146.607
55.19000 145.767
55.20000 145.102
55.21000 146.672
55.22000 148.920
55.23000 150.942
55.24000 152.380
55.25000 153.536
55.26000 153.824
55.27000 150.005
55.28000 145.658
55.29000 143.547
55.30000 148.524
55.31000 154.023
55.32000 157.823
55.33000 160.135
55.34000 161.834
55.35000 162.898
55.36000 163.029
55.37000 163.153
55.38000 163.073
55.39000 162.799
55.40000 162.527
55.41000 165.688
55.42000 170.931
55.43000 176.005
55.44000 176.935
55.45000 176.081
55.46000 175.691
55.47000 180.887
55.48000 187.719
55.49000 193.828
55.50000 195.830
55.51000 196.877
55.52000 198.227
55.53000 200.955
55.54000 203.853
55.55000 208.297
55.56000 217.468
55.57000 226.969
55.58000 233.455
55.59000 245.352
55.60000 254.376
55.61000 262.694
55.62000 270.016
55.63000 277.330
55.64000 283.764
55.65000 289.389
55.66000 294.964
55.67000 303.648
55.68000 314.025
55.69000 324.306
55.70000 332.413
55.71000 339.617
55.72000 347.193
55.73000 359.014
55.74000 372.036
55.75000 383.618
55.76000 395.141
55.77000 405.134
55.78000 416.198
55.79000 431.960
55.80000 448.272
55.81000 464.085
55.82000 478.421
55.83000 492.660
55.84000 502.265
55.85000 514.819
55.86000 524.222
55.87000 534.155
55.88000 544.809
55.89000 555.460
55.90000 558.289
55.91000 554.197
55.92000 550.148
55.93000 558.024
55.94000 572.594
55.95000 586.734
55.96000 591.819
55.97000 593.272
55.98000 593.960
55.99000 586.380
56.00000 576.547
56.01000 567.849
56.02000 555.958
56.03000 545.184
56.04000 535.178
56.05000 528.417
56.06000 522.018
56.07000 513.593
56.08000 499.390
56.09000 484.832
56.10000 475.133
56.11000 455.267
56.12000 440.368
56.13000 427.092
56.14000 415.941
56.15000 404.795
56.16000 391.419
56.17000 376.146
56.18000 361.054
56.19000 353.037
56.20000 349.138
56.21000 344.939
56.22000 334.847
56.23000 322.474
56.24000 310.379
56.25000 301.145
56.26000 292.662
56.27000 285.201
56.28000 273.198
56.29000 262.192
56.30000 251.294
56.31000 240.830
56.32000 230.413
56.33000 220.585
56.34000 212.376
56.35000 204.261
56.36000 198.924
56.37000 201.593
56.38000 203.696
56.39000 201.004
56.40000 192.266
56.41000 183.523
56.42000 180.448
56.43000 182.011
56.44000 183.553
56.45000 178.307
56.46000 169.587
56.47000 161.154
56.48000 157.993
56.49000 156.804
56.50000 155.753
56.51000 156.054
56.52000 156.698
56.53000 157.261
56.54000 153.714
56.55000 150.091
56.56000 146.887
56.57000 145.331
56.58000 143.942
56.59000 141.718
56.60000 137.276
56.61000 132.713
56.62000 129.752
56.63000 139.094
56.64000 146.123
56.65000 147.541
56.66000 142.151
56.67000 136.751
56.68000 133.137
56.69000 130.928
56.70000 128.754
56.71000 131.433
56.72000 136.521
56.73000 141.255
56.74000 139.901
56.75000 136.350
56.76000 133.031
56.77000 131.882
56.78000 131.263
56.79000 130.724
56.80000 131.806
56.81000 132.949
56.82000 134.057
56.83000 135.033
56.84000 135.997
56.85000 135.651
56.86000 131.945
56.87000 128.070
56.88000 125.588
56.89000 128.161
56.90000 130.103
56.91000 129.896
56.92000 127.178
56.93000 124.477
56.94000 126.269
56.95000 131.467
56.96000 136.577
56.97000 137.147
56.98000 135.455
56.99000 133.752
57.00000 131.870
57.01000 129.925
57.02000 128.145
57.03000 127.837
57.04000 127.874
57.05000 127.906
57.06000 131.931
57.07000 135.868
57.08000 138.357
57.09000 135.571
57.10000 132.302
57.11000 130.421
57.12000 131.980
57.13000 133.700
57.14000 134.786
57.15000 135.543
57.16000 136.088
57.17000 133.883
57.18000 128.590
57.19000 123.323
57.20000 122.600
57.21000 125.198
57.22000 127.747
57.23000 129.745
57.24000 131.409
57.25000 132.816
57.26000 130.338
57.27000 126.552
57.28000 123.154
57.29000 123.043
57.30000 123.675
57.31000 124.219
57.32000 125.100
57.33000 125.887
57.34000 126.391
57.35000 125.901
57.36000 125.324
57.37000 124.568
57.38000 123.382
57.39000 122.177
57.40000 121.427
57.41000 119.937
57.42000 118.856
57.43000 118.134
57.44000 117.800
57.45000 117.476
57.46000 118.320
57.47000 119.987
57.48000 121.619
57.49000 121.466
57.50000 120.502
57.51000 119.639
57.52000 120.198
57.53000 121.220
57.54000 122.088
57.55000 121.716
57.56000 121.073
57.57000 120.525
57.58000 121.596
57.59000 122.688
57.60000 122.861
57.61000 119.917
57.62000 116.717
57.63000 114.743
57.64000 115.600
57.65000 116.571
57.66000 117.168
57.67000 120.588
57.68000 123.064
57.69000 123.984
57.70000 123.290
57.71000 122.601
57.72000 122.462
57.73000 122.696
57.74000 122.925
57.75000 123.627
57.76000 124.507
57.77000 125.350
57.78000 125.685
57.79000 125.860
57.80000 126.240
57.81000 128.198
57.82000 130.488
57.83000 132.428
57.84000 124.500
57.85000 116.748
57.86000 111.015
57.87000 111.889
57.88000 113.277
57.89000 114.284
57.90000 114.442
57.91000 114.568
57.92000 114.644
57.93000 118.551
57.94000 121.362
57.95000 122.064
57.96000 120.666
57.97000 119.271
57.98000 118.103
57.99000 117.082
58.00000 116.087
58.01000 119.490
58.02000 124.600
58.03000 129.362
58.04000 129.711
58.05000 128.723
58.06000 127.767
58.07000 127.038
58.08000 126.355
58.09000 125.780
58.10000 121.892
58.11000 118.295
58.12000 116.365
58.13000 119.701
58.14000 123.424
58.15000 124.602
58.16000 120.293
58.17000 115.798
58.18000 113.121
58.19000 113.686
58.20000 114.106
58.21000 116.761
58.22000 121.548
58.23000 126.253
58.24000 124.491
58.25000 118.648
58.26000 112.969
58.27000 114.851
58.28000 119.723
58.29000 124.175
58.30000 123.592
58.31000 121.539
58.32000 119.583
58.33000 118.313
58.34000 117.177
58.35000 116.227
58.36000 115.246
58.37000 114.429
58.38000 114.503
58.39000 117.295
58.40000 120.275
58.41000 120.942
58.42000 116.793
58.43000 112.494
58.44000 109.974
58.45000 110.365
58.46000 110.656
58.47000 112.519
58.48000 115.824
58.49000 119.094
58.50000 119.945
58.51000 119.324
58.52000 118.723
58.53000 118.512
58.54000 118.466
58.55000 118.440
58.56000 118.647
58.57000 118.920
58.58000 119.156
58.59000 119.148
58.60000 119.094
58.61000 119.049
58.62000 121.295
58.63000 123.374
58.64000 123.980
58.65000 120.253
58.66000 116.244
58.67000 113.354
58.68000 112.711
58.69000 112.132
58.70000 111.798
58.71000 109.323
58.72000 107.584
58.73000 108.809
58.74000 112.647
58.75000 116.472
58.76000 119.466
58.77000 121.974
58.78000 124.399
58.79000 121.350
58.80000 116.405
58.81000 111.854
58.82000 111.539
58.83000 112.375
58.84000 113.566
58.85000 117.062
58.86000 120.970
58.87000 124.191
58.88000 119.661
58.89000 115.223
58.90000 112.248
58.91000 113.433
58.92000 114.872
58.93000 117.085
58.94000 120.800
58.95000 124.553
58.96000 126.682
58.97000 119.784
58.98000 114.959
58.99000 112.943
59.00000 113.309
59.01000 113.723
59.02000 116.659
59.03000 121.023
59.04000 125.231
59.05000 121.820
59.06000 115.844
59.07000 110.369
59.08000 110.027
59.09000 111.030
59.10000 112.508
59.11000 116.931
59.12000 121.862
59.13000 125.894
59.14000 119.618
59.15000 113.581
59.16000 109.139
59.17000 109.075
59.18000 109.263
59.19000 109.703
59.20000 110.617
59.21000 111.542
59.22000 112.057
59.23000 114.423
59.24000 116.061
59.25000 116.319
59.26000 115.452
59.27000 114.584
59.28000 113.639
59.29000 112.651
59.30000 111.701
59.31000 110.069
59.32000 108.301
59.33000 106.948
59.34000 109.639
59.35000 113.350
59.36000 116.424
59.37000 115.694
59.38000 114.336
59.39000 113.233
59.40000 111.881
59.41000 110.758
59.42000 110.008
59.43000 110.247
59.44000 110.539
59.45000 112.643
59.46000 118.020
59.47000 123.466
59.48000 126.449
59.49000 126.564
59.50000 126.636
59.51000 125.999
59.52000 124.804
59.53000 123.591
59.54000 121.638
59.55000 119.295
59.56000 117.048
59.57000 117.918
59.58000 119.779
59.59000 121.134
59.60000 117.807
59.61000 113.339
59.62000 109.718
59.63000 110.941
59.64000 112.932
59.65000 114.535
59.66000 112.070
59.67000 109.753
59.68000 109.836
59.69000 116.061
59.70000 122.593
59.71000 125.984
59.72000 123.897
59.73000 121.711
59.74000 120.535
59.75000 116.484
59.76000 113.721
59.77000 112.709
59.78000 113.020
59.79000 113.338
59.80000 113.880
59.81000 114.536
59.82000 115.164
59.83000 115.968
59.84000 116.773
59.85000 117.509
59.86000 117.635
59.87000 117.618
59.88000 117.854
59.89000 119.481
59.90000 121.319
59.91000 122.787
59.92000 124.172
59.93000 125.283
59.94000 125.160
59.95000 121.984
59.96000 118.666
59.97000 117.299
59.98000 119.217
59.99000 121.188
60.00000 122.229
60.01000 118.781
60.02000 116.440
60.03000 114.379
60.04000 112.523
60.05000 110.714
60.06000 110.543
60.07000 111.178
60.08000 111.782
60.09000 112.261
60.10000 112.667
60.11000 113.148
60.12000 114.266
60.13000 115.528
60.14000 116.366
60.15000 114.962
60.16000 113.233
60.17000 111.862
60.18000 115.732
60.19000 119.207
60.20000 121.072
60.21000 119.096
60.22000 116.955
60.23000 115.481
60.24000 115.090
60.25000 114.715
60.26000 114.521
60.27000 111.674
60.28000 109.781
60.29000 111.795
60.30000 116.549
60.31000 121.144
60.32000 120.782
60.33000 118.066
60.34000 115.488
60.35000 115.988
60.36000 117.369
60.37000 118.616
60.38000 118.777
60.39000 118.703
60.40000 118.254
60.41000 115.907
60.42000 113.295
60.43000 111.243
60.44000 111.558
60.45000 111.965
60.46000 112.775
60.47000 114.515
60.48000 116.293
60.49000 117.730
60.50000 118.636
60.51000 119.536
60.52000 119.993
60.53000 120.845
60.54000 121.425
60.55000 122.862
60.56000 124.879
60.57000 126.826
60.58000 126.753
60.59000 125.755
60.60000 124.810
60.61000 121.424
60.62000 117.610
60.63000 114.276
60.64000 114.640
60.65000 115.778
60.66000 116.870
60.67000 117.740
60.68000 118.581
60.69000 119.236
60.70000 120.603
60.71000 121.735
60.72000 121.165
60.73000 116.810
60.74000 112.315
60.75000 110.661
60.76000 113.296
60.77000 115.975
60.78000 117.373
60.79000 117.501
60.80000 117.663
60.81000 120.950
60.82000 126.273
60.83000 131.353
60.84000 130.047
60.85000 125.913
60.86000 122.017
60.87000 122.520
60.88000 124.197
60.89000 125.308
60.90000 122.267
60.91000 118.389
60.92000 115.172
60.93000 115.061
60.94000 115.348
60.95000 115.569
60.96000 116.308
60.97000 116.924
60.98000 116.496
60.99000 113.823
61.00000 111.075
61.01000 110.366
61.02000 112.626
61.03000 114.910
61.04000 117.811
61.05000 121.298
61.06000 124.671
61.07000 119.178
61.08000 108.108
61.09000 97.637
61.10000 101.682
61.11000 111.933
61.12000 121.559
61.13000 124.043
61.14000 124.412
61.15000 124.685
61.16000 124.289
61.17000 123.762
61.18000 123.033
61.19000 121.384
61.20000 119.624
61.21000 118.278
61.22000 117.205
61.23000 116.374
61.24000 116.461
61.25000 118.453
61.26000 120.505
61.27000 120.975
61.28000 119.228
61.29000 117.465
61.30000 119.129
61.31000 123.920
61.32000 128.635
61.33000 128.129
61.34000 124.456
61.35000 120.899
61.36000 119.943
61.37000 120.062
61.38000 120.172
61.39000 123.331
61.40000 126.977
61.41000 130.054
61.42000 129.296
61.43000 127.824
61.44000 126.834
61.45000 127.939
61.46000 129.289
61.47000 130.312
61.48000 135.095
61.49000 139.041
61.50000 144.199
61.51000 151.783
61.52000 159.436
61.53000 170.123
61.54000 184.914
61.55000 199.719
61.56000 209.195
61.57000 213.980
61.58000 218.782
61.59000 224.557
61.60000 230.903
61.61000 237.465
61.62000 248.554
61.63000 261.448
61.64000 273.460
61.65000 281.316
61.66000 287.405
61.67000 292.486
61.68000 291.067
61.69000 288.484
61.70000 286.468
61.71000 286.827
61.72000 287.450
61.73000 287.917
61.74000 278.874
61.75000 271.358
61.76000 264.808
61.77000 260.127
61.78000 255.494
61.79000 243.385
61.80000 221.544
61.81000 199.683
61.82000 183.844
61.83000 173.123
61.84000 162.456
61.85000 154.598
61.86000 148.326
61.87000 142.109
61.88000 136.957
61.89000 132.215
61.90000 127.816
61.91000 132.682
61.92000 139.245
61.93000 144.808
61.94000 144.179
61.95000 142.487
61.96000 139.889
61.97000 133.633
61.98000 126.990
61.99000 122.054
62.00000 119.675
62.01000 117.940
62.02000 118.295
62.03000 122.553
62.04000 126.900
62.05000 128.292
62.06000 125.982
62.07000 123.664
62.08000 123.847
62.09000 126.054
62.10000 128.232
62.11000 129.045
62.12000 129.115
62.13000 129.200
62.14000 129.563
62.15000 130.030
62.16000 130.461
62.17000 129.428
62.18000 128.171
62.19000 127.183
62.20000 127.795
62.21000 128.671
62.22000 128.879
62.23000 126.483
62.24000 123.826
62.25000 121.871
62.26000 119.335
62.27000 117.349
62.28000 117.353
62.29000 120.943
62.30000 124.606
62.31000 127.291
62.32000 128.798
62.33000 130.299
62.34000 130.218
62.35000 128.907
62.36000 127.586
62.37000 125.857
62.38000 123.914
62.39000 122.232
62.40000 124.987
62.41000 129.335
62.42000 133.334
62.43000 134.147
62.44000 134.182
62.45000 134.211
62.46000 134.205
62.47000 134.193
62.48000 133.825
62.49000 132.119
62.50000 130.284
62.51000 128.948
62.52000 135.453
62.53000 140.761
62.54000 142.211
62.55000 136.950
62.56000 131.569
62.57000 128.793
62.58000 129.040
62.59000 129.291
62.60000 128.939
62.61000 128.140
62.62000 127.383
62.63000 128.252
62.64000 129.947
62.65000 131.588
62.66000 132.371
62.67000 132.857
62.68000 133.302
62.69000 127.026
62.70000 120.043
62.71000 114.968
62.72000 120.333
62.73000 127.282
62.74000 132.581
62.75000 131.906
62.76000 130.688
62.77000 129.810
62.78000 127.705
62.79000 126.049
62.80000 125.473
62.81000 126.708
62.82000 127.973
62.83000 129.307
62.84000 130.720
62.85000 132.128
62.86000 134.546
62.87000 137.669
62.88000 140.594
62.89000 136.769
62.90000 129.635
62.91000 123.026
62.92000 124.268
62.93000 128.138
62.94000 131.665
62.95000 136.940
62.96000 141.963
62.97000 145.796
62.98000 143.361
62.99000 140.015
63.00000 137.579
63.01000 138.323
63.02000 139.341
63.03000 140.066
63.04000 131.335
63.05000 124.371
63.06000 122.310
63.07000 128.184
63.08000 134.167
63.09000 135.512
63.10000 131.887
63.11000 128.277
63.12000 128.215
63.13000 130.611
63.14000 132.904
63.15000 132.031
63.16000 129.659
63.17000 127.491
63.18000 128.179
63.19000 129.791
63.20000 131.253
63.21000 130.926
63.22000 130.296
63.23000 129.887
63.24000 130.599
63.25000 131.468
63.26000 131.175
63.27000 126.966
63.28000 122.438
63.29000 119.246
63.30000 122.057
63.31000 124.369
63.32000 125.837
63.33000 125.988
63.34000 126.123
63.35000 126.020
63.36000 125.672
63.37000 125.327
63.38000 126.408
63.39000 128.424
63.40000 130.429
63.41000 132.106
63.42000 133.632
63.43000 135.114
63.44000 136.012
63.45000 136.728
63.46000 137.374
63.47000 135.616
63.48000 133.632
63.49000 131.996
63.50000 132.060
63.51000 132.349
63.52000 132.451
63.53000 131.945
63.54000 131.392
63.55000 131.006
63.56000 129.965
63.57000 129.161
63.58000 130.157
63.59000 133.860
63.60000 137.591
63.61000 136.468
63.62000 130.549
63.63000 124.670
63.64000 125.206
63.65000 129.842
63.66000 134.325
63.67000 134.802
63.68000 133.512
63.69000 132.408
63.70000 133.637
63.71000 135.569
63.72000 137.303
63.73000 137.638
63.74000 137.685
63.75000 137.897
63.76000 138.883
63.77000 139.966
63.78000 141.044
63.79000 142.104
63.80000 143.163
63.81000 143.892
63.82000 144.345
63.83000 144.679
63.84000 146.559
63.85000 150.683
63.86000 154.825
63.87000 151.642
63.88000 141.511
63.89000 131.459
63.90000 129.461
63.91000 132.458
63.92000 135.411
63.93000 137.294
63.94000 138.722
63.95000 139.988
63.96000 139.343
63.97000 138.143
63.98000 137.072
63.99000 138.443
64.00000 140.049
64.01000 141.540
64.02000 142.516
64.03000 143.430
64.04000 144.470
64.05000 145.894
64.06000 147.345
64.07000 148.332
64.08000 145.127
64.09000 142.638
64.10000 140.642
64.11000 139.335
64.12000 138.035
64.13000 138.819
64.14000 141.502
64.15000 144.160
64.16000 145.885
64.17000 147.023
64.18000 148.208
64.19000 150.424
64.20000 153.065
64.21000 155.303
64.22000 153.017
64.23000 149.464
64.24000 146.308
64.25000 143.245
64.26000 140.605
64.27000 139.234
64.28000 143.371
64.29000 148.148
64.30000 152.008
64.31000 153.187
64.32000 154.193
64.33000 154.870
64.34000 157.375
64.35000 159.275
64.36000 158.194
64.37000 153.097
64.38000 147.983
64.39000 146.357
64.40000 147.788
64.41000 149.203
64.42000 147.912
64.43000 145.106
64.44000 142.446
64.45000 142.795
64.46000 144.339
64.47000 146.101
64.48000 150.187
64.49000 154.900
64.50000 159.063
64.51000 159.521
64.52000 159.345
64.53000 159.470
64.54000 160.848
64.55000 162.365
64.56000 162.352
64.57000 158.016
64.58000 153.418
64.59000 150.365
64.60000 153.292
64.61000 155.567
64.62000 158.669
64.63000 162.846
64.64000 167.020
64.65000 167.619
64.66000 165.205
64.67000 162.821
64.68000 162.441
64.69000 163.171
64.70000 163.904
64.71000 164.693
64.72000 165.504
64.73000 166.296
64.74000 166.897
64.75000 167.447
64.76000 167.930
64.77000 165.557
64.78000 163.098
64.79000 161.733
64.80000 164.786
64.81000 168.304
64.82000 171.393
64.83000 173.315
64.84000 175.171
64.85000 176.388
64.86000 178.798
64.87000 180.590
64.88000 183.166
64.89000 186.721
64.90000 190.266
64.91000 189.082
64.92000 184.065
64.93000 179.117
64.94000 176.925
64.95000 176.251
64.96000 175.750
64.97000 178.386
64.98000 182.186
64.99000 185.785
65.00000 187.452
65.01000 188.634
65.02000 189.666
65.03000 184.211
65.04000 178.630
65.05000 175.525
65.06000 182.042
65.07000 189.523
65.08000 194.697
65.09000 193.793
65.10000 192.567
65.11000 191.774
65.12000 194.790
65.13000 197.052
65.14000 197.423
65.15000 195.522
65.16000 193.623
65.17000 193.863
65.18000 195.771
65.19000 197.649
65.20000 202.218
65.21000 208.012
65.22000 213.404
65.23000 212.003
65.24000 208.171
65.25000 205.196
65.26000 210.091
65.27000 216.890
65.28000 222.792
65.29000 229.503
65.30000 235.331
65.31000 239.350
65.32000 236.597
65.33000 233.199
65.34000 232.871
65.35000 240.352
65.36000 248.220
65.37000 253.242
65.38000 255.832
65.39000 257.685
65.40000 259.015
65.41000 259.740
65.42000 260.466
65.43000 261.588
65.44000 263.007
65.45000 264.402
65.46000 269.011
65.47000 275.034
65.48000 280.925
65.49000 284.720
65.50000 287.790
65.51000 290.750
65.52000 292.745
65.53000 294.516
65.54000 296.044
65.55000 308.550
65.56000 320.567
65.57000 331.880
65.58000 340.652
65.59000 349.193
65.60000 358.869
65.61000 371.331
65.62000 383.921
65.63000 391.846
65.64000 431.353
65.65000 460.294
65.66000 495.317
65.67000 537.097
65.68000 579.025
65.69000 643.569
65.70000 724.481
65.71000 803.814
65.72000 911.942
65.73000 1029.605
65.74000 1147.295
65.75000 1265.381
65.76000 1383.600
65.77000 1498.587
65.78000 1586.582
65.79000 1668.518
65.80000 1738.757
65.81000 1790.770
65.82000 1832.467
65.83000 1870.553
65.84000 1896.053
65.85000 1920.475
65.86000 1939.944
65.87000 1947.666
65.88000 1954.887
65.89000 1959.369
65.90000 1913.309
65.91000 1879.672
65.92000 1828.844
65.93000 1759.654
65.94000 1690.217
65.95000 1589.623
65.96000 1467.304
65.97000 1347.626
65.98000 1223.023
65.99000 1101.209
66.00000 981.024
66.01000 883.642
66.02000 793.604
66.03000 705.546
66.04000 633.274
66.05000 564.415
66.06000 505.768
66.07000 477.816
66.08000 457.893
66.09000 438.113
66.10000 418.814
66.11000 399.555
66.12000 384.834
66.13000 380.510
66.14000 376.596
66.15000 374.202
66.16000 364.018
66.17000 356.666
66.18000 354.524
66.19000 357.728
66.20000 360.987
66.21000 370.169
66.22000 383.332
66.23000 396.182
66.24000 399.072
66.25000 397.493
66.26000 396.993
66.27000 410.735
66.28000 428.905
66.29000 447.902
66.30000 473.206
66.31000 499.823
66.32000 522.341
66.33000 554.063
66.34000 581.634
66.35000 602.023
66.36000 599.113
66.37000 594.416
66.38000 593.635
66.39000 601.519
66.40000 609.716
66.41000 614.655
66.42000 621.875
66.43000 627.029
66.44000 628.590
66.45000 626.615
66.46000 624.520
66.47000 611.668
66.48000 591.844
66.49000 572.538
66.50000 552.691
66.51000 533.546
66.52000 514.210
66.53000 492.506
66.54000 470.090
66.55000 448.154
66.56000 429.716
66.57000 411.979
66.58000 397.074
66.59000 394.038
66.60000 392.762
66.61000 389.522
66.62000 380.134
66.63000 370.301
66.64000 362.853
66.65000 360.503
66.66000 358.321
66.67000 357.027
66.68000 353.015
66.69000 350.161
66.70000 349.441
66.71000 350.739
66.72000 352.016
66.73000 351.766
66.74000 350.560
66.75000 349.390
66.76000 349.862
66.77000 350.975
66.78000 351.289
66.79000 342.166
66.80000 330.311
66.81000 320.741
66.82000 327.113
66.83000 336.553
66.84000 344.430
66.85000 345.506
66.86000 345.716
66.87000 345.305
66.88000 343.017
66.89000 340.602
66.90000 341.390
66.91000 348.787
66.92000 356.384
66.93000 360.819
66.94000 369.847
66.95000 376.215
66.96000 375.826
66.97000 369.301
66.98000 362.846
66.99000 361.072
67.00000 362.121
67.01000 363.137
67.02000 357.921
67.03000 350.562
67.04000 344.519
67.05000 353.227
67.06000 366.053
67.07000 377.082
67.08000 376.102
67.09000 372.901
67.10000 370.249
67.11000 370.083
67.12000 370.183
67.13000 371.304
67.14000 375.406
67.15000 379.700
67.16000 382.876
67.17000 383.828
67.18000 384.718
67.19000 385.229
67.20000 376.620
67.21000 370.575
67.22000 371.477
67.23000 378.445
67.24000 385.428
67.25000 393.219
67.26000 401.481
67.27000 409.465
67.28000 405.594
67.29000 397.511
67.30000 390.095
67.31000 389.773
67.32000 391.361
67.33000 393.092
67.34000 395.747
67.35000 398.566
67.36000 400.884
67.37000 399.425
67.38000 397.884
67.39000 397.194
67.40000 398.904
67.41000 400.758
67.42000 401.586
67.43000 400.440
67.44000 399.246
67.45000 398.571
67.46000 404.110
67.47000 407.982
67.48000 414.112
67.49000 422.139
67.50000 429.966
67.51000 427.612
67.52000 419.542
67.53000 411.765
67.54000 412.599
67.55000 416.480
67.56000 420.398
67.57000 424.680
67.58000 429.056
67.59000 432.157
67.60000 427.427
67.61000 421.360
67.62000 416.409
67.63000 424.949
67.64000 433.094
67.65000 438.808
67.66000 437.910
67.67000 436.639
67.68000 435.933
67.69000 436.277
67.70000 436.643
67.71000 436.847
67.72000 440.836
67.73000 443.593
67.74000 444.078
67.75000 442.728
67.76000 441.400
67.77000 441.075
67.78000 441.292
67.79000 441.501
67.80000 450.211
67.81000 461.309
67.82000 471.364
67.83000 471.396
67.84000 468.921
67.85000 467.149
67.86000 469.524
67.87000 472.579
67.88000 475.053
67.89000 476.181
67.90000 476.990
67.91000 476.672
67.92000 473.393
67.93000 469.959
67.94000 470.529
67.95000 478.273
67.96000 486.159
67.97000 490.462
67.98000 480.918
67.99000 474.398
68.00000 481.492
68.01000 499.174
68.02000 516.585
68.03000 522.883
68.04000 523.372
68.05000 523.839
68.06000 523.675
68.07000 523.312
68.08000 522.702
68.09000 519.835
68.10000 516.424
68.11000 513.020
68.12000 509.660
68.13000 506.307
68.14000 503.613
68.15000 516.723
68.16000 528.564
68.17000 538.003
68.18000 541.350
68.19000 544.398
68.20000 545.521
68.21000 543.317
68.22000 541.054
68.23000 539.842
68.24000 546.604
68.25000 551.234
68.26000 557.665
68.27000 565.446
68.28000 573.257
68.29000 582.227
68.30000 591.780
68.31000 600.903
68.32000 595.416
68.33000 585.640
68.34000 577.713
68.35000 585.906
68.36000 597.846
68.37000 608.202
68.38000 609.946
68.39000 610.394
68.40000 610.751
68.41000 619.579
68.42000 627.316
68.43000 632.848
68.44000 632.978
68.45000 632.862
68.46000 636.769
68.47000 647.387
68.48000 658.109
68.49000 663.746
68.50000 680.698
68.51000 692.157
68.52000 697.534
68.53000 698.523
68.54000 699.841
68.55000 712.177
68.56000 729.885
68.57000 746.738
68.58000 768.669
68.59000 790.533
68.60000 813.964
68.61000 850.437
68.62000 889.827
68.63000 928.823
68.64000 965.759
68.65000 1002.398
68.66000 1031.357
68.67000 1073.006
68.68000 1107.318
68.69000 1145.191
68.70000 1191.482
68.71000 1238.130
68.72000 1281.385
68.73000 1319.181
68.74000 1356.904
68.75000 1376.356
68.76000 1439.887
68.77000 1482.701
68.78000 1527.232
68.79000 1572.956
68.80000 1618.674
68.81000 1664.231
68.82000 1709.712
68.83000 1752.849
68.84000 1821.342
68.85000 1891.999
68.86000 1967.933
68.87000 2085.792
68.88000 2212.683
68.89000 2377.945
68.90000 2736.110
68.91000 3120.915
68.92000 3422.482
68.93000 4734.094
68.94000 5847.534
68.95000 7329.043
68.96000 9651.257
68.97000 12006.313
68.98000 14803.131
68.99000 18285.430
69.00000 21775.598
69.01000 23539.822
69.02000 28286.367
69.03000 31456.342
69.04000 33999.707
69.05000 36123.191
69.06000 38214.852
69.07000 39416.125
69.08000 40212.742
69.09000 40965.648
69.10000 41631.309
69.11000 42217.805
69.12000 42827.082
69.13000 43609.363
69.14000 44427.512
69.15000 45195.676
69.16000 45722.125
69.17000 46216.641
69.18000 46600.816
69.19000 45628.266
69.20000 44772.289
69.21000 43370.668
69.22000 40765.523
69.23000 38117.113
69.24000 35477.594
69.25000 32851.375
69.26000 30225.314
69.27000 28065.590
69.28000 26363.451
69.29000 24667.309
69.30000 23499.367
69.31000 22672.693
69.32000 21860.967
69.33000 21434.088
69.34000 21176.109
69.35000 20933.178
69.36000 20378.814
69.37000 19786.523
69.38000 19127.539
69.39000 17984.139
69.40000 16744.115
69.41000 15393.979
69.42000 13531.340
69.43000 11603.984
69.44000 10120.017
69.45000 8304.907
69.46000 6849.104
69.47000 5548.665
69.48000 4579.134
69.49000 3620.508
69.50000 2875.365
69.51000 2438.105
69.52000 2003.368
69.53000 1710.461
69.54000 1551.230
69.55000 1392.650
69.56000 1283.243
69.57000 1204.474
69.58000 1127.180
69.59000 1084.907
69.60000 1057.479
69.61000 1031.747
69.62000 978.515
69.63000 922.786
69.64000 871.513
69.65000 851.213
69.66000 836.853
69.67000 820.285
69.68000 793.823
69.69000 766.167
69.70000 745.068
69.71000 723.070
69.72000 705.691
69.73000 690.229
69.74000 678.709
69.75000 667.308
69.76000 657.972
69.77000 651.506
69.78000 645.061
69.79000 638.707
69.80000 632.440
69.81000 626.119
69.82000 616.216
69.83000 604.161
69.84000 592.264
69.85000 583.875
69.86000 576.921
69.87000 570.423
69.88000 566.982
69.89000 564.631
69.90000 560.434
69.91000 543.945
69.92000 525.189
69.93000 509.981
69.94000 510.083
69.95000 511.947
69.96000 513.355
69.97000 495.069
69.98000 479.746
69.99000 472.857
70.00000 482.716
