20.00000 477.172
20.01000 477.997
20.02000 478.941
20.03000 479.031
20.04000 475.765
20.05000 472.158
20.06000 469.497
20.07000 462.996
20.08000 457.799
20.09000 455.313
20.10000 457.757
20.11000 460.305
20.12000 466.619
20.13000 477.520
20.14000 488.412
20.15000 489.559
20.16000 483.037
20.17000 476.546
20.18000 471.419
20.19000 467.017
20.20000 462.622
20.21000 458.365
20.22000 454.158
20.23000 450.284
20.24000 454.425
20.25000 459.886
20.26000 465.585
20.27000 472.653
20.28000 479.940
20.29000 485.228
20.30000 482.936
20.31000 479.909
20.32000 477.699
20.33000 466.295
20.34000 457.146
20.35000 454.930
20.36000 464.883
20.37000 475.063
20.38000 478.199
20.39000 473.085
20.40000 467.971
20.41000 464.599
20.42000 462.565
20.43000 460.597
20.44000 461.161
20.45000 463.021
20.46000 465.056
20.47000 469.912
20.48000 475.756
20.49000 481.112
20.50000 468.497
20.51000 453.483
20.52000 441.662
20.53000 447.506
20.54000 456.058
20.55000 463.326
20.56000 465.894
20.57000 468.030
20.58000 469.573
20.59000 469.577
20.60000 469.524
20.61000 469.440
20.62000 469.302
20.63000 469.164
20.64000 467.540
20.65000 464.244
20.66000 460.957
20.67000 458.782
20.68000 457.432
20.69000 456.106
20.70000 455.624
20.71000 455.561
20.72000 455.533
20.73000 456.045
20.74000 456.738
20.75000 457.371
20.76000 453.303
20.77000 448.746
20.78000 444.362
20.79000 440.894
20.80000 437.560
20.81000 437.557
20.82000 449.304
20.83000 462.077
20.84000 471.206
20.85000 466.152
20.86000 461.822
20.87000 459.697
20.88000 461.173
20.89000 462.700
20.90000 463.805
20.91000 464.453
20.92000 465.098
20.93000 465.985
20.94000 467.031
20.95000 468.034
20.96000 467.670
20.97000 466.652
20.98000 465.908
20.99000 469.079
21.00000 473.527
21.01000 477.566
21.02000 476.567
21.03000 474.711
21.04000 473.665
21.05000 476.764
21.06000 480.446
21.07000 481.861
21.08000 475.557
21.09000 468.614
21.10000 463.707
21.11000 460.221
21.12000 457.617
21.13000 455.154
21.14000 452.914
21.15000 450.676
21.16000 453.658
21.17000 462.069
21.18000 470.436
21.19000 471.958
21.20000 468.861
21.21000 465.704
21.22000 460.830
21.23000 455.163
21.24000 450.094
21.25000 453.078
21.26000 458.596
21.27000 463.582
21.28000 464.633
21.29000 464.828
21.30000 465.130
21.31000 465.958
21.32000 466.857
21.33000 467.094
21.34000 465.161
21.35000 463.057
21.36000 461.586
21.37000 472.789
21.38000 481.610
21.39000 481.048
21.40000 466.230
21.41000 451.263
21.42000 447.271
21.43000 454.234
21.44000 461.152
21.45000 462.414
21.46000 460.000
21.47000 457.677
21.48000 457.787
21.49000 458.981
21.50000 460.519
21.51000 466.436
21.52000 473.683
21.53000 480.199
21.54000 481.001
21.55000 480.690
21.56000 480.242
21.57000 479.153
21.58000 477.980
21.59000 475.780
21.60000 470.321
21.61000 464.622
21.62000 460.684
21.63000 462.544
21.64000 464.092
21.65000 464.728
21.66000 464.025
21.67000 463.312
21.68000 465.150
21.69000 469.434
21.70000 473.686
21.71000 480.861
21.72000 489.735
21.73000 498.271
21.74000 498.515
21.75000 495.192
21.76000 491.935
21.77000 489.475
21.78000 487.249
21.79000 485.258
21.80000 489.959
21.81000 495.195
21.82000 500.601
21.83000 506.776
21.84000 513.047
21.85000 519.901
21.86000 528.541
21.87000 537.306
21.88000 543.290
21.89000 544.213
21.90000 544.784
21.91000 542.263
21.92000 535.375
21.93000 528.460
21.94000 529.036
21.95000 536.510
21.96000 543.917
21.97000 548.079
21.98000 550.220
21.99000 552.687
22.00000 562.581
22.01000 575.561
22.02000 587.646
22.03000 589.526
22.04000 588.523
22.05000 587.631
22.06000 579.720
22.07000 571.710
22.08000 563.255
22.09000 552.849
22.10000 542.215
22.11000 533.189
22.12000 528.908
22.13000 524.939
22.14000 522.261
22.15000 538.040
22.16000 550.172
22.17000 555.260
22.18000 550.768
22.19000 546.218
22.20000 538.424
22.21000 527.758
22.22000 517.202
22.23000 516.497
22.24000 521.481
22.25000 526.074
22.26000 522.433
22.27000 515.490
22.28000 508.816
22.29000 505.071
22.30000 502.124
22.31000 499.516
22.32000 482.946
22.33000 466.448
22.34000 453.002
22.35000 452.445
22.36000 453.331
22.37000 455.578
22.38000 461.705
22.39000 468.071
22.40000 472.312
22.41000 466.294
22.42000 461.644
22.43000 456.600
22.44000 451.040
22.45000 445.491
22.46000 447.797
22.47000 456.786
22.48000 465.669
22.49000 465.018
22.50000 459.100
22.51000 453.429
22.52000 452.615
22.53000 453.684
22.54000 454.424
22.55000 451.801
22.56000 448.293
22.57000 445.207
22.58000 440.207
22.59000 435.620
22.60000 433.592
22.61000 441.980
22.62000 451.480
22.63000 454.919
22.64000 441.677
22.65000 427.472
22.66000 418.129
22.67000 423.386
22.68000 427.506
22.69000 431.093
22.70000 434.008
22.71000 436.918
22.72000 438.626
22.73000 439.352
22.74000 440.067
22.75000 444.156
22.76000 449.933
22.77000 455.068
22.78000 448.448
22.79000 437.431
22.80000 427.648
22.81000 429.917
22.82000 435.240
22.83000 439.895
22.84000 438.841
22.85000 437.126
22.86000 436.262
22.87000 438.732
22.88000 441.541
22.89000 444.028
22.90000 445.659
22.91000 447.245
22.92000 448.274
22.93000 449.340
22.94000 450.121
22.95000 447.915
22.96000 442.084
22.97000 436.256
22.98000 433.478
22.99000 433.105
23.00000 432.737
23.01000 438.296
23.02000 446.727
23.03000 454.488
23.04000 450.765
23.05000 442.893
23.06000 435.504
23.07000 432.603
23.08000 430.798
23.09000 429.229
23.10000 427.944
23.11000 426.887
23.12000 425.966
23.13000 425.564
23.14000 425.211
23.15000 424.424
23.16000 422.522
23.17000 420.564
23.18000 419.310
23.19000 426.396
23.20000 431.670
23.21000 431.487
23.22000 424.930
23.23000 418.406
23.24000 420.905
23.25000 430.251
23.26000 439.436
23.27000 440.701
23.28000 438.010
23.29000 435.341
23.30000 433.002
23.31000 430.779
23.32000 428.879
23.33000 429.850
23.34000 431.497
23.35000 432.920
23.36000 432.815
23.37000 432.527
23.38000 431.993
23.39000 430.561
23.40000 429.046
23.41000 429.390
23.42000 434.337
23.43000 439.501
23.44000 442.763
23.45000 434.044
23.46000 427.586
23.47000 423.705
23.48000 422.719
23.49000 421.750
23.50000 423.471
23.51000 427.157
23.52000 430.773
23.53000 430.415
23.54000 428.182
23.55000 426.075
23.56000 425.871
23.57000 426.307
23.58000 427.029
23.59000 430.159
23.60000 433.836
23.61000 436.993
23.62000 432.937
23.63000 428.615
23.64000 425.196
23.65000 424.953
23.66000 424.986
23.67000 424.679
23.68000 423.559
23.69000 422.404
23.70000 421.684
23.71000 427.605
23.72000 431.939
23.73000 437.739
23.74000 445.120
23.75000 452.424
23.76000 449.195
23.77000 438.552
23.78000 428.132
23.79000 428.530
23.80000 433.862
23.81000 439.208
23.82000 444.762
23.83000 450.384
23.84000 454.362
23.85000 445.082
23.86000 432.908
23.87000 422.522
23.88000 428.063
23.89000 434.606
23.90000 439.888
23.91000 440.891
23.92000 441.543
23.93000 442.944
23.94000 446.079
23.95000 449.284
23.96000 451.251
23.97000 447.425
23.98000 444.633
23.99000 442.125
24.00000 439.912
24.01000 437.697
24.02000 435.281
24.03000 432.728
24.04000 430.235
24.05000 429.431
24.06000 429.405
24.07000 429.482
24.08000 430.948
24.09000 432.848
24.10000 434.269
24.11000 431.990
24.12000 428.934
24.13000 426.344
24.14000 424.010
24.15000 422.084
24.16000 421.618
24.17000 425.932
24.18000 430.618
24.19000 434.279
24.20000 435.655
24.21000 436.946
24.22000 437.727
24.23000 428.648
24.24000 422.107
24.25000 419.770
24.26000 421.615
24.27000 423.384
24.28000 418.092
24.29000 408.182
24.30000 398.525
24.31000 402.623
24.32000 412.362
24.33000 421.354
24.34000 420.901
24.35000 417.589
24.36000 413.629
24.37000 404.896
24.38000 395.198
24.39000 387.035
24.40000 398.135
24.41000 409.454
24.42000 417.128
24.43000 413.285
24.44000 408.595
24.45000 404.582
24.46000 402.030
24.47000 399.528
24.48000 398.038
24.49000 402.164
24.50000 405.121
24.51000 406.127
24.52000 405.269
24.53000 404.414
24.54000 403.781
24.55000 403.287
24.56000 402.807
24.57000 402.561
24.58000 402.424
24.59000 402.158
24.60000 400.361
24.61000 398.116
24.62000 396.080
24.63000 395.520
24.64000 395.247
24.65000 395.019
24.66000 397.881
24.67000 400.571
24.68000 403.527
24.69000 407.292
24.70000 411.114
24.71000 412.722
24.72000 409.727
24.73000 406.588
24.74000 404.748
24.75000 409.927
24.76000 413.607
24.77000 411.367
24.78000 403.693
24.79000 396.123
24.80000 395.689
24.81000 399.596
24.82000 403.384
24.83000 406.168
24.84000 408.410
24.85000 410.275
24.86000 407.858
24.87000 404.233
24.88000 401.233
24.89000 402.451
24.90000 404.458
24.91000 406.123
24.92000 406.234
24.93000 406.175
24.94000 408.153
24.95000 416.127
24.96000 424.491
24.97000 428.148
24.98000 422.346
24.99000 416.277
25.00000 412.776
25.01000 402.570
25.02000 395.402
25.03000 395.253
25.04000 401.293
25.05000 407.222
25.06000 406.549
25.07000 402.001
25.08000 397.603
25.09000 390.500
25.10000 382.774
25.11000 375.926
25.12000 378.538
25.13000 383.721
25.14000 388.512
25.15000 390.764
25.16000 392.560
25.17000 394.040
25.18000 385.398
25.19000 377.359
25.20000 374.458
25.21000 386.159
25.22000 398.754
25.23000 403.699
25.24000 393.800
25.25000 383.522
25.26000 377.691
25.27000 379.509
25.28000 380.800
25.29000 383.650
25.30000 387.821
25.31000 391.889
25.32000 390.537
25.33000 386.115
25.34000 381.850
25.35000 387.563
25.36000 396.560
25.37000 404.283
25.38000 398.974
25.39000 390.250
25.40000 383.690
25.41000 390.569
25.42000 399.766
25.43000 407.286
25.44000 405.305
25.45000 402.856
25.46000 399.466
25.47000 393.495
25.48000 387.375
25.49000 385.919
25.50000 393.198
25.51000 400.678
25.52000 404.850
25.53000 400.005
25.54000 396.631
25.55000 392.825
25.56000 388.666
25.57000 384.500
25.58000 379.977
25.59000 375.260
25.60000 370.724
25.61000 380.194
25.62000 393.965
25.63000 406.364
25.64000 405.425
25.65000 401.117
25.66000 396.253
25.67000 388.075
25.68000 379.349
25.69000 372.267
25.70000 375.847
25.71000 379.643
25.72000 383.461
25.73000 387.333
25.74000 391.208
25.75000 392.846
25.76000 390.441
25.77000 387.953
25.78000 386.589
25.79000 390.391
25.80000 393.005
25.81000 393.121
25.82000 391.274
25.83000 389.458
25.84000 388.929
25.85000 389.080
25.86000 389.225
25.87000 396.177
25.88000 404.957
25.89000 411.405
25.90000 396.253
25.91000 375.843
25.92000 360.139
25.93000 371.361
25.94000 386.858
25.95000 399.336
25.96000 387.773
25.97000 376.516
25.98000 369.340
25.99000 372.611
26.00000 376.404
26.01000 376.466
26.02000 370.019
26.03000 363.453
26.04000 359.920
26.05000 369.519
26.06000 376.082
26.07000 380.249
26.08000 382.604
26.09000 384.926
26.10000 385.979
26.11000 386.385
26.12000 386.772
26.13000 383.801
26.14000 379.951
26.15000 376.797
26.16000 379.785
26.17000 384.214
26.18000 388.215
26.19000 389.867
26.20000 391.160
26.21000 392.194
26.22000 387.786
26.23000 383.825
26.24000 381.455
26.25000 383.018
26.26000 384.765
26.27000 383.657
26.28000 377.744
26.29000 371.755
26.30000 368.591
26.31000 377.754
26.32000 383.951
26.33000 384.795
26.34000 381.741
26.35000 378.665
26.36000 374.831
26.37000 370.623
26.38000 366.614
26.39000 371.244
26.40000 378.221
26.41000 384.245
26.42000 382.259
26.43000 378.464
26.44000 375.335
26.45000 375.731
26.46000 376.641
26.47000 377.361
26.48000 369.241
26.49000 362.098
26.50000 359.117
26.51000 366.068
26.52000 373.449
26.53000 376.027
26.54000 370.808
26.55000 365.481
26.56000 362.720
26.57000 374.875
26.58000 383.023
26.59000 383.754
26.60000 379.280
26.61000 374.730
26.62000 367.837
26.63000 359.831
26.64000 352.231
26.65000 364.377
26.66000 381.493
26.67000 395.914
26.68000 388.680
26.69000 376.734
26.70000 367.361
26.71000 371.049
26.72000 376.561
26.73000 380.891
26.74000 382.752
26.75000 384.079
26.76000 383.556
26.77000 378.769
26.78000 373.811
26.79000 371.773
26.80000 374.307
26.81000 376.896
26.82000 378.211
26.83000 372.986
26.84000 369.508
26.85000 368.570
26.86000 369.351
26.87000 370.193
26.88000 372.762
26.89000 376.122
26.90000 379.301
26.91000 382.147
26.92000 384.667
26.93000 386.604
26.94000 384.061
26.95000 380.579
26.96000 376.474
26.97000 369.321
26.98000 361.760
26.99000 355.874
27.00000 363.634
27.01000 370.656
27.02000 375.810
27.03000 376.809
27.04000 377.656
27.05000 377.770
27.06000 376.778
27.07000 375.774
27.08000 373.215
27.09000 369.112
27.10000 365.053
27.11000 365.041
27.12000 367.668
27.13000 370.247
27.14000 371.587
27.15000 372.377
27.16000 373.123
27.17000 370.198
27.18000 366.505
27.19000 363.989
27.20000 370.115
27.21000 377.981
27.22000 383.687
27.23000 379.242
27.24000 373.499
27.25000 369.068
27.26000 370.433
27.27000 371.852
27.28000 372.806
27.29000 372.764
27.30000 372.687
27.31000 371.033
27.32000 367.081
27.33000 363.110
27.34000 358.832
27.35000 354.262
27.36000 349.818
27.37000 355.243
27.38000 366.875
27.39000 378.074
27.40000 378.783
27.41000 375.005
27.42000 371.458
27.43000 372.487
27.44000 374.641
27.45000 376.645
27.46000 377.596
27.47000 378.344
27.48000 378.994
27.49000 379.206
27.50000 379.364
27.51000 379.485
27.52000 376.662
27.53000 374.275
27.54000 371.043
27.55000 366.058
27.56000 361.018
27.57000 358.331
27.58000 358.943
27.59000 359.578
27.60000 361.600
27.61000 364.889
27.62000 368.159
27.63000 370.104
27.64000 371.246
27.65000 372.398
27.66000 373.782
27.67000 375.263
27.68000 376.647
27.69000 371.310
27.70000 364.746
27.71000 359.238
27.72000 360.833
27.73000 363.751
27.74000 366.282
27.75000 367.128
27.76000 367.777
27.77000 368.269
27.78000 361.749
27.79000 356.273
27.80000 352.255
27.81000 351.159
27.82000 350.145
27.83000 353.251
27.84000 361.928
27.85000 370.631
27.86000 371.441
27.87000 365.322
27.88000 359.289
27.89000 358.365
27.90000 360.431
27.91000 362.460
27.92000 363.714
27.93000 364.659
27.94000 365.540
27.95000 365.358
27.96000 364.934
27.97000 365.127
27.98000 369.303
27.99000 374.193
28.00000 378.010
28.01000 377.329
28.02000 376.147
28.03000 375.261
28.04000 367.727
28.05000 361.525
28.06000 358.057
28.07000 359.878
28.08000 361.832
28.09000 363.042
28.10000 363.284
28.11000 363.522
28.12000 362.275
28.13000 359.779
28.14000 357.305
28.15000 355.958
28.16000 355.249
28.17000 354.495
28.18000 352.875
28.19000 350.921
28.20000 349.109
28.21000 357.734
28.22000 367.961
28.23000 376.027
28.24000 370.717
28.25000 363.109
28.26000 358.109
28.27000 363.656
28.28000 370.319
28.29000 375.270
28.30000 379.256
28.31000 382.313
28.32000 381.601
28.33000 373.854
28.34000 365.946
28.35000 360.309
28.36000 357.517
28.37000 354.739
28.38000 353.655
28.39000 353.947
28.40000 354.225
28.41000 353.804
28.42000 353.003
28.43000 352.470
28.44000 356.816
28.45000 362.976
28.46000 368.667
28.47000 366.567
28.48000 362.923
28.49000 358.812
28.50000 351.931
28.51000 344.594
28.52000 339.188
28.53000 341.315
28.54000 344.201
28.55000 346.323
28.56000 355.252
28.57000 362.441
28.58000 364.881
28.59000 358.762
28.60000 352.468
28.61000 350.006
28.62000 352.166
28.63000 354.330
28.64000 355.212
28.65000 355.090
28.66000 354.988
28.67000 355.752
28.68000 356.970
28.69000 358.137
28.70000 358.425
28.71000 358.397
28.72000 358.372
28.73000 358.308
28.74000 358.243
28.75000 358.363
28.76000 359.544
28.77000 360.893
28.78000 361.477
28.79000 359.184
28.80000 356.616
28.81000 354.747
28.82000 353.968
28.83000 353.410
28.84000 351.842
28.85000 348.515
28.86000 345.156
28.87000 345.754
28.88000 350.941
28.89000 356.120
28.90000 359.082
28.91000 360.364
28.92000 361.454
28.93000 355.333
28.94000 345.550
28.95000 336.388
28.96000 337.114
28.97000 341.266
28.98000 345.069
28.99000 347.228
29.00000 348.808
29.01000 350.429
29.02000 352.269
29.03000 354.142
29.04000 356.283
29.05000 359.392
29.06000 362.589
29.07000 364.893
29.08000 353.658
29.09000 344.571
29.10000 339.678
29.11000 341.825
29.12000 344.083
29.13000 345.462
29.14000 345.861
29.15000 346.257
29.16000 346.573
29.17000 346.827
29.18000 347.094
29.19000 347.766
29.20000 348.637
29.21000 349.569
29.22000 351.423
29.23000 353.586
29.24000 355.556
29.25000 355.577
29.26000 355.207
29.27000 354.026
29.28000 348.582
29.29000 342.517
29.30000 336.559
29.31000 330.973
29.32000 325.418
29.33000 321.459
29.34000 334.211
29.35000 344.478
29.36000 347.967
29.37000 340.484
29.38000 332.850
29.39000 329.361
29.40000 330.315
29.41000 331.267
29.42000 335.503
29.43000 341.969
29.44000 348.154
29.45000 345.632
29.46000 338.987
29.47000 332.794
29.48000 332.963
29.49000 335.189
29.50000 337.207
29.51000 343.023
29.52000 348.881
29.53000 354.617
29.54000 359.733
29.55000 364.764
29.56000 367.176
29.57000 360.755
29.58000 353.614
29.59000 348.580
29.60000 353.957
29.61000 358.348
29.62000 359.355
29.63000 355.079
29.64000 350.740
29.65000 347.690
29.66000 345.968
29.67000 344.255
29.68000 351.207
29.69000 363.838
29.70000 376.159
29.71000 379.655
29.72000 379.116
29.73000 378.337
29.74000 374.365
29.75000 369.397
29.76000 364.914
29.77000 367.301
29.78000 370.657
29.79000 373.238
29.80000 372.041
29.81000 370.342
29.82000 371.328
29.83000 381.058
29.84000 391.461
29.85000 398.712
29.86000 394.947
29.87000 391.802
29.88000 391.803
29.89000 396.539
29.90000 401.323
29.91000 405.628
29.92000 409.458
29.93000 413.264
29.94000 416.758
29.95000 420.000
29.96000 423.378
29.97000 430.306
29.98000 438.802
29.99000 446.653
30.00000 446.416
30.01000 443.746
30.02000 441.349
30.03000 431.347
30.04000 421.261
30.05000 413.199
30.06000 414.617
30.07000 417.242
30.08000 419.025
30.09000 418.169
30.10000 417.120
30.11000 416.398
30.12000 414.755
30.13000 413.499
30.14000 413.602
30.15000 415.676
30.16000 417.766
30.17000 415.541
30.18000 409.221
30.19000 402.951
30.20000 400.917
30.21000 401.530
30.22000 401.802
30.23000 393.866
30.24000 382.430
30.25000 372.144
30.26000 375.523
30.27000 382.870
30.28000 389.431
30.29000 377.761
30.30000 364.531
30.31000 353.977
30.32000 355.498
30.33000 358.486
30.34000 360.824
30.35000 361.192
30.36000 361.424
30.37000 361.582
30.38000 364.974
30.39000 367.582
30.40000 371.681
30.41000 377.867
30.42000 384.063
30.43000 382.855
30.44000 374.899
30.45000 367.016
30.46000 364.743
30.47000 365.840
30.48000 366.888
30.49000 366.823
30.50000 366.300
30.51000 365.875
30.52000 366.553
30.53000 367.540
30.54000 368.417
30.55000 376.746
30.56000 385.169
30.57000 391.971
30.58000 391.730
30.59000 390.673
30.60000 389.626
30.61000 388.608
30.62000 387.592
30.63000 386.910
30.64000 382.097
30.65000 378.436
30.66000 374.548
30.67000 370.355
30.68000 366.166
30.69000 367.411
30.70000 373.416
30.71000 379.357
30.72000 384.887
30.73000 390.058
30.74000 395.035
30.75000 395.972
30.76000 395.304
30.77000 394.499
30.78000 392.240
30.79000 389.587
30.80000 387.244
30.81000 390.112
30.82000 393.390
30.83000 396.347
30.84000 397.955
30.85000 399.413
30.86000 403.609
30.87000 415.539
30.88000 427.937
30.89000 436.170
30.90000 449.229
30.91000 458.972
30.92000 465.627
30.93000 468.276
30.94000 470.924
30.95000 482.323
30.96000 501.095
30.97000 519.638
30.98000 536.350
30.99000 551.635
31.00000 567.265
31.01000 589.561
31.02000 614.416
31.03000 640.194
31.04000 675.333
31.05000 712.910
31.06000 745.918
31.07000 783.647
31.08000 816.775
31.09000 852.588
31.10000 899.223
31.11000 946.998
31.12000 1001.848
31.13000 1076.001
31.14000 1151.248
31.15000 1200.582
31.16000 1282.574
31.17000 1343.407
31.18000 1412.318
31.19000 1491.321
31.20000 1570.344
31.21000 1645.285
31.22000 1716.917
31.23000 1787.553
31.24000 1857.356
31.25000 1924.751
31.26000 1991.872
31.27000 2054.042
31.28000 2114.376
31.29000 2172.966
31.30000 2214.730
31.31000 2252.270
31.32000 2285.052
31.33000 2300.211
31.34000 2310.706
31.35000 2316.904
31.36000 2306.404
31.37000 2294.229
31.38000 2277.302
31.39000 2247.852
31.40000 2217.739
31.41000 2198.254
31.42000 2124.249
31.43000 2069.316
31.44000 2013.148
31.45000 1955.493
31.46000 1897.762
31.47000 1820.439
31.48000 1727.827
31.49000 1636.665
31.50000 1560.827
31.51000 1495.137
31.52000 1428.502
31.53000 1345.949
31.54000 1257.697
31.55000 1170.572
31.56000 1093.800
31.57000 1019.532
31.58000 955.065
31.59000 890.558
31.60000 835.587
31.61000 781.668
31.62000 731.691
31.63000 682.090
31.64000 642.421
31.65000 628.021
31.66000 614.870
31.67000 606.475
31.68000 560.574
31.69000 526.695
31.70000 503.092
31.71000 491.373
31.72000 479.673
31.73000 468.821
31.74000 458.607
31.75000 448.572
31.76000 438.016
31.77000 427.564
31.78000 417.322
31.79000 410.387
31.80000 404.595
31.81000 398.619
31.82000 391.033
31.83000 383.071
31.84000 376.202
31.85000 372.697
31.86000 370.154
31.87000 368.736
31.88000 371.381
31.89000 374.392
31.90000 375.295
31.91000 371.016
31.92000 366.499
31.93000 363.655
31.94000 364.226
31.95000 364.678
31.96000 362.539
31.97000 357.519
31.98000 352.501
31.99000 348.105
32.00000 344.159
32.01000 340.291
32.02000 338.329
32.03000 337.338
32.04000 336.551
32.05000 338.807
32.06000 342.079
32.07000 344.671
32.08000 341.584
32.09000 337.221
32.10000 333.482
32.11000 340.029
32.12000 346.817
32.13000 350.683
32.14000 344.365
32.15000 337.174
32.16000 332.476
32.17000 333.692
32.18000 335.161
32.19000 336.072
32.20000 330.215
32.21000 325.933
32.22000 323.647
32.23000 323.492
32.24000 323.348
32.25000 324.520
32.26000 326.610
32.27000 328.655
32.28000 329.362
32.29000 329.433
32.30000 329.247
32.31000 325.456
32.32000 320.503
32.33000 315.966
32.34000 314.736
32.35000 314.221
32.36000 313.783
32.37000 317.754
32.38000 321.606
32.39000 324.234
32.40000 322.745
32.41000 320.922
32.42000 317.960
32.43000 312.391
32.44000 306.719
32.45000 303.250
32.46000 310.076
32.47000 315.047
32.48000 316.224
32.49000 313.509
32.50000 310.825
32.51000 311.336
32.52000 313.995
32.53000 316.592
32.54000 318.845
32.55000 320.851
32.56000 322.533
32.57000 319.938
32.58000 316.013
32.59000 312.093
32.60000 308.211
32.61000 304.335
32.62000 301.057
32.63000 309.803
32.64000 318.459
32.65000 323.075
32.66000 314.579
32.67000 305.077
32.68000 298.052
32.69000 296.509
32.70000 295.165
32.71000 294.355
32.72000 301.807
32.73000 307.168
32.74000 310.566
32.75000 312.032
32.76000 313.534
32.77000 318.297
32.78000 325.174
32.79000 331.871
32.80000 341.644
32.81000 352.249
32.82000 363.028
32.83000 375.971
32.84000 389.562
32.85000 403.501
32.86000 419.971
32.87000 436.947
32.88000 451.212
32.89000 459.137
32.90000 465.071
32.91000 472.545
32.92000 484.842
32.93000 497.489
32.94000 507.894
32.95000 513.511
32.96000 518.969
32.97000 522.207
32.98000 524.292
32.99000 525.762
33.00000 527.199
33.01000 528.608
33.02000 529.884
33.03000 521.094
33.04000 506.010
33.05000 491.356
33.06000 472.629
33.07000 453.194
33.08000 434.107
33.09000 419.137
33.10000 405.359
33.11000 391.305
33.12000 375.330
33.13000 358.985
33.14000 345.346
33.15000 337.818
33.16000 332.188
33.17000 326.211
33.18000 319.185
33.19000 312.088
33.20000 307.924
33.21000 309.815
33.22000 311.889
33.23000 313.100
33.24000 311.229
33.25000 309.899
33.26000 308.388
33.27000 306.714
33.28000 304.980
33.29000 299.309
33.30000 291.265
33.31000 283.470
33.32000 286.353
33.33000 293.232
33.34000 299.489
33.35000 298.766
33.36000 296.096
33.37000 293.818
33.38000 294.166
33.39000 295.000
33.40000 295.691
33.41000 288.053
33.42000 280.952
33.43000 276.212
33.44000 278.360
33.45000 280.950
33.46000 284.550
33.47000 290.161
33.48000 295.828
33.49000 299.084
33.50000 300.791
33.51000 301.975
33.52000 300.198
33.53000 295.834
33.54000 291.573
33.55000 293.219
33.56000 298.303
33.57000 303.217
33.58000 301.953
33.59000 298.452
33.60000 295.156
33.61000 294.041
33.62000 293.515
33.63000 292.950
33.64000 292.140
33.65000 291.286
33.66000 290.584
33.67000 290.246
33.68000 290.002
33.69000 290.592
33.70000 293.531
33.71000 296.611
33.72000 298.382
33.73000 297.639
33.74000 296.832
33.75000 296.377
33.76000 289.524
33.77000 284.745
33.78000 281.458
33.79000 279.424
33.80000 277.461
33.81000 279.143
33.82000 282.870
33.83000 286.462
33.84000 294.838
33.85000 304.432
33.86000 313.273
33.87000 314.508
33.88000 313.769
33.89000 312.601
33.90000 308.801
33.91000 304.550
33.92000 301.081
33.93000 301.178
33.94000 301.562
33.95000 301.182
33.96000 298.722
33.97000 296.144
33.98000 292.669
33.99000 287.531
34.00000 282.356
34.01000 279.481
34.02000 298.976
34.03000 312.460
34.04000 314.652
34.05000 307.720
34.06000 300.918
34.07000 300.040
34.08000 302.371
34.09000 304.612
34.10000 306.276
34.11000 307.634
34.12000 308.805
34.13000 308.188
34.14000 307.123
34.15000 305.813
34.16000 303.054
34.17000 300.058
34.18000 297.632
34.19000 301.722
34.20000 305.583
34.21000 308.594
34.22000 309.371
34.23000 310.031
34.24000 309.843
34.25000 308.135
34.26000 306.397
34.27000 305.449
34.28000 302.647
34.29000 300.729
34.30000 301.021
34.31000 303.032
34.32000 305.063
34.33000 307.932
34.34000 311.238
34.35000 314.406
34.36000 310.692
34.37000 304.938
34.38000 300.435
34.39000 307.389
34.40000 317.105
34.41000 324.589
34.42000 319.424
34.43000 312.273
34.44000 306.526
34.45000 313.681
34.46000 320.473
34.47000 321.834
34.48000 309.419
34.49000 296.327
34.50000 291.454
34.51000 300.787
34.52000 310.371
34.53000 315.506
34.54000 306.056
34.55000 299.619
34.56000 297.970
34.57000 299.906
34.58000 301.789
34.59000 301.686
34.60000 300.580
34.61000 299.523
34.62000 300.195
34.63000 301.372
34.64000 302.111
34.65000 299.039
34.66000 295.080
34.67000 292.237
34.68000 295.463
34.69000 299.603
34.70000 302.903
34.71000 292.596
34.72000 283.292
34.73000 279.239
34.74000 288.050
34.75000 297.449
34.76000 302.558
34.77000 300.510
34.78000 298.352
34.79000 297.218
34.80000 296.251
34.81000 295.588
34.82000 293.789
34.83000 291.169
34.84000 288.575
34.85000 286.828
34.86000 285.494
34.87000 284.224
34.88000 279.902
34.89000 274.962
34.90000 270.358
34.91000 268.552
34.92000 267.373
34.93000 266.865
34.94000 269.870
34.95000 273.382
34.96000 276.158
34.97000 280.260
34.98000 283.645
34.99000 283.769
35.00000 276.177
35.01000 268.259
35.02000 264.238
35.03000 266.487
35.04000 268.821
35.05000 270.025
35.06000 258.135
35.07000 250.193
35.08000 251.073
35.09000 258.089
35.10000 264.936
35.11000 266.661
35.12000 265.975
35.13000 265.324
35.14000 263.948
35.15000 262.465
35.16000 261.675
35.17000 266.391
35.18000 272.292
35.19000 276.652
35.20000 273.257
35.21000 268.790
35.22000 265.290
35.23000 268.456
35.24000 271.417
35.25000 273.848
35.26000 275.070
35.27000 276.244
35.28000 275.943
35.29000 273.352
35.30000 270.735
35.31000 269.412
35.32000 265.347
35.33000 262.664
35.34000 263.792
35.35000 267.476
35.36000 271.109
35.37000 273.345
35.38000 274.947
35.39000 276.462
35.40000 273.514
35.41000 269.538
35.42000 266.313
35.43000 268.796
35.44000 272.464
35.45000 274.517
35.46000 268.764
35.47000 261.981
35.48000 256.710
35.49000 260.166
35.50000 263.444
35.51000 266.036
35.52000 267.112
35.53000 268.134
35.54000 270.360
35.55000 274.388
35.56000 278.433
35.57000 280.032
35.58000 279.231
35.59000 278.393
35.60000 274.389
35.61000 268.337
35.62000 262.471
35.63000 261.387
35.64000 262.404
35.65000 263.361
35.66000 263.962
35.67000 264.415
35.68000 265.018
35.69000 266.712
35.70000 268.623
35.71000 270.046
35.72000 269.194
35.73000 268.054
35.74000 267.177
35.75000 267.064
35.76000 267.019
35.77000 265.588
35.78000 261.208
35.79000 256.731
35.80000 255.153
35.81000 257.759
35.82000 260.398
35.83000 261.987
35.84000 262.585
35.85000 263.190
35.86000 264.276
35.87000 265.662
35.88000 266.799
35.89000 262.012
35.90000 254.714
35.91000 247.868
35.92000 251.713
35.93000 258.027
35.94000 263.779
35.95000 265.615
35.96000 266.701
35.97000 266.314
35.98000 259.330
35.99000 251.549
36.00000 245.613
36.01000 247.457
36.02000 249.326
36.03000 251.950
36.04000 256.126
36.05000 260.349
36.06000 262.284
36.07000 261.040
36.08000 259.775
36.09000 255.915
36.10000 249.711
36.11000 243.643
36.12000 246.502
36.13000 254.727
36.14000 262.786
36.15000 267.201
36.16000 270.124
36.17000 272.856
36.18000 265.656
36.19000 256.613
36.20000 248.763
36.21000 248.856
36.22000 250.415
36.23000 252.379
36.24000 256.092
36.25000 260.006
36.26000 262.965
36.27000 263.235
36.28000 263.313
36.29000 261.869
36.30000 257.403
36.31000 252.854
36.32000 251.206
36.33000 253.443
36.34000 255.698
36.35000 259.825
36.36000 265.570
36.37000 271.217
36.38000 271.196
36.39000 267.888
36.40000 264.432
36.41000 257.945
36.42000 250.260
36.43000 243.108
36.44000 242.106
36.45000 242.693
36.46000 244.129
36.47000 250.983
36.48000 258.797
36.49000 265.319
36.50000 266.470
36.51000 267.032
36.52000 267.453
36.53000 262.692
36.54000 258.734
36.55000 254.999
36.56000 251.689
36.57000 248.390
36.58000 246.389
36.59000 246.061
36.60000 245.740
36.61000 249.595
36.62000 256.925
36.63000 264.213
36.64000 269.374
36.65000 273.343
36.66000 276.853
36.67000 271.615
36.68000 263.036
36.69000 255.085
36.70000 254.732
36.71000 256.185
36.72000 257.014
36.73000 254.027
36.74000 250.391
36.75000 248.073
36.76000 251.037
36.77000 254.553
36.78000 257.159
36.79000 260.103
36.80000 262.405
36.81000 264.346
36.82000 265.622
36.83000 266.882
36.84000 267.789
36.85000 268.258
36.86000 268.725
36.87000 270.430
36.88000 273.120
36.89000 275.757
36.90000 275.980
36.91000 274.898
36.92000 274.183
36.93000 280.010
36.94000 288.249
36.95000 295.852
36.96000 287.762
36.97000 277.002
36.98000 268.034
36.99000 269.601
37.00000 272.888
37.01000 276.261
37.02000 279.964
37.03000 283.701
37.04000 286.443
37.05000 277.882
37.06000 270.809
37.07000 265.039
37.08000 261.596
37.09000 258.199
37.10000 260.212
37.11000 268.686
37.12000 277.153
37.13000 277.408
37.14000 271.330
37.15000 265.409
37.16000 265.831
37.17000 269.560
37.18000 273.061
37.19000 272.746
37.20000 271.074
37.21000 269.537
37.22000 259.530
37.23000 248.780
37.24000 240.515
37.25000 246.282
37.26000 254.245
37.27000 260.336
37.28000 259.455
37.29000 257.915
37.30000 256.797
37.31000 258.352
37.32000 259.648
37.33000 259.599
37.34000 257.231
37.35000 254.824
37.36000 256.803
37.37000 263.820
37.38000 270.823
37.39000 267.139
37.40000 255.560
37.41000 244.275
37.42000 243.728
37.43000 248.586
37.44000 253.288
37.45000 255.546
37.46000 256.964
37.47000 258.261
37.48000 255.343
37.49000 251.882
37.50000 248.920
37.51000 248.660
37.52000 248.806
37.53000 248.739
37.54000 247.907
37.55000 247.007
37.56000 246.360
37.57000 253.689
37.58000 259.574
37.59000 260.858
37.60000 254.491
37.61000 248.006
37.62000 244.991
37.63000 245.807
37.64000 246.623
37.65000 250.282
37.66000 255.933
37.67000 261.371
37.68000 259.713
37.69000 254.606
37.70000 249.830
37.71000 249.927
37.72000 251.640
37.73000 253.200
37.74000 253.957
37.75000 254.469
37.76000 255.106
37.77000 256.396
37.78000 257.780
37.79000 257.806
37.80000 253.125
37.81000 248.044
37.82000 244.433
37.83000 244.331
37.84000 244.366
37.85000 245.704
37.86000 249.134
37.87000 252.591
37.88000 254.056
37.89000 253.407
37.90000 252.760
37.91000 253.037
37.92000 253.944
37.93000 254.816
37.94000 254.644
37.95000 253.981
37.96000 253.374
37.97000 253.539
37.98000 253.951
37.99000 254.325
38.00000 254.281
38.01000 254.163
38.02000 253.425
38.03000 249.582
38.04000 245.312
38.05000 241.961
38.06000 241.682
38.07000 241.650
38.08000 241.627
38.09000 252.928
38.10000 261.820
38.11000 265.145
38.12000 259.853
38.13000 254.464
38.14000 253.314
38.15000 256.483
38.16000 259.634
38.17000 262.785
38.18000 265.895
38.19000 269.060
38.20000 273.781
38.21000 279.206
38.22000 284.322
38.23000 285.393
38.24000 285.214
38.25000 285.052
38.26000 293.504
38.27000 302.483
38.28000 310.818
38.29000 316.048
38.30000 320.869
38.31000 326.861
38.32000 336.632
38.33000 346.690
38.34000 353.680
38.35000 369.732
38.36000 382.074
38.37000 395.513
38.38000 410.586
38.39000 425.675
38.40000 438.162
38.41000 448.104
38.42000 457.978
38.43000 468.369
38.44000 478.927
38.45000 489.890
38.46000 511.226
38.47000 537.102
38.48000 562.939
38.49000 588.294
38.50000 613.507
38.51000 636.114
38.52000 658.725
38.53000 678.483
38.54000 698.394
38.55000 719.016
38.56000 739.728
38.57000 761.955
38.58000 788.898
38.59000 816.180
38.60000 834.918
38.61000 851.117
38.62000 863.202
38.63000 880.097
38.64000 903.910
38.65000 927.774
38.66000 937.430
38.67000 933.740
38.68000 930.082
38.69000 937.553
38.70000 951.681
38.71000 964.883
38.72000 956.200
38.73000 938.269
38.74000 920.903
38.75000 910.168
38.76000 901.342
38.77000 893.469
38.78000 874.937
38.79000 857.041
38.80000 838.202
38.81000 815.152
38.82000 791.596
38.83000 767.924
38.84000 743.900
38.85000 719.853
38.86000 703.532
38.87000 657.670
38.88000 622.800
38.89000 587.769
38.90000 552.517
38.91000 517.273
38.92000 498.322
38.93000 494.072
38.94000 489.863
38.95000 475.804
38.96000 456.252
38.97000 436.346
38.98000 408.695
38.99000 377.883
39.00000 349.089
39.01000 342.693
39.02000 342.513
39.03000 342.353
39.04000 327.652
39.05000 312.602
39.06000 300.177
39.07000 299.043
39.08000 299.204
39.09000 296.345
39.10000 284.725
39.11000 272.548
39.12000 264.385
39.13000 264.619
39.14000 264.962
39.15000 261.103
39.16000 251.637
39.17000 242.153
39.18000 240.360
39.19000 245.239
39.20000 250.064
39.21000 251.671
39.22000 251.421
39.23000 251.142
39.24000 250.252
39.25000 249.121
39.26000 248.019
39.27000 247.220
39.28000 246.502
39.29000 245.869
39.30000 241.392
39.31000 236.946
39.32000 233.378
39.33000 233.452
39.34000 233.925
39.35000 235.503
39.36000 240.182
39.37000 245.046
39.38000 248.265
39.39000 238.168
39.40000 230.473
39.41000 227.242
39.42000 229.750
39.43000 232.271
39.44000 230.640
39.45000 225.543
39.46000 220.511
39.47000 219.938
39.48000 221.802
39.49000 223.770
39.50000 227.706
39.51000 232.390
39.52000 236.242
39.53000 231.763
39.54000 225.133
39.55000 219.318
39.56000 218.861
39.57000 219.248
39.58000 221.148
39.59000 229.089
39.60000 237.658
39.61000 242.897
39.62000 239.128
39.63000 234.857
39.64000 232.066
39.65000 232.637
39.66000 233.110
39.67000 233.228
39.68000 232.908
39.69000 232.581
39.70000 230.380
39.71000 226.676
39.72000 223.024
39.73000 224.304
39.74000 228.127
39.75000 232.055
39.76000 237.845
39.77000 244.321
39.78000 249.714
39.79000 244.789
39.80000 237.297
39.81000 230.765
39.82000 225.896
39.83000 221.965
39.84000 219.291
39.85000 221.462
39.86000 224.112
39.87000 225.659
39.88000 224.325
39.89000 222.842
39.90000 221.885
39.91000 213.297
39.92000 206.915
39.93000 207.854
39.94000 217.507
39.95000 227.152
39.96000 230.509
39.97000 229.007
39.98000 227.529
39.99000 224.614
40.00000 221.069
40.01000 217.794
40.02000 219.006
40.03000 221.810
40.04000 224.006
40.05000 220.691
40.06000 216.054
40.07000 212.035
40.08000 219.381
40.09000 227.143
40.10000 232.472
40.11000 228.766
40.12000 224.212
40.13000 220.137
40.14000 217.275
40.15000 214.471
40.16000 212.688
40.17000 215.357
40.18000 217.353
40.19000 218.064
40.20000 217.304
40.21000 216.549
40.22000 216.959
40.23000 218.235
40.24000 219.488
40.25000 216.036
40.26000 210.425
40.27000 205.358
40.28000 208.780
40.29000 215.111
40.30000 220.685
40.31000 219.720
40.32000 217.244
40.33000 215.111
40.34000 218.047
40.35000 221.178
40.36000 224.629
40.37000 229.231
40.38000 233.935
40.39000 235.569
40.40000 229.724
40.41000 223.543
40.42000 219.666
40.43000 226.755
40.44000 231.997
40.45000 232.037
40.46000 226.351
40.47000 220.707
40.48000 221.771
40.49000 227.644
40.50000 233.400
40.51000 229.205
40.52000 220.529
40.53000 212.512
40.54000 214.155
40.55000 218.994
40.56000 223.178
40.57000 221.950
40.58000 219.518
40.59000 217.437
40.60000 220.782
40.61000 224.259
40.62000 226.482
40.63000 224.370
40.64000 221.892
40.65000 218.302
40.66000 212.100
40.67000 205.788
40.68000 201.885
40.69000 197.959
40.70000 195.138
40.71000 197.864
40.72000 206.456
40.73000 215.004
40.74000 218.011
40.75000 217.189
40.76000 216.386
40.77000 218.774
40.78000 222.496
40.79000 225.733
40.80000 222.268
40.81000 216.664
40.82000 211.902
40.83000 213.777
40.84000 217.074
40.85000 219.877
40.86000 211.557
40.87000 203.288
40.88000 198.487
40.89000 205.241
40.90000 212.919
40.91000 218.136
40.92000 217.761
40.93000 217.171
40.94000 216.812
40.95000 213.693
40.96000 211.442
40.97000 210.939
40.98000 212.212
40.99000 213.460
41.00000 212.232
41.01000 209.355
41.02000 206.548
41.03000 201.924
41.04000 196.720
41.05000 192.423
41.06000 199.951
41.07000 211.122
41.08000 220.393
41.09000 215.339
41.10000 207.334
41.11000 200.573
41.12000 201.913
41.13000 203.922
41.14000 205.293
41.15000 204.616
41.16000 203.784
41.17000 204.148
41.18000 207.134
41.19000 210.213
41.20000 212.061
41.21000 207.327
41.22000 203.918
41.23000 202.160
41.24000 202.010
41.25000 201.844
41.26000 200.276
41.27000 197.807
41.28000 195.405
41.29000 198.574
41.30000 203.909
41.31000 208.664
41.32000 206.277
41.33000 201.767
41.34000 198.170
41.35000 201.158
41.36000 205.451
41.37000 209.053
41.38000 204.274
41.39000 199.423
41.40000 197.884
41.41000 206.627
41.42000 216.103
41.43000 220.242
41.44000 213.081
41.45000 205.552
41.46000 201.103
41.47000 199.429
41.48000 198.262
41.49000 198.064
41.50000 198.774
41.51000 199.517
41.52000 202.674
41.53000 207.326
41.54000 211.842
41.55000 210.753
41.56000 207.478
41.57000 204.517
41.58000 205.216
41.59000 206.966
41.60000 208.616
41.61000 209.586
41.62000 210.427
41.63000 211.126
41.64000 206.728
41.65000 202.579
41.66000 200.573
41.67000 204.991
41.68000 209.841
41.69000 211.251
41.70000 205.628
41.71000 199.798
41.72000 196.406
41.73000 200.118
41.74000 202.754
41.75000 202.715
41.76000 200.269
41.77000 197.902
41.78000 200.519
41.79000 206.115
41.80000 211.534
41.81000 211.397
41.82000 209.129
41.83000 207.224
41.84000 209.342
41.85000 212.573
41.86000 214.881
41.87000 211.095
41.88000 206.191
41.89000 202.136
41.90000 200.495
41.91000 199.368
41.92000 200.519
41.93000 208.259
41.94000 216.415
41.95000 220.824
41.96000 217.834
41.97000 214.645
41.98000 212.820
41.99000 213.970
42.00000 214.778
42.01000 211.984
42.02000 206.074
42.03000 200.274
42.04000 200.653
42.05000 204.593
42.06000 208.399
42.07000 208.976
42.08000 208.325
42.09000 207.404
42.10000 203.657
42.11000 199.155
42.12000 195.613
42.13000 198.158
42.14000 201.775
42.15000 204.743
42.16000 201.003
42.17000 197.334
42.18000 195.017
42.19000 196.479
42.20000 198.165
42.21000 199.817
42.22000 201.407
42.23000 202.994
42.24000 203.887
42.25000 201.292
42.26000 199.484
42.27000 198.730
42.28000 198.853
42.29000 199.001
42.30000 200.340
42.31000 202.341
42.32000 204.268
42.33000 204.694
42.34000 204.560
42.35000 204.382
42.36000 203.775
42.37000 203.059
42.38000 202.099
42.39000 199.661
42.40000 196.974
42.41000 194.785
42.42000 197.225
42.43000 199.611
42.44000 201.762
42.45000 203.280
42.46000 204.763
42.47000 202.999
42.48000 195.261
42.49000 187.393
42.50000 183.042
42.51000 188.122
42.52000 191.641
42.53000 194.334
42.54000 196.367
42.55000 198.370
42.56000 199.073
42.57000 199.079
42.58000 199.084
42.59000 198.599
42.60000 197.979
42.61000 197.543
42.62000 198.864
42.63000 200.621
42.64000 201.215
42.65000 195.017
42.66000 187.719
42.67000 181.820
42.68000 191.144
42.69000 199.949
42.70000 205.526
42.71000 202.698
42.72000 199.433
42.73000 198.519
42.74000 201.776
42.75000 205.115
42.76000 206.928
42.77000 203.311
42.78000 200.814
42.79000 195.898
42.80000 189.119
42.81000 182.569
42.82000 185.191
42.83000 192.568
42.84000 199.629
42.85000 202.492
42.86000 203.775
42.87000 204.936
42.88000 204.990
42.89000 204.780
42.90000 204.196
42.91000 201.515
42.92000 198.508
42.93000 196.096
42.94000 197.033
42.95000 198.045
42.96000 198.897
42.97000 199.347
42.98000 199.776
42.99000 199.944
43.00000 199.664
43.01000 199.375
43.02000 199.222
43.03000 193.248
43.04000 189.191
43.05000 188.156
43.06000 189.365
43.07000 190.650
43.08000 194.724
43.09000 200.193
43.10000 205.411
43.11000 201.257
43.12000 194.429
43.13000 188.666
43.14000 192.081
43.15000 197.607
43.16000 201.883
43.17000 199.417
43.18000 195.946
43.19000 193.186
43.20000 190.502
43.21000 188.344
43.22000 187.108
43.23000 188.110
43.24000 189.212
43.25000 190.275
43.26000 191.275
43.27000 192.274
43.28000 192.797
43.29000 191.580
43.30000 190.762
43.31000 190.994
43.32000 191.975
43.33000 192.887
43.34000 191.540
43.35000 189.101
43.36000 186.782
43.37000 189.491
43.38000 193.530
43.39000 197.268
43.40000 198.530
43.41000 199.244
43.42000 199.931
43.43000 200.479
43.44000 201.007
43.45000 201.424
43.46000 200.852
43.47000 200.326
43.48000 197.748
43.49000 190.354
43.50000 182.761
43.51000 178.537
43.52000 179.688
43.53000 180.908
43.54000 181.534
43.55000 191.840
43.56000 198.726
43.57000 200.046
43.58000 197.532
43.59000 195.010
43.60000 192.255
43.61000 189.391
43.62000 186.678
43.63000 188.176
43.64000 190.790
43.65000 192.438
43.66000 186.488
43.67000 178.917
43.68000 173.623
43.69000 179.672
43.70000 187.270
43.71000 193.211
43.72000 187.950
43.73000 183.038
43.74000 181.569
43.75000 187.898
43.76000 194.527
43.77000 197.087
43.78000 193.393
43.79000 189.630
43.80000 187.737
43.81000 185.305
43.82000 183.705
43.83000 184.573
43.84000 187.079
43.85000 189.456
43.86000 188.298
43.87000 185.548
43.88000 182.952
43.89000 179.430
43.90000 175.937
43.91000 172.782
43.92000 172.157
43.93000 172.053
43.94000 173.036
43.95000 179.232
43.96000 186.108
43.97000 191.439
43.98000 187.755
43.99000 184.289
44.00000 181.448
44.01000 179.974
44.02000 178.549
44.03000 178.515
44.04000 180.546
44.05000 182.595
44.06000 185.668
44.07000 189.736
44.08000 193.750
44.09000 193.168
44.10000 189.642
44.11000 186.342
44.12000 188.749
44.13000 193.639
44.14000 198.240
44.15000 200.169
44.16000 201.207
44.17000 202.469
44.18000 205.330
44.19000 208.508
44.20000 210.374
44.21000 206.187
44.22000 201.245
44.23000 197.448
44.24000 194.656
44.25000 192.504
44.26000 192.481
44.27000 196.951
44.28000 201.565
44.29000 204.019
44.30000 203.384
44.31000 202.725
44.32000 202.750
44.33000 203.412
44.34000 204.047
44.35000 202.732
44.36000 200.214
44.37000 197.665
44.38000 194.416
44.39000 190.873
44.40000 187.553
44.41000 192.366
44.42000 198.863
44.43000 204.004
44.44000 199.808
44.45000 193.838
44.46000 189.996
44.47000 195.600
44.48000 202.330
44.49000 207.452
44.50000 208.184
44.51000 208.529
44.52000 208.167
44.53000 206.365
44.54000 204.520
44.55000 205.116
44.56000 209.073
44.57000 213.049
44.58000 217.231
44.59000 221.592
44.60000 225.847
44.61000 223.336
44.62000 216.794
44.63000 210.637
44.64000 212.810
44.65000 218.363
44.66000 223.546
44.67000 224.903
44.68000 225.176
44.69000 225.456
44.70000 225.788
44.71000 226.130
44.72000 227.276
44.73000 231.860
44.74000 236.835
44.75000 240.586
44.76000 245.760
44.77000 249.881
44.78000 251.896
44.79000 249.764
44.80000 247.522
44.81000 250.164
44.82000 259.286
44.83000 268.433
44.84000 268.879
44.85000 261.841
44.86000 255.035
44.87000 261.073
44.88000 274.495
44.89000 287.388
44.90000 289.653
44.91000 287.753
44.92000 285.987
44.93000 282.222
44.94000 278.342
44.95000 275.433
44.96000 278.652
44.97000 282.947
44.98000 286.390
44.99000 286.331
45.00000 285.891
45.01000 285.563
45.02000 286.440
45.03000 287.179
45.04000 288.397
45.05000 290.526
45.06000 292.676
45.07000 292.929
45.08000 290.760
45.09000 288.584
45.10000 282.765
45.11000 273.955
45.12000 265.295
45.13000 264.046
45.14000 266.907
45.15000 269.600
45.16000 269.132
45.17000 267.467
45.18000 265.926
45.19000 263.126
45.20000 260.319
45.21000 257.523
45.22000 254.799
45.23000 252.088
45.24000 250.310
45.25000 252.245
45.26000 254.562
45.27000 256.275
45.28000 246.472
45.29000 238.376
45.30000 233.560
45.31000 234.760
45.32000 236.088
45.33000 234.807
45.34000 230.318
45.35000 225.828
45.36000 225.663
45.37000 228.935
45.38000 232.059
45.39000 228.686
45.40000 221.834
45.41000 215.414
45.42000 216.576
45.43000 220.508
45.44000 224.132
45.45000 214.810
45.46000 203.598
45.47000 194.861
45.48000 200.523
45.49000 208.512
45.50000 214.619
45.51000 213.529
45.52000 211.732
45.53000 210.417
45.54000 208.889
45.55000 207.701
45.56000 206.231
45.57000 204.260
45.58000 202.279
45.59000 202.562
45.60000 205.522
45.61000 208.479
45.62000 208.009
45.63000 204.926
45.64000 201.993
45.65000 204.972
45.66000 211.007
45.67000 216.327
45.68000 209.908
45.69000 199.349
45.70000 189.658
45.71000 191.225
45.72000 195.013
45.73000 198.294
45.74000 198.747
45.75000 198.761
45.76000 197.548
45.77000 191.803
45.78000 185.636
45.79000 181.169
45.80000 183.697
45.81000 185.895
45.82000 186.749
45.83000 185.307
45.84000 183.825
45.85000 183.915
45.86000 185.791
45.87000 187.663
45.88000 190.086
45.89000 192.895
45.90000 195.603
45.91000 194.701
45.92000 191.998
45.93000 189.337
45.94000 187.320
45.95000 185.523
45.96000 183.881
45.97000 182.420
45.98000 181.161
45.99000 179.725
46.00000 177.343
46.01000 174.821
46.02000 173.036
46.03000 173.877
46.04000 174.951
46.05000 175.720
46.06000 173.094
46.07000 170.972
46.08000 171.269
46.09000 175.553
46.10000 179.897
46.11000 179.741
46.12000 174.667
46.13000 169.611
46.14000 170.109
46.15000 174.522
46.16000 178.891
46.17000 181.872
46.18000 184.184
46.19000 185.870
46.20000 178.498
46.21000 168.146
46.22000 158.736
46.23000 161.518
46.24000 166.360
46.25000 170.369
46.26000 170.079
46.27000 169.177
46.28000 169.183
46.29000 172.306
46.30000 175.690
46.31000 178.089
46.32000 178.452
46.33000 178.664
46.34000 178.612
46.35000 178.138
46.36000 177.659
46.37000 177.655
46.38000 178.150
46.39000 178.643
46.40000 177.578
46.41000 175.467
46.42000 173.376
46.43000 171.880
46.44000 170.660
46.45000 169.807
46.46000 173.982
46.47000 179.753
46.48000 184.973
46.49000 179.713
46.50000 173.119
46.51000 167.565
46.52000 167.173
46.53000 167.484
46.54000 167.343
46.55000 165.708
46.56000 163.955
46.57000 162.726
46.58000 171.692
46.59000 178.769
46.60000 179.127
46.61000 169.184
46.62000 159.129
46.63000 158.194
46.64000 166.456
46.65000 174.669
46.66000 175.996
46.67000 172.809
46.68000 169.752
46.69000 170.233
46.70000 172.304
46.71000 173.599
46.72000 164.885
46.73000 153.105
46.74000 142.501
46.75000 147.969
46.76000 155.645
46.77000 162.556
46.78000 165.809
46.79000 168.587
46.80000 171.699
46.81000 175.879
46.82000 180.139
46.83000 183.091
46.84000 182.526
46.85000 182.007
46.86000 180.195
46.87000 176.469
46.88000 172.727
46.89000 171.997
46.90000 174.184
46.91000 176.354
46.92000 175.101
46.93000 171.718
46.94000 168.489
46.95000 169.117
46.96000 171.420
46.97000 173.323
46.98000 170.360
46.99000 165.958
47.00000 162.016
47.01000 171.020
47.02000 181.105
47.03000 188.439
47.04000 183.131
47.05000 176.250
47.06000 169.896
47.07000 165.166
47.08000 160.550
47.09000 157.390
47.10000 160.745
47.11000 163.414
47.12000 164.731
47.13000 164.122
47.14000 163.499
47.15000 162.219
47.16000 160.329
47.17000 158.454
47.18000 155.546
47.19000 152.068
47.20000 148.769
47.21000 149.626
47.22000 152.226
47.23000 154.700
47.24000 155.724
47.25000 156.336
47.26000 156.881
47.27000 157.623
47.28000 158.300
47.29000 158.974
47.30000 159.635
47.31000 160.294
47.32000 160.425
47.33000 158.981
47.34000 157.432
47.35000 156.384
47.36000 158.918
47.37000 160.884
47.38000 161.094
47.39000 158.891
47.40000 156.676
47.41000 157.174
47.42000 160.096
47.43000 162.989
47.44000 166.060
47.45000 169.169
47.46000 172.005
47.47000 168.968
47.48000 163.553
47.49000 158.706
47.50000 160.075
47.51000 163.153
47.52000 165.879
47.53000 168.180
47.54000 170.103
47.55000 170.900
47.56000 166.903
47.57000 162.362
47.58000 159.210
47.59000 160.053
47.60000 161.146
47.61000 161.876
47.62000 161.400
47.63000 161.024
47.64000 160.012
47.65000 158.161
47.66000 156.303
47.67000 152.281
47.68000 146.402
47.69000 140.590
47.70000 143.732
47.71000 151.807
47.72000 159.544
47.73000 160.534
47.74000 158.889
47.75000 157.701
47.76000 161.276
47.77000 166.114
47.78000 170.375
47.79000 167.140
47.80000 163.225
47.81000 160.077
47.82000 160.083
47.83000 160.430
47.84000 158.926
47.85000 152.285
47.86000 145.343
47.87000 140.763
47.88000 148.915
47.89000 155.149
47.90000 158.487
47.91000 158.138
47.92000 157.777
47.93000 157.603
47.94000 157.584
47.95000 157.566
47.96000 157.227
47.97000 156.726
47.98000 156.259
47.99000 156.422
48.00000 156.823
48.01000 157.241
48.02000 157.824
48.03000 158.450
48.04000 158.998
48.05000 156.979
48.06000 154.878
48.07000 153.440
48.08000 154.627
48.09000 156.084
48.10000 157.628
48.11000 159.405
48.12000 161.196
48.13000 162.362
48.14000 159.351
48.15000 157.077
48.16000 155.987
48.17000 156.347
48.18000 156.713
48.19000 157.548
48.20000 158.757
48.21000 159.948
48.22000 159.958
48.23000 159.355
48.24000 158.659
48.25000 156.314
48.26000 153.369
48.27000 151.226
48.28000 156.642
48.29000 163.920
48.30000 170.257
48.31000 164.945
48.32000 158.806
48.33000 154.652
48.34000 158.067
48.35000 162.222
48.36000 164.381
48.37000 161.375
48.38000 158.104
48.39000 156.001
48.40000 147.086
48.41000 140.488
48.42000 141.971
48.43000 152.982
48.44000 163.966
48.45000 165.133
48.46000 158.783
48.47000 152.538
48.48000 149.146
48.49000 147.286
48.50000 145.632
48.51000 147.324
48.52000 150.194
48.53000 152.798
48.54000 153.027
48.55000 152.691
48.56000 152.401
48.57000 152.894
48.58000 153.417
48.59000 154.325
48.60000 156.652
48.61000 159.111
48.62000 161.595
48.63000 164.143
48.64000 166.694
48.65000 168.312
48.66000 156.832
48.67000 148.345
48.68000 145.051
48.69000 147.644
48.70000 150.243
48.71000 152.881
48.72000 155.546
48.73000 158.162
48.74000 157.266
48.75000 154.717
48.76000 152.194
48.77000 150.051
48.78000 148.038
48.79000 146.438
48.80000 148.365
48.81000 151.100
48.82000 153.451
48.83000 154.885
48.84000 155.983
48.85000 156.043
48.86000 152.418
48.87000 148.468
48.88000 146.540
48.89000 149.495
48.90000 152.665
48.91000 154.647
48.92000 149.077
48.93000 144.978
48.94000 144.585
48.95000 148.232
48.96000 151.857
48.97000 151.967
48.98000 149.581
48.99000 147.244
49.00000 148.273
49.01000 150.817
49.02000 153.156
49.03000 152.533
49.04000 150.939
49.05000 149.772
49.06000 152.087
49.07000 155.169
49.08000 157.803
49.09000 160.262
49.10000 162.313
49.11000 163.109
49.12000 159.608
49.13000 155.748
49.14000 153.026
49.15000 152.955
49.16000 152.992
49.17000 153.015
49.18000 153.401
49.19000 153.681
49.20000 152.384
49.21000 149.435
49.22000 146.534
49.23000 149.310
49.24000 155.972
49.25000 162.483
49.26000 162.769
49.27000 160.275
49.28000 158.001
49.29000 158.724
49.30000 160.396
49.31000 161.749
49.32000 160.611
49.33000 158.945
49.34000 157.531
49.35000 153.470
49.36000 149.762
49.37000 147.282
49.38000 148.856
49.39000 150.751
49.40000 152.346
49.41000 153.266
49.42000 154.160
49.43000 154.703
49.44000 154.150
49.45000 153.747
49.46000 153.751
49.47000 154.163
49.48000 154.546
49.49000 152.055
49.50000 147.669
49.51000 143.391
49.52000 147.261
49.53000 154.442
49.54000 160.888
49.55000 157.901
49.56000 152.034
49.57000 147.165
49.58000 149.734
49.59000 153.821
49.60000 157.268
49.61000 157.754
49.62000 157.840
49.63000 156.451
49.64000 150.358
49.65000 143.914
49.66000 141.338
49.67000 147.171
49.68000 153.295
49.69000 156.957
49.70000 156.568
49.71000 156.266
49.72000 158.980
49.73000 164.603
49.74000 170.099
49.75000 165.136
49.76000 153.517
49.77000 142.215
49.78000 144.227
49.79000 151.622
49.80000 158.327
49.81000 156.661
49.82000 152.529
49.83000 149.033
49.84000 150.076
49.85000 152.009
49.86000 153.628
49.87000 158.265
49.88000 162.430
49.89000 165.238
49.90000 163.869
49.91000 162.207
49.92000 160.144
49.93000 157.240
49.94000 154.310
49.95000 152.586
49.96000 157.780
49.97000 161.480
49.98000 161.372
49.99000 157.737
50.00000 154.162
50.01000 154.810
50.02000 158.050
50.03000 161.195
50.04000 158.663
50.05000 154.014
50.06000 149.830
50.07000 150.984
50.08000 153.657
50.09000 156.092
50.10000 156.910
50.11000 157.422
50.12000 157.847
50.13000 153.047
50.14000 148.564
50.15000 146.692
50.16000 152.577
50.17000 158.976
50.18000 163.610
50.19000 164.666
50.20000 165.620
50.21000 166.172
50.22000 163.187
50.23000 161.082
50.24000 163.383
50.25000 169.607
50.26000 175.729
50.27000 175.595
50.28000 171.756
50.29000 168.041
50.30000 169.371
50.31000 172.550
50.32000 175.665
50.33000 178.083
50.34000 180.311
50.35000 182.241
50.36000 182.219
50.37000 181.843
50.38000 181.533
50.39000 184.852
50.40000 187.922
50.41000 190.052
50.42000 189.483
50.43000 188.746
50.44000 188.734
50.45000 190.141
50.46000 191.585
50.47000 192.408
50.48000 199.096
50.49000 203.772
50.50000 204.282
50.51000 201.226
50.52000 198.256
50.53000 200.000
50.54000 204.438
50.55000 208.721
50.56000 212.666
50.57000 216.257
50.58000 219.191
50.59000 215.315
50.60000 209.638
50.61000 204.662
50.62000 204.084
50.63000 204.271
50.64000 204.425
50.65000 208.412
50.66000 212.019
50.67000 212.711
50.68000 205.334
50.69000 197.486
50.70000 191.939
50.71000 190.739
50.72000 189.642
50.73000 189.027
50.74000 191.950
50.75000 193.977
50.76000 192.940
50.77000 189.380
50.78000 185.873
50.79000 184.956
50.80000 185.467
50.81000 185.959
50.82000 185.944
50.83000 185.750
50.84000 185.373
50.85000 183.180
50.86000 180.525
50.87000 178.065
50.88000 176.776
50.89000 175.683
50.90000 174.794
50.91000 172.252
50.92000 170.038
50.93000 170.053
50.94000 176.021
50.95000 182.315
50.96000 183.952
50.97000 177.096
50.98000 170.061
50.99000 166.189
51.00000 165.023
51.01000 164.216
51.02000 160.600
51.03000 154.759
51.04000 149.046
51.05000 148.820
51.06000 151.516
51.07000 154.103
51.08000 156.236
51.09000 158.075
51.10000 159.590
51.11000 158.061
51.12000 155.783
51.13000 153.527
51.14000 151.392
51.15000 149.276
51.16000 147.570
51.17000 147.513
51.18000 147.596
51.19000 147.690
51.20000 147.809
51.21000 147.929
51.22000 148.005
51.23000 148.003
51.24000 148.000
51.25000 147.998
51.26000 146.093
51.27000 144.779
51.28000 141.881
51.29000 137.772
51.30000 133.838
51.31000 136.701
51.32000 143.055
51.33000 149.132
51.34000 148.900
51.35000 146.624
51.36000 144.624
51.37000 145.098
51.38000 146.158
51.39000 146.874
51.40000 145.686
51.41000 144.205
51.42000 143.020
51.43000 140.727
51.44000 138.789
51.45000 136.985
51.46000 135.512
51.47000 134.054
51.48000 135.718
51.49000 142.684
51.50000 149.737
51.51000 153.480
51.52000 144.341
51.53000 138.166
51.54000 140.451
51.55000 148.956
51.56000 157.184
51.57000 155.713
51.58000 149.430
51.59000 143.440
51.60000 140.379
51.61000 138.459
51.62000 136.706
51.63000 136.372
51.64000 136.361
51.65000 137.278
51.66000 143.143
51.67000 149.738
51.68000 154.973
51.69000 149.528
51.70000 144.392
51.71000 142.710
51.72000 149.341
51.73000 156.336
51.74000 158.292
51.75000 151.990
51.76000 145.569
51.77000 142.225
51.78000 142.236
51.79000 142.241
51.80000 141.910
51.81000 141.342
51.82000 140.859
51.83000 143.127
51.84000 146.712
51.85000 150.119
51.86000 149.917
51.87000 148.640
51.88000 147.097
51.89000 143.385
51.90000 139.198
51.91000 135.432
51.92000 133.830
51.93000 132.533
51.94000 131.513
51.95000 134.271
51.96000 136.733
51.97000 138.509
51.98000 138.691
51.99000 138.809
52.00000 139.354
52.01000 140.572
52.02000 141.800
52.03000 142.426
52.04000 139.143
52.05000 136.972
52.06000 138.702
52.07000 143.094
52.08000 147.347
52.09000 147.529
52.10000 145.827
52.11000 144.215
52.12000 146.791
52.13000 150.378
52.14000 153.068
52.15000 148.803
52.16000 143.067
52.17000 139.510
52.18000 146.700
52.19000 155.341
52.20000 162.084
52.21000 148.547
52.22000 136.483
52.23000 128.544
52.24000 129.865
52.25000 131.533
52.26000 133.883
52.27000 137.273
52.28000 140.674
52.29000 142.375
52.30000 142.230
52.31000 142.112
52.32000 140.037
52.33000 136.674
52.34000 133.539
52.35000 136.522
52.36000 142.237
52.37000 147.629
52.38000 143.207
52.39000 136.416
52.40000 130.145
52.41000 127.733
52.42000 126.107
52.43000 124.686
52.44000 124.234
52.45000 123.908
52.46000 123.656
52.47000 130.876
52.48000 137.044
52.49000 140.080
52.50000 136.325
52.51000 132.336
52.52000 130.425
52.53000 131.567
52.54000 132.736
52.55000 135.480
52.56000 139.736
52.57000 143.946
52.58000 144.302
52.59000 142.214
52.60000 140.183
52.61000 139.590
52.62000 139.616
52.63000 139.640
52.64000 139.191
52.65000 138.654
52.66000 138.386
52.67000 140.031
52.68000 142.051
52.69000 143.008
52.70000 139.111
52.71000 134.615
52.72000 131.169
52.73000 133.732
52.74000 136.087
52.75000 138.034
52.76000 139.124
52.77000 140.187
52.78000 139.847
52.79000 137.520
52.80000 135.180
52.81000 135.062
52.82000 136.997
52.83000 138.901
52.84000 138.724
52.85000 137.274
52.86000 135.913
52.87000 136.626
52.88000 138.202
52.89000 139.678
52.90000 137.241
52.91000 134.016
52.92000 131.440
52.93000 133.271
52.94000 135.931
52.95000 138.843
52.96000 142.862
52.97000 147.011
52.98000 150.161
52.99000 149.094
53.00000 148.036
53.01000 145.650
53.02000 140.575
53.03000 135.424
53.04000 136.034
53.05000 144.504
53.06000 153.015
53.07000 157.203
53.08000 157.552
53.09000 157.879
53.10000 156.854
53.11000 155.030
53.12000 153.192
53.13000 151.040
53.14000 148.761
53.15000 146.636
53.16000 146.917
53.17000 147.767
53.18000 147.878
53.19000 143.169
53.20000 137.590
53.21000 134.032
53.22000 139.042
53.23000 145.014
53.24000 149.506
53.25000 147.940
53.26000 146.423
53.27000 145.769
53.28000 146.802
53.29000 147.880
53.30000 151.176
53.31000 157.389
53.32000 163.609
53.33000 165.607
53.34000 164.003
53.35000 162.413
53.36000 161.511
53.37000 161.001
53.38000 160.500
53.39000 160.166
53.40000 159.898
53.41000 159.648
53.42000 158.177
53.43000 156.560
53.44000 154.831
53.45000 152.408
53.46000 149.864
53.47000 148.669
53.48000 152.979
53.49000 157.878
53.50000 161.527
53.51000 153.468
53.52000 146.666
53.53000 142.614
53.54000 143.742
53.55000 144.991
53.56000 145.856
53.57000 146.237
53.58000 146.615
53.59000 147.841
53.60000 149.756
53.61000 151.582
53.62000 149.164
53.63000 144.412
53.64000 139.743
53.65000 136.597
53.66000 134.023
53.67000 131.642
53.68000 134.537
53.69000 138.342
53.70000 141.730
53.71000 142.617
53.72000 143.088
53.73000 143.658
53.74000 144.617
53.75000 145.615
53.76000 146.352
53.77000 136.942
53.78000 129.227
53.79000 125.549
53.80000 129.211
53.81000 133.025
53.82000 137.414
53.83000 142.501
53.84000 147.580
53.85000 148.133
53.86000 145.124
53.87000 142.189
53.88000 142.406
53.89000 144.296
53.90000 146.084
53.91000 146.116
53.92000 145.512
53.93000 144.955
53.94000 139.304
53.95000 133.134
53.96000 128.127
53.97000 129.821
53.98000 132.586
53.99000 134.380
54.00000 132.493
54.01000 130.249
54.02000 128.610
54.03000 132.880
54.04000 136.401
54.05000 138.919
54.06000 139.676
54.07000 140.400
54.08000 139.567
54.09000 136.909
54.10000 134.255
54.11000 136.037
54.12000 141.161
54.13000 146.074
54.14000 142.888
54.15000 135.551
54.16000 128.765
54.17000 130.866
54.18000 136.076
54.19000 140.851
54.20000 141.851
54.21000 141.947
54.22000 141.843
54.23000 140.631
54.24000 139.249
54.25000 137.144
54.26000 132.396
54.27000 127.405
54.28000 123.799
54.29000 131.218
54.30000 137.306
54.31000 139.402
54.32000 134.736
54.33000 129.959
54.34000 130.396
54.35000 136.705
54.36000 142.998
54.37000 142.086
54.38000 135.946
54.39000 130.020
54.40000 131.580
54.41000 136.842
54.42000 141.627
54.43000 139.165
54.44000 134.257
54.45000 129.779
54.46000 129.333
54.47000 129.749
54.48000 130.104
54.49000 130.128
54.50000 130.105
54.51000 131.083
54.52000 135.596
54.53000 140.418
54.54000 143.864
54.55000 142.567
54.56000 141.418
54.57000 140.846
54.58000 141.216
54.59000 141.600
54.60000 142.471
54.61000 143.869
54.62000 145.262
54.63000 142.038
54.64000 135.622
54.65000 129.397
54.66000 129.265
54.67000 132.042
54.68000 134.604
54.69000 134.080
54.70000 132.552
54.71000 131.164
54.72000 135.112
54.73000 139.631
54.74000 143.413
54.75000 143.426
54.76000 142.910
54.77000 142.576
54.78000 142.863
54.79000 143.200
54.80000 143.439
54.81000 142.088
54.82000 141.013
54.83000 139.942
54.84000 138.877
54.85000 137.811
54.86000 138.906
54.87000 142.246
54.88000 145.569
54.89000 146.126
54.90000 144.818
54.91000 143.510
54.92000 142.231
54.93000 140.964
54.94000 139.676
54.95000 138.097
54.96000 136.427
54.97000 134.917
54.98000 137.618
54.99000 140.774
55.00000 143.138
55.01000 141.614
55.02000 139.566
55.03000 138.272
55.04000 139.450
55.05000 140.822
55.06000 141.781
55.07000 142.566
55.08000 143.154
55.09000 143.877
55.10000 144.807
55.11000 145.738
55.12000 148.110
55.13000 151.919
55.14000 155.703
55.15000 157.480
55.16000 157.933
55.17000 158.369
55.18000 158.357
55.19000 158.147
55.20000 157.907
55.21000 157.285
55.22000 156.548
55.23000 155.885
55.24000 157.990
55.25000 160.324
55.26000 162.343
55.27000 162.870
55.28000 163.205
55.29000 165.069
55.30000 171.776
55.31000 178.842
55.32000 183.723
55.33000 180.399
55.34000 177.689
55.35000 179.526
55.36000 188.022
55.37000 196.576
55.38000 201.737
55.39000 203.646
55.40000 205.541
55.41000 208.484
55.42000 212.030
55.43000 215.663
55.44000 221.442
55.45000 228.145
55.46000 235.155
55.47000 245.858
55.48000 257.643
55.49000 268.183
55.50000 273.351
55.51000 276.944
55.52000 281.220
55.53000 288.603
55.54000 296.368
55.55000 307.441
55.56000 328.631
55.57000 350.526
55.58000 365.474
55.59000 367.624
55.60000 368.933
55.61000 377.660
55.62000 396.858
55.63000 416.127
55.64000 428.739
55.65000 435.222
55.66000 441.649
55.67000 453.662
55.68000 468.786
55.69000 484.002
55.70000 501.317
55.71000 519.504
55.72000 537.084
55.73000 547.734
55.74000 556.427
55.75000 564.160
55.76000 575.149
55.77000 585.220
55.78000 594.873
55.79000 602.695
55.80000 610.302
55.81000 617.225
55.82000 622.130
55.83000 626.903
55.84000 630.122
55.85000 638.030
55.86000 644.013
55.87000 644.430
55.88000 637.277
55.89000 630.083
55.90000 624.317
55.91000 619.814
55.92000 615.359
55.93000 601.851
55.94000 583.429
55.95000 565.803
55.96000 564.965
55.97000 570.859
55.98000 575.277
55.99000 563.723
56.00000 547.816
56.01000 533.745
56.02000 516.522
56.03000 501.144
56.04000 486.317
56.05000 473.816
56.06000 461.575
56.07000 451.175
56.08000 446.022
56.09000 441.191
56.10000 437.973
56.11000 425.727
56.12000 416.491
56.13000 401.469
56.14000 378.868
56.15000 356.241
56.16000 338.313
56.17000 324.384
56.18000 310.619
56.19000 294.939
56.20000 278.585
56.21000 262.895
56.22000 260.245
56.23000 262.645
56.24000 263.883
56.25000 253.181
56.26000 239.343
56.27000 227.170
56.28000 225.737
56.29000 226.103
56.30000 224.885
56.31000 217.218
56.32000 208.863
56.33000 201.720
56.34000 197.914
56.35000 194.300
56.36000 191.923
56.37000 180.395
56.38000 171.751
56.39000 166.426
56.40000 165.286
56.41000 164.157
56.42000 161.789
56.43000 158.409
56.44000 155.073
56.45000 152.284
56.46000 149.862
56.47000 147.551
56.48000 147.276
56.49000 147.761
56.50000 148.136
56.51000 147.436
56.52000 146.464
56.53000 145.613
56.54000 146.988
56.55000 148.482
56.56000 149.695
56.57000 149.807
56.58000 149.808
56.59000 149.183
56.60000 146.899
56.61000 144.526
56.62000 142.985
56.63000 138.665
56.64000 135.459
56.65000 133.218
56.66000 132.147
56.67000 131.076
56.68000 128.932
56.69000 125.944
56.70000 123.002
56.71000 121.679
56.72000 121.226
56.73000 120.933
56.74000 123.372
56.75000 126.797
56.76000 130.332
56.77000 134.882
56.78000 139.681
56.79000 143.853
56.80000 141.702
56.81000 139.008
56.82000 137.071
56.83000 137.996
56.84000 139.196
56.85000 139.196
56.86000 136.112
56.87000 132.874
56.88000 130.800
56.89000 132.706
56.90000 134.147
56.91000 134.607
56.92000 133.920
56.93000 133.235
56.94000 133.179
56.95000 133.601
56.96000 134.016
56.97000 129.578
56.98000 122.892
56.99000 116.621
57.00000 117.019
57.01000 119.742
57.02000 122.292
57.03000 123.310
57.04000 123.967
57.05000 124.535
57.06000 129.365
57.07000 134.019
57.08000 137.012
57.09000 133.947
57.10000 130.327
57.11000 127.847
57.12000 128.193
57.13000 128.671
57.14000 128.973
57.15000 129.712
57.16000 130.253
57.17000 130.968
57.18000 131.880
57.19000 132.773
57.20000 130.389
57.21000 125.611
57.22000 120.925
57.23000 122.497
57.24000 126.988
57.25000 131.200
57.26000 131.219
57.27000 129.827
57.28000 128.263
57.29000 125.242
57.30000 121.891
57.31000 119.014
57.32000 122.989
57.33000 127.196
57.34000 129.951
57.35000 127.595
57.36000 124.795
57.37000 123.353
57.38000 125.160
57.39000 127.108
57.40000 128.322
57.41000 128.523
57.42000 128.658
57.43000 126.820
57.44000 122.854
57.45000 118.899
57.46000 116.491
57.47000 115.173
57.48000 113.883
57.49000 114.087
57.50000 114.965
57.51000 115.975
57.52000 118.860
57.53000 122.355
57.54000 125.733
57.55000 128.178
57.56000 130.418
57.57000 132.329
57.58000 132.940
57.59000 133.301
57.60000 132.956
57.61000 130.219
57.62000 127.285
57.63000 124.545
57.64000 122.255
57.65000 119.982
57.66000 118.587
57.67000 126.690
57.68000 132.579
57.69000 134.077
57.70000 131.025
57.71000 127.990
57.72000 126.883
57.73000 127.083
57.74000 127.279
57.75000 125.996
57.76000 124.117
57.77000 122.400
57.78000 122.862
57.79000 124.007
57.80000 125.172
57.81000 126.484
57.82000 127.827
57.83000 128.965
57.84000 127.639
57.85000 126.252
57.86000 123.721
57.87000 117.449
57.88000 110.885
57.89000 107.916
57.90000 112.969
57.91000 118.318
57.92000 121.554
57.93000 122.548
57.94000 123.240
57.95000 125.658
57.96000 129.795
57.97000 133.894
57.98000 134.631
57.99000 133.168
58.00000 131.743
58.01000 127.496
58.02000 122.249
58.03000 117.418
58.04000 117.857
58.05000 119.889
58.06000 121.652
58.07000 121.420
58.08000 120.785
58.09000 120.251
58.10000 118.767
58.11000 117.429
58.12000 117.049
58.13000 119.700
58.14000 122.573
58.15000 124.771
58.16000 125.518
58.17000 126.214
58.18000 126.629
58.19000 125.484
58.20000 124.663
58.21000 122.733
58.22000 119.744
58.23000 116.758
58.24000 114.051
58.25000 111.519
58.26000 109.058
58.27000 114.956
58.28000 123.971
58.29000 132.262
58.30000 131.874
58.31000 128.952
58.32000 125.670
58.33000 119.851
58.34000 113.540
58.35000 108.264
58.36000 109.114
58.37000 110.443
58.38000 111.855
58.39000 113.519
58.40000 115.200
58.41000 115.628
58.42000 113.449
58.43000 111.189
58.44000 109.865
58.45000 107.311
58.46000 105.508
58.47000 106.078
58.48000 108.825
58.49000 111.603
58.50000 116.409
58.51000 122.449
58.52000 128.305
58.53000 127.381
58.54000 123.846
58.55000 120.251
58.56000 115.989
58.57000 111.540
58.58000 108.123
58.59000 111.689
58.60000 116.558
58.61000 120.600
58.62000 124.882
58.63000 128.445
58.64000 130.702
58.65000 129.110
58.66000 127.268
58.67000 126.194
58.68000 126.664
58.69000 127.177
58.70000 127.473
58.71000 119.034
58.72000 113.092
58.73000 109.664
58.74000 108.455
58.75000 107.298
58.76000 109.301
58.77000 113.159
58.78000 116.889
58.79000 121.292
58.80000 125.702
58.81000 129.421
58.82000 125.704
58.83000 119.967
58.84000 115.122
58.85000 116.059
58.86000 118.033
58.87000 119.660
58.88000 119.525
58.89000 119.253
58.90000 118.859
58.91000 118.123
58.92000 117.365
58.93000 115.908
58.94000 113.095
58.95000 110.247
58.96000 108.631
58.97000 109.511
58.98000 110.133
58.99000 111.410
59.00000 113.243
59.01000 115.066
59.02000 116.343
59.03000 117.309
59.04000 118.241
59.05000 118.888
59.06000 119.394
59.07000 119.913
59.08000 120.576
59.09000 121.277
59.10000 121.621
59.11000 119.749
59.12000 117.495
59.13000 115.652
59.14000 120.030
59.15000 124.157
59.16000 126.433
59.17000 123.633
59.18000 120.541
59.19000 117.514
59.20000 114.609
59.21000 111.706
59.22000 110.087
59.23000 115.586
59.24000 119.394
59.25000 118.323
59.26000 113.270
59.27000 108.366
59.28000 110.369
59.29000 116.147
59.30000 121.704
59.31000 123.983
59.32000 124.974
59.33000 125.521
59.34000 121.762
59.35000 116.915
59.36000 112.832
59.37000 113.298
59.38000 114.517
59.39000 115.506
59.40000 115.427
59.41000 115.274
59.42000 115.446
59.43000 116.476
59.44000 117.552
59.45000 117.351
59.46000 114.842
59.47000 112.286
59.48000 110.886
59.49000 109.478
59.50000 108.514
59.51000 108.652
59.52000 109.656
59.53000 110.697
59.54000 113.313
59.55000 116.760
59.56000 120.064
59.57000 120.225
59.58000 119.319
59.59000 118.326
59.60000 116.535
59.61000 114.549
59.62000 112.583
59.63000 110.738
59.64000 108.912
59.65000 107.442
59.66000 111.099
59.67000 114.466
59.68000 117.845
59.69000 121.256
59.70000 124.669
59.71000 126.180
59.72000 124.372
59.73000 122.504
59.74000 121.498
59.75000 119.422
59.76000 118.014
59.77000 119.051
59.78000 121.936
59.79000 124.689
59.80000 122.426
59.81000 117.609
59.82000 113.005
59.83000 110.527
59.84000 108.909
59.85000 107.904
59.86000 112.303
59.87000 117.969
59.88000 123.024
59.89000 124.723
59.90000 125.911
59.91000 126.860
59.92000 121.487
59.93000 116.681
59.94000 113.222
59.95000 113.090
59.96000 113.113
59.97000 113.532
59.98000 114.617
59.99000 115.713
60.00000 116.292
60.01000 112.437
60.02000 109.833
60.03000 109.970
60.04000 112.102
60.05000 114.204
60.06000 115.258
60.07000 115.796
60.08000 116.310
60.09000 116.398
60.10000 116.347
60.11000 116.269
60.12000 115.966
60.13000 115.613
60.14000 115.570
60.15000 117.168
60.16000 119.006
60.17000 120.461
60.18000 119.746
60.19000 119.020
60.20000 119.332
60.21000 122.117
60.22000 125.009
60.23000 126.570
60.24000 125.970
60.25000 125.340
60.26000 125.013
60.27000 123.830
60.28000 123.034
60.29000 122.682
60.30000 122.640
60.31000 122.545
60.32000 120.757
60.33000 118.167
60.34000 115.708
60.35000 113.248
60.36000 110.977
60.37000 109.159
60.38000 110.980
60.39000 113.593
60.40000 115.577
60.41000 114.375
60.42000 112.727
60.43000 111.433
60.44000 113.173
60.45000 114.764
60.46000 115.781
60.47000 115.475
60.48000 115.116
60.49000 116.094
60.50000 119.166
60.51000 122.262
60.52000 123.835
60.53000 119.893
60.54000 117.262
60.55000 115.749
60.56000 114.993
60.57000 114.213
60.58000 112.758
60.59000 110.993
60.60000 109.324
60.61000 107.136
60.62000 104.976
60.63000 103.541
60.64000 107.673
60.65000 112.970
60.66000 117.588
60.67000 118.889
60.68000 119.747
60.69000 120.415
60.70000 115.497
60.71000 111.236
60.72000 109.775
60.73000 114.543
60.74000 119.540
60.75000 121.878
60.76000 120.201
60.77000 118.484
60.78000 115.873
60.79000 112.375
60.80000 108.897
60.81000 107.219
60.82000 106.714
60.83000 106.341
60.84000 109.437
60.85000 114.069
60.86000 118.435
60.87000 122.082
60.88000 125.222
60.89000 127.675
60.90000 125.086
60.91000 121.482
60.92000 118.234
60.93000 116.663
60.94000 115.306
60.95000 114.259
60.96000 112.168
60.97000 110.450
60.98000 110.166
60.99000 112.962
61.00000 115.862
61.01000 117.321
61.02000 116.681
61.03000 116.023
61.04000 115.906
61.05000 116.302
61.06000 116.721
61.07000 118.844
61.08000 122.039
61.09000 125.116
61.10000 125.326
61.11000 124.310
61.12000 123.357
61.13000 124.115
61.14000 125.260
61.15000 126.515
61.16000 128.534
61.17000 130.702
61.18000 132.194
61.19000 130.631
61.20000 128.696
61.21000 127.216
61.22000 119.593
61.23000 113.247
61.24000 109.561
61.25000 111.397
61.26000 113.402
61.27000 115.970
61.28000 119.326
61.29000 122.686
61.30000 125.541
61.31000 127.932
61.32000 130.253
61.33000 127.876
61.34000 122.649
61.35000 117.881
61.36000 123.420
61.37000 133.215
61.38000 142.377
61.39000 139.027
61.40000 132.793
61.41000 126.956
61.42000 123.796
61.43000 121.135
61.44000 119.801
61.45000 124.249
61.46000 129.371
61.47000 133.252
61.48000 139.081
61.49000 143.756
61.50000 148.290
61.51000 152.542
61.52000 156.786
61.53000 166.400
61.54000 183.269
61.55000 200.170
61.56000 212.450
61.57000 220.657
61.58000 228.910
61.59000 239.816
61.60000 252.275
61.61000 264.597
61.62000 274.059
61.63000 282.381
61.64000 290.134
61.65000 293.946
61.66000 296.430
61.67000 299.157
61.68000 303.456
61.69000 308.037
61.70000 310.019
61.71000 301.094
61.72000 290.958
61.73000 283.353
61.74000 291.442
61.75000 298.508
61.76000 298.141
61.77000 283.400
61.78000 268.294
61.79000 251.135
61.80000 231.305
61.81000 211.482
61.82000 194.752
61.83000 180.671
61.84000 166.722
61.85000 159.672
61.86000 156.517
61.87000 153.272
61.88000 148.297
61.89000 142.655
61.90000 137.421
61.91000 141.057
61.92000 146.421
61.93000 150.893
61.94000 149.845
61.95000 147.849
61.96000 145.535
61.97000 141.932
61.98000 138.192
61.99000 135.414
62.00000 128.105
62.01000 122.222
62.02000 118.494
62.03000 118.790
62.04000 119.178
62.05000 120.072
62.06000 121.600
62.07000 123.127
62.08000 124.139
62.09000 124.729
62.10000 125.262
62.11000 123.179
62.12000 119.670
62.13000 116.506
62.14000 119.606
62.15000 125.034
62.16000 130.049
62.17000 130.600
62.18000 130.085
62.19000 129.085
62.20000 125.209
62.21000 120.858
62.22000 118.020
62.23000 121.080
62.24000 124.734
62.25000 127.422
62.26000 130.926
62.27000 133.671
62.28000 134.743
62.29000 132.800
62.30000 130.795
62.31000 130.205
62.32000 131.319
62.33000 132.435
62.34000 132.384
62.35000 131.426
62.36000 130.487
62.37000 130.308
62.38000 130.530
62.39000 130.700
62.40000 129.999
62.41000 128.985
62.42000 128.053
62.43000 127.424
62.44000 126.929
62.45000 126.542
62.46000 126.775
62.47000 127.106
62.48000 127.322
62.49000 127.101
62.50000 126.839
62.51000 126.649
62.52000 126.647
62.53000 126.653
62.54000 127.536
62.55000 129.942
62.56000 132.375
62.57000 133.446
62.58000 132.936
62.59000 132.425
62.60000 132.680
62.61000 133.504
62.62000 134.278
62.63000 133.144
62.64000 131.041
62.65000 128.930
62.66000 126.687
62.67000 124.397
62.68000 122.301
62.69000 126.615
62.70000 131.786
62.71000 136.030
62.72000 135.188
62.73000 133.576
62.74000 131.918
62.75000 130.096
62.76000 128.260
62.77000 126.937
62.78000 129.935
62.79000 132.384
62.80000 131.689
62.81000 125.716
62.82000 119.660
62.83000 117.778
62.84000 120.552
62.85000 123.319
62.86000 125.629
62.87000 127.589
62.88000 129.544
62.89000 131.301
62.90000 132.961
62.91000 134.440
62.92000 133.201
62.93000 131.053
62.94000 129.096
62.95000 126.738
62.96000 124.570
62.97000 123.133
62.98000 125.547
62.99000 128.520
63.00000 131.698
63.01000 135.592
63.02000 139.547
63.03000 142.366
63.04000 136.370
63.05000 131.511
63.06000 127.936
63.07000 126.439
63.08000 124.970
63.09000 123.452
63.10000 121.882
63.11000 120.319
63.12000 124.668
63.13000 133.063
63.14000 141.171
63.15000 140.396
63.16000 135.416
63.17000 130.760
63.18000 130.680
63.19000 132.077
63.20000 133.345
63.21000 135.847
63.22000 138.291
63.23000 140.174
63.24000 139.215
63.25000 137.860
63.26000 136.295
63.27000 134.019
63.28000 131.685
63.29000 130.040
63.30000 129.622
63.31000 129.342
63.32000 129.474
63.33000 130.249
63.34000 131.032
63.35000 131.228
63.36000 130.819
63.37000 130.413
63.38000 130.590
63.39000 131.154
63.40000 131.733
63.41000 132.729
63.42000 133.916
63.43000 134.939
63.44000 133.784
63.45000 131.950
63.46000 130.295
63.47000 130.566
63.48000 131.156
63.49000 130.944
63.50000 126.826
63.51000 122.188
63.52000 120.251
63.53000 127.104
63.54000 134.634
63.55000 139.881
63.56000 140.026
63.57000 139.995
63.58000 139.645
63.59000 138.815
63.60000 137.981
63.61000 138.170
63.62000 139.369
63.63000 140.560
63.64000 137.399
63.65000 131.498
63.66000 125.896
63.67000 128.069
63.68000 133.675
63.69000 138.879
63.70000 139.050
63.71000 137.707
63.72000 136.502
63.73000 138.984
63.74000 141.803
63.75000 143.773
63.76000 141.771
63.77000 139.263
63.78000 138.133
63.79000 141.325
63.80000 144.833
63.81000 147.249
63.82000 143.461
63.83000 140.461
63.84000 138.329
63.85000 137.456
63.86000 136.594
63.87000 136.191
63.88000 136.224
63.89000 136.256
63.90000 136.709
63.91000 137.414
63.92000 138.251
63.93000 142.242
63.94000 147.578
63.95000 152.352
63.96000 150.444
63.97000 146.597
63.98000 143.160
63.99000 144.563
64.00000 146.599
64.01000 147.566
64.02000 143.710
64.03000 139.268
64.04000 137.008
64.05000 141.361
64.06000 146.167
64.07000 149.438
64.08000 145.425
64.09000 142.261
64.10000 142.062
64.11000 146.010
64.12000 149.986
64.13000 153.532
64.14000 156.687
64.15000 159.812
64.16000 157.499
64.17000 152.009
64.18000 146.756
64.19000 146.777
64.20000 148.969
64.21000 150.994
64.22000 151.142
64.23000 150.765
64.24000 150.430
64.25000 153.475
64.26000 156.661
64.27000 158.525
64.28000 154.654
64.29000 150.118
64.30000 146.681
64.31000 146.464
64.32000 146.454
64.33000 146.447
64.34000 153.243
64.35000 158.434
64.36000 162.151
64.37000 163.884
64.38000 165.604
64.39000 164.784
64.40000 161.739
64.41000 158.728
64.42000 156.975
64.43000 155.980
64.44000 154.902
64.45000 152.104
64.46000 148.621
64.47000 145.735
64.48000 149.211
64.49000 154.405
64.50000 158.994
64.51000 159.191
64.52000 158.685
64.53000 158.752
64.54000 161.217
64.55000 163.946
64.56000 166.494
64.57000 168.528
64.58000 170.531
64.59000 171.861
64.60000 167.980
64.61000 165.014
64.62000 164.603
64.63000 167.508
64.64000 170.423
64.65000 170.988
64.66000 169.574
64.67000 168.177
64.68000 169.626
64.69000 172.598
64.70000 175.333
64.71000 173.477
64.72000 169.858
64.73000 166.764
64.74000 168.990
64.75000 172.603
64.76000 175.776
64.77000 177.643
64.78000 179.055
64.79000 180.108
64.80000 179.714
64.81000 179.167
64.82000 179.361
64.83000 181.579
64.84000 183.911
64.85000 185.439
64.86000 187.978
64.87000 189.862
64.88000 191.855
64.89000 193.983
64.90000 196.108
64.91000 196.585
64.92000 195.727
64.93000 194.882
64.94000 195.089
64.95000 195.848
64.96000 196.628
64.97000 197.795
64.98000 199.105
64.99000 200.264
65.00000 199.978
65.01000 199.328
65.02000 198.761
65.03000 206.950
65.04000 215.190
65.05000 221.532
65.06000 220.501
65.07000 218.730
65.08000 217.957
65.09000 219.813
65.10000 221.809
65.11000 223.100
65.12000 228.849
65.13000 233.119
65.14000 236.946
65.15000 240.241
65.16000 243.541
65.17000 248.348
65.18000 254.332
65.19000 260.223
65.20000 259.156
65.21000 254.587
65.22000 250.530
65.23000 255.111
65.24000 262.783
65.25000 269.902
65.26000 271.946
65.27000 272.763
65.28000 273.471
65.29000 282.179
65.30000 290.672
65.31000 298.104
65.32000 301.556
65.33000 304.628
65.34000 307.221
65.35000 308.592
65.36000 309.903
65.37000 310.740
65.38000 318.314
65.39000 323.911
65.40000 322.381
65.41000 312.612
65.42000 302.898
65.43000 306.557
65.44000 320.262
65.45000 333.727
65.46000 344.356
65.47000 353.235
65.48000 361.707
65.49000 363.738
65.50000 363.544
65.51000 363.733
65.52000 367.274
65.53000 371.597
65.54000 375.326
65.55000 383.633
65.56000 391.267
65.57000 401.136
65.58000 419.083
65.59000 437.760
65.60000 453.485
65.61000 461.961
65.62000 470.103
65.63000 475.229
65.64000 505.139
65.65000 527.060
65.66000 566.987
65.67000 626.924
65.68000 686.940
65.69000 757.211
65.70000 834.902
65.71000 911.078
65.72000 1030.906
65.73000 1166.828
65.74000 1303.588
65.75000 1452.821
65.76000 1606.214
65.77000 1753.772
65.78000 1852.589
65.79000 1940.464
65.80000 2015.795
65.81000 2078.517
65.82000 2129.945
65.83000 2173.112
65.84000 2187.487
65.85000 2199.393
65.86000 2205.630
65.87000 2198.415
65.88000 2190.628
65.89000 2185.795
65.90000 2133.609
65.91000 2095.595
65.92000 2040.978
65.93000 1968.628
65.94000 1896.030
65.95000 1792.246
65.96000 1666.714
65.97000 1543.895
65.98000 1383.857
65.99000 1213.409
66.00000 1046.903
66.01000 935.587
66.02000 842.047
66.03000 752.476
66.04000 694.563
66.05000 643.491
66.06000 599.993
66.07000 542.006
66.08000 491.564
66.09000 449.504
66.10000 435.626
66.11000 424.034
66.12000 414.286
66.13000 408.760
66.14000 403.401
66.15000 400.124
66.16000 387.608
66.17000 378.575
66.18000 371.784
66.19000 367.293
66.20000 362.911
66.21000 370.039
66.22000 384.903
66.23000 399.414
66.24000 416.787
66.25000 434.653
66.26000 452.186
66.27000 465.326
66.28000 477.101
66.29000 490.637
66.30000 517.602
66.31000 547.359
66.32000 572.534
66.33000 605.623
66.34000 634.195
66.35000 657.882
66.36000 665.723
66.37000 672.347
66.38000 676.567
66.39000 675.464
66.40000 674.169
66.41000 673.389
66.42000 659.323
66.43000 649.222
66.44000 642.664
66.45000 639.594
66.46000 636.526
66.47000 633.509
66.48000 630.527
66.49000 627.622
66.50000 608.962
66.51000 584.563
66.52000 560.508
66.53000 540.751
66.54000 522.283
66.55000 503.145
66.56000 479.130
66.57000 454.138
66.58000 433.138
66.59000 424.901
66.60000 419.385
66.61000 411.778
66.62000 397.621
66.63000 382.991
66.64000 371.346
66.65000 366.081
66.66000 361.027
66.67000 358.029
66.68000 362.485
66.69000 365.680
66.70000 364.663
66.71000 359.666
66.72000 354.731
66.73000 354.571
66.74000 357.395
66.75000 360.138
66.76000 364.269
66.77000 368.752
66.78000 372.365
66.79000 365.678
66.80000 356.011
66.81000 348.269
66.82000 353.967
66.83000 362.252
66.84000 369.164
66.85000 362.710
66.86000 356.014
66.87000 352.026
66.88000 356.220
66.89000 360.972
66.90000 365.333
66.91000 368.889
66.92000 372.420
66.93000 374.481
66.94000 373.834
66.95000 373.368
66.96000 375.745
66.97000 380.704
66.98000 385.581
66.99000 384.981
67.00000 381.080
67.01000 377.299
67.02000 377.106
67.03000 378.318
67.04000 379.743
67.05000 383.560
67.06000 388.046
67.07000 392.048
67.08000 392.817
67.09000 392.988
67.10000 393.129
67.11000 397.085
67.12000 400.715
67.13000 403.304
67.14000 402.855
67.15000 402.210
67.16000 400.058
67.17000 394.904
67.18000 389.667
67.19000 386.658
67.20000 397.639
67.21000 405.363
67.22000 407.315
67.23000 404.228
67.24000 401.129
67.25000 397.347
67.26000 393.168
67.27000 389.130
67.28000 389.741
67.29000 392.056
67.30000 395.000
67.31000 404.634
67.32000 416.070
67.33000 426.837
67.34000 433.323
67.35000 439.049
67.36000 443.758
67.37000 437.212
67.38000 430.813
67.39000 426.194
67.40000 426.585
67.41000 427.279
67.42000 426.866
67.43000 424.326
67.44000 421.732
67.45000 420.267
67.46000 423.597
67.47000 425.933
67.48000 432.902
67.49000 443.759
67.50000 454.331
67.51000 450.340
67.52000 438.174
67.53000 426.450
67.54000 423.707
67.55000 424.360
67.56000 425.850
67.57000 435.798
67.58000 447.941
67.59000 457.620
67.60000 452.158
67.61000 444.112
67.62000 437.545
67.63000 442.745
67.64000 448.009
67.65000 451.610
67.66000 450.689
67.67000 449.512
67.68000 450.736
67.69000 456.415
67.70000 462.194
67.71000 465.403
67.72000 465.337
67.73000 465.278
67.74000 462.559
67.75000 457.692
67.76000 453.071
67.77000 459.665
67.78000 472.333
67.79000 484.506
67.80000 484.157
67.81000 479.497
67.82000 474.548
67.83000 466.824
67.84000 458.405
67.85000 453.266
67.86000 467.466
67.87000 484.834
67.88000 498.900
67.89000 490.587
67.90000 481.999
67.91000 478.494
67.92000 488.338
67.93000 498.885
67.94000 504.684
67.95000 501.979
67.96000 499.104
67.97000 497.536
67.98000 505.191
67.99000 510.447
68.00000 512.246
68.01000 511.356
68.02000 510.590
68.03000 514.881
68.04000 521.818
68.05000 528.463
68.06000 527.813
68.07000 524.779
68.08000 522.309
68.09000 525.004
68.10000 528.945
68.11000 532.185
68.12000 531.457
68.13000 530.106
68.14000 529.020
68.15000 524.938
68.16000 521.400
68.17000 523.367
68.18000 539.296
68.19000 555.911
68.20000 565.135
68.21000 561.584
68.22000 557.807
68.23000 555.784
68.24000 574.162
68.25000 586.680
68.26000 591.235
68.27000 589.826
68.28000 588.504
68.29000 590.415
68.30000 593.957
68.31000 597.339
68.32000 598.948
68.33000 599.875
68.34000 601.641
68.35000 610.724
68.36000 621.507
68.37000 630.381
68.38000 628.871
68.39000 625.797
68.40000 623.348
68.41000 641.727
68.42000 658.067
68.43000 667.996
68.44000 662.225
68.45000 655.737
68.46000 658.704
68.47000 677.439
68.48000 696.417
68.49000 706.395
68.50000 708.020
68.51000 709.149
68.52000 715.187
68.53000 724.764
68.54000 734.566
68.55000 751.857
68.56000 772.800
68.57000 792.731
68.58000 813.925
68.59000 833.930
68.60000 854.856
68.61000 883.432
68.62000 913.721
68.63000 946.695
68.64000 993.706
68.65000 1042.742
68.66000 1081.500
68.67000 1145.731
68.68000 1199.052
68.69000 1247.917
68.70000 1286.243
68.71000 1324.124
68.72000 1366.514
68.73000 1416.160
68.74000 1465.903
68.75000 1491.554
68.76000 1525.808
68.77000 1549.165
68.78000 1608.024
68.79000 1691.563
68.80000 1774.055
68.81000 1824.568
68.82000 1860.029
68.83000 1893.664
68.84000 1991.224
68.85000 2100.099
68.86000 2214.893
68.87000 2376.701
68.88000 2548.637
68.89000 2756.417
68.90000 3144.386
68.91000 3557.241
68.92000 3880.791
68.93000 5402.485
68.94000 6695.964
68.95000 8415.271
68.96000 11107.204
68.97000 13837.133
68.98000 17003.477
68.99000 20847.002
69.00000 24698.303
69.01000 26645.076
69.02000 31974.816
69.03000 35533.922
69.04000 38352.012
69.05000 40673.555
69.06000 42963.758
69.07000 44376.969
69.08000 45391.609
69.09000 46350.578
69.10000 47124.438
69.11000 47782.453
69.12000 48466.133
69.13000 49344.707
69.14000 50263.691
69.15000 51111.414
69.16000 51614.516
69.17000 52072.090
69.18000 52427.566
69.19000 51299.539
69.20000 50312.195
69.21000 48714.824
69.22000 45771.938
69.23000 42780.672
69.24000 39888.273
69.25000 37143.789
69.26000 34400.766
69.27000 32009.828
69.28000 29964.393
69.29000 27926.211
69.30000 26527.084
69.31000 25540.844
69.32000 24573.145
69.33000 24082.758
69.34000 23801.855
69.35000 23537.338
69.36000 22963.951
69.37000 22354.963
69.38000 21656.574
69.39000 20308.863
69.40000 18831.641
69.41000 17254.348
69.42000 15211.318
69.43000 13109.478
69.44000 11491.164
69.45000 9408.601
69.46000 7733.478
69.47000 6249.770
69.48000 5173.757
69.49000 4111.178
69.50000 3274.899
69.51000 2764.985
69.52000 2257.750
69.53000 1906.738
69.54000 1702.975
69.55000 1500.325
69.56000 1381.569
69.57000 1315.089
69.58000 1248.349
69.59000 1175.459
69.60000 1099.962
69.61000 1029.137
69.62000 977.874
69.63000 936.312
69.64000 898.732
69.65000 888.841
69.66000 884.262
69.67000 875.670
69.68000 849.102
69.69000 820.365
69.70000 798.441
69.71000 769.884
69.72000 747.030
69.73000 730.703
69.74000 727.799
69.75000 725.299
69.76000 711.849
69.77000 683.183
69.78000 654.427
69.79000 633.815
69.80000 620.587
69.81000 607.492
69.82000 603.063
69.83000 603.843
69.84000 604.160
69.85000 594.300
69.86000 580.273
69.87000 567.165
69.88000 561.796
69.89000 558.879
69.90000 555.891
69.91000 552.437
69.92000 548.897
69.93000 546.257
69.94000 547.506
69.95000 549.201
69.96000 550.482
69.97000 530.453
69.98000 513.681
69.99000 502.136
70.00000 500.969
