20.00000 460.477
20.01000 466.474
20.02000 473.329
20.03000 479.715
20.04000 484.256
20.05000 488.610
20.06000 491.821
20.07000 483.515
20.08000 476.597
20.09000 470.542
20.10000 466.053
20.11000 461.598
20.12000 457.344
20.13000 453.337
20.14000 449.338
20.15000 454.095
20.16000 465.715
20.17000 477.002
20.18000 474.020
20.19000 463.463
20.20000 453.413
20.21000 452.098
20.22000 453.947
20.23000 455.650
20.24000 455.423
20.25000 454.798
20.26000 455.024
20.27000 460.157
20.28000 466.075
20.29000 470.937
20.30000 471.794
20.31000 472.263
20.32000 472.605
20.33000 471.700
20.34000 470.954
20.35000 472.606
20.36000 478.465
20.37000 484.403
20.38000 482.391
20.39000 471.066
20.40000 459.755
20.41000 460.221
20.42000 469.589
20.43000 478.693
20.44000 477.677
20.45000 471.473
20.46000 465.726
20.47000 467.360
20.48000 471.575
20.49000 475.439
20.50000 479.099
20.51000 482.316
20.52000 483.450
20.53000 473.064
20.54000 460.911
20.55000 452.374
20.56000 457.066
20.57000 462.976
20.58000 467.245
20.59000 457.947
20.60000 450.326
20.61000 448.395
20.62000 456.101
20.63000 463.965
20.64000 464.897
20.65000 458.021
20.66000 451.161
20.67000 450.744
20.68000 455.012
20.69000 459.124
20.70000 457.757
20.71000 453.679
20.72000 449.977
20.73000 451.975
20.74000 455.898
20.75000 459.477
20.76000 459.378
20.77000 458.549
20.78000 458.777
20.79000 464.634
20.80000 471.317
20.81000 474.307
20.82000 464.269
20.83000 453.094
20.84000 445.107
20.85000 448.049
20.86000 450.660
20.87000 454.404
20.88000 460.000
20.89000 465.623
20.90000 464.934
20.91000 457.412
20.92000 449.919
20.93000 445.004
20.94000 441.942
20.95000 439.088
20.96000 442.877
20.97000 449.839
20.98000 456.414
20.99000 457.453
21.00000 456.687
21.01000 455.992
21.02000 449.979
21.03000 443.640
21.04000 440.381
21.05000 452.863
21.06000 467.560
21.07000 476.346
21.08000 465.019
21.09000 452.028
21.10000 442.845
21.11000 452.317
21.12000 460.083
21.13000 462.990
21.14000 458.241
21.15000 453.398
21.16000 452.786
21.17000 456.572
21.18000 460.339
21.19000 464.662
21.20000 469.305
21.21000 473.626
21.22000 468.612
21.23000 459.291
21.24000 450.502
21.25000 448.878
21.26000 449.508
21.27000 450.078
21.28000 452.574
21.29000 455.125
21.30000 457.267
21.31000 457.394
21.32000 457.249
21.33000 458.131
21.34000 462.382
21.35000 466.897
21.36000 470.053
21.37000 460.859
21.38000 453.565
21.39000 450.699
21.40000 454.560
21.41000 458.491
21.42000 459.798
21.43000 458.485
21.44000 457.181
21.45000 459.151
21.46000 463.208
21.47000 467.100
21.48000 466.565
21.49000 464.057
21.50000 461.565
21.51000 459.257
21.52000 457.006
21.53000 454.983
21.54000 457.691
21.55000 460.903
21.56000 462.630
21.57000 457.338
21.58000 451.141
21.59000 446.471
21.60000 446.639
21.61000 447.164
21.62000 447.526
21.63000 455.923
21.64000 462.442
21.65000 467.074
21.66000 468.943
21.67000 470.788
21.68000 470.390
21.69000 467.842
21.70000 465.314
21.71000 465.840
21.72000 468.256
21.73000 470.430
21.74000 466.641
21.75000 460.288
21.76000 454.786
21.77000 459.535
21.78000 467.288
21.79000 474.222
21.80000 485.677
21.81000 496.433
21.82000 502.997
21.83000 490.472
21.84000 475.600
21.85000 465.981
21.86000 472.432
21.87000 480.003
21.88000 485.171
21.89000 488.187
21.90000 490.391
21.91000 492.345
21.92000 493.946
21.93000 495.544
21.94000 499.035
21.95000 504.267
21.96000 509.452
21.97000 511.772
21.98000 512.332
21.99000 513.200
22.00000 521.087
22.01000 531.889
22.02000 542.054
22.03000 544.955
22.04000 545.804
22.05000 546.558
22.06000 546.463
22.07000 546.242
22.08000 547.135
22.09000 552.911
22.10000 559.260
22.11000 561.960
22.12000 553.881
22.13000 545.097
22.14000 539.171
22.15000 533.336
22.16000 528.996
22.17000 526.791
22.18000 527.491
22.19000 528.210
22.20000 532.388
22.21000 539.627
22.22000 546.792
22.23000 545.458
22.24000 539.261
22.25000 532.954
22.26000 524.347
22.27000 514.818
22.28000 506.208
22.29000 507.550
22.30000 511.605
22.31000 515.193
22.32000 509.335
22.33000 502.801
22.34000 495.539
22.35000 485.202
22.36000 474.520
22.37000 467.421
22.38000 470.537
22.39000 474.283
22.40000 476.778
22.41000 478.760
22.42000 480.218
22.43000 476.981
22.44000 467.595
22.45000 458.194
22.46000 456.552
22.47000 461.513
22.48000 466.415
22.49000 464.270
22.50000 458.272
22.51000 452.098
22.52000 442.484
22.53000 431.537
22.54000 422.114
22.55000 428.341
22.56000 438.681
22.57000 447.777
22.58000 443.074
22.59000 436.971
22.60000 431.737
22.61000 430.035
22.62000 428.711
22.63000 428.018
22.64000 429.066
22.65000 430.214
22.66000 430.970
22.67000 438.520
22.68000 444.196
22.69000 444.288
22.70000 437.337
22.71000 430.375
22.72000 428.626
22.73000 431.142
22.74000 433.624
22.75000 435.201
22.76000 436.251
22.77000 437.612
22.78000 444.672
22.79000 453.862
22.80000 461.526
22.81000 454.271
22.82000 443.235
22.83000 433.584
22.84000 434.258
22.85000 436.305
22.86000 437.117
22.87000 433.081
22.88000 428.552
22.89000 425.554
22.90000 426.620
22.91000 427.906
22.92000 428.741
22.93000 436.052
22.94000 441.504
22.95000 443.828
22.96000 442.355
22.97000 440.879
22.98000 440.943
22.99000 442.220
23.00000 443.478
23.01000 441.491
23.02000 437.899
23.03000 434.334
23.04000 431.237
23.05000 428.309
23.06000 426.141
23.07000 431.033
23.08000 437.649
23.09000 443.401
23.10000 436.927
23.11000 429.743
23.12000 425.029
23.13000 429.660
23.14000 435.192
23.15000 438.555
23.16000 436.350
23.17000 433.865
23.18000 432.274
23.19000 430.547
23.20000 429.288
23.21000 428.783
23.22000 429.160
23.23000 429.525
23.24000 427.178
23.25000 422.772
23.26000 418.441
23.27000 416.066
23.28000 414.737
23.29000 413.654
23.30000 416.553
23.31000 420.840
23.32000 423.900
23.33000 416.086
23.34000 405.714
23.35000 396.751
23.36000 407.450
23.37000 419.086
23.38000 428.182
23.39000 428.009
23.40000 426.988
23.41000 426.943
23.42000 429.319
23.43000 431.809
23.44000 433.382
23.45000 432.092
23.46000 431.124
23.47000 429.303
23.48000 426.524
23.49000 423.767
23.50000 424.786
23.51000 428.563
23.52000 432.269
23.53000 430.914
23.54000 427.203
23.55000 424.230
23.56000 432.425
23.57000 444.379
23.58000 454.573
23.59000 449.899
23.60000 441.854
23.61000 434.947
23.62000 433.537
23.63000 433.026
23.64000 432.738
23.65000 433.235
23.66000 433.800
23.67000 433.583
23.68000 431.497
23.69000 429.329
23.70000 427.979
23.71000 432.448
23.72000 435.727
23.73000 434.894
23.74000 429.623
23.75000 424.386
23.76000 423.889
23.77000 426.729
23.78000 429.510
23.79000 440.225
23.80000 454.146
23.81000 467.150
23.82000 467.102
23.83000 462.812
23.84000 459.266
23.85000 461.722
23.86000 465.487
23.87000 468.699
23.88000 483.836
23.89000 497.983
23.90000 505.606
23.91000 491.086
23.92000 474.743
23.93000 466.131
23.94000 475.385
23.95000 485.357
23.96000 491.479
23.97000 475.637
23.98000 464.094
23.99000 462.345
24.00000 470.746
24.01000 479.057
24.02000 477.230
24.03000 468.524
24.04000 460.021
24.05000 458.876
24.06000 461.018
24.07000 462.729
24.08000 458.666
24.09000 452.790
24.10000 448.564
24.11000 457.054
24.12000 468.214
24.13000 477.672
24.14000 467.001
24.15000 455.797
24.16000 448.217
24.17000 452.502
24.18000 457.710
24.19000 461.178
24.20000 460.760
24.21000 460.199
24.22000 459.860
24.23000 448.052
24.24000 439.554
24.25000 436.277
24.26000 438.195
24.27000 440.070
24.28000 437.965
24.29000 433.256
24.30000 428.667
24.31000 426.749
24.32000 426.050
24.33000 425.509
24.34000 426.975
24.35000 429.048
24.36000 430.554
24.37000 427.885
24.38000 424.371
24.39000 421.413
24.40000 412.605
24.41000 404.633
24.42000 398.710
24.43000 399.265
24.44000 400.296
24.45000 401.232
24.46000 401.962
24.47000 402.685
24.48000 403.116
24.49000 415.261
24.50000 423.937
24.51000 428.898
24.52000 430.311
24.53000 431.591
24.54000 422.311
24.55000 406.370
24.56000 390.874
24.57000 392.005
24.58000 399.861
24.59000 407.202
24.60000 408.369
24.61000 407.732
24.62000 406.703
24.63000 402.906
24.64000 398.571
24.65000 394.948
24.66000 396.126
24.67000 397.592
24.68000 398.251
24.69000 396.449
24.70000 394.476
24.71000 393.564
24.72000 394.859
24.73000 396.222
24.74000 397.021
24.75000 404.652
24.76000 410.059
24.77000 410.867
24.78000 407.457
24.79000 404.046
24.80000 400.527
24.81000 396.943
24.82000 393.467
24.83000 397.197
24.84000 403.558
24.85000 409.402
24.86000 409.379
24.87000 407.702
24.88000 405.144
24.89000 396.632
24.90000 387.007
24.91000 379.018
24.92000 389.681
24.93000 400.297
24.94000 409.605
24.95000 415.062
24.96000 420.267
24.97000 423.440
24.98000 422.526
24.99000 421.497
25.00000 420.904
25.01000 408.594
25.02000 399.929
25.03000 392.835
25.04000 387.127
25.05000 381.605
25.06000 387.247
25.07000 399.441
25.08000 411.233
25.09000 408.644
25.10000 400.770
25.11000 393.114
25.12000 387.805
25.13000 383.132
25.14000 379.188
25.15000 379.954
25.16000 381.566
25.17000 382.894
25.18000 388.948
25.19000 394.364
25.20000 398.840
25.21000 400.646
25.22000 402.289
25.23000 403.299
25.24000 403.080
25.25000 402.830
25.26000 402.688
25.27000 392.360
25.28000 385.153
25.29000 386.524
25.30000 395.171
25.31000 403.755
25.32000 409.024
25.33000 412.415
25.34000 415.685
25.35000 411.969
25.36000 405.937
25.37000 400.462
25.38000 400.700
25.39000 402.434
25.40000 403.769
25.41000 402.630
25.42000 401.063
25.43000 399.782
25.44000 397.361
25.45000 395.280
25.46000 393.982
25.47000 394.835
25.48000 395.811
25.49000 394.336
25.50000 388.272
25.51000 382.102
25.52000 378.660
25.53000 376.613
25.54000 375.214
25.55000 379.502
25.56000 388.432
25.57000 397.184
25.58000 397.668
25.59000 393.630
25.60000 389.748
25.61000 388.304
25.62000 387.803
25.63000 387.305
25.64000 386.840
25.65000 386.384
25.66000 386.563
25.67000 390.523
25.68000 395.110
25.69000 398.832
25.70000 399.054
25.71000 398.947
25.72000 398.282
25.73000 396.137
25.74000 393.914
25.75000 392.569
25.76000 392.813
25.77000 393.090
25.78000 393.242
25.79000 399.067
25.80000 403.065
25.81000 402.240
25.82000 397.628
25.83000 393.044
25.84000 389.623
25.85000 386.816
25.86000 384.125
25.87000 382.739
25.88000 381.884
25.89000 381.510
25.90000 385.590
25.91000 390.754
25.92000 394.486
25.93000 390.028
25.94000 384.269
25.95000 379.632
25.96000 385.696
25.97000 391.451
25.98000 395.320
25.99000 394.361
26.00000 393.161
26.01000 391.661
26.02000 389.639
26.03000 387.607
26.04000 386.514
26.05000 381.038
26.06000 377.302
26.07000 375.868
26.08000 376.173
26.09000 376.531
26.10000 378.848
26.11000 382.164
26.12000 385.333
26.13000 384.416
26.14000 382.241
26.15000 380.516
26.16000 382.760
26.17000 385.934
26.18000 388.052
26.19000 384.362
26.20000 379.789
26.21000 376.137
26.22000 374.017
26.23000 372.419
26.24000 372.330
26.25000 375.971
26.26000 379.786
26.27000 381.290
26.28000 378.902
26.29000 376.451
26.30000 375.157
26.31000 377.908
26.32000 379.755
26.33000 377.557
26.34000 372.416
26.35000 367.611
26.36000 374.382
26.37000 386.845
26.38000 398.717
26.39000 395.672
26.40000 388.210
26.41000 381.813
26.42000 384.368
26.43000 388.946
26.44000 393.227
26.45000 395.937
26.46000 398.417
26.47000 400.382
26.48000 391.599
26.49000 383.790
26.50000 379.673
26.51000 384.366
26.52000 389.439
26.53000 392.641
26.54000 392.804
26.55000 392.925
26.56000 392.988
26.57000 384.786
26.58000 379.312
26.59000 382.082
26.60000 390.638
26.61000 398.841
26.62000 395.991
26.63000 387.892
26.64000 380.204
26.65000 371.887
26.66000 364.024
26.67000 357.937
26.68000 366.129
26.69000 377.426
26.70000 385.544
26.71000 377.517
26.72000 367.235
26.73000 359.159
26.74000 359.294
26.75000 359.940
26.76000 361.855
26.77000 366.695
26.78000 371.652
26.79000 373.905
26.80000 371.926
26.81000 369.896
26.82000 368.864
26.83000 371.376
26.84000 373.024
26.85000 370.724
26.86000 365.755
26.87000 361.092
26.88000 365.206
26.89000 373.346
26.90000 381.046
26.91000 376.703
26.92000 369.248
26.93000 363.276
26.94000 368.695
26.95000 376.500
26.96000 382.545
26.97000 379.997
26.98000 376.301
26.99000 373.423
27.00000 366.047
27.01000 359.896
27.02000 356.618
27.03000 359.735
27.04000 363.087
27.05000 367.542
27.06000 373.660
27.07000 379.796
27.08000 382.750
27.09000 382.550
27.10000 382.320
27.11000 379.336
27.12000 374.556
27.13000 369.709
27.14000 363.128
27.15000 355.779
27.16000 348.851
27.17000 351.347
27.18000 356.236
27.19000 360.281
27.20000 358.127
27.21000 354.725
27.22000 352.521
27.23000 355.950
27.24000 360.099
27.25000 363.301
27.26000 371.278
27.27000 377.878
27.28000 380.809
27.29000 375.856
27.30000 370.637
27.31000 367.281
27.32000 366.638
27.33000 366.019
27.34000 367.578
27.35000 371.211
27.36000 374.825
27.37000 376.874
27.38000 377.939
27.39000 378.834
27.40000 375.585
27.41000 370.565
27.42000 365.851
27.43000 361.022
27.44000 356.588
27.45000 353.204
27.46000 357.208
27.47000 362.644
27.48000 366.809
27.49000 365.228
27.50000 362.945
27.51000 361.199
27.52000 375.472
27.53000 387.602
27.54000 391.893
27.55000 379.919
27.56000 367.443
27.57000 360.132
27.58000 360.067
27.59000 360.052
27.60000 361.223
27.61000 363.476
27.62000 365.714
27.63000 366.904
27.64000 367.458
27.65000 368.115
27.66000 371.091
27.67000 375.025
27.68000 378.704
27.69000 371.159
27.70000 361.441
27.71000 353.594
27.72000 358.349
27.73000 365.451
27.74000 370.767
27.75000 368.303
27.76000 364.933
27.77000 362.380
27.78000 357.790
27.79000 354.083
27.80000 354.156
27.81000 361.804
27.82000 369.663
27.83000 371.833
27.84000 366.312
27.85000 360.752
27.86000 361.510
27.87000 367.811
27.88000 373.953
27.89000 370.670
27.90000 361.873
27.91000 353.284
27.92000 349.057
27.93000 346.568
27.94000 344.249
27.95000 347.312
27.96000 351.403
27.97000 355.659
27.98000 360.990
27.99000 366.512
28.00000 370.432
28.01000 367.624
28.02000 364.069
28.03000 361.402
28.04000 358.964
28.05000 357.070
28.06000 355.967
28.07000 356.394
28.08000 356.860
28.09000 360.706
28.10000 368.951
28.11000 377.207
28.12000 382.378
28.13000 384.936
28.14000 387.341
28.15000 381.793
28.16000 371.754
28.17000 362.064
28.18000 359.170
28.19000 358.892
28.20000 358.634
28.21000 353.219
28.22000 347.127
28.23000 341.781
28.24000 341.061
28.25000 341.136
28.26000 343.209
28.27000 353.367
28.28000 364.380
28.29000 372.564
28.30000 370.010
28.31000 367.547
28.32000 365.484
28.33000 364.165
28.34000 362.863
28.35000 361.805
28.36000 361.052
28.37000 360.301
28.38000 358.768
28.39000 356.608
28.40000 354.465
28.41000 353.155
28.42000 352.298
28.43000 351.385
28.44000 349.476
28.45000 347.196
28.46000 345.090
28.47000 350.044
28.48000 356.085
28.49000 360.678
28.50000 356.669
28.51000 351.242
28.52000 347.954
28.53000 353.001
28.54000 358.888
28.55000 363.218
28.56000 353.182
28.57000 344.824
28.58000 341.258
28.59000 346.329
28.60000 351.575
28.61000 356.298
28.62000 360.391
28.63000 364.474
28.64000 359.080
28.65000 346.334
28.66000 333.908
28.67000 334.769
28.68000 342.621
28.69000 350.238
28.70000 353.882
28.71000 356.098
28.72000 358.137
28.73000 354.775
28.74000 350.599
28.75000 347.051
28.76000 347.082
28.77000 347.679
28.78000 349.518
28.79000 356.028
28.80000 362.985
28.81000 368.050
28.82000 366.276
28.83000 364.648
28.84000 362.071
28.85000 357.844
28.86000 353.588
28.87000 351.988
28.88000 353.472
28.89000 354.956
28.90000 354.768
28.91000 353.331
28.92000 351.993
28.93000 354.405
28.94000 358.721
28.95000 362.488
28.96000 357.512
28.97000 349.505
28.98000 342.174
28.99000 341.631
29.00000 342.560
29.01000 343.019
29.02000 340.896
29.03000 338.382
29.04000 337.684
29.05000 343.566
29.06000 350.045
29.07000 354.714
29.08000 351.429
29.09000 348.631
29.10000 346.773
29.11000 346.491
29.12000 346.234
29.13000 346.174
29.14000 346.335
29.15000 346.494
29.16000 348.230
29.17000 351.084
29.18000 353.728
29.19000 349.234
29.20000 341.239
29.21000 333.837
29.22000 335.286
29.23000 339.696
29.24000 343.716
29.25000 343.593
29.26000 342.657
29.27000 341.434
29.28000 338.700
29.29000 335.746
29.30000 334.788
29.31000 340.810
29.32000 347.433
29.33000 352.153
29.34000 361.166
29.35000 368.177
29.36000 372.799
29.37000 373.554
29.38000 374.256
29.39000 370.581
29.40000 362.214
29.41000 353.884
29.42000 349.017
29.43000 346.599
29.44000 344.246
29.45000 343.883
29.46000 344.464
29.47000 345.006
29.48000 345.020
29.49000 344.863
29.50000 344.721
29.51000 343.559
29.52000 342.339
29.53000 340.726
29.54000 337.129
29.55000 333.256
29.56000 328.961
29.57000 323.243
29.58000 317.410
29.59000 313.298
29.60000 328.606
29.61000 340.800
29.62000 349.426
29.63000 352.482
29.64000 355.472
29.65000 357.563
29.66000 358.730
29.67000 359.890
29.68000 353.969
29.69000 343.409
29.70000 333.242
29.71000 334.210
29.72000 340.268
29.73000 346.101
29.74000 348.937
29.75000 350.839
29.76000 352.554
29.77000 352.419
29.78000 351.961
29.79000 351.275
29.80000 349.485
29.81000 347.547
29.82000 345.481
29.83000 342.999
29.84000 340.484
29.85000 338.731
29.86000 351.310
29.87000 361.197
29.88000 364.886
29.89000 359.242
29.90000 353.506
29.91000 354.274
29.92000 361.470
29.93000 368.618
29.94000 368.781
29.95000 364.469
29.96000 360.248
29.97000 358.416
29.98000 357.638
29.99000 357.166
30.00000 360.531
30.01000 365.050
30.02000 369.108
30.03000 365.180
30.04000 360.341
30.05000 357.069
30.06000 361.142
30.07000 366.149
30.08000 371.160
30.09000 376.181
30.10000 381.203
30.11000 384.663
30.12000 377.987
30.13000 372.720
30.14000 368.463
30.15000 365.671
30.16000 362.891
30.17000 361.700
30.18000 362.017
30.19000 362.331
30.20000 360.952
30.21000 358.554
30.22000 356.187
30.23000 354.573
30.24000 353.279
30.25000 351.904
30.26000 349.571
30.27000 346.960
30.28000 344.628
30.29000 342.939
30.30000 341.578
30.31000 341.505
30.32000 347.250
30.33000 353.702
30.34000 356.085
30.35000 346.129
30.36000 335.327
30.37000 327.973
30.38000 343.744
30.39000 356.051
30.40000 362.325
30.41000 360.158
30.42000 357.935
30.43000 355.855
30.44000 353.908
30.45000 351.978
30.46000 347.851
30.47000 342.503
30.48000 337.447
30.49000 338.875
30.50000 342.972
30.51000 346.986
30.52000 350.057
30.53000 352.863
30.54000 355.356
30.55000 352.445
30.56000 349.051
30.57000 346.137
30.58000 345.304
30.59000 344.713
30.60000 345.132
30.61000 348.505
30.62000 352.068
30.63000 354.464
30.64000 361.528
30.65000 366.873
30.66000 368.842
30.67000 366.262
30.68000 363.655
30.69000 358.633
30.70000 351.495
30.71000 344.434
30.72000 341.927
30.73000 342.073
30.74000 342.289
30.75000 343.946
30.76000 346.177
30.77000 348.556
30.78000 352.518
30.79000 356.909
30.80000 360.787
30.81000 366.065
30.82000 370.836
30.83000 373.743
30.84000 368.844
30.85000 363.083
30.86000 362.540
30.87000 376.745
30.88000 391.844
30.89000 401.871
30.90000 393.061
30.91000 386.200
30.92000 385.519
30.93000 392.859
30.94000 400.223
30.95000 402.422
30.96000 400.269
30.97000 398.142
30.98000 400.737
30.99000 405.859
31.00000 411.134
31.01000 419.391
31.02000 428.792
31.03000 437.693
31.04000 441.524
31.05000 444.034
31.06000 446.239
31.07000 459.527
31.08000 472.581
31.09000 486.515
31.10000 503.995
31.11000 521.848
31.12000 541.747
31.13000 567.225
31.14000 593.021
31.15000 609.932
31.16000 635.472
31.17000 654.396
31.18000 679.617
31.19000 712.706
31.20000 745.802
31.21000 772.956
31.22000 795.292
31.23000 817.317
31.24000 847.340
31.25000 880.740
31.26000 913.622
31.27000 937.164
31.28000 957.244
31.29000 978.097
31.30000 1006.413
31.31000 1036.602
31.32000 1062.965
31.33000 1076.806
31.34000 1086.891
31.35000 1096.735
31.36000 1105.645
31.37000 1114.460
31.38000 1121.369
31.39000 1123.255
31.40000 1124.875
31.41000 1125.923
31.42000 1124.987
31.43000 1124.274
31.44000 1110.335
31.45000 1080.497
31.46000 1050.615
31.47000 1017.984
31.48000 983.207
31.49000 948.975
31.50000 926.103
31.51000 909.716
31.52000 892.802
31.53000 867.003
31.54000 838.022
31.55000 809.211
31.56000 781.970
31.57000 755.109
31.58000 731.793
31.59000 692.710
31.60000 657.289
31.61000 625.263
31.62000 605.960
31.63000 587.869
31.64000 569.408
31.65000 550.005
31.66000 530.556
31.67000 518.141
31.68000 496.893
31.69000 481.320
31.70000 474.351
31.71000 477.329
31.72000 480.251
31.73000 469.122
31.74000 447.437
31.75000 426.133
31.76000 417.860
31.77000 416.245
31.78000 414.221
31.79000 405.721
31.80000 394.982
31.81000 385.444
31.82000 386.412
31.83000 389.830
31.84000 392.778
31.85000 389.665
31.86000 386.247
31.87000 380.453
31.88000 366.073
31.89000 350.916
31.90000 342.422
31.91000 350.294
31.92000 358.919
31.93000 364.349
31.94000 353.279
31.95000 345.083
31.96000 339.481
31.97000 336.763
31.98000 334.071
31.99000 335.183
32.00000 339.046
32.01000 342.835
32.02000 346.954
32.03000 351.077
32.04000 354.850
32.05000 353.422
32.06000 350.257
32.07000 347.275
32.08000 345.815
32.09000 344.697
32.10000 343.738
32.11000 338.175
32.12000 332.914
32.13000 329.581
32.14000 332.966
32.15000 336.927
32.16000 338.054
32.17000 332.456
32.18000 326.571
32.19000 322.919
32.20000 328.883
32.21000 333.269
32.22000 331.456
32.23000 323.021
32.24000 314.665
32.25000 316.710
32.26000 326.010
32.27000 335.109
32.28000 334.959
32.29000 330.626
32.30000 326.509
32.31000 325.431
32.32000 325.332
32.33000 324.940
32.34000 322.216
32.35000 318.987
32.36000 316.237
32.37000 320.749
32.38000 325.390
32.39000 328.116
32.40000 324.403
32.41000 320.168
32.42000 317.354
32.43000 317.796
32.44000 318.366
32.45000 318.715
32.46000 322.903
32.47000 325.933
32.48000 324.811
32.49000 319.431
32.50000 314.065
32.51000 310.121
32.52000 307.132
32.53000 304.216
32.54000 303.940
32.55000 304.829
32.56000 305.679
32.57000 306.004
32.58000 306.166
32.59000 306.566
32.60000 308.775
32.61000 311.361
32.62000 313.548
32.63000 319.783
32.64000 325.451
32.65000 328.213
32.66000 321.545
32.67000 314.153
32.68000 306.603
32.69000 298.704
32.70000 290.793
32.71000 286.026
32.72000 295.455
32.73000 302.263
32.74000 307.241
32.75000 310.416
32.76000 313.585
32.77000 316.202
32.78000 318.461
32.79000 320.662
32.80000 327.761
32.81000 336.584
32.82000 346.365
32.83000 368.113
32.84000 393.450
32.85000 417.802
32.86000 434.961
32.87000 450.680
32.88000 463.889
32.89000 470.350
32.90000 475.021
32.91000 480.581
32.92000 488.921
32.93000 497.464
32.94000 504.201
32.95000 507.081
32.96000 509.833
32.97000 511.466
32.98000 522.660
32.99000 530.635
33.00000 533.616
33.01000 531.875
33.02000 530.039
33.03000 520.961
33.04000 507.357
33.05000 494.140
33.06000 477.208
33.07000 459.623
33.08000 442.260
33.09000 427.517
33.10000 413.532
33.11000 399.409
33.12000 384.324
33.13000 369.053
33.14000 356.311
33.15000 338.331
33.16000 322.892
33.17000 310.982
33.18000 309.740
33.19000 309.226
33.20000 308.615
33.21000 307.804
33.22000 306.986
33.23000 306.509
33.24000 308.570
33.25000 310.031
33.26000 310.024
33.27000 308.682
33.28000 307.282
33.29000 302.057
33.30000 294.525
33.31000 287.227
33.32000 283.892
33.33000 282.277
33.34000 280.600
33.35000 278.240
33.36000 275.688
33.37000 273.651
33.38000 275.057
33.39000 277.099
33.40000 278.792
33.41000 278.222
33.42000 277.537
33.43000 276.468
33.44000 274.278
33.45000 272.017
33.46000 272.169
33.47000 277.127
33.48000 282.217
33.49000 285.142
33.50000 287.124
33.51000 288.507
33.52000 289.362
33.53000 289.756
33.54000 290.141
33.55000 289.941
33.56000 289.401
33.57000 288.879
33.58000 286.263
33.59000 283.013
33.60000 280.090
33.61000 280.644
33.62000 282.136
33.63000 283.432
33.64000 283.485
33.65000 283.316
33.66000 283.177
33.67000 286.331
33.68000 289.220
33.69000 291.437
33.70000 291.759
33.71000 291.966
33.72000 292.188
33.73000 292.439
33.74000 292.691
33.75000 292.833
33.76000 290.870
33.77000 289.503
33.78000 289.413
33.79000 290.397
33.80000 291.341
33.81000 290.264
33.82000 288.053
33.83000 285.922
33.84000 285.220
33.85000 285.073
33.86000 285.163
33.87000 287.630
33.88000 290.716
33.89000 293.672
33.90000 295.835
33.91000 297.864
33.92000 299.519
33.93000 293.923
33.94000 288.722
33.95000 285.283
33.96000 286.637
33.97000 288.261
33.98000 291.877
33.99000 299.189
34.00000 306.584
34.01000 310.690
34.02000 310.834
34.03000 310.928
34.04000 311.956
34.05000 313.738
34.06000 315.458
34.07000 314.371
34.08000 311.761
34.09000 309.254
34.10000 303.216
34.11000 296.342
34.12000 290.847
34.13000 298.607
34.14000 309.685
34.15000 318.823
34.16000 316.523
34.17000 312.350
34.18000 308.970
34.19000 308.265
34.20000 307.908
34.21000 308.377
34.22000 311.014
34.23000 313.766
34.24000 316.644
34.25000 319.751
34.26000 322.862
34.27000 324.559
34.28000 321.557
34.29000 319.501
34.30000 320.420
34.31000 323.653
34.32000 326.822
34.33000 327.348
34.34000 326.492
34.35000 325.672
34.36000 325.591
34.37000 325.762
34.38000 325.983
34.39000 326.658
34.40000 327.444
34.41000 328.051
34.42000 327.643
34.43000 327.076
34.44000 326.620
34.45000 326.455
34.46000 326.343
34.47000 326.369
34.48000 326.743
34.49000 327.135
34.50000 325.861
34.51000 321.705
34.52000 317.499
34.53000 315.245
34.54000 316.314
34.55000 317.013
34.56000 311.234
34.57000 300.602
34.58000 290.189
34.59000 287.857
34.60000 289.605
34.61000 291.273
34.62000 290.333
34.63000 288.623
34.64000 287.846
34.65000 295.206
34.66000 304.456
34.67000 311.368
34.68000 305.563
34.69000 297.842
34.70000 291.689
34.71000 286.410
34.72000 282.215
34.73000 279.416
34.74000 280.039
34.75000 280.817
34.76000 283.423
34.77000 289.078
34.78000 294.779
34.79000 297.777
34.80000 292.216
34.81000 288.451
34.82000 286.258
34.83000 285.199
34.84000 284.087
34.85000 281.200
34.86000 277.446
34.87000 273.873
34.88000 276.441
34.89000 280.709
34.90000 283.941
34.91000 278.563
34.92000 271.257
34.93000 266.075
34.94000 271.995
34.95000 279.517
34.96000 285.463
34.97000 283.169
34.98000 280.762
34.99000 278.038
35.00000 274.565
35.01000 271.061
35.02000 269.487
35.03000 271.023
35.04000 272.599
35.05000 273.413
35.06000 263.455
35.07000 256.811
35.08000 258.461
35.09000 265.879
35.10000 273.115
35.11000 274.792
35.12000 273.852
35.13000 272.961
35.14000 273.405
35.15000 274.209
35.16000 274.801
35.17000 273.717
35.18000 272.271
35.19000 270.950
35.20000 270.256
35.21000 269.649
35.22000 269.174
35.23000 270.974
35.24000 272.561
35.25000 272.465
35.26000 268.529
35.27000 264.442
35.28000 263.781
35.29000 268.436
35.30000 273.153
35.31000 275.537
35.32000 268.831
35.33000 264.380
35.34000 263.725
35.35000 265.613
35.36000 267.400
35.37000 266.353
35.38000 264.018
35.39000 261.811
35.40000 257.878
35.41000 253.775
35.42000 250.559
35.43000 254.089
35.44000 259.018
35.45000 262.259
35.46000 257.335
35.47000 251.333
35.48000 246.670
35.49000 260.101
35.50000 271.883
35.51000 278.050
35.52000 271.827
35.53000 265.159
35.54000 261.961
35.55000 263.955
35.56000 265.999
35.57000 265.053
35.58000 261.173
35.59000 257.334
35.60000 257.204
35.61000 259.471
35.62000 261.568
35.63000 259.315
35.64000 255.152
35.65000 251.231
35.66000 255.761
35.67000 262.216
35.68000 268.074
35.69000 269.595
35.70000 270.251
35.71000 270.020
35.72000 265.658
35.73000 260.773
35.74000 257.012
35.75000 255.016
35.76000 253.537
35.77000 253.018
35.78000 254.545
35.79000 256.139
35.80000 254.660
35.81000 248.746
35.82000 242.798
35.83000 247.404
35.84000 261.950
35.85000 276.289
35.86000 274.889
35.87000 263.683
35.88000 252.988
35.89000 254.471
35.90000 261.117
35.91000 267.351
35.92000 257.376
35.93000 244.027
35.94000 233.470
35.95000 242.337
35.96000 254.930
35.97000 264.190
35.98000 258.515
35.99000 251.037
36.00000 245.333
36.01000 250.163
36.02000 254.532
36.03000 255.185
36.04000 248.193
36.05000 240.972
36.06000 235.983
36.07000 234.099
36.08000 232.235
36.09000 235.207
36.10000 242.549
36.11000 249.806
36.12000 251.445
36.13000 249.707
36.14000 247.981
36.15000 246.518
36.16000 245.162
36.17000 243.895
36.18000 248.131
36.19000 253.365
36.20000 257.882
36.21000 257.624
36.22000 256.485
36.23000 256.253
36.24000 259.930
36.25000 264.058
36.26000 267.177
36.27000 264.009
36.28000 261.210
36.29000 257.620
36.30000 252.461
36.31000 247.258
36.32000 244.924
36.33000 246.430
36.34000 247.956
36.35000 246.698
36.36000 243.026
36.37000 239.414
36.38000 239.247
36.39000 241.078
36.40000 242.661
36.41000 239.153
36.42000 233.632
36.43000 228.494
36.44000 232.603
36.45000 238.560
36.46000 244.339
36.47000 248.984
36.48000 253.427
36.49000 256.584
36.50000 254.392
36.51000 251.614
36.52000 249.534
36.53000 250.147
36.54000 250.752
36.55000 251.986
36.56000 254.428
36.57000 256.899
36.58000 255.496
36.59000 249.098
36.60000 242.687
36.61000 240.378
36.62000 241.498
36.63000 242.623
36.64000 243.923
36.65000 245.321
36.66000 246.884
36.67000 251.609
36.68000 257.540
36.69000 263.037
36.70000 262.653
36.71000 260.936
36.72000 258.947
36.73000 255.284
36.74000 251.336
36.75000 249.219
36.76000 254.438
36.77000 260.423
36.78000 264.860
36.79000 266.313
36.80000 267.312
36.81000 266.459
36.82000 262.179
36.83000 257.824
36.84000 256.858
36.85000 260.100
36.86000 263.348
36.87000 264.938
36.88000 265.193
36.89000 265.393
36.90000 263.101
36.91000 259.462
36.92000 256.131
36.93000 258.287
36.94000 262.465
36.95000 266.321
36.96000 268.348
36.97000 269.757
36.98000 271.325
36.99000 273.833
37.00000 276.495
37.01000 278.419
37.02000 277.497
37.03000 276.291
37.04000 275.407
37.05000 275.726
37.06000 276.022
37.07000 278.017
37.08000 283.046
37.09000 288.134
37.10000 287.647
37.11000 280.500
37.12000 273.355
37.13000 268.342
37.14000 265.001
37.15000 261.882
37.16000 267.794
37.17000 278.416
37.18000 288.126
37.19000 282.614
37.20000 271.684
37.21000 261.643
37.22000 260.335
37.23000 261.043
37.24000 262.709
37.25000 269.792
37.26000 277.723
37.27000 283.006
37.28000 278.432
37.29000 272.926
37.30000 268.928
37.31000 261.199
37.32000 255.116
37.33000 252.178
37.34000 254.662
37.35000 257.240
37.36000 256.064
37.37000 250.576
37.38000 245.098
37.39000 243.672
37.40000 245.260
37.41000 246.900
37.42000 250.466
37.43000 255.001
37.44000 258.918
37.45000 253.150
37.46000 244.054
37.47000 235.735
37.48000 234.480
37.49000 234.818
37.50000 236.018
37.51000 241.885
37.52000 248.452
37.53000 253.291
37.54000 251.923
37.55000 249.997
37.56000 248.614
37.57000 250.215
37.58000 251.543
37.59000 254.045
37.60000 258.499
37.61000 262.982
37.62000 261.959
37.63000 254.854
37.64000 247.772
37.65000 244.428
37.66000 243.780
37.67000 243.107
37.68000 241.630
37.69000 239.762
37.70000 238.346
37.71000 243.573
37.72000 251.005
37.73000 257.769
37.74000 254.110
37.75000 248.813
37.76000 244.322
37.77000 244.028
37.78000 244.338
37.79000 244.158
37.80000 242.284
37.81000 240.265
37.82000 238.830
37.83000 239.569
37.84000 240.201
37.85000 243.045
37.86000 249.439
37.87000 255.880
37.88000 258.663
37.89000 257.565
37.90000 256.471
37.91000 251.055
37.92000 242.737
37.93000 234.835
37.94000 239.558
37.95000 250.207
37.96000 260.200
37.97000 261.101
37.98000 259.089
37.99000 257.268
38.00000 258.477
38.01000 260.117
38.02000 261.345
38.03000 260.509
38.04000 259.390
38.05000 257.928
38.06000 255.321
38.07000 252.622
38.08000 250.725
38.09000 248.454
38.10000 246.723
38.11000 247.751
38.12000 253.047
38.13000 258.393
38.14000 261.202
38.15000 261.426
38.16000 261.650
38.17000 260.221
38.18000 257.720
38.19000 255.183
38.20000 251.597
38.21000 247.536
38.22000 244.216
38.23000 250.593
38.24000 259.966
38.25000 268.415
38.26000 265.824
38.27000 261.549
38.28000 257.800
38.29000 256.591
38.30000 255.716
38.31000 257.091
38.32000 265.722
38.33000 274.903
38.34000 281.284
38.35000 290.982
38.36000 298.381
38.37000 306.098
38.38000 314.292
38.39000 322.489
38.40000 328.036
38.41000 330.990
38.42000 333.923
38.43000 339.861
38.44000 347.611
38.45000 355.897
38.46000 377.895
38.47000 405.894
38.48000 433.302
38.49000 453.403
38.50000 471.325
38.51000 487.395
38.52000 510.693
38.53000 532.307
38.54000 555.430
38.55000 585.557
38.56000 616.566
38.57000 644.856
38.58000 664.681
38.59000 683.899
38.60000 697.100
38.61000 742.398
38.62000 777.152
38.63000 809.700
38.64000 839.079
38.65000 868.430
38.66000 889.886
38.67000 903.927
38.68000 917.853
38.69000 927.673
38.70000 934.809
38.71000 941.962
38.72000 949.502
38.73000 957.204
38.74000 963.890
38.75000 958.667
38.76000 950.018
38.77000 942.303
38.78000 928.338
38.79000 915.148
38.80000 900.147
38.81000 877.050
38.82000 852.981
38.83000 828.880
38.84000 804.683
38.85000 780.480
38.86000 764.055
38.87000 728.842
38.88000 702.155
38.89000 672.588
38.90000 639.028
38.91000 605.444
38.92000 574.470
38.93000 545.851
38.94000 517.505
38.95000 490.890
38.96000 465.839
38.97000 440.847
38.98000 417.142
38.99000 393.961
39.00000 371.322
39.01000 354.690
39.02000 339.726
39.03000 326.451
39.04000 317.181
39.05000 309.788
39.06000 303.860
39.07000 304.234
39.08000 305.331
39.09000 301.567
39.10000 283.702
39.11000 264.941
39.12000 252.365
39.13000 250.914
39.14000 250.060
39.15000 247.916
39.16000 244.048
39.17000 240.173
39.18000 238.344
39.19000 238.290
39.20000 238.236
39.21000 236.738
39.22000 234.461
39.23000 232.236
39.24000 231.087
39.25000 230.362
39.26000 229.863
39.27000 231.736
39.28000 234.245
39.29000 236.459
39.30000 237.913
39.31000 239.053
39.32000 239.696
39.33000 238.281
39.34000 236.642
39.35000 234.951
39.36000 233.115
39.37000 231.270
39.38000 230.049
39.39000 229.591
39.40000 229.267
39.41000 229.272
39.42000 229.701
39.43000 230.127
39.44000 228.405
39.45000 224.889
39.46000 221.418
39.47000 224.577
39.48000 231.257
39.49000 237.730
39.50000 240.289
39.51000 241.358
39.52000 241.927
39.53000 237.496
39.54000 231.774
39.55000 226.756
39.56000 230.994
39.57000 235.981
39.58000 238.655
39.59000 232.090
39.60000 224.563
39.61000 220.361
39.62000 225.150
39.63000 230.440
39.64000 233.897
39.65000 229.988
39.66000 226.999
39.67000 226.441
39.68000 228.894
39.69000 231.340
39.70000 228.909
39.71000 222.563
39.72000 216.307
39.73000 218.013
39.74000 223.835
39.75000 229.321
39.76000 228.871
39.77000 226.239
39.78000 224.017
39.79000 225.691
39.80000 228.334
39.81000 230.639
39.82000 232.046
39.83000 233.124
39.84000 234.214
39.85000 235.353
39.86000 236.496
39.87000 236.290
39.88000 232.561
39.89000 228.648
39.90000 226.125
39.91000 230.792
39.92000 234.304
39.93000 232.774
39.94000 225.242
39.95000 217.714
39.96000 213.823
39.97000 212.743
39.98000 211.681
39.99000 211.973
40.00000 212.938
40.01000 213.855
40.02000 213.999
40.03000 213.869
40.04000 213.781
40.05000 214.085
40.06000 214.483
40.07000 214.827
40.08000 214.604
40.09000 214.339
40.10000 214.125
40.11000 214.101
40.12000 214.094
40.13000 214.432
40.14000 215.638
40.15000 216.887
40.16000 217.681
40.17000 223.040
40.18000 226.991
40.19000 226.638
40.20000 221.357
40.21000 216.102
40.22000 216.874
40.23000 222.131
40.24000 227.293
40.25000 228.870
40.26000 228.655
40.27000 228.362
40.28000 226.853
40.29000 224.926
40.30000 223.255
40.31000 223.803
40.32000 224.862
40.33000 225.774
40.34000 219.834
40.35000 213.931
40.36000 210.964
40.37000 218.505
40.38000 226.985
40.39000 232.524
40.40000 230.900
40.41000 228.953
40.42000 227.732
40.43000 223.516
40.44000 220.437
40.45000 218.622
40.46000 218.199
40.47000 217.775
40.48000 217.030
40.49000 216.055
40.50000 215.100
40.51000 212.433
40.52000 209.069
40.53000 205.852
40.54000 204.791
40.55000 204.443
40.56000 204.395
40.57000 206.823
40.58000 209.802
40.59000 212.352
40.60000 218.350
40.61000 223.827
40.62000 226.383
40.63000 218.850
40.64000 210.463
40.65000 206.169
40.66000 211.498
40.67000 217.230
40.68000 220.774
40.69000 214.175
40.70000 209.338
40.71000 208.005
40.72000 210.375
40.73000 212.732
40.74000 213.262
40.75000 212.529
40.76000 211.812
40.77000 212.188
40.78000 213.038
40.79000 213.646
40.80000 210.908
40.81000 207.103
40.82000 203.604
40.83000 202.529
40.84000 201.972
40.85000 201.499
40.86000 207.838
40.87000 213.946
40.88000 219.440
40.89000 222.890
40.90000 226.175
40.91000 224.888
40.92000 213.215
40.93000 201.142
40.94000 193.785
40.95000 203.341
40.96000 210.305
40.97000 214.581
40.98000 216.128
40.99000 217.639
41.00000 215.511
41.01000 210.957
41.02000 206.515
41.03000 206.459
41.04000 208.299
41.05000 210.149
41.06000 212.141
41.07000 214.177
41.08000 215.208
41.09000 208.673
41.10000 200.578
41.11000 193.741
41.12000 198.292
41.13000 203.345
41.14000 207.607
41.15000 209.329
41.16000 210.859
41.17000 211.165
41.18000 208.789
41.19000 206.318
41.20000 204.834
41.21000 207.206
41.22000 208.916
41.23000 213.163
41.24000 219.882
41.25000 226.511
41.26000 225.484
41.27000 219.539
41.28000 213.753
41.29000 208.475
41.30000 203.661
41.31000 199.384
41.32000 201.737
41.33000 206.060
41.34000 210.236
41.35000 213.346
41.36000 216.245
41.37000 218.676
41.38000 215.444
41.39000 212.163
41.40000 209.568
41.41000 209.098
41.42000 208.780
41.43000 209.158
41.44000 211.012
41.45000 212.913
41.46000 214.037
41.47000 206.536
41.48000 201.190
41.49000 201.063
41.50000 205.819
41.51000 210.540
41.52000 212.658
41.53000 213.163
41.54000 213.654
41.55000 210.252
41.56000 205.467
41.57000 200.941
41.58000 199.433
41.59000 198.791
41.60000 198.841
41.61000 203.670
41.62000 209.410
41.63000 214.190
41.64000 205.390
41.65000 196.753
41.66000 190.196
41.67000 189.874
41.68000 189.970
41.69000 190.892
41.70000 193.503
41.71000 196.163
41.72000 197.710
41.73000 211.601
41.74000 221.407
41.75000 222.183
41.76000 214.840
41.77000 207.533
41.78000 202.587
41.79000 199.052
41.80000 195.628
41.81000 196.592
41.82000 199.194
41.83000 201.437
41.84000 199.722
41.85000 196.912
41.86000 195.182
41.87000 200.592
41.88000 207.311
41.89000 212.866
41.90000 209.550
41.91000 205.980
41.92000 202.518
41.93000 199.369
41.94000 196.240
41.95000 195.921
41.96000 201.150
41.97000 206.527
41.98000 209.604
41.99000 210.521
42.00000 211.150
42.01000 208.511
42.02000 203.048
42.03000 197.713
42.04000 199.600
42.05000 205.651
42.06000 211.494
42.07000 212.023
42.08000 210.554
42.09000 209.385
42.10000 211.368
42.11000 214.192
42.12000 215.833
42.13000 209.975
42.14000 202.797
42.15000 196.905
42.16000 203.626
42.17000 210.270
42.18000 214.348
42.19000 211.260
42.20000 207.746
42.21000 203.924
42.22000 199.513
42.23000 195.088
42.24000 192.599
42.25000 193.661
42.26000 194.408
42.27000 195.110
42.28000 195.774
42.29000 196.482
42.30000 199.310
42.31000 203.318
42.32000 207.178
42.33000 211.530
42.34000 215.792
42.35000 219.420
42.36000 216.733
42.37000 212.421
42.38000 208.044
42.39000 203.270
42.40000 198.430
42.41000 194.486
42.42000 198.432
42.43000 202.324
42.44000 204.611
42.45000 202.569
42.46000 200.287
42.47000 199.069
42.48000 199.811
42.49000 200.596
42.50000 201.030
42.51000 204.164
42.52000 206.318
42.53000 204.005
42.54000 198.117
42.55000 192.322
42.56000 190.664
42.57000 191.229
42.58000 191.770
42.59000 195.460
42.60000 199.991
42.61000 204.013
42.62000 203.210
42.63000 201.210
42.64000 199.211
42.65000 197.212
42.66000 195.213
42.67000 193.597
42.68000 193.755
42.69000 194.026
42.70000 193.531
42.71000 191.043
42.72000 188.453
42.73000 187.949
42.74000 191.150
42.75000 194.423
42.76000 196.201
42.77000 198.146
42.78000 199.482
42.79000 201.315
42.80000 203.530
42.81000 205.699
42.82000 205.993
42.83000 205.317
42.84000 204.669
42.85000 200.539
42.86000 195.543
42.87000 191.098
42.88000 191.646
42.89000 193.386
42.90000 195.665
42.91000 200.969
42.92000 206.743
42.93000 211.373
42.94000 205.799
42.95000 200.513
42.96000 196.466
42.97000 195.537
42.98000 194.759
42.99000 194.969
43.00000 196.870
43.01000 198.800
43.02000 199.830
43.03000 200.520
43.04000 200.990
43.05000 201.307
43.06000 201.510
43.07000 201.711
43.08000 201.837
43.09000 201.926
43.10000 202.010
43.11000 196.314
43.12000 189.193
43.13000 182.950
43.14000 184.271
43.15000 187.334
43.16000 189.552
43.17000 187.217
43.18000 184.203
43.19000 181.806
43.20000 186.544
43.21000 190.872
43.22000 192.929
43.23000 189.468
43.24000 185.760
43.25000 184.299
43.26000 186.554
43.27000 188.864
43.28000 190.072
43.29000 195.891
43.30000 199.815
43.31000 201.441
43.32000 201.424
43.33000 201.418
43.34000 201.773
43.35000 202.303
43.36000 202.808
43.37000 195.452
43.38000 186.254
43.39000 178.068
43.40000 178.210
43.41000 180.198
43.42000 182.274
43.43000 184.804
43.44000 187.399
43.45000 189.446
43.46000 198.563
43.47000 206.352
43.48000 209.810
43.49000 203.110
43.50000 195.988
43.51000 190.841
43.52000 188.840
43.53000 186.880
43.54000 185.874
43.55000 192.560
43.56000 197.025
43.57000 197.720
43.58000 195.816
43.59000 193.838
43.60000 189.668
43.61000 184.473
43.62000 179.551
43.63000 180.523
43.64000 183.148
43.65000 185.403
43.66000 184.762
43.67000 183.502
43.68000 182.959
43.69000 185.980
43.70000 189.488
43.71000 192.232
43.72000 185.139
43.73000 178.852
43.74000 176.852
43.75000 184.564
43.76000 192.647
43.77000 196.592
43.78000 194.173
43.79000 191.684
43.80000 190.433
43.81000 188.663
43.82000 187.530
43.83000 191.267
43.84000 198.238
43.85000 204.817
43.86000 200.649
43.87000 191.638
43.88000 183.128
43.89000 179.489
43.90000 177.522
43.91000 176.072
43.92000 178.500
43.93000 181.726
43.94000 185.267
43.95000 190.318
43.96000 195.567
43.97000 199.636
43.98000 193.161
43.99000 187.386
44.00000 184.545
44.01000 188.118
44.02000 191.917
44.03000 194.044
44.04000 193.693
44.05000 193.319
44.06000 192.069
44.07000 189.968
44.08000 187.879
44.09000 186.814
44.10000 186.404
44.11000 186.098
44.12000 188.383
44.13000 191.797
44.14000 195.008
44.15000 198.468
44.16000 201.697
44.17000 203.940
44.18000 199.095
44.19000 192.851
44.20000 187.721
44.21000 187.734
44.22000 188.389
44.23000 188.893
44.24000 193.530
44.25000 197.429
44.26000 198.958
44.27000 195.483
44.28000 191.846
44.29000 191.574
44.30000 196.112
44.31000 200.685
44.32000 202.166
44.33000 200.764
44.34000 199.371
44.35000 198.692
44.36000 198.454
44.37000 197.998
44.38000 192.473
44.39000 184.817
44.40000 177.641
44.41000 180.460
44.42000 185.627
44.43000 189.996
44.44000 188.875
44.45000 186.712
44.46000 185.497
44.47000 188.497
44.48000 191.999
44.49000 194.665
44.50000 193.739
44.51000 192.822
44.52000 194.430
44.53000 201.189
44.54000 208.100
44.55000 211.059
44.56000 208.578
44.57000 206.064
44.58000 206.615
44.59000 209.907
44.60000 213.150
44.61000 213.226
44.62000 211.414
44.63000 209.776
44.64000 211.882
44.65000 215.506
44.66000 218.890
44.67000 219.514
44.68000 219.390
44.69000 218.976
44.70000 216.653
44.71000 213.980
44.72000 212.398
44.73000 215.475
44.74000 219.082
44.75000 221.802
44.76000 224.782
44.77000 227.129
44.78000 227.726
44.79000 224.880
44.80000 221.941
44.81000 220.836
44.82000 222.162
44.83000 223.499
44.84000 224.680
44.85000 225.725
44.86000 226.825
44.87000 230.906
44.88000 236.703
44.89000 242.345
44.90000 244.879
44.91000 246.195
44.92000 247.419
44.93000 243.929
44.94000 239.647
44.95000 236.844
44.96000 243.393
44.97000 251.582
44.98000 258.604
44.99000 260.822
45.00000 262.518
45.01000 263.785
45.02000 256.704
45.03000 250.803
45.04000 246.782
45.05000 246.335
45.06000 245.973
45.07000 247.655
45.08000 251.945
45.09000 256.240
45.10000 260.395
45.11000 264.421
45.12000 268.295
45.13000 264.693
45.14000 256.942
45.15000 249.583
45.16000 249.548
45.17000 252.284
45.18000 254.818
45.19000 253.887
45.20000 252.252
45.21000 250.379
45.22000 247.064
45.23000 243.507
45.24000 240.775
45.25000 241.323
45.26000 242.209
45.27000 242.864
45.28000 234.377
45.29000 227.404
45.30000 223.361
45.31000 224.693
45.32000 226.140
45.33000 227.320
45.34000 228.171
45.35000 229.019
45.36000 228.495
45.37000 226.884
45.38000 225.269
45.39000 223.483
45.40000 221.605
45.41000 219.620
45.42000 215.768
45.43000 211.232
45.44000 207.051
45.45000 204.440
45.46000 202.449
45.47000 200.727
45.48000 200.578
45.49000 200.682
45.50000 201.432
45.51000 204.656
45.52000 208.124
45.53000 210.661
45.54000 203.723
45.55000 197.991
45.56000 195.994
45.57000 200.608
45.58000 205.348
45.59000 205.146
45.60000 199.096
45.61000 193.051
45.62000 191.234
45.63000 192.656
45.64000 194.069
45.65000 195.093
45.66000 195.918
45.67000 196.657
45.68000 195.999
45.69000 194.848
45.70000 193.792
45.71000 195.752
45.72000 198.139
45.73000 200.086
45.74000 199.571
45.75000 198.674
45.76000 198.520
45.77000 201.106
45.78000 203.949
45.79000 206.008
45.80000 196.459
45.81000 188.698
45.82000 186.148
45.83000 192.499
45.84000 199.001
45.85000 201.297
45.86000 198.809
45.87000 196.325
45.88000 192.538
45.89000 187.823
45.90000 183.155
45.91000 180.154
45.92000 177.985
45.93000 175.908
45.94000 175.254
45.95000 175.086
45.96000 174.932
45.97000 183.903
45.98000 193.727
45.99000 201.121
46.00000 195.469
46.01000 187.879
46.02000 181.968
46.03000 182.031
46.04000 182.623
46.05000 183.047
46.06000 179.713
46.07000 177.038
46.08000 174.118
46.09000 170.795
46.10000 167.465
46.11000 170.205
46.12000 179.580
46.13000 188.921
46.14000 190.632
46.15000 186.941
46.16000 183.209
46.17000 178.100
46.18000 172.328
46.19000 166.922
46.20000 166.811
46.21000 168.441
46.22000 169.923
46.23000 169.646
46.24000 169.058
46.25000 168.500
46.26000 168.092
46.27000 167.705
46.28000 167.415
46.29000 167.454
46.30000 167.521
46.31000 167.568
46.32000 170.583
46.33000 172.969
46.34000 174.707
46.35000 175.414
46.36000 176.109
46.37000 176.424
46.38000 176.341
46.39000 176.259
46.40000 177.593
46.41000 179.873
46.42000 181.957
46.43000 178.201
46.44000 171.728
46.45000 165.755
46.46000 166.620
46.47000 169.653
46.48000 172.398
46.49000 168.052
46.50000 162.898
46.51000 159.060
46.52000 161.755
46.53000 165.338
46.54000 168.111
46.55000 168.198
46.56000 168.072
46.57000 167.984
46.58000 174.104
46.59000 178.913
46.60000 179.448
46.61000 173.430
46.62000 167.340
46.63000 165.293
46.64000 167.321
46.65000 169.338
46.66000 170.182
46.67000 170.250
46.68000 170.311
46.69000 170.169
46.70000 169.937
46.71000 169.613
46.72000 168.109
46.73000 166.245
46.74000 164.566
46.75000 167.277
46.76000 170.442
46.77000 173.135
46.78000 173.574
46.79000 173.720
46.80000 174.648
46.81000 178.077
46.82000 181.694
46.83000 184.200
46.84000 178.751
46.85000 174.441
46.86000 171.470
46.87000 170.478
46.88000 169.505
46.89000 166.890
46.90000 162.687
46.91000 158.515
46.92000 160.694
46.93000 166.827
46.94000 172.711
46.95000 172.338
46.96000 169.251
46.97000 166.367
46.98000 165.958
46.99000 166.281
47.00000 166.570
47.01000 162.545
47.02000 158.290
47.03000 155.462
47.04000 159.190
47.05000 163.732
47.06000 167.495
47.07000 168.853
47.08000 170.040
47.09000 170.853
47.10000 172.141
47.11000 173.117
47.12000 171.659
47.13000 166.731
47.14000 161.778
47.15000 160.451
47.16000 162.495
47.17000 164.522
47.18000 164.346
47.19000 162.844
47.20000 161.472
47.21000 163.118
47.22000 166.030
47.23000 168.546
47.24000 166.486
47.25000 163.121
47.26000 160.124
47.27000 162.217
47.28000 164.873
47.29000 166.840
47.30000 165.756
47.31000 164.308
47.32000 162.706
47.33000 160.641
47.34000 158.545
47.35000 157.127
47.36000 156.205
47.37000 155.529
47.38000 157.119
47.39000 161.819
47.40000 166.534
47.41000 166.952
47.42000 163.530
47.43000 160.142
47.44000 157.798
47.45000 156.111
47.46000 154.534
47.47000 155.302
47.48000 157.020
47.49000 158.591
47.50000 158.544
47.51000 158.054
47.52000 157.619
47.53000 160.698
47.54000 163.916
47.55000 165.896
47.56000 162.599
47.57000 158.704
47.58000 155.412
47.59000 153.855
47.60000 152.407
47.61000 151.439
47.62000 154.313
47.63000 156.518
47.64000 157.540
47.65000 156.999
47.66000 156.451
47.67000 156.133
47.68000 156.014
47.69000 155.895
47.70000 156.827
47.71000 158.324
47.72000 159.824
47.73000 161.382
47.74000 162.963
47.75000 164.194
47.76000 161.783
47.77000 158.405
47.78000 155.430
47.79000 156.129
47.80000 157.283
47.81000 157.166
47.82000 151.827
47.83000 145.925
47.84000 142.820
47.85000 147.484
47.86000 152.602
47.87000 155.980
47.88000 151.563
47.89000 148.169
47.90000 149.245
47.91000 156.013
47.92000 162.793
47.93000 165.984
47.94000 166.208
47.95000 166.430
47.96000 165.780
47.97000 164.678
47.98000 163.714
47.99000 165.316
48.00000 167.886
48.01000 170.136
48.02000 169.224
48.03000 167.504
48.04000 165.997
48.05000 162.223
48.06000 158.660
48.07000 155.543
48.08000 154.192
48.09000 153.024
48.10000 152.440
48.11000 153.424
48.12000 154.495
48.13000 155.192
48.14000 156.902
48.15000 158.172
48.16000 157.092
48.17000 153.131
48.18000 149.180
48.19000 150.614
48.20000 156.329
48.21000 161.961
48.22000 164.429
48.23000 165.185
48.24000 165.833
48.25000 164.600
48.26000 162.682
48.27000 160.587
48.28000 156.834
48.29000 152.672
48.30000 149.048
48.31000 151.785
48.32000 154.997
48.33000 158.460
48.34000 162.879
48.35000 167.393
48.36000 168.612
48.37000 161.306
48.38000 153.562
48.39000 148.586
48.40000 148.295
48.41000 148.148
48.42000 149.790
48.43000 153.543
48.44000 157.285
48.45000 157.944
48.46000 156.243
48.47000 154.569
48.48000 155.245
48.49000 157.069
48.50000 158.512
48.51000 153.727
48.52000 146.750
48.53000 140.690
48.54000 142.837
48.55000 146.933
48.56000 150.478
48.57000 152.301
48.58000 153.626
48.59000 154.826
48.60000 155.569
48.61000 156.268
48.62000 155.933
48.63000 153.009
48.64000 149.963
48.65000 148.031
48.66000 156.960
48.67000 163.569
48.68000 165.651
48.69000 162.600
48.70000 159.555
48.71000 158.351
48.72000 158.504
48.73000 158.654
48.74000 157.185
48.75000 154.993
48.76000 152.974
48.77000 153.619
48.78000 155.169
48.79000 156.441
48.80000 155.331
48.81000 153.676
48.82000 152.253
48.83000 150.973
48.84000 149.907
48.85000 148.629
48.86000 146.598
48.87000 144.501
48.88000 144.710
48.89000 150.486
48.90000 156.508
48.91000 160.273
48.92000 159.845
48.93000 159.493
48.94000 159.524
48.95000 159.973
48.96000 160.412
48.97000 159.257
48.98000 156.971
48.99000 154.732
49.00000 153.150
49.01000 151.934
49.02000 150.652
49.03000 148.434
49.04000 145.909
49.05000 144.152
49.06000 148.664
49.07000 154.557
49.08000 159.592
49.09000 158.328
49.10000 156.511
49.11000 155.408
49.12000 156.751
49.13000 158.298
49.14000 158.626
49.15000 156.113
49.16000 153.483
49.17000 151.863
49.18000 152.392
49.19000 152.791
49.20000 151.547
49.21000 148.584
49.22000 145.650
49.23000 146.101
49.24000 148.871
49.25000 151.577
49.26000 152.983
49.27000 153.752
49.28000 154.225
49.29000 150.666
49.30000 145.830
49.31000 141.543
49.32000 141.527
49.33000 142.417
49.34000 143.172
49.35000 148.760
49.36000 153.997
49.37000 157.776
49.38000 156.737
49.39000 155.318
49.40000 154.728
49.41000 156.001
49.42000 157.345
49.43000 158.161
49.44000 149.064
49.45000 142.497
49.46000 142.277
49.47000 148.436
49.48000 154.528
49.49000 154.143
49.50000 149.482
49.51000 144.938
49.52000 144.371
49.53000 145.532
49.54000 146.878
49.55000 150.607
49.56000 155.065
49.57000 158.756
49.58000 156.739
49.59000 153.557
49.60000 150.875
49.61000 148.737
49.62000 147.011
49.63000 145.802
49.64000 146.236
49.65000 146.793
49.66000 147.401
49.67000 148.120
49.68000 148.842
49.69000 149.274
49.70000 144.896
49.71000 141.759
49.72000 141.899
49.73000 145.201
49.74000 148.480
49.75000 149.850
49.76000 150.005
49.77000 150.156
49.78000 150.368
49.79000 150.595
49.80000 151.062
49.81000 154.439
49.82000 158.674
49.83000 162.037
49.84000 159.185
49.85000 155.114
49.86000 151.705
49.87000 153.259
49.88000 155.062
49.89000 155.763
49.90000 153.075
49.91000 150.148
49.92000 148.379
49.93000 149.040
49.94000 149.778
49.95000 150.213
49.96000 147.274
49.97000 145.184
49.98000 144.209
49.99000 144.268
50.00000 144.310
50.01000 143.255
50.02000 141.525
50.03000 139.847
50.04000 140.626
50.05000 142.338
50.06000 143.865
50.07000 143.270
50.08000 142.070
50.09000 141.524
50.10000 145.438
50.11000 150.194
50.12000 154.148
50.13000 150.055
50.14000 145.881
50.15000 142.966
50.16000 143.792
50.17000 144.865
50.18000 146.169
50.19000 147.942
50.20000 149.728
50.21000 150.762
50.22000 148.833
50.23000 147.469
50.24000 148.210
50.25000 150.825
50.26000 153.404
50.27000 153.748
50.28000 152.767
50.29000 151.818
50.30000 153.237
50.31000 155.480
50.32000 157.431
50.33000 156.196
50.34000 154.087
50.35000 152.088
50.36000 150.809
50.37000 149.660
50.38000 148.711
50.39000 154.473
50.40000 159.842
50.41000 162.882
50.42000 159.240
50.43000 155.182
50.44000 153.126
50.45000 154.985
50.46000 156.947
50.47000 158.065
50.48000 159.303
50.49000 160.165
50.50000 159.585
50.51000 157.772
50.52000 156.067
50.53000 160.251
50.54000 167.800
50.55000 175.085
50.56000 174.040
50.57000 170.000
50.58000 166.205
50.59000 164.950
50.60000 164.366
50.61000 163.652
50.62000 162.114
50.63000 160.433
50.64000 159.056
50.65000 163.751
50.66000 168.136
50.67000 172.172
50.68000 175.242
50.69000 178.255
50.70000 178.779
50.71000 174.601
50.72000 170.312
50.73000 167.910
50.74000 160.313
50.75000 155.047
50.76000 155.163
50.77000 159.711
50.78000 164.120
50.79000 161.851
50.80000 155.900
50.81000 150.172
50.82000 149.939
50.83000 151.658
50.84000 153.551
50.85000 157.149
50.86000 161.181
50.87000 164.397
50.88000 162.697
50.89000 160.176
50.90000 158.125
50.91000 158.030
50.92000 158.116
50.93000 156.838
50.94000 151.915
50.95000 146.793
50.96000 144.282
50.97000 146.533
50.98000 148.883
50.99000 150.177
51.00000 151.062
51.01000 151.667
51.02000 151.176
51.03000 149.816
51.04000 148.517
51.05000 149.856
51.06000 152.600
51.07000 155.232
51.08000 155.175
51.09000 154.208
51.10000 153.530
51.11000 155.563
51.12000 158.261
51.13000 159.825
51.14000 154.834
51.15000 148.791
51.16000 143.916
51.17000 145.086
51.18000 146.515
51.19000 147.110
51.20000 145.555
51.21000 143.891
51.22000 144.276
51.23000 148.267
51.24000 152.326
51.25000 154.521
51.26000 152.255
51.27000 150.700
51.28000 149.399
51.29000 148.291
51.30000 147.119
51.31000 143.488
51.32000 138.594
51.33000 133.912
51.34000 135.596
51.35000 139.242
51.36000 142.318
51.37000 140.297
51.38000 137.070
51.39000 134.493
51.40000 135.520
51.41000 137.101
51.42000 138.367
51.43000 139.105
51.44000 139.663
51.45000 140.150
51.46000 140.461
51.47000 140.764
51.48000 142.117
51.49000 145.253
51.50000 148.420
51.51000 150.100
51.52000 145.606
51.53000 142.567
51.54000 143.210
51.55000 146.561
51.56000 149.738
51.57000 146.810
51.58000 140.853
51.59000 135.174
51.60000 136.956
51.61000 140.951
51.62000 144.817
51.63000 147.579
51.64000 150.090
51.65000 151.774
51.66000 149.042
51.67000 145.661
51.68000 142.976
51.69000 140.559
51.70000 138.633
51.71000 138.106
51.72000 140.947
51.73000 143.937
51.74000 145.799
51.75000 145.815
51.76000 145.805
51.77000 145.799
51.78000 136.462
51.79000 130.197
51.80000 130.763
51.81000 136.167
51.82000 141.487
51.83000 144.168
51.84000 145.585
51.85000 146.931
51.86000 144.872
51.87000 141.941
51.88000 139.425
51.89000 140.271
51.90000 141.856
51.91000 142.622
51.92000 139.189
51.93000 135.164
51.94000 131.996
51.95000 136.540
51.96000 140.693
51.97000 144.372
51.98000 146.950
51.99000 149.483
52.00000 150.470
52.01000 149.014
52.02000 147.527
52.03000 146.768
52.04000 140.102
52.05000 135.685
52.06000 137.971
52.07000 144.832
52.08000 151.437
52.09000 150.583
52.10000 146.278
52.11000 142.202
52.12000 139.290
52.13000 136.947
52.14000 134.686
52.15000 133.052
52.16000 131.551
52.17000 130.639
52.18000 132.631
52.19000 135.014
52.20000 136.875
52.21000 134.617
52.22000 132.559
52.23000 132.067
52.24000 135.089
52.25000 138.243
52.26000 139.133
52.27000 136.572
52.28000 133.975
52.29000 132.676
52.30000 135.823
52.31000 137.890
52.32000 136.957
52.33000 134.050
52.34000 131.305
52.35000 132.903
52.36000 136.439
52.37000 139.775
52.38000 142.275
52.39000 144.333
52.40000 145.483
52.41000 139.882
52.42000 132.909
52.43000 127.577
52.44000 130.029
52.45000 133.486
52.46000 136.161
52.47000 134.404
52.48000 132.749
52.49000 132.282
52.50000 134.392
52.51000 136.591
52.52000 136.326
52.53000 132.439
52.54000 128.521
52.55000 128.215
52.56000 131.382
52.57000 134.530
52.58000 136.198
52.59000 136.925
52.60000 137.589
52.61000 136.691
52.62000 135.118
52.63000 133.640
52.64000 136.880
52.65000 141.103
52.66000 145.016
52.67000 146.715
52.68000 147.981
52.69000 148.122
52.70000 143.123
52.71000 137.491
52.72000 133.174
52.73000 137.572
52.74000 141.528
52.75000 143.011
52.76000 139.321
52.77000 135.467
52.78000 133.680
52.79000 134.817
52.80000 135.976
52.81000 137.512
52.82000 139.394
52.83000 141.242
52.84000 140.767
52.85000 138.868
52.86000 136.848
52.87000 132.034
52.88000 126.056
52.89000 120.459
52.90000 124.287
52.91000 130.197
52.92000 135.353
52.93000 135.383
52.94000 134.449
52.95000 133.083
52.96000 129.823
52.97000 126.340
52.98000 123.696
52.99000 129.380
53.00000 134.279
53.01000 138.719
53.02000 142.231
53.03000 145.717
53.04000 146.810
53.05000 144.642
53.06000 142.455
53.07000 137.321
53.08000 129.580
53.09000 122.003
53.10000 124.483
53.11000 132.901
53.12000 140.917
53.13000 140.401
53.14000 136.453
53.15000 132.771
53.16000 135.097
53.17000 138.691
53.18000 142.206
53.19000 145.203
53.20000 148.107
53.21000 149.772
53.22000 146.187
53.23000 142.011
53.24000 138.870
53.25000 148.082
53.26000 155.885
53.27000 159.830
53.28000 156.245
53.29000 152.464
53.30000 149.797
53.31000 148.594
53.32000 147.398
53.33000 145.946
53.34000 144.277
53.35000 142.702
53.36000 146.105
53.37000 152.345
53.38000 158.376
53.39000 160.273
53.40000 160.565
53.41000 160.836
53.42000 163.605
53.43000 166.696
53.44000 168.606
53.45000 163.124
53.46000 156.359
53.47000 151.427
53.48000 153.978
53.49000 157.329
53.50000 159.826
53.51000 157.843
53.52000 156.097
53.53000 155.051
53.54000 155.324
53.55000 155.626
53.56000 155.007
53.57000 153.222
53.58000 151.434
53.59000 149.953
53.60000 148.728
53.61000 147.482
53.62000 145.248
53.63000 142.472
53.64000 139.889
53.65000 140.875
53.66000 143.199
53.67000 145.349
53.68000 147.990
53.69000 150.474
53.70000 152.319
53.71000 150.334
53.72000 147.711
53.73000 146.125
53.74000 148.615
53.75000 151.522
53.76000 153.665
53.77000 146.189
53.78000 139.994
53.79000 135.476
53.80000 134.005
53.81000 132.598
53.82000 134.492
53.83000 140.405
53.84000 146.316
53.85000 146.899
53.86000 143.288
53.87000 139.733
53.88000 138.561
53.89000 138.653
53.90000 138.869
53.91000 141.216
53.92000 144.334
53.93000 147.206
53.94000 146.140
53.95000 144.324
53.96000 142.310
53.97000 139.156
53.98000 135.818
53.99000 134.192
54.00000 139.054
54.01000 144.546
54.02000 148.555
54.03000 147.473
54.04000 146.441
54.05000 145.262
54.06000 143.825
54.07000 142.383
54.08000 139.055
54.09000 133.518
54.10000 127.991
54.11000 126.773
54.12000 128.820
54.13000 130.820
54.14000 131.050
54.15000 130.373
54.16000 129.840
54.17000 131.641
54.18000 134.259
54.19000 136.659
54.20000 134.618
54.21000 131.868
54.22000 129.616
54.23000 130.118
54.24000 131.042
54.25000 132.600
54.26000 136.479
54.27000 140.572
54.28000 143.529
54.29000 140.244
54.30000 137.499
54.31000 133.681
54.32000 128.045
54.33000 122.381
54.34000 122.094
54.35000 127.864
54.36000 133.620
54.37000 134.538
54.38000 131.932
54.39000 129.381
54.40000 128.758
54.41000 129.090
54.42000 129.617
54.43000 133.114
54.44000 137.613
54.45000 141.719
54.46000 138.614
54.47000 134.406
54.48000 130.805
54.49000 130.427
54.50000 130.523
54.51000 131.156
54.52000 133.685
54.53000 136.379
54.54000 138.305
54.55000 142.106
54.56000 145.069
54.57000 144.684
54.58000 138.828
54.59000 132.894
54.60000 132.366
54.61000 137.690
54.62000 142.993
54.63000 143.769
54.64000 141.374
54.65000 138.962
54.66000 136.040
54.67000 132.875
54.68000 129.815
54.69000 128.264
54.70000 127.205
54.71000 126.244
54.72000 132.108
54.73000 138.607
54.74000 143.923
54.75000 143.198
54.76000 141.623
54.77000 139.963
54.78000 138.016
54.79000 136.045
54.80000 134.651
54.81000 141.865
54.82000 147.607
54.83000 151.066
54.84000 150.929
54.85000 150.748
54.86000 146.610
54.87000 138.359
54.88000 130.151
54.89000 128.071
54.90000 130.135
54.91000 132.187
54.92000 133.871
54.93000 135.386
54.94000 136.890
54.95000 138.250
54.96000 139.564
54.97000 140.751
54.98000 138.270
54.99000 135.408
55.00000 133.751
55.01000 138.020
55.02000 143.087
55.03000 145.649
55.04000 139.985
55.05000 133.678
55.06000 129.270
55.07000 136.544
55.08000 142.368
55.09000 143.541
55.10000 137.646
55.11000 131.678
55.12000 130.787
55.13000 134.964
55.14000 139.114
55.15000 140.735
55.16000 140.697
55.17000 140.597
55.18000 138.878
55.19000 136.438
55.20000 134.360
55.21000 136.883
55.22000 140.803
55.23000 144.327
55.24000 147.731
55.25000 150.689
55.26000 152.973
55.27000 152.065
55.28000 150.747
55.29000 149.577
55.30000 148.877
55.31000 148.212
55.32000 147.753
55.33000 150.808
55.34000 153.196
55.35000 154.427
55.36000 153.964
55.37000 153.487
55.38000 153.909
55.39000 155.193
55.40000 156.468
55.41000 157.241
55.42000 157.689
55.43000 158.284
55.44000 162.502
55.45000 168.279
55.46000 174.058
55.47000 179.875
55.48000 185.703
55.49000 190.915
55.50000 189.628
55.51000 187.401
55.52000 186.754
55.53000 193.303
55.54000 200.736
55.55000 206.812
55.56000 208.734
55.57000 210.368
55.58000 211.483
55.59000 219.044
55.60000 224.850
55.61000 233.004
55.62000 244.470
55.63000 255.960
55.64000 268.894
55.65000 283.157
55.66000 297.293
55.67000 303.183
55.68000 304.023
55.69000 305.260
55.70000 315.512
55.71000 329.509
55.72000 343.003
55.73000 350.757
55.74000 356.889
55.75000 362.344
55.76000 376.922
55.77000 391.062
55.78000 407.190
55.79000 432.034
55.80000 457.901
55.81000 479.743
55.82000 489.701
55.83000 498.881
55.84000 505.073
55.85000 510.997
55.86000 515.399
55.87000 526.001
55.88000 545.035
55.89000 564.113
55.90000 578.843
55.91000 589.727
55.92000 600.499
55.93000 601.402
55.94000 596.603
55.95000 592.034
55.96000 592.310
55.97000 594.530
55.98000 595.806
55.99000 586.880
56.00000 575.174
56.01000 564.818
56.02000 559.874
56.03000 556.443
56.04000 550.856
56.05000 536.169
56.06000 520.463
56.07000 508.066
56.08000 505.099
56.09000 502.713
56.10000 501.123
56.11000 481.572
56.12000 466.759
56.13000 451.988
56.14000 437.275
56.15000 422.559
56.16000 406.070
56.17000 388.072
56.18000 370.288
56.19000 354.229
56.20000 339.522
56.21000 325.209
56.22000 318.628
56.23000 315.042
56.24000 310.654
56.25000 298.039
56.26000 283.261
56.27000 270.261
56.28000 266.233
56.29000 264.102
56.30000 260.781
56.31000 252.617
56.32000 243.937
56.33000 236.478
56.34000 232.382
56.35000 228.479
56.36000 225.912
56.37000 207.677
56.38000 193.984
56.39000 185.073
56.40000 182.194
56.41000 179.336
56.42000 176.716
56.43000 174.293
56.44000 171.902
56.45000 171.394
56.46000 171.902
56.47000 172.134
56.48000 167.295
56.49000 160.560
56.50000 154.099
56.51000 150.315
56.52000 147.209
56.53000 144.493
56.54000 142.779
56.55000 141.453
56.56000 140.129
56.57000 138.810
56.58000 137.491
56.59000 136.712
56.60000 137.366
56.61000 138.097
56.62000 138.571
56.63000 140.712
56.64000 142.306
56.65000 143.215
56.66000 143.294
56.67000 143.366
56.68000 141.769
56.69000 138.858
56.70000 135.991
56.71000 133.680
56.72000 131.724
56.73000 129.828
56.74000 128.957
56.75000 128.456
56.76000 128.023
56.77000 128.219
56.78000 128.568
56.79000 128.871
56.80000 131.705
56.81000 134.466
56.82000 136.763
56.83000 137.303
56.84000 137.673
56.85000 136.890
56.86000 133.146
56.87000 129.252
56.88000 126.759
56.89000 129.580
56.90000 131.707
56.91000 132.483
56.92000 131.682
56.93000 130.896
56.94000 133.833
56.95000 139.592
56.96000 145.254
56.97000 142.964
56.98000 136.825
56.99000 130.882
57.00000 128.105
57.01000 126.432
57.02000 125.212
57.03000 128.007
57.04000 131.748
57.05000 134.979
57.06000 132.852
57.07000 130.351
57.08000 128.454
57.09000 128.764
57.10000 129.276
57.11000 128.533
57.12000 124.682
57.13000 120.686
57.14000 118.161
57.15000 119.118
57.16000 119.852
57.17000 120.232
57.18000 120.214
57.19000 120.204
57.20000 121.688
57.21000 124.261
57.22000 126.786
57.23000 126.809
57.24000 125.643
57.25000 124.621
57.26000 125.782
57.27000 127.677
57.28000 129.358
57.29000 129.225
57.30000 128.681
57.31000 128.214
57.32000 128.488
57.33000 128.811
57.34000 129.581
57.35000 131.922
57.36000 134.399
57.37000 135.396
57.38000 132.852
57.39000 130.153
57.40000 128.473
57.41000 121.778
57.42000 116.903
57.43000 117.600
57.44000 124.310
57.45000 130.963
57.46000 129.846
57.47000 123.258
57.48000 116.809
57.49000 116.749
57.50000 119.613
57.51000 122.469
57.52000 125.213
57.53000 127.921
57.54000 130.095
57.55000 127.961
57.56000 124.887
57.57000 122.265
57.58000 121.871
57.59000 121.803
57.60000 120.902
57.61000 117.177
57.62000 113.219
57.63000 111.872
57.64000 116.559
57.65000 121.488
57.66000 124.514
57.67000 127.839
57.68000 130.223
57.69000 130.746
57.70000 129.339
57.71000 127.930
57.72000 126.248
57.73000 124.382
57.74000 122.559
57.75000 122.967
57.76000 124.340
57.77000 125.522
57.78000 124.138
57.79000 121.950
57.80000 119.922
57.81000 119.129
57.82000 118.595
57.83000 118.143
57.84000 120.703
57.85000 123.186
57.86000 124.363
57.87000 121.265
57.88000 117.835
57.89000 115.095
57.90000 113.896
57.91000 112.753
57.92000 112.062
57.93000 113.637
57.94000 114.775
57.95000 118.050
57.96000 123.450
57.97000 128.790
57.98000 128.561
57.99000 124.688
58.00000 120.915
58.01000 118.035
58.02000 115.667
58.03000 113.664
58.04000 116.293
58.05000 120.323
58.06000 123.866
58.07000 123.810
58.08000 123.027
58.09000 122.369
58.10000 122.064
58.11000 121.848
58.12000 121.084
58.13000 118.587
58.14000 115.963
58.15000 114.481
58.16000 115.459
58.17000 116.520
58.18000 117.152
58.19000 124.765
58.20000 130.201
58.21000 130.541
58.22000 126.015
58.23000 121.540
58.24000 121.202
58.25000 123.471
58.26000 125.677
58.27000 123.078
58.28000 118.647
58.29000 114.692
58.30000 116.437
58.31000 119.846
58.32000 122.760
58.33000 122.185
58.34000 120.931
58.35000 119.883
58.36000 122.575
58.37000 125.190
58.38000 126.883
58.39000 125.763
58.40000 124.449
58.41000 123.074
58.42000 121.574
58.43000 120.070
58.44000 119.188
58.45000 121.145
58.46000 122.536
58.47000 122.111
58.48000 120.019
58.49000 117.952
58.50000 117.638
58.51000 118.390
58.52000 119.119
58.53000 118.363
58.54000 117.063
58.55000 115.764
58.56000 114.466
58.57000 113.169
58.58000 112.495
58.59000 116.029
58.60000 120.350
58.61000 123.936
58.62000 120.605
58.63000 117.182
58.64000 115.561
58.65000 119.243
58.66000 123.270
58.67000 124.717
58.68000 120.981
58.69000 117.099
58.70000 114.860
58.71000 115.409
58.72000 115.806
58.73000 118.167
58.74000 122.261
58.75000 126.309
58.76000 127.634
58.77000 127.361
58.78000 127.097
58.79000 126.843
58.80000 126.607
58.81000 126.138
58.82000 123.168
58.83000 119.519
58.84000 116.629
58.85000 118.663
58.86000 121.581
58.87000 123.985
58.88000 121.349
58.89000 118.719
58.90000 116.328
58.91000 114.620
58.92000 112.954
58.93000 113.961
58.94000 120.151
58.95000 126.474
58.96000 130.061
58.97000 121.003
58.98000 114.664
58.99000 111.525
59.00000 111.100
59.01000 110.718
59.02000 112.647
59.03000 115.886
59.04000 119.009
59.05000 118.927
59.06000 117.684
59.07000 116.550
59.08000 116.523
59.09000 116.785
59.10000 116.750
59.11000 114.863
59.12000 112.656
59.13000 110.852
59.14000 113.766
59.15000 116.562
59.16000 118.781
59.17000 119.414
59.18000 119.956
59.19000 119.944
59.20000 118.892
59.21000 117.817
59.22000 117.217
59.23000 114.997
59.24000 113.465
59.25000 114.703
59.26000 118.201
59.27000 121.613
59.28000 120.953
59.29000 118.069
59.30000 115.296
59.31000 116.190
59.32000 118.311
59.33000 119.849
59.34000 115.722
59.35000 110.165
59.36000 106.150
59.37000 111.325
59.38000 118.021
59.39000 123.455
59.40000 119.430
59.41000 115.369
59.42000 112.353
59.43000 112.106
59.44000 112.007
59.45000 111.914
59.46000 111.831
59.47000 111.749
59.48000 111.704
59.49000 115.345
59.50000 117.844
59.51000 117.167
59.52000 113.997
59.53000 110.939
59.54000 112.548
59.55000 116.619
59.56000 120.522
59.57000 122.086
59.58000 122.760
59.59000 123.299
59.60000 122.584
59.61000 121.565
59.62000 120.408
59.63000 118.466
59.64000 116.401
59.65000 114.738
59.66000 111.962
59.67000 109.624
59.68000 108.821
59.69000 111.947
59.70000 115.270
59.71000 116.288
59.72000 113.283
59.73000 110.206
59.74000 108.550
59.75000 108.188
59.76000 107.942
59.77000 107.724
59.78000 107.527
59.79000 107.421
59.80000 110.749
59.81000 115.828
59.82000 120.681
59.83000 119.876
59.84000 117.297
59.85000 114.835
59.86000 113.408
59.87000 112.224
59.88000 111.097
59.89000 110.281
59.90000 109.513
59.91000 108.899
59.92000 110.993
59.93000 112.885
59.94000 114.495
59.95000 115.412
59.96000 116.296
59.97000 116.574
59.98000 115.830
59.99000 115.070
60.00000 114.668
60.01000 116.230
60.02000 117.291
60.03000 118.306
60.04000 119.286
60.05000 120.214
60.06000 119.353
60.07000 117.612
60.08000 115.954
60.09000 115.626
60.10000 115.737
60.11000 115.797
60.12000 115.430
60.13000 114.966
60.14000 114.488
60.15000 113.931
60.16000 113.364
60.17000 112.914
60.18000 115.989
60.19000 118.706
60.20000 119.641
60.21000 116.325
60.22000 112.825
60.23000 110.922
60.24000 111.610
60.25000 112.334
60.26000 112.709
60.27000 113.527
60.28000 114.079
60.29000 114.723
60.30000 115.431
60.31000 116.145
60.32000 117.069
60.33000 118.091
60.34000 119.062
60.35000 116.316
60.36000 112.670
60.37000 109.827
60.38000 113.444
60.39000 118.465
60.40000 121.998
60.41000 117.974
60.42000 112.896
60.43000 108.908
60.44000 110.570
60.45000 112.271
60.46000 113.480
60.47000 113.556
60.48000 113.588
60.49000 113.869
60.50000 114.542
60.51000 115.220
60.52000 115.564
60.53000 114.090
60.54000 113.130
60.55000 115.282
60.56000 119.539
60.57000 123.638
60.58000 123.242
60.59000 120.784
60.60000 118.459
60.61000 115.334
60.62000 112.230
60.63000 109.644
60.64000 111.037
60.65000 113.262
60.66000 114.963
60.67000 114.104
60.68000 112.903
60.69000 111.968
60.70000 116.937
60.71000 121.258
60.72000 124.054
60.73000 123.458
60.74000 122.738
60.75000 121.287
60.76000 118.735
60.77000 116.171
60.78000 115.714
60.79000 117.345
60.80000 118.970
60.81000 119.950
60.82000 120.511
60.83000 120.997
60.84000 119.525
60.85000 117.185
60.86000 114.979
60.87000 118.232
60.88000 122.718
60.89000 126.100
60.90000 121.371
60.91000 115.009
60.92000 109.816
60.93000 110.112
60.94000 111.110
60.95000 111.880
60.96000 117.066
60.97000 121.432
60.98000 124.029
60.99000 122.828
61.00000 121.498
61.01000 121.099
61.02000 122.053
61.03000 123.019
61.04000 123.998
61.05000 124.989
61.06000 125.955
61.07000 124.921
61.08000 122.629
61.09000 120.364
61.10000 118.770
61.11000 117.461
61.12000 116.232
61.13000 116.992
61.14000 118.213
61.15000 119.075
61.16000 117.415
61.17000 115.267
61.18000 113.878
61.19000 115.927
61.20000 118.395
61.21000 120.283
61.22000 115.387
61.23000 111.156
61.24000 109.541
61.25000 113.352
61.26000 117.329
61.27000 120.498
61.28000 122.531
61.29000 124.556
61.30000 124.425
61.31000 122.324
61.32000 120.253
61.33000 120.119
61.34000 121.162
61.35000 122.195
61.36000 123.027
61.37000 123.776
61.38000 124.476
61.39000 123.845
61.40000 122.932
61.41000 122.231
61.42000 122.955
61.43000 123.944
61.44000 124.958
61.45000 126.076
61.46000 127.207
61.47000 128.064
61.48000 137.187
61.49000 144.770
61.50000 150.572
61.51000 152.807
61.52000 154.941
61.53000 159.873
61.54000 168.587
61.55000 177.317
61.56000 191.247
61.57000 209.718
61.58000 228.122
61.59000 242.502
61.60000 254.528
61.61000 266.317
61.62000 273.152
61.63000 278.012
61.64000 282.540
61.65000 285.304
61.66000 287.374
61.67000 289.406
61.68000 291.202
61.69000 292.956
61.70000 294.133
61.71000 292.885
61.72000 291.368
61.73000 290.230
61.74000 288.657
61.75000 287.407
61.76000 281.342
61.77000 265.962
61.78000 250.347
61.79000 233.813
61.80000 216.083
61.81000 198.364
61.82000 183.091
61.83000 169.917
61.84000 156.878
61.85000 150.869
61.86000 148.829
61.87000 146.758
61.88000 144.086
61.89000 141.183
61.90000 138.489
61.91000 139.059
61.92000 140.340
61.93000 140.963
61.94000 137.506
61.95000 133.348
61.96000 130.244
61.97000 131.399
61.98000 133.006
61.99000 134.199
62.00000 135.039
62.01000 135.677
62.02000 134.683
62.03000 130.644
62.04000 126.535
62.05000 126.092
62.06000 130.241
62.07000 134.398
62.08000 135.947
62.09000 135.376
62.10000 134.776
62.11000 132.841
62.12000 130.179
62.13000 127.546
62.14000 125.439
62.15000 123.527
62.16000 121.761
62.17000 124.348
62.18000 127.653
62.19000 130.761
62.20000 132.695
62.21000 134.436
62.22000 135.702
62.23000 135.120
62.24000 134.352
62.25000 133.786
62.26000 128.488
62.27000 124.194
62.28000 122.320
62.29000 124.808
62.30000 127.385
62.31000 127.125
62.32000 123.443
62.33000 119.762
62.34000 120.120
62.35000 123.622
62.36000 127.001
62.37000 125.302
62.38000 120.932
62.39000 117.042
62.40000 121.280
62.41000 128.438
62.42000 135.021
62.43000 132.921
62.44000 129.163
62.45000 125.734
62.46000 124.183
62.47000 122.929
62.48000 121.548
62.49000 119.692
62.50000 117.791
62.51000 116.407
62.52000 121.565
62.53000 125.787
62.54000 127.626
62.55000 125.321
62.56000 122.942
62.57000 121.793
62.58000 122.071
62.59000 122.350
62.60000 121.425
62.61000 119.604
62.62000 117.854
62.63000 118.759
62.64000 121.011
62.65000 123.005
62.66000 120.878
62.67000 117.323
62.68000 114.069
62.69000 118.301
62.70000 123.623
62.71000 128.397
62.72000 130.167
62.73000 131.482
62.74000 132.520
62.75000 132.557
62.76000 132.502
62.77000 132.463
62.78000 131.255
62.79000 130.289
62.80000 129.950
62.81000 130.663
62.82000 131.393
62.83000 131.385
62.84000 130.554
62.85000 129.725
62.86000 126.479
62.87000 121.523
62.88000 116.791
62.89000 119.695
62.90000 126.342
62.91000 132.792
62.92000 136.303
62.93000 138.831
62.94000 141.134
62.95000 139.464
62.96000 137.191
62.97000 134.674
62.98000 130.870
62.99000 126.879
63.00000 124.689
63.01000 128.792
63.02000 133.438
63.03000 136.749
63.04000 133.469
63.05000 130.753
63.06000 129.869
63.07000 131.949
63.08000 134.070
63.09000 135.574
63.10000 136.416
63.11000 137.254
63.12000 136.704
63.13000 135.200
63.14000 133.669
63.15000 131.329
63.16000 128.605
63.17000 126.156
63.18000 127.573
63.19000 130.238
63.20000 132.655
63.21000 128.569
63.22000 123.722
63.23000 120.666
63.24000 126.680
63.25000 133.956
63.26000 139.362
63.27000 138.461
63.28000 137.047
63.29000 136.049
63.30000 133.777
63.31000 132.016
63.32000 129.984
63.33000 127.528
63.34000 125.068
63.35000 126.786
63.36000 132.805
63.37000 138.790
63.38000 139.064
63.39000 135.532
63.40000 132.072
63.41000 130.628
63.42000 130.106
63.43000 129.722
63.44000 131.151
63.45000 133.147
63.46000 134.947
63.47000 132.115
63.48000 128.778
63.49000 126.245
63.50000 127.626
63.51000 129.528
63.52000 129.939
63.53000 125.499
63.54000 120.684
63.55000 117.328
63.56000 125.104
63.57000 131.278
63.58000 135.274
63.59000 135.992
63.60000 136.677
63.61000 137.265
63.62000 137.757
63.63000 138.246
63.64000 138.612
63.65000 138.894
63.66000 139.124
63.67000 138.012
63.68000 136.306
63.69000 134.881
63.70000 136.977
63.71000 140.133
63.72000 142.965
63.73000 138.354
63.74000 133.013
63.75000 128.847
63.76000 130.181
63.77000 132.216
63.78000 133.846
63.79000 134.203
63.80000 134.468
63.81000 134.651
63.82000 135.076
63.83000 135.402
63.84000 137.453
63.85000 142.006
63.86000 146.580
63.87000 146.766
63.88000 142.792
63.89000 138.850
63.90000 139.857
63.91000 143.896
63.92000 147.633
63.93000 144.100
63.94000 137.467
63.95000 131.444
63.96000 132.667
63.97000 135.992
63.98000 138.963
63.99000 141.252
64.00000 143.131
64.01000 144.755
64.02000 145.232
64.03000 145.570
64.04000 145.439
64.05000 143.886
64.06000 142.236
64.07000 141.112
64.08000 137.348
64.09000 134.476
64.10000 134.491
64.11000 138.545
64.12000 142.625
64.13000 144.972
64.14000 145.740
64.15000 146.500
64.16000 146.537
64.17000 146.145
64.18000 145.759
64.19000 145.516
64.20000 145.333
64.21000 145.320
64.22000 147.228
64.23000 149.673
64.24000 151.845
64.25000 151.340
64.26000 150.471
64.27000 149.329
64.28000 146.999
64.29000 144.531
64.30000 143.080
64.31000 144.604
64.32000 146.320
64.33000 147.474
64.34000 154.719
64.35000 160.229
64.36000 161.108
64.37000 155.749
64.38000 150.360
64.39000 148.286
64.40000 149.115
64.41000 149.934
64.42000 151.196
64.43000 152.681
64.44000 154.138
64.45000 155.007
64.46000 155.642
64.47000 156.292
64.48000 157.108
64.49000 157.968
64.50000 158.728
64.51000 158.081
64.52000 157.306
64.53000 156.436
64.54000 155.173
64.55000 153.867
64.56000 154.599
64.57000 161.093
64.58000 167.935
64.59000 172.479
64.60000 160.927
64.61000 152.089
64.62000 149.453
64.63000 154.865
64.64000 160.305
64.65000 162.514
64.66000 162.002
64.67000 161.496
64.68000 162.324
64.69000 163.864
64.70000 165.276
64.71000 164.232
64.72000 162.245
64.73000 160.359
64.74000 159.509
64.75000 158.927
64.76000 158.417
64.77000 162.915
64.78000 167.520
64.79000 170.469
64.80000 166.745
64.81000 162.318
64.82000 159.497
64.83000 161.059
64.84000 162.870
64.85000 164.057
64.86000 168.369
64.87000 171.591
64.88000 172.244
64.89000 169.687
64.90000 167.132
64.91000 168.789
64.92000 173.860
64.93000 178.861
64.94000 183.941
64.95000 188.919
64.96000 193.630
64.97000 193.530
64.98000 191.645
64.99000 189.590
65.00000 185.893
65.01000 181.784
65.02000 178.196
65.03000 177.904
65.04000 178.118
65.05000 179.862
65.06000 187.553
65.07000 195.840
65.08000 200.189
65.09000 194.166
65.10000 187.592
65.11000 183.340
65.12000 188.877
65.13000 193.070
65.14000 196.398
65.15000 198.685
65.16000 200.969
65.17000 202.996
65.18000 204.822
65.19000 206.620
65.20000 214.006
65.21000 224.001
65.22000 233.233
65.23000 229.588
65.24000 221.333
65.25000 214.536
65.26000 221.126
65.27000 230.955
65.28000 239.486
65.29000 235.054
65.30000 229.536
65.31000 225.682
65.32000 228.058
65.33000 231.027
65.34000 235.229
65.35000 242.568
65.36000 250.062
65.37000 254.845
65.38000 256.089
65.39000 256.947
65.40000 261.309
65.41000 269.721
65.42000 278.110
65.43000 280.770
65.44000 279.125
65.45000 277.509
65.46000 281.929
65.47000 289.149
65.48000 296.145
65.49000 299.585
65.50000 301.796
65.51000 304.135
65.52000 307.594
65.53000 311.314
65.54000 314.523
65.55000 315.429
65.56000 315.903
65.57000 319.750
65.58000 335.780
65.59000 352.912
65.60000 367.811
65.61000 377.222
65.62000 386.382
65.63000 392.148
65.64000 433.147
65.65000 463.210
65.66000 496.532
65.67000 533.476
65.68000 570.621
65.69000 639.158
65.70000 730.414
65.71000 819.888
65.72000 932.403
65.73000 1051.582
65.74000 1170.727
65.75000 1289.377
65.76000 1407.861
65.77000 1523.039
65.78000 1610.604
65.79000 1691.970
65.80000 1761.720
65.81000 1806.366
65.82000 1841.001
65.83000 1873.157
65.84000 1896.675
65.85000 1919.453
65.86000 1933.835
65.87000 1928.299
65.88000 1921.916
65.89000 1917.954
65.90000 1925.969
65.91000 1931.853
65.92000 1893.666
65.93000 1808.412
65.94000 1722.980
65.95000 1616.323
65.96000 1494.865
65.97000 1376.031
65.98000 1236.083
65.99000 1092.210
66.00000 951.635
66.01000 857.249
66.02000 777.738
66.03000 699.832
66.04000 634.728
66.05000 572.391
66.06000 519.298
66.07000 480.725
66.08000 449.986
66.09000 424.374
66.10000 415.997
66.11000 409.018
66.12000 400.703
66.13000 389.326
66.14000 377.829
66.15000 370.798
66.16000 372.182
66.17000 373.242
66.18000 373.265
66.19000 372.224
66.20000 371.234
66.21000 375.594
66.22000 383.549
66.23000 391.315
66.24000 394.661
66.25000 395.933
66.26000 398.906
66.27000 424.342
66.28000 456.762
66.29000 488.070
66.30000 510.907
66.31000 531.982
66.32000 549.813
66.33000 565.509
66.34000 578.409
66.35000 591.134
66.36000 603.294
66.37000 615.410
66.38000 623.206
66.39000 621.444
66.40000 619.335
66.41000 618.065
66.42000 605.588
66.43000 596.631
66.44000 592.159
66.45000 592.101
66.46000 592.001
66.47000 588.225
66.48000 582.066
66.49000 576.067
66.50000 561.603
66.51000 544.265
66.52000 526.946
66.53000 509.873
66.54000 492.874
66.55000 474.809
66.56000 448.975
66.57000 421.586
66.58000 398.573
66.59000 391.315
66.60000 386.932
66.61000 380.743
66.62000 368.896
66.63000 356.640
66.64000 348.741
66.65000 350.150
66.66000 351.869
66.67000 352.888
66.68000 349.728
66.69000 347.469
66.70000 346.286
66.71000 346.120
66.72000 345.994
66.73000 348.810
66.74000 353.465
66.75000 357.987
66.76000 353.279
66.77000 345.080
66.78000 337.712
66.79000 340.167
66.80000 345.466
66.81000 350.624
66.82000 354.802
66.83000 358.793
66.84000 362.122
66.85000 359.252
66.86000 356.248
66.87000 354.029
66.88000 354.182
66.89000 354.496
66.90000 353.037
66.91000 347.920
66.92000 342.693
66.93000 339.640
66.94000 350.404
66.95000 358.036
66.96000 360.850
66.97000 359.288
66.98000 357.775
66.99000 359.544
67.00000 363.291
67.01000 366.923
67.02000 365.031
67.03000 361.093
67.04000 357.704
67.05000 360.452
67.06000 364.913
67.07000 369.131
67.08000 371.725
67.09000 374.018
67.10000 375.919
67.11000 374.338
67.12000 372.702
67.13000 372.360
67.14000 375.799
67.15000 379.480
67.16000 381.372
67.17000 379.700
67.18000 377.929
67.19000 376.912
67.20000 391.403
67.21000 401.587
67.22000 405.658
67.23000 404.391
67.24000 403.130
67.25000 402.168
67.26000 401.380
67.27000 400.619
67.28000 397.755
67.29000 394.268
67.30000 391.280
67.31000 393.605
67.32000 397.360
67.33000 400.290
67.34000 397.938
67.35000 394.648
67.36000 391.942
67.37000 393.852
67.38000 395.840
67.39000 398.282
67.40000 402.005
67.41000 405.805
67.42000 405.341
67.43000 396.681
67.44000 387.817
67.45000 382.810
67.46000 389.958
67.47000 394.963
67.48000 401.429
67.49000 409.120
67.50000 416.669
67.51000 416.942
67.52000 413.130
67.53000 409.457
67.54000 408.352
67.55000 408.237
67.56000 408.747
67.57000 415.575
67.58000 424.044
67.59000 431.641
67.60000 433.884
67.61000 435.213
67.62000 436.298
67.63000 439.634
67.64000 442.555
67.65000 443.748
67.66000 440.241
67.67000 436.468
67.68000 435.181
67.69000 438.508
67.70000 441.939
67.71000 443.843
67.72000 448.195
67.73000 451.195
67.74000 449.916
67.75000 445.179
67.76000 440.525
67.77000 439.624
67.78000 440.757
67.79000 441.845
67.80000 451.215
67.81000 462.854
67.82000 473.264
67.83000 471.881
67.84000 467.545
67.85000 463.047
67.86000 457.584
67.87000 451.964
67.88000 447.413
67.89000 465.501
67.90000 482.071
67.91000 493.769
67.92000 492.670
67.93000 490.897
67.94000 490.138
67.95000 491.198
67.96000 492.294
67.97000 492.891
67.98000 492.710
67.99000 492.577
68.00000 490.714
68.01000 487.505
68.02000 484.530
68.03000 491.104
68.04000 502.672
68.05000 513.752
68.06000 512.864
68.07000 508.050
68.08000 504.192
68.09000 509.072
68.10000 516.058
68.11000 521.217
68.12000 516.028
68.13000 509.215
68.14000 503.740
68.15000 517.277
68.16000 529.711
68.17000 539.080
68.18000 540.675
68.19000 541.887
68.20000 543.063
68.21000 544.175
68.22000 545.286
68.23000 545.881
68.24000 539.413
68.25000 535.050
68.26000 541.960
68.27000 557.313
68.28000 572.420
68.29000 578.455
68.30000 579.908
68.31000 581.297
68.32000 577.244
68.33000 571.737
68.34000 568.112
68.35000 580.900
68.36000 597.502
68.37000 613.049
68.38000 622.865
68.39000 631.818
68.40000 638.953
68.41000 628.999
68.42000 619.729
68.43000 619.555
68.44000 641.661
68.45000 664.784
68.46000 678.845
68.47000 677.793
68.48000 676.508
68.49000 675.832
68.50000 692.913
68.51000 704.481
68.52000 712.746
68.53000 718.626
68.54000 724.816
68.55000 741.337
68.56000 762.893
68.57000 783.409
68.58000 802.652
68.59000 820.071
68.60000 839.095
68.61000 871.470
68.62000 906.833
68.63000 942.970
68.64000 983.162
68.65000 1023.939
68.66000 1056.169
68.67000 1095.805
68.68000 1128.140
68.69000 1163.500
68.70000 1206.018
68.71000 1248.838
68.72000 1286.652
68.73000 1316.413
68.74000 1346.067
68.75000 1361.358
68.76000 1458.055
68.77000 1523.096
68.78000 1574.651
68.79000 1616.831
68.80000 1659.294
68.81000 1710.398
68.82000 1765.570
68.83000 1817.899
68.84000 1886.110
68.85000 1953.702
68.86000 2027.538
68.87000 2150.976
68.88000 2285.099
68.89000 2457.681
68.90000 2823.595
68.91000 3216.210
68.92000 3523.898
68.93000 4801.520
68.94000 5885.206
68.95000 7382.491
68.96000 9824.475
68.97000 12303.364
68.98000 15160.146
68.99000 18603.301
69.00000 22053.189
69.01000 23797.055
69.02000 28608.904
69.03000 31822.361
69.04000 34386.531
69.05000 36515.617
69.06000 38613.711
69.07000 39844.563
69.08000 40681.277
69.09000 41472.082
69.10000 42129.195
69.11000 42694.625
69.12000 43281.387
69.13000 44030.117
69.14000 44812.434
69.15000 45548.941
69.16000 46063.898
69.17000 46549.590
69.18000 46926.910
69.19000 45984.652
69.20000 45155.027
69.21000 43732.730
69.22000 41003.184
69.23000 38226.637
69.24000 35545.816
69.25000 33008.211
69.26000 30472.025
69.27000 28321.826
69.28000 26550.383
69.29000 24785.283
69.30000 23579.215
69.31000 22734.330
69.32000 21905.154
69.33000 21480.404
69.34000 21233.148
69.35000 21000.314
69.36000 20512.385
69.37000 19996.273
69.38000 19394.555
69.39000 18171.051
69.40000 16823.525
69.41000 15383.161
69.42000 13510.698
69.43000 11583.672
69.44000 10099.956
69.45000 8298.634
69.46000 6854.517
69.47000 5562.002
69.48000 4592.384
69.49000 3633.407
69.50000 2892.034
69.51000 2464.487
69.52000 2039.510
69.53000 1749.308
69.54000 1586.135
69.55000 1423.577
69.56000 1307.347
69.57000 1219.984
69.58000 1133.878
69.59000 1077.637
69.60000 1034.052
69.61000 993.166
69.62000 954.919
69.63000 920.767
69.64000 886.969
69.65000 855.633
69.66000 824.769
69.67000 796.932
69.68000 782.664
69.69000 770.031
69.70000 760.393
69.71000 734.060
69.72000 712.420
69.73000 694.140
69.74000 682.768
69.75000 671.603
69.76000 663.660
69.77000 660.194
69.78000 656.758
69.79000 643.598
69.80000 621.654
69.81000 599.901
69.82000 590.586
69.83000 588.748
69.84000 586.415
69.85000 573.171
69.86000 555.461
69.87000 538.913
69.88000 537.786
69.89000 540.658
69.90000 542.596
69.91000 538.311
69.92000 532.880
69.93000 527.466
69.94000 522.133
69.95000 516.809
69.96000 512.785
69.97000 510.350
69.98000 508.521
69.99000 503.923
70.00000 493.828
