20.00000 487.687
20.01000 479.200
20.02000 469.500
20.03000 462.819
20.04000 468.012
20.05000 474.415
20.06000 479.138
20.07000 478.067
20.08000 476.993
20.09000 474.020
20.10000 467.591
20.11000 461.091
20.12000 457.125
20.13000 456.247
20.14000 455.378
20.15000 454.653
20.16000 454.043
20.17000 453.505
20.18000 456.025
20.19000 460.167
20.20000 464.164
20.21000 465.646
20.22000 466.216
20.23000 466.741
20.24000 462.936
20.25000 458.584
20.26000 454.969
20.27000 455.603
20.28000 456.916
20.29000 457.820
20.30000 457.175
20.31000 456.379
20.32000 455.798
20.33000 465.117
20.34000 472.687
20.35000 475.786
20.36000 471.038
20.37000 466.145
20.38000 463.329
20.39000 462.948
20.40000 462.571
20.41000 463.793
20.42000 466.215
20.43000 468.541
20.44000 467.153
20.45000 463.862
20.46000 461.045
20.47000 465.874
20.48000 473.377
20.49000 480.255
20.50000 475.287
20.51000 468.371
20.52000 463.313
20.53000 468.536
20.54000 475.335
20.55000 479.534
20.56000 474.221
20.57000 468.032
20.58000 463.561
20.59000 465.555
20.60000 467.318
20.61000 466.358
20.62000 460.785
20.63000 455.137
20.64000 455.998
20.65000 464.191
20.66000 472.364
20.67000 474.410
20.68000 471.987
20.69000 469.584
20.70000 467.897
20.71000 466.564
20.72000 465.054
20.73000 460.857
20.74000 455.753
20.75000 451.095
20.76000 445.050
20.77000 439.409
20.78000 435.005
20.79000 437.178
20.80000 440.319
20.81000 444.448
20.82000 452.063
20.83000 459.983
20.84000 465.643
20.85000 464.901
20.86000 464.121
20.87000 462.115
20.88000 458.106
20.89000 454.068
20.90000 452.483
20.91000 453.553
20.92000 454.620
20.93000 457.603
20.94000 461.895
20.95000 466.260
20.96000 472.928
20.97000 480.697
20.98000 487.717
20.99000 484.036
21.00000 476.867
21.01000 470.356
21.02000 472.130
21.03000 475.298
21.04000 477.493
21.05000 474.714
21.06000 471.235
21.07000 467.040
21.08000 460.408
21.09000 453.576
21.10000 448.745
21.11000 450.204
21.12000 451.505
21.13000 452.585
21.14000 453.315
21.15000 454.042
21.16000 455.143
21.17000 456.633
21.18000 458.116
21.19000 458.643
21.20000 458.521
21.21000 458.291
21.22000 454.918
21.23000 450.094
21.24000 445.963
21.25000 451.144
21.26000 459.256
21.27000 466.586
21.28000 465.030
21.29000 462.016
21.30000 459.587
21.31000 460.039
21.32000 460.879
21.33000 462.510
21.34000 466.741
21.35000 471.174
21.36000 474.273
21.37000 469.588
21.38000 465.829
21.39000 465.019
21.40000 468.691
21.41000 472.409
21.42000 470.231
21.43000 462.167
21.44000 454.154
21.45000 450.709
21.46000 450.268
21.47000 449.955
21.48000 453.068
21.49000 457.707
21.50000 461.716
21.51000 457.705
21.52000 451.259
21.53000 445.464
21.54000 455.578
21.55000 467.260
21.56000 475.725
21.57000 468.967
21.58000 460.251
21.59000 454.019
21.60000 455.661
21.61000 457.885
21.62000 459.422
21.63000 467.861
21.64000 474.382
21.65000 477.291
21.66000 474.910
21.67000 472.483
21.68000 472.616
21.69000 475.204
21.70000 477.773
21.71000 475.671
21.72000 470.700
21.73000 466.159
21.74000 472.202
21.75000 482.798
21.76000 492.397
21.77000 490.005
21.78000 484.101
21.79000 478.820
21.80000 482.140
21.81000 486.498
21.82000 490.045
21.83000 489.902
21.84000 489.306
21.85000 487.645
21.86000 482.725
21.87000 477.578
21.88000 474.064
21.89000 483.622
21.90000 491.076
21.91000 495.246
21.92000 494.780
21.93000 494.280
21.94000 492.424
21.95000 489.322
21.96000 486.246
21.97000 489.066
21.98000 495.359
21.99000 501.255
22.00000 498.112
22.01000 491.215
22.02000 484.648
22.03000 481.836
22.04000 480.085
22.05000 478.527
22.06000 478.586
22.07000 478.899
22.08000 479.735
22.09000 482.864
22.10000 486.261
22.11000 490.128
22.12000 495.383
22.13000 500.729
22.14000 504.335
22.15000 511.939
22.16000 517.681
22.17000 517.399
22.18000 508.923
22.19000 500.401
22.20000 494.254
22.21000 490.206
22.22000 486.200
22.23000 488.531
22.24000 494.461
22.25000 499.788
22.26000 492.403
22.27000 479.918
22.28000 468.779
22.29000 472.192
22.30000 479.571
22.31000 486.099
22.32000 481.769
22.33000 476.336
22.34000 470.939
22.35000 465.693
22.36000 460.464
22.37000 456.809
22.38000 457.641
22.39000 458.749
22.40000 459.487
22.41000 459.643
22.42000 459.748
22.43000 460.664
22.44000 462.645
22.45000 464.628
22.46000 465.153
22.47000 464.439
22.48000 463.733
22.49000 465.102
22.50000 467.587
22.51000 469.631
22.52000 462.997
22.53000 453.003
22.54000 443.971
22.55000 444.826
22.56000 448.279
22.57000 451.317
22.58000 450.806
22.59000 449.837
22.60000 449.013
22.61000 448.779
22.62000 448.608
22.63000 448.516
22.64000 448.645
22.65000 448.786
22.66000 448.879
22.67000 449.998
22.68000 450.839
22.69000 447.372
22.70000 438.471
22.71000 429.576
22.72000 429.863
22.73000 437.666
22.74000 445.364
22.75000 451.079
22.76000 455.578
22.77000 459.597
22.78000 454.810
22.79000 446.729
22.80000 439.307
22.81000 438.330
22.82000 438.986
22.83000 439.560
22.84000 442.264
22.85000 444.884
22.86000 447.582
22.87000 450.591
22.88000 453.632
22.89000 453.779
22.90000 446.236
22.91000 438.279
22.92000 433.112
22.93000 426.940
22.94000 422.403
22.95000 420.343
22.96000 421.290
22.97000 422.251
22.98000 425.612
22.99000 430.865
23.00000 436.037
23.01000 440.370
23.02000 444.141
23.03000 447.556
23.04000 444.889
23.05000 440.025
23.06000 435.767
23.07000 437.134
23.08000 439.875
23.09000 442.257
23.10000 438.706
23.11000 434.871
23.12000 432.639
23.13000 436.471
23.14000 440.889
23.15000 443.809
23.16000 442.881
23.17000 441.760
23.18000 441.042
23.19000 438.103
23.20000 435.933
23.21000 435.263
23.22000 436.345
23.23000 437.411
23.24000 434.503
23.25000 428.580
23.26000 422.758
23.27000 426.310
23.28000 434.373
23.29000 441.893
23.30000 440.692
23.31000 436.450
23.32000 432.353
23.33000 429.533
23.34000 427.015
23.35000 424.839
23.36000 435.409
23.37000 446.040
23.38000 452.355
23.39000 442.932
23.40000 432.067
23.41000 426.390
23.42000 433.569
23.43000 441.351
23.44000 446.267
23.45000 443.372
23.46000 441.183
23.47000 440.464
23.48000 441.394
23.49000 442.312
23.50000 440.997
23.51000 438.051
23.52000 435.161
23.53000 444.030
23.54000 458.166
23.55000 471.145
23.56000 466.637
23.57000 456.242
23.58000 446.979
23.59000 447.295
23.60000 449.782
23.61000 451.917
23.62000 448.127
23.63000 444.188
23.64000 441.694
23.65000 444.281
23.66000 447.308
23.67000 447.815
23.68000 442.290
23.69000 436.503
23.70000 432.898
23.71000 450.013
23.72000 462.556
23.73000 469.281
23.74000 469.729
23.75000 470.146
23.76000 466.574
23.77000 460.194
23.78000 453.949
23.79000 460.818
23.80000 473.416
23.81000 485.369
23.82000 488.149
23.83000 487.948
23.84000 487.918
23.85000 489.266
23.86000 490.915
23.87000 492.322
23.88000 490.270
23.89000 488.136
23.90000 487.757
23.91000 493.339
23.92000 499.410
23.93000 504.493
23.94000 507.292
23.95000 509.999
23.96000 511.660
23.97000 508.353
23.98000 505.940
23.99000 503.242
24.00000 500.248
24.01000 497.289
24.02000 498.084
24.03000 501.428
24.04000 504.695
24.05000 505.332
24.06000 504.785
24.07000 504.274
24.08000 504.245
24.09000 504.368
24.10000 503.232
24.11000 492.392
24.12000 479.514
24.13000 468.599
24.14000 474.401
24.15000 481.141
24.16000 484.196
24.17000 475.182
24.18000 465.228
24.19000 456.214
24.20000 449.297
24.21000 442.457
24.22000 438.320
24.23000 439.697
24.24000 440.718
24.25000 443.602
24.26000 448.338
24.27000 452.997
24.28000 450.528
24.29000 443.396
24.30000 436.446
24.31000 432.534
24.32000 430.089
24.33000 428.119
24.34000 432.165
24.35000 438.033
24.36000 443.460
24.37000 445.648
24.38000 447.180
24.39000 448.470
24.40000 442.321
24.41000 436.396
24.42000 432.067
24.43000 432.781
24.44000 433.864
24.45000 435.367
24.46000 437.770
24.47000 440.205
24.48000 441.654
24.49000 434.021
24.50000 428.558
24.51000 423.981
24.52000 420.251
24.53000 416.596
24.54000 418.810
24.55000 424.727
24.56000 430.479
24.57000 431.922
24.58000 431.537
24.59000 430.887
24.60000 427.076
24.61000 422.342
24.62000 417.490
24.63000 411.812
24.64000 405.974
24.65000 401.093
24.66000 393.804
24.67000 387.507
24.68000 384.953
24.69000 393.819
24.70000 403.476
24.71000 409.901
24.72000 409.601
24.73000 409.093
24.74000 408.794
24.75000 410.762
24.76000 412.158
24.77000 411.562
24.78000 409.138
24.79000 406.723
24.80000 404.946
24.81000 403.557
24.82000 402.211
24.83000 400.539
24.84000 398.828
24.85000 397.714
24.86000 403.371
24.87000 410.937
24.88000 417.019
24.89000 413.074
24.90000 407.257
24.91000 402.428
24.92000 397.225
24.93000 392.887
24.94000 390.472
24.95000 393.713
24.96000 397.323
24.97000 401.467
24.98000 406.686
24.99000 411.935
25.00000 414.963
25.01000 416.023
25.02000 416.754
25.03000 413.781
25.04000 407.541
25.05000 401.431
25.06000 403.103
25.07000 409.344
25.08000 415.380
25.09000 418.348
25.10000 419.992
25.11000 420.826
25.12000 412.946
25.13000 402.699
25.14000 393.600
25.15000 391.947
25.16000 391.631
25.17000 391.370
25.18000 398.087
25.19000 404.255
25.20000 406.816
25.21000 399.128
25.22000 390.812
25.23000 388.591
25.24000 398.193
25.25000 408.096
25.26000 413.715
25.27000 400.849
25.28000 391.849
25.29000 391.015
25.30000 397.106
25.31000 403.128
25.32000 405.548
25.33000 405.927
25.34000 406.293
25.35000 405.350
25.36000 403.988
25.37000 402.632
25.38000 401.342
25.39000 400.070
25.40000 399.545
25.41000 403.653
25.42000 408.561
25.43000 412.575
25.44000 404.638
25.45000 397.098
25.46000 392.233
25.47000 394.707
25.48000 397.602
25.49000 401.089
25.50000 405.684
25.51000 410.304
25.52000 412.882
25.53000 396.182
25.54000 384.612
25.55000 384.348
25.56000 393.308
25.57000 402.036
25.58000 399.905
25.59000 391.838
25.60000 384.081
25.61000 387.101
25.62000 393.698
25.63000 399.179
25.64000 393.794
25.65000 385.665
25.66000 378.733
25.67000 378.934
25.68000 380.316
25.69000 381.437
25.70000 386.250
25.71000 390.477
25.72000 393.481
25.73000 393.240
25.74000 392.826
25.75000 391.288
25.76000 387.722
25.77000 384.113
25.78000 382.135
25.79000 381.629
25.80000 381.286
25.81000 381.557
25.82000 382.310
25.83000 382.955
25.84000 379.015
25.85000 372.656
25.86000 366.560
25.87000 371.043
25.88000 378.785
25.89000 386.455
25.90000 393.456
25.91000 400.295
25.92000 404.830
25.93000 396.182
25.94000 385.442
25.95000 376.794
25.96000 383.765
25.97000 390.640
25.98000 394.958
25.99000 392.732
26.00000 390.179
26.01000 389.930
26.02000 393.701
26.03000 397.545
26.04000 399.614
26.05000 399.409
26.06000 399.272
26.07000 400.297
26.08000 402.200
26.09000 403.998
26.10000 401.787
26.11000 397.534
26.12000 393.470
26.13000 397.225
26.14000 403.245
26.15000 407.828
26.16000 399.723
26.17000 388.641
26.18000 379.875
26.19000 383.834
26.20000 389.731
26.21000 394.440
26.22000 391.398
26.23000 388.370
26.24000 385.636
26.25000 383.626
26.26000 381.650
26.27000 381.460
26.28000 384.279
26.29000 387.145
26.30000 388.660
26.31000 379.514
26.32000 373.349
26.33000 375.563
26.34000 383.880
26.35000 391.870
26.36000 388.624
26.37000 379.852
26.38000 371.496
26.39000 370.441
26.40000 371.736
26.41000 373.366
26.42000 377.823
26.43000 382.919
26.44000 387.132
26.45000 386.680
26.46000 385.547
26.47000 384.649
26.48000 385.073
26.49000 385.506
26.50000 383.183
26.51000 374.284
26.52000 365.102
26.53000 362.201
26.54000 369.499
26.55000 376.940
26.56000 380.796
26.57000 379.101
26.58000 377.975
26.59000 379.257
26.60000 382.228
26.61000 385.062
26.62000 383.622
26.63000 380.152
26.64000 376.859
26.65000 378.508
26.66000 381.508
26.67000 384.006
26.68000 382.471
26.69000 380.059
26.70000 377.587
26.71000 374.814
26.72000 371.999
26.73000 369.788
26.74000 372.490
26.75000 374.973
26.76000 379.584
26.77000 389.095
26.78000 398.803
26.79000 399.912
26.80000 387.556
26.81000 375.038
26.82000 368.678
26.83000 375.961
26.84000 380.783
26.85000 379.019
26.86000 372.799
26.87000 366.902
26.88000 370.212
26.89000 377.745
26.90000 384.871
26.91000 381.513
26.92000 375.411
26.93000 370.330
26.94000 373.086
26.95000 377.483
26.96000 380.317
26.97000 375.523
26.98000 369.708
26.99000 365.181
27.00000 372.134
27.01000 378.378
27.02000 383.218
27.03000 384.932
27.04000 386.531
27.05000 386.779
27.06000 384.988
27.07000 383.176
27.08000 378.445
27.09000 370.820
27.10000 363.302
27.11000 365.667
27.12000 374.475
27.13000 382.934
27.14000 382.166
27.15000 377.314
27.16000 372.741
27.17000 371.073
27.18000 370.349
27.19000 370.252
27.20000 374.760
27.21000 380.196
27.22000 384.003
27.23000 380.155
27.24000 375.330
27.25000 371.606
27.26000 377.251
27.27000 382.268
27.28000 386.184
27.29000 387.735
27.30000 389.207
27.31000 389.527
27.32000 388.171
27.33000 386.802
27.34000 386.491
27.35000 387.187
27.36000 387.818
27.37000 383.245
27.38000 375.402
27.39000 367.851
27.40000 367.404
27.41000 369.996
27.42000 372.429
27.43000 367.849
27.44000 361.809
27.45000 356.542
27.46000 356.713
27.47000 357.937
27.48000 360.159
27.49000 366.893
27.50000 374.178
27.51000 379.749
27.52000 377.135
27.53000 374.628
27.54000 371.413
27.55000 366.730
27.56000 362.002
27.57000 362.083
27.58000 368.914
27.59000 375.789
27.60000 379.691
27.61000 380.875
27.62000 382.006
27.63000 379.510
27.64000 374.813
27.65000 370.188
27.66000 367.163
27.67000 364.799
27.68000 362.587
27.69000 362.796
27.70000 363.603
27.71000 364.005
27.72000 361.685
27.73000 358.857
27.74000 357.055
27.75000 359.721
27.76000 362.907
27.77000 365.322
27.78000 359.898
27.79000 355.241
27.80000 354.012
27.81000 359.652
27.82000 365.485
27.83000 367.365
27.84000 363.902
27.85000 360.412
27.86000 358.706
27.87000 358.566
27.88000 358.483
27.89000 361.714
27.90000 366.884
27.91000 371.923
27.92000 374.212
27.93000 375.405
27.94000 376.516
27.95000 369.146
27.96000 360.399
27.97000 353.455
27.98000 358.136
27.99000 364.899
28.00000 369.237
28.01000 363.400
28.02000 356.432
28.03000 351.204
28.04000 347.527
28.05000 344.728
28.06000 346.138
28.07000 355.690
28.08000 365.449
28.09000 370.602
28.10000 369.760
28.11000 368.893
28.12000 365.558
28.13000 360.149
28.14000 354.856
28.15000 355.609
28.16000 359.775
28.17000 363.706
28.18000 363.053
28.19000 360.634
28.20000 358.391
28.21000 354.943
28.22000 351.554
28.23000 349.978
28.24000 359.628
28.25000 371.206
28.26000 378.475
28.27000 368.319
28.28000 356.319
28.29000 347.402
28.30000 355.358
28.31000 362.292
28.32000 367.306
28.33000 368.734
28.34000 370.081
28.35000 369.601
28.36000 366.830
28.37000 364.057
28.38000 363.632
28.39000 365.113
28.40000 366.570
28.41000 366.964
28.42000 366.778
28.43000 366.556
28.44000 365.671
28.45000 364.539
28.46000 363.493
28.47000 361.577
28.48000 359.661
28.49000 358.215
28.50000 359.565
28.51000 361.375
28.52000 362.944
28.53000 363.567
28.54000 364.095
28.55000 364.484
28.56000 365.631
28.57000 366.550
28.58000 365.984
28.59000 362.744
28.60000 359.449
28.61000 358.472
28.62000 360.289
28.63000 362.109
28.64000 363.273
28.65000 363.919
28.66000 364.399
28.67000 357.988
28.68000 347.950
28.69000 338.423
28.70000 337.558
28.71000 339.803
28.72000 341.869
28.73000 345.633
28.74000 349.364
28.75000 352.943
28.76000 355.653
28.77000 358.226
28.78000 359.600
28.79000 356.469
28.80000 352.905
28.81000 350.311
28.82000 357.747
28.83000 363.856
28.84000 366.966
28.85000 364.861
28.86000 362.661
28.87000 364.818
28.88000 372.029
28.89000 379.227
28.90000 375.299
28.91000 363.068
28.92000 351.024
28.93000 345.969
28.94000 344.464
28.95000 343.203
28.96000 345.812
28.97000 349.763
28.98000 353.380
28.99000 361.834
29.00000 370.362
29.01000 376.438
29.02000 369.086
29.03000 359.698
29.04000 353.190
29.05000 357.125
29.06000 362.008
29.07000 365.526
29.08000 358.975
29.09000 353.599
29.10000 352.555
29.11000 358.783
29.12000 365.125
29.13000 364.349
29.14000 355.636
29.15000 346.948
29.16000 342.564
29.17000 341.316
29.18000 340.175
29.19000 342.659
29.20000 346.922
29.21000 350.661
29.22000 346.558
29.23000 339.830
29.24000 333.699
29.25000 337.753
29.26000 343.376
29.27000 348.608
29.28000 351.781
29.29000 354.654
29.30000 355.455
29.31000 349.006
29.32000 341.934
29.33000 336.893
29.34000 348.377
29.35000 357.670
29.36000 364.327
29.37000 366.715
29.38000 369.045
29.39000 371.417
29.40000 373.833
29.41000 376.238
29.42000 371.681
29.43000 362.353
29.44000 353.316
29.45000 353.326
29.46000 357.619
29.47000 361.767
29.48000 363.867
29.49000 365.307
29.50000 366.612
29.51000 359.750
29.52000 352.134
29.53000 346.968
29.54000 354.201
29.55000 363.159
29.56000 369.029
29.57000 364.482
29.58000 359.086
29.59000 355.283
29.60000 350.257
29.61000 346.408
29.62000 344.790
29.63000 346.656
29.64000 348.562
29.65000 350.518
29.66000 352.524
29.67000 354.518
29.68000 361.874
29.69000 372.704
29.70000 383.055
29.71000 379.769
29.72000 370.249
29.73000 360.948
29.74000 354.556
29.75000 349.072
29.76000 344.123
29.77000 350.813
29.78000 358.824
29.79000 365.761
29.80000 367.463
29.81000 368.468
29.82000 368.727
29.83000 366.557
29.84000 364.200
29.85000 362.557
29.86000 362.573
29.87000 362.631
29.88000 364.990
29.89000 370.814
29.90000 376.673
29.91000 378.149
29.92000 375.296
29.93000 372.462
29.94000 369.809
29.95000 367.313
29.96000 365.046
29.97000 368.758
29.98000 375.110
29.99000 380.808
30.00000 378.296
30.01000 373.314
30.02000 368.842
30.03000 376.635
30.04000 385.607
30.05000 391.603
30.06000 383.661
30.07000 373.945
30.08000 367.463
30.09000 371.140
30.10000 375.555
30.11000 378.597
30.12000 375.780
30.13000 373.517
30.14000 373.385
30.15000 376.343
30.16000 379.326
30.17000 374.832
30.18000 363.244
30.19000 351.748
30.20000 354.621
30.21000 366.297
30.22000 377.634
30.23000 380.832
30.24000 380.558
30.25000 380.264
30.26000 379.725
30.27000 379.115
30.28000 378.570
30.29000 373.576
30.30000 368.479
30.31000 363.714
30.32000 360.448
30.33000 357.364
30.34000 356.075
30.35000 360.229
30.36000 364.756
30.37000 367.838
30.38000 363.407
30.39000 359.926
30.40000 359.363
30.41000 362.883
30.42000 366.432
30.43000 370.842
30.44000 376.039
30.45000 381.188
30.46000 379.565
30.47000 373.961
30.48000 368.547
30.49000 367.359
30.50000 367.911
30.51000 368.495
30.52000 369.439
30.53000 370.483
30.54000 371.411
30.55000 370.563
30.56000 369.541
30.57000 367.640
30.58000 361.917
30.59000 355.751
30.60000 352.937
30.61000 359.934
30.62000 367.564
30.63000 372.694
30.64000 360.327
30.65000 350.776
30.66000 351.464
30.67000 365.950
30.68000 380.500
30.69000 384.779
30.70000 380.061
30.71000 375.393
30.72000 379.965
30.73000 389.703
30.74000 398.914
30.75000 397.189
30.76000 391.115
30.77000 385.213
30.78000 381.130
30.79000 377.539
30.80000 374.366
30.81000 379.903
30.82000 386.025
30.83000 389.605
30.84000 382.551
30.85000 374.321
30.86000 371.456
30.87000 383.754
30.88000 396.970
30.89000 405.746
30.90000 417.061
30.91000 425.473
30.92000 428.108
30.93000 423.249
30.94000 418.374
30.95000 421.485
30.96000 431.325
30.97000 441.045
30.98000 445.463
30.99000 446.859
31.00000 448.576
31.01000 456.489
31.02000 466.779
31.03000 476.802
31.04000 484.109
31.05000 490.709
31.06000 496.505
31.07000 501.435
31.08000 505.546
31.09000 515.385
31.10000 548.324
31.11000 583.696
31.12000 611.936
31.13000 620.717
31.14000 628.394
31.15000 633.427
31.16000 665.085
31.17000 688.806
31.18000 706.518
31.19000 716.721
31.20000 726.921
31.21000 744.069
31.22000 766.848
31.23000 789.311
31.24000 807.274
31.25000 822.353
31.26000 837.970
31.27000 863.263
31.28000 892.143
31.29000 920.249
31.30000 940.874
31.31000 959.622
31.32000 975.993
31.33000 996.205
31.34000 1014.044
31.35000 1026.394
31.36000 1017.411
31.37000 1006.291
31.38000 1000.654
31.39000 1009.462
31.40000 1019.037
31.41000 1025.232
31.42000 1030.046
31.43000 1033.547
31.44000 1025.163
31.45000 1002.491
31.46000 979.802
31.47000 960.345
31.48000 943.410
31.49000 926.740
31.50000 898.274
31.51000 864.698
31.52000 831.677
31.53000 808.011
31.54000 787.695
31.55000 767.032
31.56000 743.180
31.57000 718.557
31.58000 697.183
31.59000 679.411
31.60000 664.752
31.61000 649.656
31.62000 632.922
31.63000 616.032
31.64000 599.533
31.65000 584.025
31.66000 568.566
31.67000 558.698
31.68000 532.040
31.69000 512.428
31.70000 498.992
31.71000 492.696
31.72000 486.396
31.73000 477.416
31.74000 466.424
31.75000 455.623
31.76000 447.803
31.77000 441.707
31.78000 435.894
31.79000 434.570
31.80000 434.798
31.81000 434.554
31.82000 430.173
31.83000 424.828
31.84000 420.217
31.85000 409.124
31.86000 398.882
31.87000 390.645
31.88000 389.651
31.89000 389.312
31.90000 388.953
31.91000 388.547
31.92000 388.139
31.93000 387.882
31.94000 372.055
31.95000 360.427
31.96000 357.438
31.97000 364.052
31.98000 370.636
31.99000 371.281
32.00000 367.629
32.01000 364.049
32.02000 358.915
32.03000 353.242
32.04000 348.126
32.05000 351.316
32.06000 357.278
32.07000 362.409
32.08000 360.601
32.09000 357.235
32.10000 354.349
32.11000 348.985
32.12000 344.153
32.13000 340.483
32.14000 340.867
32.15000 341.598
32.16000 341.783
32.17000 340.669
32.18000 339.501
32.19000 338.775
32.20000 344.619
32.21000 348.888
32.22000 344.584
32.23000 331.124
32.24000 317.776
32.25000 319.198
32.26000 330.921
32.27000 342.391
32.28000 345.163
32.29000 343.882
32.30000 342.570
32.31000 340.814
32.32000 338.915
32.33000 337.487
32.34000 339.815
32.35000 342.955
32.36000 345.630
32.37000 344.976
32.38000 344.038
32.39000 342.841
32.40000 340.774
32.41000 338.636
32.42000 338.073
32.43000 341.121
32.44000 344.311
32.45000 346.262
32.46000 333.191
32.47000 323.713
32.48000 323.026
32.49000 331.358
32.50000 339.619
32.51000 340.263
32.52000 335.786
32.53000 331.416
32.54000 332.132
32.55000 335.036
32.56000 337.243
32.57000 330.246
32.58000 320.389
32.59000 312.315
32.60000 317.835
32.61000 326.183
32.62000 333.246
32.63000 332.874
32.64000 331.737
32.65000 329.412
32.66000 323.228
32.67000 316.749
32.68000 313.575
32.69000 317.715
32.70000 322.120
32.71000 324.774
32.72000 314.863
32.73000 307.722
32.74000 309.535
32.75000 320.164
32.76000 330.737
32.77000 336.230
32.78000 338.432
32.79000 340.577
32.80000 352.731
32.81000 368.518
32.82000 384.048
32.83000 396.369
32.84000 407.728
32.85000 419.262
32.86000 432.067
32.87000 445.126
32.88000 456.100
32.89000 464.313
32.90000 470.864
32.91000 478.339
32.92000 488.703
32.93000 499.276
32.94000 510.705
32.95000 523.961
32.96000 537.278
32.97000 545.178
32.98000 543.882
32.99000 542.912
33.00000 541.071
33.01000 538.406
33.02000 535.762
33.03000 534.708
33.04000 534.648
33.05000 534.590
33.06000 517.472
33.07000 494.321
33.08000 471.425
33.09000 451.544
33.10000 432.536
33.11000 413.479
33.12000 394.081
33.13000 374.618
33.14000 358.377
33.15000 352.668
33.16000 348.991
33.17000 342.900
33.18000 329.513
33.19000 315.628
33.20000 305.116
33.21000 301.562
33.22000 298.219
33.23000 296.267
33.24000 299.060
33.25000 301.046
33.26000 300.823
33.27000 298.593
33.28000 296.417
33.29000 297.754
33.30000 301.210
33.31000 304.558
33.32000 303.214
33.33000 300.118
33.34000 297.021
33.35000 293.917
33.36000 290.812
33.37000 287.917
33.38000 286.430
33.39000 285.203
33.40000 284.187
33.41000 291.268
33.42000 297.888
33.43000 301.903
33.44000 298.315
33.45000 294.239
33.46000 294.528
33.47000 303.513
33.48000 312.737
33.49000 318.036
33.50000 301.471
33.51000 289.812
33.52000 282.101
33.53000 277.839
33.54000 273.710
33.55000 277.250
33.56000 285.254
33.57000 292.988
33.58000 292.811
33.59000 289.685
33.60000 287.235
33.61000 291.971
33.62000 298.641
33.63000 304.640
33.64000 306.340
33.65000 307.275
33.66000 308.045
33.67000 306.626
33.68000 305.263
33.69000 303.512
33.70000 300.670
33.71000 297.763
33.72000 294.192
33.73000 289.344
33.74000 284.465
33.75000 281.708
33.76000 283.818
33.77000 285.296
33.78000 285.607
33.79000 284.940
33.80000 284.336
33.81000 286.983
33.82000 291.456
33.83000 295.767
33.84000 298.297
33.85000 300.034
33.86000 301.693
33.87000 302.565
33.88000 303.233
33.89000 303.220
33.90000 299.017
33.91000 294.100
33.92000 290.086
33.93000 294.605
33.94000 299.035
33.95000 303.560
33.96000 308.345
33.97000 313.145
33.98000 314.979
33.99000 311.307
34.00000 307.513
34.01000 305.406
34.02000 296.540
34.03000 290.420
34.04000 291.502
34.05000 298.403
34.06000 305.199
34.07000 307.174
34.08000 306.536
34.09000 305.924
34.10000 305.916
34.11000 306.117
34.12000 307.197
34.13000 316.732
34.14000 328.382
34.15000 337.623
34.16000 332.650
34.17000 325.350
34.18000 319.437
34.19000 317.126
34.20000 315.537
34.21000 313.516
34.22000 310.362
34.23000 307.148
34.24000 307.722
34.25000 315.080
34.26000 322.574
34.27000 326.662
34.28000 324.855
34.29000 323.601
34.30000 321.272
34.31000 318.107
34.32000 315.019
34.33000 315.091
34.34000 316.817
34.35000 318.470
34.36000 319.272
34.37000 319.737
34.38000 320.321
34.39000 321.996
34.40000 323.935
34.41000 324.611
34.42000 318.145
34.43000 310.557
34.44000 304.459
34.45000 303.337
34.46000 302.809
34.47000 304.279
34.48000 310.814
34.49000 317.598
34.50000 321.119
34.51000 318.999
34.52000 316.780
34.53000 315.591
34.54000 319.256
34.55000 321.745
34.56000 320.921
34.57000 317.614
34.58000 314.294
34.59000 310.508
34.60000 306.485
34.61000 302.644
34.62000 300.429
34.63000 298.891
34.64000 297.353
34.65000 295.820
34.66000 294.287
34.67000 293.586
34.68000 297.413
34.69000 301.922
34.70000 305.515
34.71000 295.362
34.72000 286.172
34.73000 278.595
34.74000 274.968
34.75000 271.522
34.76000 272.032
34.77000 279.141
34.78000 286.352
34.79000 290.143
34.80000 287.248
34.81000 285.285
34.82000 283.942
34.83000 283.044
34.84000 282.120
34.85000 280.312
34.86000 278.073
34.87000 275.942
34.88000 275.995
34.89000 276.716
34.90000 277.612
34.91000 279.962
34.92000 282.637
34.93000 283.832
34.94000 277.286
34.95000 269.622
34.96000 263.565
34.97000 266.544
34.98000 269.555
34.99000 273.222
35.00000 278.440
35.01000 283.725
35.02000 283.003
35.03000 272.618
35.04000 262.104
35.05000 256.681
35.06000 259.137
35.07000 260.804
35.08000 263.970
35.09000 268.179
35.10000 272.376
35.11000 276.226
35.12000 279.913
35.13000 283.410
35.14000 278.256
35.15000 270.943
35.16000 264.481
35.17000 264.781
35.18000 266.537
35.19000 267.904
35.20000 267.312
35.21000 266.449
35.22000 265.773
35.23000 260.377
35.24000 255.759
35.25000 253.949
35.26000 258.550
35.27000 263.402
35.28000 263.850
35.29000 257.463
35.30000 250.997
35.31000 247.728
35.32000 252.506
35.33000 255.689
35.34000 257.382
35.35000 258.077
35.36000 258.649
35.37000 255.820
35.38000 251.444
35.39000 247.308
35.40000 248.674
35.41000 251.495
35.42000 253.967
35.43000 253.792
35.44000 253.067
35.45000 253.220
35.46000 257.615
35.47000 262.571
35.48000 266.422
35.49000 268.052
35.50000 269.213
35.51000 269.257
35.52000 266.837
35.53000 264.328
35.54000 263.849
35.55000 266.408
35.56000 268.996
35.57000 268.095
35.58000 263.769
35.59000 259.514
35.60000 261.600
35.61000 267.782
35.62000 273.754
35.63000 274.314
35.64000 272.497
35.65000 270.786
35.66000 269.370
35.67000 268.155
35.68000 266.554
35.69000 262.142
35.70000 257.170
35.71000 253.561
35.72000 256.299
35.73000 259.840
35.74000 262.565
35.75000 261.320
35.76000 260.107
35.77000 258.684
35.78000 256.813
35.79000 254.926
35.80000 254.824
35.81000 257.296
35.82000 259.788
35.83000 258.233
35.84000 252.865
35.85000 247.563
35.86000 247.166
35.87000 249.825
35.88000 252.529
35.89000 256.293
35.90000 260.504
35.91000 264.456
35.92000 261.472
35.93000 256.931
35.94000 253.129
35.95000 254.470
35.96000 256.799
35.97000 258.444
35.98000 257.023
35.99000 255.233
36.00000 253.867
36.01000 252.287
36.02000 251.032
36.03000 251.305
36.04000 254.725
36.05000 258.239
36.06000 261.377
36.07000 263.993
36.08000 266.604
36.09000 265.317
36.10000 260.505
36.11000 255.724
36.12000 252.893
36.13000 251.234
36.14000 249.686
36.15000 250.561
36.16000 252.427
36.17000 254.172
36.18000 252.639
36.19000 250.420
36.20000 249.234
36.21000 254.934
36.22000 261.904
36.23000 266.975
36.24000 263.846
36.25000 259.774
36.26000 256.697
36.27000 254.069
36.28000 252.032
36.29000 251.528
36.30000 254.067
36.31000 256.691
36.32000 258.114
36.33000 257.931
36.34000 257.740
36.35000 259.109
36.36000 261.831
36.37000 264.479
36.38000 262.861
36.39000 258.770
36.40000 254.801
36.41000 253.353
36.42000 252.901
36.43000 252.480
36.44000 251.036
36.45000 249.482
36.46000 248.193
36.47000 248.595
36.48000 249.295
36.49000 250.079
36.50000 251.205
36.51000 252.370
36.52000 253.241
36.53000 255.166
36.54000 256.717
36.55000 259.794
36.56000 265.798
36.57000 271.875
36.58000 272.299
36.59000 265.436
36.60000 258.551
36.61000 256.326
36.62000 257.996
36.63000 259.651
36.64000 260.525
36.65000 260.963
36.66000 261.162
36.67000 256.784
36.68000 250.660
36.69000 244.985
36.70000 246.768
36.71000 250.112
36.72000 253.014
36.73000 253.215
36.74000 252.957
36.75000 253.179
36.76000 255.325
36.77000 257.672
36.78000 259.412
36.79000 254.816
36.80000 250.971
36.81000 251.864
36.82000 261.528
36.83000 271.385
36.84000 274.151
36.85000 268.114
36.86000 262.061
36.87000 257.014
36.88000 252.794
36.89000 248.705
36.90000 250.541
36.91000 255.577
36.92000 260.360
36.93000 260.610
36.94000 259.190
36.95000 257.880
36.96000 256.926
36.97000 256.152
36.98000 256.102
36.99000 260.314
37.00000 265.221
37.01000 267.889
37.02000 261.905
37.03000 255.062
37.04000 250.041
37.05000 256.105
37.06000 261.240
37.07000 262.825
37.08000 258.069
37.09000 253.188
37.10000 253.874
37.11000 261.211
37.12000 268.545
37.13000 270.963
37.14000 269.578
37.15000 268.183
37.16000 266.414
37.17000 264.449
37.18000 262.432
37.19000 259.545
37.20000 256.348
37.21000 253.410
37.22000 255.418
37.23000 258.271
37.24000 260.349
37.25000 258.055
37.26000 255.076
37.27000 252.086
37.28000 249.055
37.29000 246.020
37.30000 243.816
37.31000 246.590
37.32000 248.910
37.33000 249.997
37.34000 248.960
37.35000 247.886
37.36000 248.309
37.37000 250.452
37.38000 252.590
37.39000 249.540
37.40000 242.666
37.41000 236.063
37.42000 239.361
37.43000 247.644
37.44000 255.428
37.45000 255.390
37.46000 252.665
37.47000 250.173
37.48000 257.427
37.49000 265.881
37.50000 271.626
37.51000 262.685
37.52000 251.539
37.53000 243.413
37.54000 246.132
37.55000 249.823
37.56000 252.475
37.57000 254.377
37.58000 255.807
37.59000 256.071
37.60000 254.399
37.61000 252.697
37.62000 254.390
37.63000 259.832
37.64000 265.255
37.65000 262.547
37.66000 254.068
37.67000 245.822
37.68000 245.306
37.69000 248.549
37.70000 251.706
37.71000 253.604
37.72000 255.085
37.73000 256.432
37.74000 255.775
37.75000 254.797
37.76000 254.210
37.77000 255.660
37.78000 257.403
37.79000 257.590
37.80000 252.387
37.81000 246.726
37.82000 242.702
37.83000 244.176
37.84000 245.475
37.85000 247.301
37.86000 249.974
37.87000 252.657
37.88000 253.198
37.89000 251.465
37.90000 249.740
37.91000 250.389
37.92000 252.658
37.93000 254.836
37.94000 254.271
37.95000 252.420
37.96000 250.794
37.97000 252.304
37.98000 254.817
37.99000 257.094
38.00000 257.480
38.01000 257.462
38.02000 256.483
38.03000 250.685
38.04000 244.223
38.05000 239.920
38.06000 242.833
38.07000 246.326
38.08000 248.782
38.09000 247.758
38.10000 246.881
38.11000 249.057
38.12000 255.958
38.13000 262.911
38.14000 262.805
38.15000 255.505
38.16000 248.247
38.17000 247.528
38.18000 251.129
38.19000 254.640
38.20000 255.630
38.21000 255.479
38.22000 255.207
38.23000 253.359
38.24000 251.024
38.25000 248.920
38.26000 257.341
38.27000 266.640
38.28000 274.106
38.29000 272.729
38.30000 270.188
38.31000 269.456
38.32000 274.561
38.33000 280.110
38.34000 283.966
38.35000 289.801
38.36000 294.252
38.37000 295.548
38.38000 292.139
38.39000 288.685
38.40000 294.777
38.41000 310.204
38.42000 325.525
38.43000 337.166
38.44000 346.292
38.45000 355.602
38.46000 369.619
38.47000 385.697
38.48000 401.591
38.49000 415.224
38.50000 428.182
38.51000 439.802
38.52000 448.941
38.53000 456.495
38.54000 466.667
38.55000 488.984
38.56000 512.829
38.57000 535.452
38.58000 554.275
38.59000 572.825
38.60000 585.567
38.61000 594.532
38.62000 601.162
38.63000 614.834
38.64000 638.630
38.65000 662.504
38.66000 676.145
38.67000 680.176
38.68000 684.175
38.69000 685.634
38.70000 685.518
38.71000 685.389
38.72000 684.964
38.73000 684.414
38.74000 683.631
38.75000 680.131
38.76000 675.850
38.77000 672.031
38.78000 665.313
38.79000 658.987
38.80000 650.339
38.81000 631.321
38.82000 611.057
38.83000 590.393
38.84000 568.523
38.85000 546.571
38.86000 531.674
38.87000 514.678
38.88000 501.952
38.89000 485.748
38.90000 464.725
38.91000 443.673
38.92000 425.616
38.93000 410.261
38.94000 395.053
38.95000 380.871
38.96000 367.584
38.97000 354.146
38.98000 337.413
38.99000 319.334
39.00000 302.132
39.01000 294.658
39.02000 289.883
39.03000 285.648
39.04000 282.197
39.05000 279.333
39.06000 276.143
39.07000 271.553
39.08000 266.802
39.09000 262.962
39.10000 261.763
39.11000 260.731
39.12000 260.040
39.13000 253.765
39.14000 248.996
39.15000 246.512
39.16000 247.079
39.17000 247.658
39.18000 244.890
39.19000 239.220
39.20000 233.612
39.21000 234.111
39.22000 238.049
39.23000 241.888
39.24000 243.703
39.25000 244.722
39.26000 245.266
39.27000 240.821
39.28000 235.041
39.29000 229.942
39.30000 232.776
39.31000 236.429
39.32000 239.003
39.33000 237.104
39.34000 234.717
39.35000 233.001
39.36000 233.164
39.37000 233.439
39.38000 233.621
39.39000 241.772
39.40000 247.934
39.41000 249.608
39.42000 245.515
39.43000 241.409
39.44000 241.959
39.45000 246.395
39.46000 250.775
39.47000 247.317
39.48000 239.690
39.49000 232.355
39.50000 230.565
39.51000 230.887
39.52000 231.284
39.53000 232.436
39.54000 233.784
39.55000 234.967
39.56000 233.964
39.57000 232.785
39.58000 232.466
39.59000 235.577
39.60000 239.046
39.61000 241.684
39.62000 242.073
39.63000 242.337
39.64000 242.509
39.65000 233.727
39.66000 227.133
39.67000 224.627
39.68000 227.179
39.69000 229.738
39.70000 230.013
39.71000 228.456
39.72000 226.920
39.73000 224.842
39.74000 222.541
39.75000 220.532
39.76000 223.696
39.77000 228.762
39.78000 233.412
39.79000 234.090
39.80000 233.781
39.81000 233.511
39.82000 232.902
39.83000 232.334
39.84000 232.372
39.85000 234.749
39.86000 237.358
39.87000 238.387
39.88000 235.290
39.89000 231.978
39.90000 229.843
39.91000 241.719
39.92000 250.593
39.93000 252.872
39.94000 247.300
39.95000 241.713
39.96000 236.371
39.97000 231.217
39.98000 226.146
39.99000 225.697
40.00000 227.590
40.01000 229.302
40.02000 228.029
40.03000 225.697
40.04000 223.688
40.05000 224.617
40.06000 226.250
40.07000 227.666
40.08000 226.852
40.09000 225.863
40.10000 224.146
40.11000 219.726
40.12000 215.053
40.13000 213.314
40.14000 218.976
40.15000 224.997
40.16000 228.827
40.17000 218.608
40.18000 211.008
40.19000 209.215
40.20000 214.071
40.21000 218.924
40.22000 221.712
40.23000 222.963
40.24000 224.191
40.25000 224.739
40.26000 224.938
40.27000 225.254
40.28000 227.389
40.29000 230.147
40.30000 232.521
40.31000 231.574
40.32000 229.859
40.33000 228.382
40.34000 227.710
40.35000 227.242
40.36000 225.494
40.37000 219.163
40.38000 212.422
40.39000 208.438
40.40000 211.167
40.41000 214.198
40.42000 216.099
40.43000 221.178
40.44000 224.883
40.45000 223.255
40.46000 215.757
40.47000 208.304
40.48000 207.959
40.49000 212.712
40.50000 217.370
40.51000 219.747
40.52000 220.969
40.53000 221.984
40.54000 219.951
40.55000 216.910
40.56000 213.901
40.57000 211.157
40.58000 208.472
40.59000 206.174
40.60000 206.944
40.61000 207.963
40.62000 209.686
40.63000 213.837
40.64000 218.194
40.65000 220.016
40.66000 215.878
40.67000 211.491
40.68000 208.778
40.69000 210.585
40.70000 211.925
40.71000 214.172
40.72000 217.377
40.73000 220.561
40.74000 221.177
40.75000 220.018
40.76000 218.885
40.77000 219.798
40.78000 221.590
40.79000 223.166
40.80000 221.738
40.81000 219.351
40.82000 217.389
40.83000 218.774
40.84000 220.876
40.85000 222.663
40.86000 218.116
40.87000 213.568
40.88000 209.670
40.89000 207.939
40.90000 206.381
40.91000 204.659
40.92000 202.564
40.93000 200.455
40.94000 199.170
40.95000 210.654
40.96000 218.962
40.97000 223.456
40.98000 224.078
40.99000 224.669
41.00000 222.089
41.01000 217.397
41.02000 212.820
41.03000 206.386
41.04000 199.436
41.05000 193.073
41.06000 194.359
41.07000 198.002
41.08000 201.047
41.09000 199.587
41.10000 197.198
41.11000 195.180
41.12000 200.714
41.13000 206.169
41.14000 209.533
41.15000 206.174
41.16000 202.306
41.17000 200.625
41.18000 203.739
41.19000 207.022
41.20000 208.993
41.21000 212.772
41.22000 215.469
41.23000 214.658
41.24000 210.429
41.25000 206.232
41.26000 204.810
41.27000 205.171
41.28000 205.522
41.29000 207.676
41.30000 210.477
41.31000 213.265
41.32000 215.878
41.33000 218.441
41.34000 220.230
41.35000 216.451
41.36000 211.567
41.37000 207.471
41.38000 209.425
41.39000 211.683
41.40000 213.145
41.41000 212.138
41.42000 210.954
41.43000 209.478
41.44000 207.385
41.45000 205.272
41.46000 204.024
41.47000 205.578
41.48000 206.691
41.49000 207.045
41.50000 206.687
41.51000 206.316
41.52000 205.020
41.53000 203.151
41.54000 201.336
41.55000 201.815
41.56000 203.186
41.57000 204.640
41.58000 207.062
41.59000 209.763
41.60000 211.592
41.61000 207.401
41.62000 202.064
41.63000 197.619
41.64000 195.319
41.65000 193.626
41.66000 194.082
41.67000 200.975
41.68000 208.300
41.69000 212.367
41.70000 209.772
41.71000 206.979
41.72000 205.354
41.73000 207.030
41.74000 208.221
41.75000 208.453
41.76000 207.822
41.77000 207.222
41.78000 208.568
41.79000 211.078
41.80000 213.509
41.81000 213.637
41.82000 212.872
41.83000 211.914
41.84000 208.811
41.85000 205.115
41.86000 201.869
41.87000 201.599
41.88000 201.875
41.89000 202.103
41.90000 204.188
41.91000 206.083
41.92000 207.962
41.93000 209.795
41.94000 211.626
41.95000 212.481
41.96000 211.410
41.97000 210.288
41.98000 209.646
41.99000 211.691
42.00000 213.127
42.01000 213.804
42.02000 213.824
42.03000 213.809
42.04000 211.849
42.05000 208.769
42.06000 205.794
42.07000 211.130
42.08000 219.237
42.09000 226.490
42.10000 224.786
42.11000 220.694
42.12000 217.435
42.13000 219.464
42.14000 222.424
42.15000 224.854
42.16000 223.620
42.17000 222.279
42.18000 221.407
42.19000 221.843
42.20000 222.356
42.21000 221.765
42.22000 219.070
42.23000 216.325
42.24000 214.781
42.25000 222.270
42.26000 227.482
42.27000 227.964
42.28000 224.512
42.29000 221.107
42.30000 220.028
42.31000 220.245
42.32000 220.453
42.33000 217.562
42.34000 213.743
42.35000 210.560
42.36000 213.723
42.37000 218.518
42.38000 222.695
42.39000 223.113
42.40000 222.896
42.41000 222.719
42.42000 219.170
42.43000 215.984
42.44000 213.288
42.45000 211.910
42.46000 210.605
42.47000 208.686
42.48000 205.636
42.49000 202.561
42.50000 200.861
42.51000 207.222
42.52000 211.620
42.53000 214.185
42.54000 215.283
42.55000 216.434
42.56000 219.966
42.57000 224.777
42.58000 229.395
42.59000 229.949
42.60000 229.074
42.61000 227.364
42.62000 217.728
42.63000 206.126
42.64000 196.369
42.65000 197.378
42.66000 200.133
42.67000 202.360
42.68000 201.947
42.69000 201.400
42.70000 202.508
42.71000 207.927
42.72000 213.570
42.73000 214.754
42.74000 208.023
42.75000 201.139
42.76000 197.400
42.77000 199.221
42.78000 200.479
42.79000 202.592
42.80000 205.363
42.81000 208.010
42.82000 205.764
42.83000 200.981
42.84000 196.402
42.85000 195.317
42.86000 195.458
42.87000 195.478
42.88000 194.404
42.89000 193.069
42.90000 193.439
42.91000 203.370
42.92000 214.787
42.93000 223.942
42.94000 213.719
42.95000 203.973
42.96000 198.516
42.97000 203.844
42.98000 209.691
42.99000 211.621
43.00000 206.837
43.01000 201.937
43.02000 199.325
43.03000 199.356
43.04000 199.362
43.05000 196.191
43.06000 190.661
43.07000 185.333
43.08000 187.287
43.09000 192.885
43.10000 198.225
43.11000 197.571
43.12000 195.062
43.13000 193.169
43.14000 196.584
43.15000 201.220
43.16000 204.334
43.17000 199.241
43.18000 192.927
43.19000 187.904
43.20000 191.277
43.21000 194.596
43.22000 196.937
43.23000 196.902
43.24000 196.761
43.25000 196.384
43.26000 195.616
43.27000 194.843
43.28000 194.439
43.29000 195.206
43.30000 195.730
43.31000 197.049
43.32000 198.935
43.33000 200.791
43.34000 201.651
43.35000 202.030
43.36000 202.391
43.37000 201.532
43.38000 200.365
43.39000 199.628
43.40000 202.422
43.41000 205.999
43.42000 208.134
43.43000 202.807
43.44000 196.416
43.45000 191.374
43.46000 194.555
43.47000 197.662
43.48000 197.461
43.49000 189.502
43.50000 181.222
43.51000 178.444
43.52000 184.440
43.53000 190.550
43.54000 193.685
43.55000 201.105
43.56000 206.027
43.57000 202.732
43.58000 193.777
43.59000 185.028
43.60000 182.436
43.61000 182.717
43.62000 182.983
43.63000 185.641
43.64000 188.790
43.65000 191.537
43.66000 191.135
43.67000 190.060
43.68000 188.715
43.69000 186.023
43.70000 183.147
43.71000 180.898
43.72000 181.761
43.73000 182.648
43.74000 184.250
43.75000 187.471
43.76000 190.755
43.77000 192.799
43.78000 192.937
43.79000 193.055
43.80000 193.114
43.81000 202.475
43.82000 208.677
43.83000 209.774
43.84000 207.481
43.85000 205.110
43.86000 200.588
43.87000 195.098
43.88000 189.914
43.89000 189.029
43.90000 189.429
43.91000 189.482
43.92000 186.930
43.93000 183.842
43.94000 182.033
43.95000 186.346
43.96000 191.460
43.97000 195.424
43.98000 195.891
43.99000 196.053
44.00000 195.549
44.01000 193.589
44.02000 191.578
44.03000 189.964
44.04000 188.939
44.05000 187.919
44.06000 188.930
44.07000 191.914
44.08000 194.860
44.09000 194.586
44.10000 192.251
44.11000 189.996
44.12000 189.787
44.13000 190.467
44.14000 191.108
44.15000 194.767
44.16000 198.928
44.17000 202.081
44.18000 197.991
44.19000 192.470
44.20000 187.476
44.21000 184.916
44.22000 182.660
44.23000 180.926
44.24000 187.469
44.25000 193.108
44.26000 195.749
44.27000 192.062
44.28000 188.171
44.29000 186.856
44.30000 189.223
44.31000 191.619
44.32000 195.271
44.33000 200.094
44.34000 204.858
44.35000 205.364
44.36000 203.239
44.37000 201.205
44.38000 201.301
44.39000 202.291
44.40000 203.219
44.41000 202.105
44.42000 200.559
44.43000 199.261
44.44000 199.664
44.45000 200.391
44.46000 201.177
44.47000 202.227
44.48000 203.309
44.49000 204.132
44.50000 203.714
44.51000 203.319
44.52000 203.262
44.53000 203.894
44.54000 204.546
44.55000 205.308
44.56000 206.222
44.57000 207.137
44.58000 209.405
44.59000 212.882
44.60000 216.336
44.61000 218.349
44.62000 219.504
44.63000 220.503
44.64000 218.136
44.65000 214.405
44.66000 210.921
44.67000 211.480
44.68000 212.997
44.69000 214.569
44.70000 216.500
44.71000 218.497
44.72000 219.352
44.73000 215.325
44.74000 210.742
44.75000 207.287
44.76000 208.449
44.77000 209.587
44.78000 210.911
44.79000 212.601
44.80000 214.301
44.81000 213.441
44.82000 209.185
44.83000 204.916
44.84000 206.167
44.85000 212.163
44.86000 218.087
44.87000 220.026
44.88000 219.675
44.89000 219.499
44.90000 222.852
44.91000 227.587
44.92000 231.989
44.93000 227.477
44.94000 221.263
44.95000 216.152
44.96000 218.001
44.97000 221.070
44.98000 223.650
44.99000 224.211
45.00000 224.553
45.01000 224.809
45.02000 217.522
45.03000 211.496
45.04000 208.596
45.05000 211.637
45.06000 214.820
45.07000 217.989
45.08000 221.139
45.09000 224.285
45.10000 224.422
45.11000 222.072
45.12000 219.797
45.13000 221.199
45.14000 224.641
45.15000 227.838
45.16000 226.420
45.17000 223.257
45.18000 220.329
45.19000 222.401
45.20000 225.418
45.21000 227.492
45.22000 223.855
45.23000 219.257
45.24000 215.357
45.25000 214.231
45.26000 213.390
45.27000 212.769
45.28000 219.092
45.29000 224.294
45.30000 226.197
45.31000 222.052
45.32000 217.777
45.33000 215.694
45.34000 216.304
45.35000 216.920
45.36000 216.639
45.37000 215.645
45.38000 214.596
45.39000 211.168
45.40000 206.465
45.41000 202.079
45.42000 203.245
45.43000 206.440
45.44000 209.385
45.45000 209.059
45.46000 208.043
45.47000 207.338
45.48000 208.442
45.49000 209.838
45.50000 209.892
45.51000 204.807
45.52000 199.218
45.53000 195.128
45.54000 194.245
45.55000 193.691
45.56000 191.696
45.57000 187.150
45.58000 182.555
45.59000 183.107
45.60000 189.749
45.61000 196.386
45.62000 196.645
45.63000 192.033
45.64000 187.480
45.65000 185.259
45.66000 184.243
45.67000 183.411
45.68000 185.590
45.69000 188.832
45.70000 191.807
45.71000 193.264
45.72000 194.242
45.73000 195.104
45.74000 195.321
45.75000 195.439
45.76000 194.612
45.77000 190.300
45.78000 185.664
45.79000 182.306
45.80000 182.493
45.81000 182.768
45.82000 184.324
45.83000 188.070
45.84000 191.854
45.85000 192.395
45.86000 189.249
45.87000 186.109
45.88000 186.378
45.89000 189.148
45.90000 191.709
45.91000 186.827
45.92000 178.230
45.93000 170.183
45.94000 170.621
45.95000 173.947
45.96000 176.986
45.97000 175.665
45.98000 173.604
45.99000 171.944
46.00000 172.430
46.01000 173.236
46.02000 173.095
46.03000 169.585
46.04000 165.776
46.05000 163.046
46.06000 170.552
46.07000 176.636
46.08000 181.155
46.09000 183.095
46.10000 184.997
46.11000 182.521
46.12000 175.260
46.13000 168.026
46.14000 166.669
46.15000 169.473
46.16000 172.235
46.17000 173.681
46.18000 174.493
46.19000 174.904
46.20000 169.499
46.21000 162.182
46.22000 155.531
46.23000 159.842
46.24000 165.796
46.25000 170.408
46.26000 168.095
46.27000 164.797
46.28000 163.097
46.29000 166.885
46.30000 171.133
46.31000 174.145
46.32000 171.507
46.33000 169.324
46.34000 169.069
46.35000 171.879
46.36000 174.729
46.37000 176.187
46.38000 176.185
46.39000 176.182
46.40000 174.532
46.41000 171.785
46.42000 169.152
46.43000 169.943
46.44000 172.326
46.45000 174.717
46.46000 177.214
46.47000 179.746
46.48000 182.036
46.49000 178.060
46.50000 173.385
46.51000 169.876
46.52000 172.152
46.53000 175.215
46.54000 175.961
46.55000 169.030
46.56000 161.490
46.57000 156.205
46.58000 162.293
46.59000 167.226
46.60000 170.058
46.61000 169.667
46.62000 169.241
46.63000 170.906
46.64000 174.680
46.65000 178.431
46.66000 177.932
46.67000 174.665
46.68000 171.423
46.69000 168.868
46.70000 166.620
46.71000 164.660
46.72000 166.417
46.73000 169.311
46.74000 171.917
46.75000 178.110
46.76000 184.182
46.77000 189.066
46.78000 188.275
46.79000 186.745
46.80000 185.420
46.81000 184.750
46.82000 184.128
46.83000 183.697
46.84000 180.659
46.85000 178.304
46.86000 175.247
46.87000 171.151
46.88000 167.046
46.89000 166.182
46.90000 168.455
46.91000 170.711
46.92000 171.172
46.93000 170.496
46.94000 169.783
46.95000 168.121
46.96000 166.048
46.97000 164.093
46.98000 163.594
46.99000 163.525
47.00000 163.463
47.01000 160.478
47.02000 157.371
47.03000 155.676
47.04000 160.478
47.05000 166.088
47.06000 170.098
47.07000 169.170
47.08000 167.893
47.09000 167.019
47.10000 163.153
47.11000 160.187
47.12000 160.271
47.13000 164.701
47.14000 169.164
47.15000 171.961
47.16000 173.211
47.17000 174.449
47.18000 173.092
47.19000 170.192
47.20000 167.360
47.21000 166.089
47.22000 165.473
47.23000 164.637
47.24000 161.253
47.25000 157.144
47.26000 153.484
47.27000 157.263
47.28000 161.771
47.29000 165.585
47.30000 166.320
47.31000 166.690
47.32000 165.262
47.33000 158.476
47.34000 151.334
47.35000 146.502
47.36000 158.114
47.37000 167.122
47.38000 170.941
47.39000 167.637
47.40000 164.290
47.41000 161.297
47.42000 158.619
47.43000 155.969
47.44000 159.269
47.45000 165.958
47.46000 172.187
47.47000 168.518
47.48000 160.844
47.49000 154.120
47.50000 157.804
47.51000 164.349
47.52000 170.148
47.53000 170.312
47.54000 169.566
47.55000 168.847
47.56000 168.239
47.57000 167.643
47.58000 166.846
47.59000 165.471
47.60000 164.060
47.61000 163.117
47.62000 160.723
47.63000 158.920
47.64000 158.953
47.65000 161.414
47.66000 163.880
47.67000 161.853
47.68000 155.966
47.69000 150.146
47.70000 147.283
47.71000 146.141
47.72000 145.391
47.73000 152.443
47.74000 162.545
47.75000 171.621
47.76000 170.018
47.77000 165.582
47.78000 161.675
47.79000 161.421
47.80000 161.752
47.81000 162.230
47.82000 163.312
47.83000 164.460
47.84000 165.872
47.85000 168.018
47.86000 170.207
47.87000 171.651
47.88000 168.127
47.89000 165.442
47.90000 163.535
47.91000 162.618
47.92000 161.706
47.93000 161.073
47.94000 160.672
47.95000 160.276
47.96000 160.835
47.97000 161.893
47.98000 162.836
47.99000 161.632
48.00000 159.619
48.01000 157.836
48.02000 158.323
48.03000 159.391
48.04000 160.326
48.05000 158.218
48.06000 155.972
48.07000 154.950
48.08000 158.778
48.09000 163.104
48.10000 165.940
48.11000 164.783
48.12000 163.407
48.13000 162.511
48.14000 164.701
48.15000 166.356
48.16000 165.831
48.17000 162.636
48.18000 159.443
48.19000 159.160
48.20000 161.189
48.21000 163.188
48.22000 160.963
48.23000 156.615
48.24000 152.444
48.25000 151.349
48.26000 151.374
48.27000 151.616
48.28000 153.909
48.29000 156.707
48.30000 159.143
48.31000 165.152
48.32000 170.775
48.33000 173.992
48.34000 168.033
48.35000 161.176
48.36000 155.335
48.37000 152.123
48.38000 149.046
48.39000 147.068
48.40000 151.690
48.41000 155.154
48.42000 159.400
48.43000 164.570
48.44000 169.725
48.45000 170.868
48.46000 168.939
48.47000 167.043
48.48000 166.138
48.49000 165.756
48.50000 165.287
48.51000 163.389
48.52000 160.989
48.53000 158.806
48.54000 158.570
48.55000 158.796
48.56000 158.991
48.57000 161.201
48.58000 163.345
48.59000 164.395
48.60000 161.423
48.61000 158.077
48.62000 154.928
48.63000 152.268
48.64000 149.632
48.65000 147.960
48.66000 149.305
48.67000 150.318
48.68000 151.143
48.69000 151.758
48.70000 152.378
48.71000 154.146
48.72000 156.760
48.73000 159.325
48.74000 161.783
48.75000 164.101
48.76000 166.510
48.77000 170.331
48.78000 174.631
48.79000 177.966
48.80000 173.058
48.81000 166.264
48.82000 160.422
48.83000 155.346
48.84000 151.147
48.85000 148.278
48.86000 150.135
48.87000 152.408
48.88000 154.098
48.89000 154.381
48.90000 154.601
48.91000 154.739
48.92000 156.465
48.93000 157.727
48.94000 156.707
48.95000 153.201
48.96000 149.714
48.97000 149.122
48.98000 150.586
48.99000 152.020
49.00000 151.932
49.01000 151.145
49.02000 150.611
49.03000 153.745
49.04000 158.080
49.05000 162.226
49.06000 164.821
49.07000 167.075
49.08000 169.001
49.09000 165.137
49.10000 161.189
49.11000 157.547
49.12000 154.949
49.13000 152.437
49.14000 150.751
49.15000 150.988
49.16000 151.303
49.17000 151.497
49.18000 148.011
49.19000 145.477
49.20000 146.529
49.21000 151.334
49.22000 156.092
49.23000 155.347
49.24000 150.835
49.25000 146.424
49.26000 148.944
49.27000 154.438
49.28000 159.544
49.29000 159.367
49.30000 157.518
49.31000 155.648
49.32000 153.606
49.33000 151.527
49.34000 149.763
49.35000 151.222
49.36000 152.812
49.37000 153.565
49.38000 151.556
49.39000 149.328
49.40000 148.956
49.41000 152.759
49.42000 156.720
49.43000 159.125
49.44000 154.620
49.45000 151.352
49.46000 148.800
49.47000 146.967
49.48000 145.144
49.49000 144.318
49.50000 144.148
49.51000 143.983
49.52000 148.780
49.53000 155.483
49.54000 161.939
49.55000 165.230
49.56000 167.554
49.57000 168.721
49.58000 161.258
49.59000 152.035
49.60000 144.258
49.61000 142.268
49.62000 141.234
49.63000 141.624
49.64000 146.557
49.65000 151.828
49.66000 155.072
49.67000 153.909
49.68000 152.594
49.69000 151.807
49.70000 157.351
49.71000 161.324
49.72000 161.538
49.73000 158.123
49.74000 154.726
49.75000 152.726
49.76000 151.615
49.77000 150.534
49.78000 149.167
49.79000 147.747
49.80000 146.618
49.81000 149.018
49.82000 152.458
49.83000 155.324
49.84000 154.096
49.85000 152.064
49.86000 150.363
49.87000 147.276
49.88000 144.567
49.89000 144.275
49.90000 151.416
49.91000 159.081
49.92000 162.525
49.93000 157.109
49.94000 151.411
49.95000 148.057
49.96000 147.864
49.97000 147.744
49.98000 148.381
49.99000 149.720
50.00000 151.022
50.01000 149.728
50.02000 146.840
50.03000 144.038
50.04000 145.001
50.05000 147.406
50.06000 149.738
50.07000 151.239
50.08000 152.504
50.09000 153.298
50.10000 150.878
50.11000 147.853
50.12000 145.337
50.13000 145.798
50.14000 146.472
50.15000 147.269
50.16000 148.434
50.17000 149.624
50.18000 148.531
50.19000 142.811
50.20000 136.957
50.21000 133.566
50.22000 142.524
50.23000 148.857
50.24000 153.322
50.25000 156.122
50.26000 158.910
50.27000 160.909
50.28000 162.441
50.29000 163.924
50.30000 164.449
50.31000 164.581
50.32000 164.565
50.33000 162.935
50.34000 160.863
50.35000 158.775
50.36000 156.584
50.37000 154.374
50.38000 152.551
50.39000 156.591
50.40000 160.464
50.41000 162.786
50.42000 160.657
50.43000 158.251
50.44000 156.771
50.45000 157.103
50.46000 157.482
50.47000 157.698
50.48000 162.708
50.49000 166.213
50.50000 167.286
50.51000 166.276
50.52000 165.246
50.53000 163.168
50.54000 160.490
50.55000 157.905
50.56000 158.433
50.57000 160.072
50.58000 161.829
50.59000 164.804
50.60000 168.102
50.61000 170.006
50.62000 163.170
50.63000 154.811
50.64000 147.963
50.65000 155.520
50.66000 162.987
50.67000 167.866
50.68000 165.578
50.69000 162.873
50.70000 161.520
50.71000 162.724
50.72000 163.988
50.73000 164.696
50.74000 168.382
50.75000 170.937
50.76000 170.886
50.77000 168.688
50.78000 166.502
50.79000 164.892
50.80000 163.600
50.81000 162.357
50.82000 161.958
50.83000 161.883
50.84000 161.762
50.85000 161.198
50.86000 160.522
50.87000 159.864
50.88000 159.319
50.89000 158.794
50.90000 158.366
50.91000 155.137
50.92000 152.268
50.93000 150.173
50.94000 150.150
50.95000 150.239
50.96000 149.760
50.97000 148.242
50.98000 146.703
50.99000 145.855
51.00000 146.897
51.01000 147.617
51.02000 147.981
51.03000 148.064
51.04000 148.154
51.05000 148.532
51.06000 149.064
51.07000 149.574
51.08000 152.176
51.09000 155.317
51.10000 158.081
51.11000 157.310
51.12000 155.670
51.13000 153.936
51.14000 151.658
51.15000 149.292
51.16000 147.384
51.17000 144.174
51.18000 141.464
51.19000 140.088
51.20000 142.158
51.21000 144.404
51.22000 145.200
51.23000 143.445
51.24000 141.642
51.25000 140.667
51.26000 144.636
51.27000 147.349
51.28000 148.017
51.29000 147.124
51.30000 146.252
51.31000 146.171
51.32000 146.498
51.33000 146.810
51.34000 143.791
51.35000 139.894
51.36000 136.840
51.37000 141.320
51.38000 147.584
51.39000 152.244
51.40000 147.998
51.41000 142.381
51.42000 137.887
51.43000 141.256
51.44000 144.568
51.45000 146.126
51.46000 143.310
51.47000 140.288
51.48000 137.819
51.49000 136.292
51.50000 134.780
51.51000 133.978
51.52000 138.630
51.53000 141.791
51.54000 143.717
51.55000 144.736
51.56000 145.714
51.57000 145.238
51.58000 144.042
51.59000 142.901
51.60000 142.982
51.61000 143.441
51.62000 143.824
51.63000 143.558
51.64000 143.144
51.65000 143.459
51.66000 147.660
51.67000 152.435
51.68000 156.224
51.69000 152.260
51.70000 148.521
51.71000 145.982
51.72000 146.329
51.73000 146.803
51.74000 145.423
51.75000 141.005
51.76000 136.544
51.77000 134.221
51.78000 140.785
51.79000 145.195
51.80000 145.461
51.81000 142.794
51.82000 140.236
51.83000 141.181
51.84000 143.803
51.85000 146.295
51.86000 146.147
51.87000 145.213
51.88000 144.342
51.89000 143.982
51.90000 143.734
51.91000 143.363
51.92000 142.362
51.93000 141.272
51.94000 140.414
51.95000 138.972
51.96000 137.778
51.97000 136.942
51.98000 136.938
51.99000 136.968
52.00000 136.749
52.01000 136.139
52.02000 135.524
52.03000 135.210
52.04000 137.973
52.05000 139.805
52.06000 138.856
52.07000 136.009
52.08000 133.347
52.09000 136.091
52.10000 141.336
52.11000 146.302
52.12000 144.179
52.13000 140.167
52.14000 136.860
52.15000 139.037
52.16000 142.372
52.17000 144.806
52.18000 142.797
52.19000 140.188
52.20000 138.151
52.21000 136.797
52.22000 135.760
52.23000 134.623
52.24000 133.261
52.25000 131.891
52.26000 132.050
52.27000 134.537
52.28000 137.049
52.29000 138.306
52.30000 138.414
52.31000 138.464
52.32000 136.446
52.33000 133.068
52.34000 129.805
52.35000 129.623
52.36000 130.816
52.37000 131.943
52.38000 134.145
52.39000 136.465
52.40000 138.111
52.41000 134.750
52.42000 130.370
52.43000 127.820
52.44000 133.944
52.45000 141.190
52.46000 146.793
52.47000 143.099
52.48000 139.620
52.49000 136.118
52.50000 132.564
52.51000 129.009
52.52000 128.176
52.53000 131.344
52.54000 134.547
52.55000 134.916
52.56000 132.562
52.57000 130.269
52.58000 132.931
52.59000 138.738
52.60000 144.467
52.61000 148.258
52.62000 151.213
52.63000 153.991
52.64000 155.214
52.65000 155.914
52.66000 155.989
52.67000 151.622
52.68000 146.387
52.69000 142.284
52.70000 143.357
52.71000 145.067
52.72000 146.379
52.73000 142.674
52.74000 139.471
52.75000 138.534
52.76000 142.342
52.77000 146.299
52.78000 147.642
52.79000 145.285
52.80000 142.902
52.81000 139.883
52.82000 136.280
52.83000 132.741
52.84000 133.639
52.85000 137.254
52.86000 140.621
52.87000 138.337
52.88000 133.698
52.89000 129.354
52.90000 126.365
52.91000 123.997
52.92000 122.598
52.93000 127.792
52.94000 134.227
52.95000 139.247
52.96000 138.043
52.97000 136.107
52.98000 134.636
52.99000 134.490
53.00000 134.443
53.01000 134.003
53.02000 132.766
53.03000 131.507
53.04000 133.015
53.05000 138.299
53.06000 143.603
53.07000 145.755
53.08000 145.110
53.09000 144.494
53.10000 145.682
53.11000 147.933
53.12000 150.082
53.13000 150.048
53.14000 149.136
53.15000 148.285
53.16000 146.636
53.17000 144.946
53.18000 143.700
53.19000 145.355
53.20000 147.535
53.21000 149.002
53.22000 147.455
53.23000 145.568
53.24000 144.149
53.25000 141.452
53.26000 139.281
53.27000 139.344
53.28000 143.767
53.29000 148.303
53.30000 151.184
53.31000 151.892
53.32000 152.590
53.33000 151.961
53.34000 150.204
53.35000 148.477
53.36000 148.413
53.37000 149.295
53.38000 150.234
53.39000 152.289
53.40000 154.778
53.41000 157.090
53.42000 152.165
53.43000 146.003
53.44000 140.689
53.45000 140.677
53.46000 141.584
53.47000 142.405
53.48000 142.868
53.49000 143.294
53.50000 143.610
53.51000 146.285
53.52000 148.473
53.53000 148.298
53.54000 143.670
53.55000 138.938
53.56000 137.825
53.57000 141.289
53.58000 144.763
53.59000 144.865
53.60000 142.206
53.61000 139.603
53.62000 139.633
53.63000 141.112
53.64000 142.560
53.65000 143.446
53.66000 144.120
53.67000 144.744
53.68000 141.883
53.69000 138.519
53.70000 135.818
53.71000 137.105
53.72000 139.055
53.73000 140.909
53.74000 142.386
53.75000 143.823
53.76000 144.884
53.77000 137.331
53.78000 131.119
53.79000 130.116
53.80000 138.581
53.81000 147.244
53.82000 151.740
53.83000 151.162
53.84000 150.574
53.85000 147.679
53.86000 142.983
53.87000 138.339
53.88000 135.922
53.89000 134.688
53.90000 133.692
53.91000 136.789
53.92000 141.369
53.93000 145.586
53.94000 144.570
53.95000 142.516
53.96000 141.080
53.97000 143.205
53.98000 145.901
53.99000 147.658
54.00000 145.859
54.01000 143.716
54.02000 142.151
54.03000 140.535
54.04000 139.287
54.05000 137.512
54.06000 134.815
54.07000 132.100
54.08000 132.827
54.09000 137.585
54.10000 142.338
54.11000 140.960
54.12000 134.958
54.13000 129.082
54.14000 128.077
54.15000 129.567
54.16000 131.207
54.17000 135.275
54.18000 140.191
54.19000 144.697
54.20000 143.479
54.21000 141.192
54.22000 139.334
54.23000 139.853
54.24000 140.735
54.25000 141.192
54.26000 140.095
54.27000 138.854
54.28000 137.957
54.29000 138.598
54.30000 139.146
54.31000 139.434
54.32000 139.285
54.33000 139.128
54.34000 139.475
54.35000 140.387
54.36000 141.296
54.37000 140.982
54.38000 139.780
54.39000 138.552
54.40000 136.410
54.41000 133.815
54.42000 131.463
54.43000 132.797
54.44000 135.376
54.45000 137.729
54.46000 138.170
54.47000 138.175
54.48000 138.360
54.49000 139.498
54.50000 140.776
54.51000 141.883
54.52000 142.387
54.53000 142.838
54.54000 143.160
54.55000 141.205
54.56000 139.637
54.57000 138.614
54.58000 138.483
54.59000 138.364
54.60000 140.205
54.61000 144.168
54.62000 148.116
54.63000 148.872
54.64000 147.390
54.65000 145.877
54.66000 143.410
54.67000 140.486
54.68000 137.721
54.69000 137.218
54.70000 137.452
54.71000 137.665
54.72000 140.980
54.73000 144.508
54.74000 147.188
54.75000 145.535
54.76000 143.273
54.77000 140.747
54.78000 137.324
54.79000 133.826
54.80000 131.354
54.81000 135.251
54.82000 138.405
54.83000 139.468
54.84000 137.237
54.85000 134.965
54.86000 133.066
54.87000 131.555
54.88000 130.053
54.89000 132.625
54.90000 137.905
54.91000 143.039
54.92000 143.970
54.93000 142.962
54.94000 142.044
54.95000 142.337
54.96000 143.011
54.97000 143.620
54.98000 143.117
54.99000 142.469
55.00000 141.875
55.01000 141.551
55.02000 141.264
55.03000 141.597
55.04000 143.969
55.05000 146.501
55.06000 148.270
55.07000 146.924
55.08000 145.820
55.09000 145.393
55.10000 145.998
55.11000 146.612
55.12000 148.995
55.13000 153.142
55.14000 157.262
55.15000 158.138
55.16000 156.903
55.17000 155.533
55.18000 150.557
55.19000 143.974
55.20000 137.799
55.21000 136.809
55.22000 137.393
55.23000 137.918
55.24000 146.335
55.25000 155.106
55.26000 162.153
55.27000 161.048
55.28000 158.893
55.29000 157.806
55.30000 160.106
55.31000 162.655
55.32000 164.416
55.33000 162.887
55.34000 161.653
55.35000 162.176
55.36000 165.273
55.37000 168.391
55.38000 169.075
55.39000 167.426
55.40000 165.789
55.41000 164.995
55.42000 164.739
55.43000 164.564
55.44000 166.360
55.45000 169.005
55.46000 171.823
55.47000 176.710
55.48000 182.204
55.49000 187.117
55.50000 193.141
55.51000 198.582
55.52000 202.826
55.53000 201.618
55.54000 199.740
55.55000 198.640
55.56000 199.918
55.57000 201.362
55.58000 202.347
55.59000 207.372
55.60000 211.225
55.61000 215.244
55.62000 219.498
55.63000 223.752
55.64000 226.611
55.65000 228.184
55.66000 229.743
55.67000 231.370
55.68000 233.006
55.69000 234.909
55.70000 242.879
55.71000 253.369
55.72000 263.172
55.73000 265.153
55.74000 264.923
55.75000 264.718
55.76000 278.207
55.77000 292.146
55.78000 303.243
55.79000 301.880
55.80000 299.055
55.81000 298.931
55.82000 306.779
55.83000 315.149
55.84000 320.794
55.85000 328.523
55.86000 334.317
55.87000 339.893
55.88000 345.173
55.89000 350.445
55.90000 349.572
55.91000 343.264
55.92000 337.021
55.93000 342.226
55.94000 353.908
55.95000 365.015
55.96000 363.971
55.97000 358.055
55.98000 351.815
55.99000 342.070
56.00000 331.371
56.01000 321.906
56.02000 326.495
56.03000 332.650
56.04000 336.795
56.05000 332.450
56.06000 327.154
56.07000 322.145
56.08000 317.954
56.09000 313.813
56.10000 311.054
56.11000 302.845
56.12000 296.665
56.13000 290.105
56.14000 283.048
56.15000 275.991
56.16000 270.435
56.17000 266.155
56.18000 261.925
56.19000 260.725
56.20000 261.232
56.21000 261.458
56.22000 256.150
56.23000 248.699
56.24000 241.533
56.25000 237.297
56.26000 233.831
56.27000 230.781
56.28000 221.034
56.29000 211.649
56.30000 203.011
56.31000 197.414
56.32000 192.140
56.33000 186.976
56.34000 182.114
56.35000 177.269
56.36000 174.083
56.37000 177.151
56.38000 179.517
56.39000 182.198
56.40000 185.278
56.41000 188.351
56.42000 187.793
56.43000 184.263
56.44000 180.781
56.45000 177.208
56.46000 173.685
56.47000 170.090
56.48000 165.169
56.49000 159.752
56.50000 154.742
56.51000 153.709
56.52000 153.683
56.53000 153.660
56.54000 154.072
56.55000 154.487
56.56000 154.480
56.57000 152.817
56.58000 150.985
56.59000 149.345
56.60000 148.213
56.61000 147.107
56.62000 146.390
56.63000 146.181
56.64000 146.035
56.65000 145.546
56.66000 144.638
56.67000 143.721
56.68000 140.517
56.69000 135.511
56.70000 130.581
56.71000 132.245
56.72000 137.241
56.73000 141.993
56.74000 142.554
56.75000 141.601
56.76000 140.619
56.77000 139.359
56.78000 138.032
56.79000 136.878
56.80000 136.686
56.81000 136.652
56.82000 136.307
56.83000 134.788
56.84000 133.155
56.85000 131.620
56.86000 130.336
56.87000 129.065
56.88000 128.251
56.89000 126.074
56.90000 124.471
56.91000 125.876
56.92000 130.795
56.93000 135.701
56.94000 136.573
56.95000 134.386
56.96000 132.236
56.97000 131.576
56.98000 131.673
56.99000 131.647
57.00000 129.640
57.01000 126.941
57.02000 124.413
57.03000 123.401
57.04000 122.746
57.05000 122.179
57.06000 130.131
57.07000 137.989
57.08000 143.043
57.09000 137.875
57.10000 131.770
57.11000 128.233
57.12000 131.063
57.13000 134.191
57.14000 136.167
57.15000 133.084
57.16000 130.792
57.17000 127.390
57.18000 122.745
57.19000 118.126
57.20000 118.110
57.21000 121.456
57.22000 124.738
57.23000 126.621
57.24000 127.771
57.25000 128.858
57.26000 128.990
57.27000 128.801
57.28000 128.862
57.29000 131.036
57.30000 133.690
57.31000 135.968
57.32000 133.754
57.33000 131.326
57.34000 130.279
57.35000 134.085
57.36000 138.312
57.37000 140.339
57.38000 137.099
57.39000 133.631
57.40000 131.470
57.41000 131.997
57.42000 132.405
57.43000 129.964
57.44000 124.450
57.45000 118.975
57.46000 118.885
57.47000 122.584
57.48000 126.206
57.49000 126.914
57.50000 126.262
57.51000 125.744
57.52000 127.142
57.53000 129.161
57.54000 130.825
57.55000 129.613
57.56000 127.775
57.57000 126.206
57.58000 125.326
57.59000 124.666
57.60000 123.997
57.61000 123.292
57.62000 122.585
57.63000 124.123
57.64000 130.852
57.65000 137.790
57.66000 142.048
57.67000 130.479
57.68000 122.051
57.69000 119.419
57.70000 122.790
57.71000 126.149
57.72000 128.087
57.73000 129.061
57.74000 130.013
57.75000 129.601
57.76000 128.607
57.77000 127.595
57.78000 126.335
57.79000 124.999
57.80000 123.982
57.81000 125.428
57.82000 127.391
57.83000 129.054
57.84000 123.983
57.85000 118.976
57.86000 115.503
57.87000 117.049
57.88000 118.986
57.89000 119.402
57.90000 116.425
57.91000 113.322
57.92000 111.446
57.93000 115.971
57.94000 119.242
57.95000 121.673
57.96000 123.270
57.97000 124.859
57.98000 125.818
57.99000 126.365
58.00000 126.898
58.01000 124.245
58.02000 120.364
58.03000 117.002
58.04000 120.217
58.05000 125.423
58.06000 129.739
58.07000 127.489
58.08000 123.912
58.09000 120.901
58.10000 125.817
58.11000 130.766
58.12000 133.585
58.13000 129.675
58.14000 125.270
58.15000 123.006
58.16000 125.354
58.17000 127.859
58.18000 129.351
58.19000 125.427
58.20000 122.614
58.21000 122.166
58.22000 123.976
58.23000 125.778
58.24000 126.900
58.25000 127.593
58.26000 128.267
58.27000 128.884
58.28000 129.446
58.29000 129.837
58.30000 128.156
58.31000 125.870
58.32000 123.232
58.33000 118.114
58.34000 112.513
58.35000 107.832
58.36000 108.102
58.37000 108.829
58.38000 109.553
58.39000 110.266
58.40000 110.978
58.41000 111.920
58.42000 113.341
58.43000 114.777
58.44000 115.619
58.45000 123.221
58.46000 128.608
58.47000 130.289
58.48000 128.570
58.49000 126.850
58.50000 124.936
58.51000 122.905
58.52000 120.935
58.53000 119.655
58.54000 118.713
58.55000 118.359
58.56000 124.695
58.57000 132.914
58.58000 139.326
58.59000 133.532
58.60000 125.458
58.61000 118.756
58.62000 120.681
58.63000 123.106
58.64000 124.326
58.65000 122.004
58.66000 119.450
58.67000 117.869
58.68000 118.242
58.69000 118.669
58.70000 118.916
58.71000 120.660
58.72000 121.888
58.73000 124.159
58.74000 127.351
58.75000 130.490
58.76000 130.516
58.77000 128.715
58.78000 126.974
58.79000 127.293
58.80000 128.373
58.81000 129.115
58.82000 126.225
58.83000 122.349
58.84000 118.799
58.85000 117.362
58.86000 116.304
58.87000 115.433
58.88000 119.811
58.89000 123.896
58.90000 126.497
58.91000 124.886
58.92000 123.016
58.93000 121.510
58.94000 120.707
58.95000 119.922
58.96000 119.477
58.97000 115.484
58.98000 112.695
58.99000 111.197
59.00000 110.793
59.01000 110.448
59.02000 113.245
59.03000 117.821
59.04000 122.234
59.05000 123.595
59.06000 123.767
59.07000 123.894
59.08000 123.564
59.09000 123.115
59.10000 122.287
59.11000 119.111
59.12000 115.531
59.13000 112.603
59.14000 118.176
59.15000 123.479
59.16000 127.517
59.17000 128.081
59.18000 128.446
59.19000 125.886
59.20000 117.847
59.21000 109.683
59.22000 105.129
59.23000 107.627
59.24000 109.372
59.25000 111.257
59.26000 113.257
59.27000 115.223
59.28000 115.592
59.29000 115.088
59.30000 114.603
59.31000 116.028
59.32000 118.031
59.33000 119.915
59.34000 120.641
59.35000 121.075
59.36000 120.949
59.37000 117.490
59.38000 113.478
59.39000 110.223
59.40000 112.231
59.41000 114.301
59.42000 115.699
59.43000 115.317
59.44000 114.840
59.45000 115.256
59.46000 117.288
59.47000 119.352
59.48000 120.483
59.49000 116.457
59.50000 113.694
59.51000 115.037
59.52000 119.603
59.53000 124.043
59.54000 123.173
59.55000 119.501
59.56000 115.981
59.57000 111.887
59.58000 107.872
59.59000 104.774
59.60000 110.165
59.61000 117.624
59.62000 123.369
59.63000 119.319
59.64000 113.715
59.65000 109.202
59.66000 109.341
59.67000 109.816
59.68000 110.562
59.69000 112.002
59.70000 113.476
59.71000 114.001
59.72000 112.873
59.73000 111.715
59.74000 111.092
59.75000 111.536
59.76000 111.848
59.77000 113.629
59.78000 116.519
59.79000 119.393
59.80000 121.612
59.81000 123.499
59.82000 125.302
59.83000 124.394
59.84000 122.674
59.85000 121.321
59.86000 123.215
59.87000 125.870
59.88000 127.401
59.89000 122.753
59.90000 117.164
59.91000 112.701
59.92000 117.011
59.93000 121.139
59.94000 122.995
59.95000 119.236
59.96000 115.217
59.97000 112.874
59.98000 113.352
59.99000 113.875
60.00000 114.151
60.01000 116.570
60.02000 118.200
60.03000 117.694
60.04000 115.631
60.05000 113.697
60.06000 116.146
60.07000 120.751
60.08000 125.137
60.09000 123.020
60.10000 119.036
60.11000 115.507
60.12000 115.805
60.13000 116.968
60.14000 117.859
60.15000 117.314
60.16000 116.560
60.17000 115.962
60.18000 112.609
60.19000 109.722
60.20000 109.576
60.21000 115.972
60.22000 122.649
60.23000 125.835
60.24000 123.353
60.25000 120.791
60.26000 119.464
60.27000 123.804
60.28000 126.713
60.29000 126.916
60.30000 125.222
60.31000 123.492
60.32000 120.665
60.33000 117.317
60.34000 114.139
60.35000 109.410
60.36000 104.582
60.37000 100.546
60.38000 102.873
60.39000 106.583
60.40000 110.206
60.41000 113.384
60.42000 116.499
60.43000 118.945
60.44000 117.955
60.45000 116.938
60.46000 116.572
60.47000 117.709
60.48000 118.905
60.49000 119.871
60.50000 120.477
60.51000 121.079
60.52000 121.385
60.53000 116.928
60.54000 113.959
60.55000 113.019
60.56000 113.451
60.57000 113.946
60.58000 116.217
60.59000 119.302
60.60000 122.220
60.61000 123.709
60.62000 124.667
60.63000 124.978
60.64000 120.320
60.65000 114.622
60.66000 110.346
60.67000 113.008
60.68000 116.598
60.69000 119.393
60.70000 119.266
60.71000 118.984
60.72000 118.496
60.73000 117.546
60.74000 116.580
60.75000 115.147
60.76000 113.009
60.77000 110.864
60.78000 111.276
60.79000 114.220
60.80000 117.147
60.81000 118.439
60.82000 118.666
60.83000 118.830
60.84000 117.387
60.85000 115.231
60.86000 113.199
60.87000 111.317
60.88000 109.634
60.89000 108.413
60.90000 110.574
60.91000 113.416
60.92000 116.638
60.93000 121.644
60.94000 126.878
60.95000 130.917
60.96000 126.386
60.97000 122.298
60.98000 120.873
60.99000 125.168
61.00000 129.656
61.01000 131.024
61.02000 127.851
61.03000 124.641
61.04000 122.170
61.05000 120.404
61.06000 118.669
61.07000 119.386
61.08000 121.644
61.09000 123.809
61.10000 123.731
61.11000 122.693
61.12000 121.718
61.13000 122.588
61.14000 123.871
61.15000 125.006
61.16000 125.100
61.17000 124.993
61.18000 124.900
61.19000 124.866
61.20000 124.840
61.21000 124.820
61.22000 128.070
61.23000 130.811
61.24000 130.596
61.25000 124.248
61.26000 117.711
61.27000 115.642
61.28000 119.841
61.29000 124.082
61.30000 125.073
61.31000 123.093
61.32000 121.185
61.33000 124.099
61.34000 129.939
61.35000 135.405
61.36000 132.501
61.37000 126.139
61.38000 120.189
61.39000 122.183
61.40000 126.021
61.41000 129.293
61.42000 128.757
61.43000 127.513
61.44000 126.468
61.45000 126.287
61.46000 126.207
61.47000 126.146
61.48000 133.783
61.49000 140.170
61.50000 146.094
61.51000 151.092
61.52000 156.063
61.53000 164.814
61.54000 178.674
61.55000 192.554
61.56000 203.669
61.57000 212.341
61.58000 221.072
61.59000 233.292
61.60000 247.555
61.61000 261.556
61.62000 270.130
61.63000 276.539
61.64000 282.510
61.65000 284.456
61.66000 285.229
61.67000 286.549
61.68000 291.394
61.69000 296.870
61.70000 300.272
61.71000 294.978
61.72000 288.717
61.73000 284.019
61.74000 291.166
61.75000 297.313
61.76000 295.217
61.77000 277.178
61.78000 258.736
61.79000 241.232
61.80000 224.949
61.81000 208.688
61.82000 195.658
61.83000 185.387
61.84000 175.135
61.85000 165.911
61.86000 157.266
61.87000 148.820
61.88000 144.231
61.89000 141.126
61.90000 138.246
61.91000 139.562
61.92000 141.736
61.93000 142.928
61.94000 138.048
61.95000 132.126
61.96000 127.896
61.97000 130.508
61.98000 133.844
61.99000 136.323
62.00000 134.254
62.01000 132.443
62.02000 130.494
62.03000 128.288
62.04000 126.076
62.05000 124.725
62.06000 124.451
62.07000 124.182
62.08000 126.199
62.09000 130.061
62.10000 133.855
62.11000 134.502
62.12000 133.434
62.13000 132.317
62.14000 130.320
62.15000 127.995
62.16000 125.847
62.17000 124.732
62.18000 123.965
62.19000 123.093
62.20000 121.605
62.21000 120.015
62.22000 119.395
62.23000 122.557
62.24000 126.099
62.25000 128.705
62.26000 127.016
62.27000 125.532
62.28000 124.774
62.29000 125.325
62.30000 125.902
62.31000 126.354
62.32000 126.655
62.33000 126.955
62.34000 126.188
62.35000 124.593
62.36000 123.053
62.37000 123.801
62.38000 125.752
62.39000 127.688
62.40000 129.382
62.41000 130.989
62.42000 132.466
62.43000 133.198
62.44000 133.691
62.45000 133.971
62.46000 133.038
62.47000 131.915
62.48000 130.608
62.49000 128.616
62.50000 126.558
62.51000 125.060
62.52000 127.571
62.53000 129.658
62.54000 130.224
62.55000 128.144
62.56000 126.016
62.57000 125.179
62.58000 125.838
62.59000 126.498
62.60000 127.585
62.61000 128.986
62.62000 130.373
62.63000 131.253
62.64000 131.874
62.65000 132.378
62.66000 131.013
62.67000 129.002
62.68000 127.160
62.69000 126.233
62.70000 125.598
62.71000 125.281
62.72000 126.704
62.73000 128.391
62.74000 129.525
62.75000 128.655
62.76000 127.604
62.77000 126.846
62.78000 129.678
62.79000 131.974
62.80000 133.439
62.81000 133.507
62.82000 133.554
62.83000 132.847
62.84000 131.301
62.85000 129.759
62.86000 129.958
62.87000 131.407
62.88000 132.858
62.89000 134.367
62.90000 135.904
62.91000 137.300
62.92000 136.576
62.93000 135.144
62.94000 133.838
62.95000 132.199
62.96000 130.681
62.97000 129.009
62.98000 126.532
62.99000 123.938
63.00000 122.410
63.01000 124.607
63.02000 127.125
63.03000 128.919
63.04000 130.816
63.05000 132.264
63.06000 133.153
63.07000 133.135
63.08000 133.105
63.09000 134.367
63.10000 137.015
63.11000 139.651
63.12000 139.665
63.13000 137.864
63.14000 136.099
63.15000 135.441
63.16000 135.307
63.17000 135.353
63.18000 137.948
63.19000 141.366
63.20000 144.466
63.21000 140.996
63.22000 136.678
63.23000 132.785
63.24000 131.042
63.25000 129.598
63.26000 128.796
63.27000 130.158
63.28000 131.695
63.29000 132.779
63.30000 126.500
63.31000 121.517
63.32000 120.809
63.33000 126.775
63.34000 132.820
63.35000 135.172
63.36000 133.722
63.37000 132.281
63.38000 135.276
63.39000 141.186
63.40000 146.753
63.41000 142.551
63.42000 133.884
63.43000 125.851
63.44000 126.229
63.45000 129.229
63.46000 131.936
63.47000 134.460
63.48000 136.644
63.49000 139.036
63.50000 142.439
63.51000 145.977
63.52000 148.866
63.53000 149.645
63.54000 150.261
63.55000 150.691
63.56000 141.796
63.57000 134.828
63.58000 130.496
63.59000 130.133
63.60000 129.809
63.61000 132.473
63.62000 138.089
63.63000 143.668
63.64000 144.511
63.65000 142.311
63.66000 140.238
63.67000 141.478
63.68000 144.181
63.69000 146.647
63.70000 146.146
63.71000 144.752
63.72000 143.501
63.73000 139.860
63.74000 136.255
63.75000 134.339
63.76000 140.329
63.77000 147.325
63.78000 151.977
63.79000 149.267
63.80000 146.020
63.81000 143.783
63.82000 140.405
63.83000 137.839
63.84000 137.344
63.85000 139.851
63.86000 142.384
63.87000 143.440
63.88000 143.094
63.89000 142.751
63.90000 142.405
63.91000 142.064
63.92000 141.794
63.93000 143.246
63.94000 145.432
63.95000 147.389
63.96000 146.628
63.97000 145.077
63.98000 143.692
63.99000 144.276
64.00000 145.116
64.01000 146.127
64.02000 147.915
64.03000 149.796
64.04000 150.820
64.05000 149.244
64.06000 147.490
64.07000 146.296
64.08000 150.648
64.09000 154.025
64.10000 156.428
64.11000 157.469
64.12000 158.500
64.13000 155.867
64.14000 149.897
64.15000 143.982
64.16000 142.881
64.17000 144.653
64.18000 146.182
64.19000 142.261
64.20000 136.097
64.21000 130.786
64.22000 135.074
64.23000 142.051
64.24000 148.248
64.25000 149.432
64.26000 149.651
64.27000 149.601
64.28000 148.381
64.29000 147.024
64.30000 146.870
64.31000 150.233
64.32000 153.822
64.33000 156.235
64.34000 156.871
64.35000 157.307
64.36000 157.885
64.37000 158.655
64.38000 159.425
64.39000 158.688
64.40000 156.631
64.41000 154.595
64.42000 154.681
64.43000 155.975
64.44000 157.269
64.45000 158.576
64.46000 159.888
64.47000 161.057
64.48000 160.704
64.49000 159.940
64.50000 159.266
64.51000 158.527
64.52000 157.879
64.53000 158.104
64.54000 161.983
64.55000 166.266
64.56000 168.603
64.57000 165.440
64.58000 161.943
64.59000 159.622
64.60000 161.545
64.61000 163.046
64.62000 165.768
64.63000 170.073
64.64000 174.380
64.65000 175.911
64.66000 175.102
64.67000 174.304
64.68000 174.151
64.69000 174.357
64.70000 174.621
64.71000 176.018
64.72000 177.850
64.73000 179.048
64.74000 173.814
64.75000 166.906
64.76000 160.837
64.77000 163.900
64.78000 167.877
64.79000 171.090
64.80000 171.226
64.81000 171.037
64.82000 171.688
64.83000 174.631
64.84000 177.703
64.85000 179.717
64.86000 179.806
64.87000 179.839
64.88000 180.968
64.89000 183.466
64.90000 185.967
64.91000 187.617
64.92000 188.577
64.93000 189.524
64.94000 191.145
64.95000 193.076
64.96000 194.727
64.97000 191.316
64.98000 186.027
64.99000 181.369
65.00000 182.788
65.01000 185.733
65.02000 188.305
65.03000 190.923
65.04000 193.170
65.05000 195.682
65.06000 199.223
65.07000 202.867
65.08000 204.157
65.09000 199.246
65.10000 194.006
65.11000 190.616
65.12000 196.731
65.13000 201.344
65.14000 203.418
65.15000 202.440
65.16000 201.467
65.17000 203.667
65.18000 208.342
65.19000 212.944
65.20000 214.172
65.21000 213.647
65.22000 213.324
65.23000 216.417
65.24000 220.731
65.25000 224.756
65.26000 226.121
65.27000 226.843
65.28000 227.470
65.29000 229.166
65.30000 230.756
65.31000 232.018
65.32000 232.052
65.33000 231.968
65.34000 234.758
65.35000 244.855
65.36000 255.313
65.37000 261.988
65.38000 258.319
65.39000 255.515
65.40000 254.926
65.41000 256.895
65.42000 258.866
65.43000 260.429
65.44000 261.684
65.45000 262.917
65.46000 267.166
65.47000 272.745
65.48000 278.158
65.49000 280.945
65.50000 282.826
65.51000 285.350
65.52000 293.503
65.53000 302.970
65.54000 311.136
65.55000 307.414
65.56000 302.733
65.57000 302.197
65.58000 316.641
65.59000 332.438
65.60000 347.456
65.61000 360.557
65.62000 373.570
65.63000 381.762
65.64000 407.173
65.65000 425.753
65.66000 453.955
65.67000 492.849
65.68000 531.902
65.69000 595.035
65.70000 675.593
65.71000 754.580
65.72000 873.673
65.73000 1007.217
65.74000 1140.135
65.75000 1263.721
65.76000 1384.194
65.77000 1502.682
65.78000 1604.590
65.79000 1702.776
65.80000 1786.945
65.81000 1855.742
65.82000 1911.964
65.83000 1956.740
65.84000 1961.630
65.85000 1963.102
65.86000 1969.629
65.87000 1988.149
65.88000 2007.180
65.89000 2018.991
65.90000 1981.183
65.91000 1953.492
65.92000 1907.333
65.93000 1841.450
65.94000 1775.294
65.95000 1674.725
65.96000 1550.159
65.97000 1428.284
65.98000 1302.275
65.99000 1179.472
66.00000 1057.660
66.01000 949.718
66.02000 846.244
66.03000 746.552
66.04000 677.024
66.05000 614.014
66.06000 560.349
66.07000 517.048
66.08000 481.850
66.09000 450.960
66.10000 434.553
66.11000 419.322
66.12000 403.506
66.13000 386.352
66.14000 369.144
66.15000 358.621
66.16000 363.776
66.17000 367.595
66.18000 368.821
66.19000 367.386
66.20000 366.007
66.21000 370.648
66.22000 379.333
66.23000 387.812
66.24000 397.096
66.25000 406.326
66.26000 416.180
66.27000 434.272
66.28000 454.925
66.29000 476.068
66.30000 500.943
66.31000 526.595
66.32000 548.297
66.33000 565.025
66.34000 578.474
66.35000 589.388
66.36000 592.077
66.37000 594.134
66.38000 600.016
66.39000 614.356
66.40000 629.002
66.41000 637.826
66.42000 638.283
66.43000 638.550
66.44000 637.557
66.45000 635.324
66.46000 633.076
66.47000 629.553
66.48000 625.203
66.49000 620.966
66.50000 596.385
66.51000 564.416
66.52000 533.585
66.53000 516.947
66.54000 504.567
66.55000 491.118
66.56000 469.868
66.57000 447.057
66.58000 427.890
66.59000 412.055
66.60000 399.213
66.61000 388.640
66.62000 385.169
66.63000 382.213
66.64000 375.973
66.65000 362.720
66.66000 349.234
66.67000 341.234
66.68000 351.061
66.69000 358.116
66.70000 361.698
66.71000 361.997
66.72000 362.232
66.73000 357.592
66.74000 349.906
66.75000 342.440
66.76000 339.080
66.77000 337.547
66.78000 336.427
66.79000 340.178
66.80000 345.339
66.81000 350.795
66.82000 358.314
66.83000 366.231
66.84000 372.836
66.85000 371.341
66.86000 369.288
66.87000 368.711
66.88000 372.596
66.89000 376.784
66.90000 378.911
66.91000 376.786
66.92000 374.531
66.93000 373.215
66.94000 378.921
66.95000 382.964
66.96000 380.151
66.97000 371.109
66.98000 362.238
66.99000 364.561
67.00000 373.635
67.01000 382.427
67.02000 386.792
67.03000 389.203
67.04000 391.531
67.05000 392.920
67.06000 394.047
67.07000 394.384
67.08000 389.444
67.09000 383.527
67.10000 378.626
67.11000 380.136
67.12000 381.995
67.13000 383.506
67.14000 384.002
67.15000 384.432
67.16000 386.394
67.17000 391.403
67.18000 396.495
67.19000 399.421
67.20000 388.073
67.21000 380.094
67.22000 380.466
67.23000 388.129
67.24000 395.751
67.25000 400.969
67.26000 404.789
67.27000 408.481
67.28000 408.997
67.29000 408.296
67.30000 408.049
67.31000 412.630
67.32000 418.510
67.33000 423.615
67.34000 423.751
67.35000 423.005
67.36000 422.391
67.37000 414.712
67.38000 407.762
67.39000 403.533
67.40000 406.971
67.41000 410.871
67.42000 414.627
67.43000 418.107
67.44000 421.580
67.45000 423.542
67.46000 430.994
67.47000 436.178
67.48000 434.809
67.49000 427.939
67.50000 421.160
67.51000 419.074
67.52000 419.621
67.53000 420.148
67.54000 424.149
67.55000 429.157
67.56000 433.402
67.57000 429.932
67.58000 424.461
67.59000 420.591
67.60000 426.569
67.61000 434.227
67.62000 440.478
67.63000 453.868
67.64000 465.435
67.65000 471.605
67.66000 463.091
67.67000 453.750
67.68000 449.779
67.69000 455.774
67.70000 461.991
67.71000 465.443
67.72000 464.228
67.73000 463.372
67.74000 460.034
67.75000 454.692
67.76000 449.493
67.77000 450.855
67.78000 455.772
67.79000 460.495
67.80000 462.026
67.81000 462.354
67.82000 463.036
67.83000 467.119
67.84000 472.053
67.85000 476.689
67.86000 479.565
67.87000 482.154
67.88000 484.250
67.89000 492.175
67.90000 499.101
67.91000 504.267
67.92000 504.810
67.93000 505.109
67.94000 502.901
67.95000 496.202
67.96000 489.412
67.97000 485.709
67.98000 491.866
67.99000 496.098
68.00000 497.571
68.01000 496.899
68.02000 496.392
68.03000 502.628
68.04000 512.390
68.05000 521.741
68.06000 524.746
68.07000 525.437
68.08000 526.232
68.09000 527.980
68.10000 529.958
68.11000 532.954
68.12000 541.723
68.13000 551.398
68.14000 559.172
68.15000 547.412
68.16000 536.379
68.17000 533.245
68.18000 550.145
68.19000 568.030
68.20000 574.270
68.21000 560.383
68.22000 546.141
68.23000 538.511
68.24000 548.109
68.25000 554.676
68.26000 561.764
68.27000 569.243
68.28000 576.776
68.29000 586.295
68.30000 596.816
68.31000 606.863
68.32000 606.864
68.33000 603.649
68.34000 600.552
68.35000 598.480
68.36000 596.646
68.37000 595.971
68.38000 601.601
68.39000 608.180
68.40000 613.424
68.41000 626.324
68.42000 637.287
68.43000 646.868
68.44000 653.063
68.45000 659.104
68.46000 664.866
68.47000 670.164
68.48000 675.455
68.49000 678.236
68.50000 697.462
68.51000 710.479
68.52000 719.438
68.53000 725.468
68.54000 731.551
68.55000 739.368
68.56000 748.031
68.57000 756.276
68.58000 784.701
68.59000 817.224
68.60000 849.445
68.61000 879.147
68.62000 908.285
68.63000 939.796
68.64000 983.709
68.65000 1029.412
68.66000 1065.536
68.67000 1094.781
68.68000 1117.793
68.69000 1149.482
68.70000 1201.691
68.71000 1254.767
68.72000 1305.729
68.73000 1353.286
68.74000 1400.798
68.75000 1425.298
68.76000 1471.870
68.77000 1503.337
68.78000 1546.556
68.79000 1597.944
68.80000 1649.079
68.81000 1692.480
68.82000 1732.241
68.83000 1769.954
68.84000 1841.118
68.85000 1916.635
68.86000 1997.729
68.87000 2123.126
68.88000 2258.067
68.89000 2415.268
68.90000 2684.371
68.91000 2968.929
68.92000 3191.934
68.93000 4295.586
68.94000 5234.472
68.95000 6555.972
68.96000 8751.393
68.97000 10980.954
68.98000 13675.751
68.99000 17092.453
69.00000 20517.441
69.01000 22248.721
69.02000 27309.494
69.03000 30690.250
69.04000 33498.977
69.05000 35924.395
69.06000 38315.500
69.07000 39746.465
69.08000 40741.070
69.09000 41681.102
69.10000 42432.203
69.11000 43068.227
69.12000 43707.531
69.13000 44371.758
69.14000 45041.152
69.15000 45722.234
69.16000 46459.836
69.17000 47204.902
69.18000 47783.727
69.19000 47236.645
69.20000 46733.109
69.21000 45623.789
69.22000 43178.305
69.23000 40684.785
69.24000 38000.625
69.25000 35031.246
69.26000 32059.139
69.27000 29608.371
69.28000 27669.164
69.29000 25736.646
69.30000 24393.441
69.31000 23430.986
69.32000 22487.453
69.33000 22031.008
69.34000 21788.338
69.35000 21559.820
69.36000 21116.801
69.37000 20652.877
69.38000 20118.279
69.39000 19070.381
69.40000 17920.098
69.41000 16648.303
69.42000 14810.966
69.43000 12902.215
69.44000 11432.570
69.45000 9331.872
69.46000 7632.880
69.47000 6141.018
69.48000 5090.324
69.49000 4054.167
69.50000 3237.193
69.51000 2736.322
69.52000 2238.047
69.53000 1892.090
69.54000 1689.704
69.55000 1488.362
69.56000 1365.711
69.57000 1292.094
69.58000 1219.118
69.59000 1161.405
69.60000 1110.161
69.61000 1062.089
69.62000 1017.986
69.63000 978.848
69.64000 940.192
69.65000 904.892
69.66000 870.234
69.67000 837.606
69.68000 814.066
69.69000 791.622
69.70000 774.500
69.71000 747.438
69.72000 725.586
69.73000 708.451
69.74000 701.015
69.75000 693.870
69.76000 683.944
69.77000 670.153
69.78000 656.340
69.79000 645.411
69.80000 637.098
69.81000 628.860
69.82000 625.426
69.83000 624.881
69.84000 623.990
69.85000 615.481
69.86000 603.854
69.87000 592.988
69.88000 575.662
69.89000 558.308
69.90000 542.250
69.91000 534.829
69.92000 529.000
69.93000 522.445
69.94000 512.758
69.95000 502.710
69.96000 495.116
69.97000 496.628
69.98000 498.269
69.99000 499.888
70.00000 501.463
