20.00000 500.764
20.01000 490.503
20.02000 478.776
20.03000 468.977
20.04000 466.766
20.05000 465.327
20.06000 464.266
20.07000 473.361
20.08000 480.832
20.09000 482.407
20.10000 473.261
20.11000 463.890
20.12000 459.223
20.13000 460.286
20.14000 461.361
20.15000 463.746
20.16000 467.150
20.17000 470.544
20.18000 473.561
20.19000 476.377
20.20000 478.946
20.21000 477.253
20.22000 474.017
20.23000 471.037
20.24000 472.875
20.25000 475.576
20.26000 477.224
20.27000 472.813
20.28000 467.432
20.29000 464.027
20.30000 468.117
20.31000 472.933
20.32000 476.450
20.33000 467.877
20.34000 460.798
20.35000 454.816
20.36000 450.761
20.37000 446.741
20.38000 450.255
20.39000 462.594
20.40000 474.914
20.41000 478.475
20.42000 475.388
20.43000 472.370
20.44000 471.987
20.45000 472.954
20.46000 474.076
20.47000 477.710
20.48000 482.223
20.49000 486.360
20.50000 476.627
20.51000 465.041
20.52000 455.733
20.53000 459.022
20.54000 464.243
20.55000 468.995
20.56000 472.030
20.57000 474.907
20.58000 476.986
20.59000 468.425
20.60000 461.474
20.61000 459.814
20.62000 467.114
20.63000 474.560
20.64000 477.151
20.65000 474.275
20.66000 471.404
20.67000 471.401
20.68000 473.484
20.69000 475.391
20.70000 471.122
20.71000 463.799
20.72000 456.939
20.73000 457.118
20.74000 459.673
20.75000 462.004
20.76000 465.183
20.77000 468.174
20.78000 470.449
20.79000 468.918
20.80000 466.829
20.81000 464.512
20.82000 461.395
20.83000 458.207
20.84000 455.929
20.85000 464.343
20.86000 471.121
20.87000 472.633
20.88000 465.543
20.89000 458.330
20.90000 457.057
20.91000 462.215
20.92000 467.354
20.93000 467.361
20.94000 463.782
20.95000 460.186
20.96000 456.042
20.97000 451.637
20.98000 447.374
20.99000 445.141
21.00000 443.568
21.01000 442.141
21.02000 450.467
21.03000 459.707
21.04000 467.464
21.05000 467.648
21.06000 466.765
21.07000 465.655
21.08000 463.766
21.09000 461.813
21.10000 460.432
21.11000 469.769
21.12000 477.188
21.13000 476.805
21.14000 464.126
21.15000 451.297
21.16000 443.860
21.17000 442.031
21.18000 440.212
21.19000 440.654
21.20000 442.611
21.21000 444.789
21.22000 453.374
21.23000 464.916
21.24000 475.307
21.25000 470.201
21.26000 460.219
21.27000 451.200
21.28000 454.956
21.29000 460.627
21.30000 464.692
21.31000 460.861
21.32000 455.968
21.33000 452.855
21.34000 455.592
21.35000 458.787
21.36000 461.019
21.37000 453.845
21.38000 448.159
21.39000 445.900
21.40000 448.848
21.41000 451.851
21.42000 457.179
21.43000 464.830
21.44000 472.432
21.45000 467.986
21.46000 455.813
21.47000 444.209
21.48000 447.756
21.49000 458.052
21.50000 467.743
21.51000 469.733
21.52000 469.384
21.53000 469.071
21.54000 466.665
21.55000 464.186
21.56000 461.452
21.57000 457.509
21.58000 453.409
21.59000 451.995
21.60000 459.089
21.61000 466.811
21.62000 472.147
21.63000 467.485
21.64000 463.724
21.65000 459.020
21.66000 452.934
21.67000 446.838
21.68000 447.809
21.69000 455.555
21.70000 463.242
21.71000 464.317
21.72000 461.261
21.73000 458.487
21.74000 462.641
21.75000 469.775
21.76000 476.819
21.77000 482.792
21.78000 488.452
21.79000 493.513
21.80000 488.161
21.81000 481.723
21.82000 476.954
21.83000 479.788
21.84000 483.556
21.85000 485.992
21.86000 484.353
21.87000 482.429
21.88000 481.116
21.89000 497.280
21.90000 509.777
21.91000 515.831
21.92000 512.787
21.93000 509.680
21.94000 512.009
21.95000 519.342
21.96000 526.611
21.97000 528.190
21.98000 526.333
21.99000 524.574
22.00000 525.025
22.01000 526.394
22.02000 528.470
22.03000 538.615
22.04000 551.039
22.05000 562.091
22.06000 553.688
22.07000 543.226
22.08000 535.046
22.09000 536.867
22.10000 539.863
22.11000 540.027
22.12000 531.832
22.13000 523.089
22.14000 517.191
22.15000 520.093
22.16000 522.438
22.17000 520.705
22.18000 513.422
22.19000 506.112
22.20000 502.981
22.21000 503.548
22.22000 504.110
22.23000 505.824
22.24000 508.163
22.25000 510.263
22.26000 507.315
22.27000 502.343
22.28000 497.013
22.29000 487.823
22.30000 477.581
22.31000 468.520
22.32000 475.280
22.33000 483.587
22.34000 490.042
22.35000 488.675
22.36000 486.432
22.37000 485.936
22.38000 490.420
22.39000 495.210
22.40000 498.402
22.41000 491.262
22.42000 485.781
22.43000 481.636
22.44000 479.240
22.45000 476.848
22.46000 471.285
22.47000 463.025
22.48000 454.862
22.49000 453.835
22.50000 456.788
22.51000 459.564
22.52000 458.871
22.53000 456.835
22.54000 454.730
22.55000 451.922
22.56000 448.928
22.57000 446.295
22.58000 451.151
22.59000 456.445
22.60000 458.890
22.61000 449.739
22.62000 439.351
22.63000 432.380
22.64000 434.816
22.65000 437.795
22.66000 439.755
22.67000 446.313
22.68000 451.221
22.69000 452.158
22.70000 448.084
22.71000 444.002
22.72000 442.978
22.73000 444.458
22.74000 445.917
22.75000 446.150
22.76000 445.723
22.77000 445.172
22.78000 442.351
22.79000 438.681
22.80000 435.045
22.81000 431.740
22.82000 428.520
22.83000 425.704
22.84000 430.374
22.85000 435.440
22.86000 439.151
22.87000 437.542
22.88000 435.393
22.89000 432.268
22.90000 426.545
22.91000 420.683
22.92000 416.877
22.93000 424.924
22.94000 430.998
22.95000 433.111
22.96000 430.417
22.97000 427.715
22.98000 425.625
22.99000 424.018
23.00000 422.435
23.01000 425.060
23.02000 429.764
23.03000 434.086
23.04000 431.845
23.05000 427.235
23.06000 423.137
23.07000 423.796
23.08000 425.617
23.09000 427.201
23.10000 426.449
23.11000 425.491
23.12000 425.646
23.13000 430.010
23.14000 434.781
23.15000 437.882
23.16000 436.701
23.17000 435.304
23.18000 434.409
23.19000 439.187
23.20000 442.744
23.21000 443.395
23.22000 440.654
23.23000 437.925
23.24000 438.935
23.25000 442.782
23.26000 446.563
23.27000 435.318
23.28000 417.028
23.29000 400.236
23.30000 407.544
23.31000 423.256
23.32000 437.221
23.33000 435.705
23.34000 430.545
23.35000 426.086
23.36000 427.622
23.37000 429.703
23.38000 430.303
23.39000 425.497
23.40000 420.196
23.41000 417.263
23.42000 420.199
23.43000 423.410
23.44000 425.438
23.45000 427.254
23.46000 428.568
23.47000 431.709
23.48000 436.901
23.49000 442.065
23.50000 442.314
23.51000 438.970
23.52000 435.690
23.53000 431.000
23.54000 425.810
23.55000 420.906
23.56000 420.326
23.57000 421.202
23.58000 423.102
23.59000 433.655
23.60000 446.169
23.61000 456.914
23.62000 441.170
23.63000 424.580
23.64000 413.267
23.65000 420.514
23.66000 429.374
23.67000 434.573
23.68000 431.007
23.69000 427.060
23.70000 424.602
23.71000 446.960
23.72000 463.323
23.73000 467.484
23.74000 458.479
23.75000 449.532
23.76000 448.952
23.77000 454.263
23.78000 459.461
23.79000 462.885
23.80000 465.362
23.81000 467.826
23.82000 470.104
23.83000 472.322
23.84000 474.295
23.85000 474.290
23.86000 473.854
23.87000 473.482
23.88000 484.599
23.89000 495.312
23.90000 503.137
23.91000 501.164
23.92000 498.383
23.93000 497.746
23.94000 502.060
23.95000 506.573
23.96000 509.344
23.97000 506.445
23.98000 504.319
23.99000 501.557
24.00000 498.137
24.01000 494.768
24.02000 497.167
24.03000 503.478
24.04000 509.642
24.05000 501.965
24.06000 488.521
24.07000 476.290
24.08000 480.324
24.09000 489.460
24.10000 496.435
24.11000 486.751
24.12000 473.567
24.13000 462.394
24.14000 462.503
24.15000 463.863
24.16000 464.666
24.17000 463.649
24.18000 462.490
24.19000 459.258
24.20000 451.396
24.21000 443.364
24.22000 438.506
24.23000 440.870
24.24000 442.609
24.25000 445.471
24.26000 449.451
24.27000 453.354
24.28000 450.092
24.29000 442.144
24.30000 434.398
24.31000 436.798
24.32000 443.388
24.33000 448.733
24.34000 438.317
24.35000 423.131
24.36000 409.498
24.37000 407.320
24.38000 407.458
24.39000 407.573
24.40000 419.719
24.41000 431.138
24.42000 438.162
24.43000 431.302
24.44000 423.421
24.45000 417.643
24.46000 416.397
24.47000 415.305
24.48000 414.655
24.49000 408.935
24.50000 404.852
24.51000 404.058
24.52000 406.406
24.53000 408.782
24.54000 413.408
24.55000 419.454
24.56000 425.331
24.57000 424.142
24.58000 420.129
24.59000 416.229
24.60000 413.684
24.61000 411.536
24.62000 409.198
24.63000 405.518
24.64000 401.577
24.65000 398.283
24.66000 406.688
24.67000 414.857
24.68000 418.757
24.69000 409.636
24.70000 399.614
24.71000 394.638
24.72000 400.166
24.73000 406.020
24.74000 409.453
24.75000 407.528
24.76000 406.146
24.77000 404.333
24.78000 402.124
24.79000 399.947
24.80000 399.919
24.81000 401.198
24.82000 402.439
24.83000 401.018
24.84000 398.628
24.85000 396.869
24.86000 402.271
24.87000 409.691
24.88000 415.403
24.89000 409.572
24.90000 401.585
24.91000 394.956
24.92000 399.457
24.93000 404.254
24.94000 406.571
24.95000 401.587
24.96000 396.128
24.97000 392.802
24.98000 393.765
24.99000 394.849
25.00000 395.474
25.01000 399.393
25.02000 402.152
25.03000 405.411
25.04000 409.113
25.05000 412.681
25.06000 408.249
25.07000 399.120
25.08000 390.293
25.09000 390.519
25.10000 394.151
25.11000 397.725
25.12000 400.684
25.13000 403.474
25.14000 405.909
25.15000 406.043
25.16000 405.763
25.17000 405.533
25.18000 399.369
25.19000 393.752
25.20000 388.939
25.21000 386.409
25.22000 384.019
25.23000 381.749
25.24000 379.712
25.25000 377.681
25.26000 376.528
25.27000 384.320
25.28000 389.769
25.29000 393.566
25.30000 395.964
25.31000 398.317
25.32000 398.254
25.33000 396.824
25.34000 395.445
25.35000 395.884
25.36000 396.959
25.37000 397.466
25.38000 392.178
25.39000 385.370
25.40000 380.625
25.41000 388.690
25.42000 398.963
25.43000 407.365
25.44000 408.077
25.45000 407.992
25.46000 407.083
25.47000 403.917
25.48000 400.621
25.49000 396.229
25.50000 389.781
25.51000 383.287
25.52000 379.664
25.53000 379.405
25.54000 379.234
25.55000 379.212
25.56000 379.311
25.57000 379.401
25.58000 379.034
25.59000 378.418
25.60000 377.826
25.61000 381.150
25.62000 385.633
25.63000 389.739
25.64000 390.179
25.65000 389.692
25.66000 389.762
25.67000 393.154
25.68000 397.097
25.69000 400.296
25.70000 399.464
25.71000 398.454
25.72000 396.281
25.73000 391.026
25.74000 385.606
25.75000 381.021
25.76000 377.948
25.77000 374.906
25.78000 373.239
25.79000 383.924
25.80000 391.278
25.81000 394.679
25.82000 394.976
25.83000 395.212
25.84000 392.873
25.85000 389.175
25.86000 385.630
25.87000 391.356
25.88000 399.820
25.89000 406.625
25.90000 398.068
25.91000 385.771
25.92000 375.193
25.93000 374.450
25.94000 375.268
25.95000 375.927
25.96000 384.397
25.97000 391.879
25.98000 397.794
25.99000 399.696
26.00000 401.398
26.01000 400.152
26.02000 393.764
26.03000 387.282
26.04000 383.793
26.05000 387.335
26.06000 389.751
26.07000 389.878
26.08000 388.275
26.09000 386.739
26.10000 387.769
26.11000 390.104
26.12000 392.336
26.13000 391.484
26.14000 389.695
26.15000 387.971
26.16000 386.824
26.17000 385.812
26.18000 384.732
26.19000 383.278
26.20000 381.767
26.21000 380.560
26.22000 376.332
26.23000 372.695
26.24000 371.275
26.25000 375.333
26.26000 379.646
26.27000 383.001
26.28000 384.746
26.29000 386.465
26.30000 387.373
26.31000 374.493
26.32000 365.790
26.33000 365.564
26.34000 371.510
26.35000 377.485
26.36000 384.427
26.37000 391.845
26.38000 398.911
26.39000 392.984
26.40000 383.452
26.41000 374.507
26.42000 370.510
26.43000 367.631
26.44000 366.448
26.45000 374.221
26.46000 383.301
26.47000 390.493
26.48000 388.814
26.49000 386.846
26.50000 384.175
26.51000 379.824
26.52000 375.401
26.53000 372.193
26.54000 370.960
26.55000 369.754
26.56000 369.130
26.57000 375.160
26.58000 379.186
26.59000 377.418
26.60000 371.583
26.61000 365.858
26.62000 363.558
26.63000 362.885
26.64000 362.246
26.65000 367.683
26.66000 374.518
26.67000 380.261
26.68000 377.226
26.69000 372.281
26.70000 368.361
26.71000 369.650
26.72000 371.666
26.73000 373.250
26.74000 375.870
26.75000 378.035
26.76000 379.541
26.77000 379.530
26.78000 379.457
26.79000 376.474
26.80000 368.930
26.81000 361.331
26.82000 357.471
26.83000 372.142
26.84000 381.913
26.85000 384.736
26.86000 382.859
26.87000 380.976
26.88000 378.917
26.89000 376.778
26.90000 374.754
26.91000 377.619
26.92000 381.658
26.93000 385.363
26.94000 386.502
26.95000 387.104
26.96000 386.937
26.97000 383.014
26.98000 378.589
26.99000 375.143
27.00000 376.874
27.01000 378.572
27.02000 376.858
27.03000 367.551
27.04000 357.965
27.05000 357.903
27.06000 372.222
27.07000 386.687
27.08000 389.375
27.09000 380.386
27.10000 371.460
27.11000 368.163
27.12000 368.539
27.13000 369.027
27.14000 372.453
27.15000 377.180
27.16000 381.636
27.17000 376.213
27.18000 368.517
27.19000 361.557
27.20000 360.005
27.21000 359.542
27.22000 360.153
27.23000 365.813
27.24000 372.118
27.25000 376.984
27.26000 372.856
27.27000 369.062
27.28000 367.809
27.29000 372.013
27.30000 376.402
27.31000 380.217
27.32000 383.199
27.33000 386.174
27.34000 383.374
27.35000 375.079
27.36000 366.865
27.37000 364.996
27.38000 367.117
27.39000 369.344
27.40000 374.153
27.41000 380.066
27.42000 385.619
27.43000 380.929
27.44000 373.932
27.45000 367.577
27.46000 365.729
27.47000 364.756
27.48000 364.522
27.49000 367.639
27.50000 371.164
27.51000 373.860
27.52000 375.388
27.53000 376.529
27.54000 376.968
27.55000 375.950
27.56000 374.887
27.57000 373.017
27.58000 370.016
27.59000 367.009
27.60000 366.142
27.61000 367.234
27.62000 368.265
27.63000 365.194
27.64000 359.635
27.65000 354.458
27.66000 357.866
27.67000 364.820
27.68000 371.324
27.69000 370.723
27.70000 368.363
27.71000 365.958
27.72000 363.238
27.73000 360.459
27.74000 357.101
27.75000 351.217
27.76000 345.038
27.77000 340.358
27.78000 355.372
27.79000 368.162
27.80000 374.435
27.81000 367.651
27.82000 360.501
27.83000 356.322
27.84000 356.159
27.85000 356.019
27.86000 357.495
27.87000 360.387
27.88000 363.214
27.89000 362.114
27.90000 358.717
27.91000 355.536
27.92000 356.870
27.93000 360.005
27.94000 362.925
27.95000 362.166
27.96000 360.578
27.97000 359.265
27.98000 359.725
27.99000 360.503
28.00000 362.368
28.01000 368.794
28.02000 375.727
28.03000 380.930
28.04000 371.655
28.05000 363.721
28.06000 357.416
28.07000 354.261
28.08000 351.186
28.09000 351.044
28.10000 354.719
28.11000 358.406
28.12000 361.722
28.13000 364.716
28.14000 367.643
28.15000 367.089
28.16000 364.567
28.17000 362.032
28.18000 359.220
28.19000 356.301
28.20000 353.594
28.21000 362.143
28.22000 372.495
28.23000 380.551
28.24000 374.398
28.25000 365.803
28.26000 359.474
28.27000 362.308
28.28000 366.113
28.29000 368.939
28.30000 356.177
28.31000 345.563
28.32000 341.153
28.33000 348.327
28.34000 355.765
28.35000 358.737
28.36000 356.112
28.37000 353.473
28.38000 351.656
28.39000 350.511
28.40000 349.469
28.41000 353.203
28.42000 359.540
28.43000 365.308
28.44000 360.748
28.45000 352.348
28.46000 344.587
28.47000 350.798
28.48000 359.528
28.49000 366.041
28.50000 359.383
28.51000 350.554
28.52000 343.290
28.53000 342.130
28.54000 341.584
28.55000 341.183
28.56000 345.869
28.57000 349.705
28.58000 353.030
28.59000 355.435
28.60000 357.821
28.61000 357.561
28.62000 354.109
28.63000 350.656
28.64000 352.486
28.65000 358.420
28.66000 364.166
28.67000 362.149
28.68000 356.047
28.69000 350.037
28.70000 345.588
28.71000 341.700
28.72000 338.123
28.73000 345.653
28.74000 354.789
28.75000 361.638
28.76000 355.444
28.77000 347.185
28.78000 341.508
28.79000 345.530
28.80000 350.481
28.81000 354.086
28.82000 348.522
28.83000 343.888
28.84000 342.433
28.85000 346.509
28.86000 350.685
28.87000 352.649
28.88000 352.045
28.89000 351.440
28.90000 353.534
28.91000 357.633
28.92000 361.547
28.93000 358.498
28.94000 351.911
28.95000 346.007
28.96000 350.963
28.97000 359.683
28.98000 367.667
28.99000 358.095
29.00000 345.925
29.01000 336.846
29.02000 344.694
29.03000 355.110
29.04000 361.642
29.05000 354.095
29.06000 345.269
29.07000 338.910
29.08000 342.844
29.09000 346.223
29.10000 349.716
29.11000 353.402
29.12000 357.091
29.13000 357.760
29.14000 355.061
29.15000 352.369
29.16000 351.738
29.17000 352.597
29.18000 353.379
29.19000 351.550
29.20000 348.441
29.21000 345.183
29.22000 339.694
29.23000 333.457
29.24000 327.773
29.25000 335.508
29.26000 345.039
29.27000 352.659
29.28000 350.217
29.29000 346.313
29.30000 343.312
29.31000 343.466
29.32000 343.892
29.33000 344.196
29.34000 341.728
29.35000 339.756
29.36000 341.521
29.37000 349.338
29.38000 357.237
29.39000 359.945
29.40000 357.090
29.41000 354.245
29.42000 350.396
29.43000 345.892
29.44000 341.607
29.45000 344.137
29.46000 349.894
29.47000 355.338
29.48000 356.379
29.49000 355.997
29.50000 355.651
29.51000 354.198
29.52000 352.705
29.53000 351.598
29.54000 352.449
29.55000 353.573
29.56000 353.747
29.57000 350.718
29.58000 347.428
29.59000 345.108
29.60000 346.589
29.61000 347.827
29.62000 348.276
29.63000 347.494
29.64000 346.698
29.65000 347.319
29.66000 349.401
29.67000 351.471
29.68000 351.225
29.69000 349.442
29.70000 347.766
29.71000 349.157
29.72000 351.950
29.73000 354.300
29.74000 350.761
29.75000 345.387
29.76000 340.537
29.77000 351.688
29.78000 364.417
29.79000 374.934
29.80000 374.673
29.81000 372.977
29.82000 372.007
29.83000 373.395
29.84000 374.965
29.85000 376.060
29.86000 365.161
29.87000 356.607
29.88000 356.205
29.89000 368.075
29.90000 380.068
29.91000 382.752
29.92000 376.236
29.93000 369.764
29.94000 371.995
29.95000 379.765
29.96000 387.254
29.97000 387.387
29.98000 384.273
29.99000 381.115
30.00000 377.420
30.01000 373.564
30.02000 370.101
30.03000 373.550
30.04000 377.780
30.05000 381.177
30.06000 380.666
30.07000 379.658
30.08000 379.123
30.09000 380.078
30.10000 381.141
30.11000 381.873
30.12000 380.174
30.13000 378.837
30.14000 376.693
30.15000 373.376
30.16000 370.051
30.17000 368.996
30.18000 370.096
30.19000 371.187
30.20000 370.584
30.21000 368.948
30.22000 367.242
30.23000 363.840
30.24000 359.714
30.25000 356.186
30.26000 359.750
30.27000 365.374
30.28000 370.397
30.29000 369.457
30.30000 367.636
30.31000 367.061
30.32000 372.108
30.33000 377.837
30.34000 381.162
30.35000 377.196
30.36000 372.730
30.37000 369.689
30.38000 370.824
30.39000 371.767
30.40000 369.727
30.41000 363.515
30.42000 357.279
30.43000 359.995
30.44000 370.868
30.45000 381.642
30.46000 381.941
30.47000 376.026
30.48000 370.212
30.49000 366.654
30.50000 364.026
30.51000 361.891
30.52000 365.312
30.53000 370.290
30.54000 374.711
30.55000 365.242
30.56000 354.794
30.57000 346.871
30.58000 349.910
30.59000 354.221
30.60000 356.212
30.61000 351.417
30.62000 346.183
30.63000 342.664
30.64000 355.046
30.65000 364.575
30.66000 369.497
30.67000 368.212
30.68000 366.897
30.69000 368.532
30.70000 372.752
30.71000 376.927
30.72000 375.055
30.73000 369.777
30.74000 364.725
30.75000 364.351
30.76000 365.837
30.77000 367.056
30.78000 365.420
30.79000 363.013
30.80000 360.887
30.81000 365.863
30.82000 371.254
30.83000 377.030
30.84000 384.421
30.85000 391.991
30.86000 397.258
30.87000 396.016
30.88000 394.380
30.89000 393.294
30.90000 393.923
30.91000 394.420
30.92000 393.237
30.93000 389.873
30.94000 386.513
30.95000 390.575
30.96000 400.891
30.97000 411.081
30.98000 416.269
30.99000 418.582
31.00000 421.275
31.01000 431.315
31.02000 444.177
31.03000 456.872
31.04000 467.869
31.05000 478.424
31.06000 487.696
31.07000 499.157
31.08000 509.332
31.09000 519.650
31.10000 530.543
31.11000 541.496
31.12000 556.527
31.13000 582.681
31.14000 609.467
31.15000 627.028
31.16000 657.161
31.17000 679.527
31.18000 699.627
31.19000 716.895
31.20000 734.190
31.21000 765.087
31.22000 807.011
31.23000 848.351
31.24000 881.577
31.25000 909.581
31.26000 937.516
31.27000 964.195
31.28000 990.409
31.29000 1016.957
31.30000 1046.739
31.31000 1077.333
31.32000 1104.049
31.33000 1113.343
31.34000 1118.846
31.35000 1126.708
31.36000 1143.741
31.37000 1161.694
31.38000 1175.308
31.39000 1177.494
31.40000 1179.075
31.41000 1180.097
31.42000 1159.067
31.43000 1143.359
31.44000 1127.934
31.45000 1112.848
31.46000 1097.747
31.47000 1078.543
31.48000 1056.136
31.49000 1034.080
31.50000 1008.681
31.51000 982.372
31.52000 956.034
31.53000 929.210
31.54000 902.212
31.55000 873.745
31.56000 831.785
31.57000 786.560
31.58000 747.303
31.59000 729.029
31.60000 716.278
31.61000 698.971
31.62000 664.596
31.63000 628.594
31.64000 596.117
31.65000 572.606
31.66000 549.538
31.67000 534.813
31.68000 517.521
31.69000 504.908
31.70000 491.084
31.71000 475.860
31.72000 460.668
31.73000 452.332
31.74000 449.147
31.75000 446.019
31.76000 443.022
31.77000 440.192
31.78000 436.791
31.79000 424.351
31.80000 408.786
31.81000 394.581
31.82000 392.283
31.83000 392.760
31.84000 393.171
31.85000 393.513
31.86000 393.793
31.87000 392.778
31.88000 387.079
31.89000 380.956
31.90000 376.278
31.91000 375.149
31.92000 374.183
31.93000 373.576
31.94000 379.858
31.95000 384.481
31.96000 380.539
31.97000 367.074
31.98000 353.657
31.99000 348.933
32.00000 350.500
32.01000 352.037
32.02000 350.108
32.03000 346.617
32.04000 343.304
32.05000 342.615
32.06000 342.803
32.07000 342.276
32.08000 335.777
32.09000 327.938
32.10000 321.218
32.11000 324.695
32.12000 328.878
32.13000 333.504
32.14000 339.671
32.15000 345.970
32.16000 348.269
32.17000 341.076
32.18000 333.479
32.19000 328.764
32.20000 337.584
32.21000 344.063
32.22000 345.640
32.23000 341.983
32.24000 338.315
32.25000 333.493
32.26000 327.866
32.27000 322.361
32.28000 318.810
32.29000 316.287
32.30000 314.031
32.31000 315.515
32.32000 318.204
32.33000 320.485
32.34000 319.517
32.35000 317.846
32.36000 316.423
32.37000 314.735
32.38000 313.284
32.39000 314.041
32.40000 322.221
32.41000 331.003
32.42000 336.485
32.43000 334.405
32.44000 332.027
32.45000 330.573
32.46000 322.222
32.47000 316.189
32.48000 312.810
32.49000 312.155
32.50000 311.474
32.51000 308.069
32.52000 302.831
32.53000 297.718
32.54000 301.903
32.55000 309.960
32.56000 317.666
32.57000 320.723
32.58000 322.335
32.59000 323.033
32.60000 316.759
32.61000 309.035
32.62000 302.499
32.63000 304.916
32.64000 307.933
32.65000 311.722
32.66000 318.015
32.67000 324.501
32.68000 328.711
32.69000 327.884
32.70000 326.875
32.71000 326.267
32.72000 322.155
32.73000 319.205
32.74000 315.427
32.75000 310.834
32.76000 306.330
32.77000 309.838
32.78000 318.538
32.79000 327.011
32.80000 334.095
32.81000 340.264
32.82000 347.248
32.83000 364.398
32.84000 384.597
32.85000 403.394
32.86000 411.967
32.87000 418.493
32.88000 423.977
32.89000 440.688
32.90000 455.797
32.91000 468.725
32.92000 474.822
32.93000 480.424
32.94000 488.215
32.95000 500.681
32.96000 513.303
32.97000 520.791
32.98000 514.575
32.99000 510.098
33.00000 509.966
33.01000 513.942
33.02000 517.786
33.03000 511.555
33.04000 499.027
33.05000 486.856
33.06000 463.869
33.07000 437.664
33.08000 412.314
33.09000 397.058
33.10000 384.724
33.11000 372.155
33.12000 357.946
33.13000 343.421
33.14000 331.301
33.15000 325.615
33.16000 321.546
33.17000 317.323
33.18000 312.632
33.19000 307.910
33.20000 303.790
33.21000 300.915
33.22000 298.078
33.23000 296.421
33.24000 304.101
33.25000 309.544
33.26000 309.142
33.27000 303.429
33.28000 297.835
33.29000 300.096
33.30000 307.094
33.31000 313.874
33.32000 312.613
33.33000 308.293
33.34000 304.294
33.35000 303.881
33.36000 304.469
33.37000 304.785
33.38000 303.282
33.39000 301.441
33.40000 299.916
33.41000 293.787
33.42000 288.287
33.43000 284.469
33.44000 285.560
33.45000 286.966
33.46000 287.063
33.47000 284.556
33.48000 281.977
33.49000 280.495
33.50000 289.231
33.51000 295.376
33.52000 299.393
33.53000 301.551
33.54000 303.632
33.55000 301.264
33.56000 296.308
33.57000 291.519
33.58000 293.692
33.59000 298.345
33.60000 302.475
33.61000 301.043
33.62000 298.115
33.63000 295.441
33.64000 294.397
33.65000 293.644
33.66000 293.024
33.67000 296.679
33.68000 300.070
33.69000 302.305
33.70000 301.282
33.71000 300.064
33.72000 298.957
33.73000 298.064
33.74000 297.177
33.75000 296.676
33.76000 296.946
33.77000 297.136
33.78000 297.713
33.79000 298.615
33.80000 299.474
33.81000 298.173
33.82000 295.658
33.83000 293.234
33.84000 296.503
33.85000 301.624
33.86000 306.177
33.87000 305.007
33.88000 302.349
33.89000 299.441
33.90000 294.989
33.91000 290.273
33.92000 286.424
33.93000 290.365
33.94000 294.258
33.95000 298.205
33.96000 302.301
33.97000 306.404
33.98000 309.122
33.99000 309.268
34.00000 309.357
34.01000 309.406
34.02000 315.639
34.03000 319.951
34.04000 321.856
34.05000 321.816
34.06000 321.675
34.07000 316.909
34.08000 309.636
34.09000 302.649
34.10000 304.579
34.11000 309.473
34.12000 314.277
34.13000 318.210
34.14000 321.925
34.15000 325.965
34.16000 331.914
34.17000 338.176
34.18000 343.247
34.19000 335.367
34.20000 327.897
34.21000 321.818
34.22000 319.395
34.23000 317.164
34.24000 316.833
34.25000 319.904
34.26000 323.044
34.27000 324.757
34.28000 323.336
34.29000 322.366
34.30000 323.670
34.31000 326.745
34.32000 329.735
34.33000 329.278
34.34000 327.019
34.35000 324.855
34.36000 324.976
34.37000 325.850
34.38000 326.792
34.39000 328.352
34.40000 330.060
34.41000 331.616
34.42000 332.313
34.43000 332.875
34.44000 333.326
34.45000 334.136
34.46000 334.821
34.47000 335.344
34.48000 335.459
34.49000 335.553
34.50000 333.503
34.51000 327.747
34.52000 321.926
34.53000 318.807
34.54000 313.607
34.55000 310.088
34.56000 312.577
34.57000 319.567
34.58000 326.281
34.59000 322.811
34.60000 314.200
34.61000 305.977
34.62000 304.215
34.63000 304.647
34.64000 304.778
34.65000 302.282
34.66000 299.174
34.67000 297.012
34.68000 299.992
34.69000 303.747
34.70000 306.740
34.71000 303.418
34.72000 300.278
34.73000 298.421
34.74000 299.704
34.75000 301.131
34.76000 299.704
34.77000 293.518
34.78000 287.259
34.79000 283.968
34.80000 281.872
34.81000 280.455
34.82000 279.634
34.83000 279.241
34.84000 278.708
34.85000 273.454
34.86000 265.899
34.87000 258.708
34.88000 265.347
34.89000 275.751
34.90000 285.017
34.91000 284.811
34.92000 282.485
34.93000 280.389
34.94000 279.491
34.95000 278.765
34.96000 278.192
34.97000 285.063
34.98000 291.090
34.99000 294.348
35.00000 291.054
35.01000 287.483
35.02000 284.894
35.03000 283.883
35.04000 282.893
35.05000 282.382
35.06000 276.556
35.07000 272.653
35.08000 271.645
35.09000 272.651
35.10000 273.625
35.11000 273.627
35.12000 273.172
35.13000 272.741
35.14000 276.390
35.15000 280.962
35.16000 284.514
35.17000 279.953
35.18000 273.643
35.19000 268.398
35.20000 268.511
35.21000 269.363
35.22000 270.031
35.23000 267.825
35.24000 265.877
35.25000 263.296
35.26000 259.270
35.27000 255.188
35.28000 257.536
35.29000 269.864
35.30000 282.305
35.31000 288.595
35.32000 280.602
35.33000 275.245
35.34000 269.082
35.35000 262.378
35.36000 255.866
35.37000 254.714
35.38000 255.999
35.39000 257.214
35.40000 257.938
35.41000 258.465
35.42000 259.159
35.43000 261.131
35.44000 263.367
35.45000 264.934
35.46000 263.261
35.47000 261.160
35.48000 259.528
35.49000 256.440
35.50000 253.895
35.51000 252.291
35.52000 252.764
35.53000 253.311
35.54000 256.173
35.55000 262.497
35.56000 268.855
35.57000 271.425
35.58000 270.279
35.59000 269.102
35.60000 265.127
35.61000 259.345
35.62000 253.768
35.63000 253.465
35.64000 255.478
35.65000 257.373
35.66000 259.136
35.67000 260.713
35.68000 261.872
35.69000 259.991
35.70000 257.503
35.71000 254.984
35.72000 252.320
35.73000 249.637
35.74000 247.571
35.75000 249.204
35.76000 250.707
35.77000 250.459
35.78000 246.480
35.79000 242.378
35.80000 242.387
35.81000 248.324
35.82000 254.309
35.83000 257.337
35.84000 257.577
35.85000 257.828
35.86000 258.851
35.87000 260.356
35.88000 261.790
35.89000 261.554
35.90000 260.611
35.91000 259.726
35.92000 254.859
35.93000 249.378
35.94000 245.121
35.95000 249.374
35.96000 255.259
35.97000 260.437
35.98000 262.449
35.99000 264.079
36.00000 265.322
36.01000 259.983
36.02000 255.424
36.03000 251.987
36.04000 250.855
36.05000 249.792
36.06000 251.875
36.07000 258.332
36.08000 264.815
36.09000 266.116
36.10000 262.728
36.11000 259.353
36.12000 256.792
36.13000 254.721
36.14000 252.778
36.15000 253.658
36.16000 255.695
36.17000 257.597
36.18000 259.327
36.19000 260.852
36.20000 262.112
36.21000 261.605
36.22000 260.773
36.23000 260.823
36.24000 264.685
36.25000 268.986
36.26000 272.237
36.27000 264.648
36.28000 258.156
36.29000 255.454
36.30000 260.281
36.31000 265.314
36.32000 266.624
36.33000 262.949
36.34000 259.251
36.35000 256.663
36.36000 255.044
36.37000 253.390
36.38000 249.716
36.39000 244.871
36.40000 240.242
36.41000 240.033
36.42000 241.572
36.43000 243.003
36.44000 246.431
36.45000 250.012
36.46000 253.064
36.47000 252.738
36.48000 251.813
36.49000 250.858
36.50000 249.779
36.51000 248.686
36.52000 247.868
36.53000 254.751
36.54000 260.482
36.55000 261.530
36.56000 253.600
36.57000 245.449
36.58000 241.977
36.59000 244.540
36.60000 247.124
36.61000 248.745
36.62000 249.557
36.63000 250.338
36.64000 249.542
36.65000 247.864
36.66000 246.165
36.67000 244.061
36.68000 241.802
36.69000 239.709
36.70000 241.046
36.71000 243.050
36.72000 245.612
36.73000 251.594
36.74000 258.158
36.75000 263.610
36.76000 264.603
36.77000 265.129
36.78000 265.520
36.79000 263.070
36.80000 261.043
36.81000 259.825
36.82000 260.102
36.83000 260.412
36.84000 260.781
36.85000 261.222
36.86000 261.663
36.87000 264.191
36.88000 268.382
36.89000 272.515
36.90000 274.056
36.91000 274.196
36.92000 274.479
36.93000 277.318
36.94000 281.098
36.95000 284.587
36.96000 284.897
36.97000 284.463
36.98000 284.059
36.99000 283.832
37.00000 283.634
37.01000 282.341
37.02000 276.816
37.03000 270.870
37.04000 266.507
37.05000 270.266
37.06000 273.499
37.07000 275.454
37.08000 275.128
37.09000 274.756
37.10000 273.108
37.11000 269.934
37.12000 266.765
37.13000 265.690
37.14000 266.238
37.15000 266.715
37.16000 264.355
37.17000 260.515
37.18000 256.869
37.19000 256.453
37.20000 257.186
37.21000 257.860
37.22000 258.989
37.23000 260.093
37.24000 260.330
37.25000 255.669
37.26000 250.242
37.27000 246.726
37.28000 250.330
37.29000 254.606
37.30000 257.711
37.31000 252.800
37.32000 248.722
37.33000 245.824
37.34000 244.959
37.35000 244.128
37.36000 244.622
37.37000 246.635
37.38000 248.643
37.39000 252.165
37.40000 256.782
37.41000 261.245
37.42000 260.085
37.43000 256.093
37.44000 252.050
37.45000 247.215
37.46000 242.109
37.47000 237.439
37.48000 236.832
37.49000 237.130
37.50000 237.747
37.51000 240.097
37.52000 242.708
37.53000 244.993
37.54000 246.113
37.55000 247.128
37.56000 247.857
37.57000 247.835
37.58000 247.793
37.59000 248.397
37.60000 250.078
37.61000 251.775
37.62000 250.597
37.63000 246.245
37.64000 241.908
37.65000 241.210
37.66000 243.112
37.67000 244.882
37.68000 242.276
37.69000 237.542
37.70000 233.432
37.71000 238.505
37.72000 246.625
37.73000 254.016
37.74000 253.912
37.75000 252.340
37.76000 249.659
37.77000 241.197
37.78000 231.905
37.79000 227.259
37.80000 238.714
37.81000 251.536
37.82000 260.650
37.83000 253.858
37.84000 248.177
37.85000 245.040
37.86000 245.982
37.87000 246.979
37.88000 248.650
37.89000 251.038
37.90000 253.414
37.91000 255.075
37.92000 256.226
37.93000 257.279
37.94000 255.344
37.95000 252.005
37.96000 248.571
37.97000 243.803
37.98000 238.608
37.99000 233.903
38.00000 241.877
38.01000 251.305
38.02000 259.135
38.03000 258.955
38.04000 257.673
38.05000 257.046
38.06000 258.609
38.07000 260.348
38.08000 261.571
38.09000 259.657
38.10000 258.114
38.11000 257.199
38.12000 257.253
38.13000 257.319
38.14000 256.500
38.15000 254.779
38.16000 253.069
38.17000 251.165
38.18000 249.159
38.19000 247.364
38.20000 251.442
38.21000 258.182
38.22000 264.485
38.23000 265.062
38.24000 263.871
38.25000 262.797
38.26000 263.484
38.27000 264.408
38.28000 265.979
38.29000 270.676
38.30000 275.785
38.31000 281.152
38.32000 287.352
38.33000 293.615
38.34000 297.968
38.35000 287.073
38.36000 278.451
38.37000 281.231
38.38000 301.023
38.39000 320.976
38.40000 332.775
38.41000 336.599
38.42000 340.396
38.43000 351.343
38.44000 366.653
38.45000 381.871
38.46000 394.733
38.47000 406.563
38.48000 419.209
38.49000 441.951
38.50000 467.704
38.51000 490.795
38.52000 519.972
38.53000 546.524
38.54000 572.074
38.55000 592.976
38.56000 613.292
38.57000 637.186
38.58000 672.217
38.59000 708.047
38.60000 732.656
38.61000 761.579
38.62000 783.372
38.63000 807.315
38.64000 834.349
38.65000 861.407
38.66000 886.329
38.67000 909.243
38.68000 931.970
38.69000 945.910
38.70000 954.238
38.71000 962.624
38.72000 972.373
38.73000 982.698
38.74000 991.250
38.75000 979.027
38.76000 960.827
38.77000 944.594
38.78000 937.245
38.79000 932.328
38.80000 923.934
38.81000 900.008
38.82000 874.216
38.83000 850.194
38.84000 831.490
38.85000 813.145
38.86000 800.695
38.87000 723.886
38.88000 665.154
38.89000 623.464
38.90000 605.387
38.91000 587.459
38.92000 564.448
38.93000 536.851
38.94000 509.518
38.95000 489.590
38.96000 474.420
38.97000 458.909
38.98000 435.943
38.99000 409.933
39.00000 384.932
39.01000 371.126
39.02000 360.427
39.03000 350.937
39.04000 332.705
39.05000 315.521
39.06000 299.903
39.07000 291.025
39.08000 282.920
39.09000 276.057
39.10000 272.793
39.11000 269.759
39.12000 267.725
39.13000 266.600
39.14000 265.784
39.15000 265.483
39.16000 265.867
39.17000 266.250
39.18000 261.855
39.19000 253.316
39.20000 244.871
39.21000 241.055
39.22000 239.943
39.23000 238.935
39.24000 240.063
39.25000 242.033
39.26000 244.210
39.27000 248.570
39.28000 253.515
39.29000 257.877
39.30000 264.311
39.31000 270.176
39.32000 271.543
39.33000 254.264
39.34000 234.948
39.35000 222.399
39.36000 228.801
39.37000 236.332
39.38000 241.317
39.39000 238.014
39.40000 235.425
39.41000 232.388
39.42000 228.774
39.43000 225.164
39.44000 224.457
39.45000 226.172
39.46000 227.865
39.47000 229.913
39.48000 232.099
39.49000 234.328
39.50000 237.370
39.51000 240.721
39.52000 243.657
39.53000 242.438
39.54000 240.148
39.55000 238.139
39.56000 236.973
39.57000 236.094
39.58000 235.430
39.59000 235.620
39.60000 235.899
39.61000 236.044
39.62000 235.825
39.63000 235.586
39.64000 235.429
39.65000 234.106
39.66000 233.116
39.67000 231.354
39.68000 228.637
39.69000 225.924
39.70000 225.842
39.71000 227.872
39.72000 229.872
39.73000 229.167
39.74000 227.066
39.75000 224.805
39.76000 219.719
39.77000 213.593
39.78000 208.654
39.79000 215.009
39.80000 224.175
39.81000 232.167
39.82000 228.933
39.83000 224.607
39.84000 221.832
39.85000 225.032
39.86000 228.822
39.87000 232.380
39.88000 235.331
39.89000 238.249
39.90000 240.131
39.91000 240.388
39.92000 240.552
39.93000 237.149
39.94000 229.499
39.95000 221.854
39.96000 217.595
39.97000 215.951
39.98000 214.334
39.99000 216.293
40.00000 219.990
40.01000 223.392
40.02000 221.895
40.03000 218.658
40.04000 215.890
40.05000 217.374
40.06000 219.878
40.07000 222.048
40.08000 217.888
40.09000 213.507
40.10000 211.137
40.11000 216.237
40.12000 222.040
40.13000 226.630
40.14000 228.162
40.15000 229.545
40.16000 230.425
40.17000 224.462
40.18000 220.045
40.19000 218.185
40.20000 219.254
40.21000 220.321
40.22000 220.306
40.23000 219.486
40.24000 218.682
40.25000 219.559
40.26000 221.220
40.27000 222.778
40.28000 222.721
40.29000 222.110
40.30000 221.770
40.31000 223.780
40.32000 226.332
40.33000 228.531
40.34000 222.093
40.35000 215.543
40.36000 210.840
40.37000 212.750
40.38000 215.249
40.39000 217.471
40.40000 219.015
40.41000 220.528
40.42000 221.478
40.43000 218.173
40.44000 215.738
40.45000 216.387
40.46000 220.429
40.47000 224.431
40.48000 221.954
40.49000 214.831
40.50000 207.851
40.51000 206.961
40.52000 208.943
40.53000 210.920
40.54000 212.808
40.55000 214.668
40.56000 216.292
40.57000 215.975
40.58000 215.226
40.59000 214.585
40.60000 215.298
40.61000 216.062
40.62000 217.133
40.63000 219.264
40.64000 221.484
40.65000 222.792
40.66000 221.956
40.67000 221.030
40.68000 220.457
40.69000 219.580
40.70000 218.946
40.71000 217.269
40.72000 214.487
40.73000 211.688
40.74000 206.746
40.75000 200.325
40.76000 194.046
40.77000 198.733
40.78000 208.149
40.79000 216.928
40.80000 216.923
40.81000 214.115
40.82000 211.368
40.83000 209.107
40.84000 206.951
40.85000 205.118
40.86000 205.601
40.87000 206.274
40.88000 206.376
40.89000 204.572
40.90000 202.616
40.91000 203.117
40.92000 209.196
40.93000 215.490
40.94000 219.326
40.95000 213.162
40.96000 208.678
40.97000 206.767
40.98000 207.470
40.99000 208.183
41.00000 210.033
41.01000 212.639
41.02000 215.181
41.03000 212.580
41.04000 207.873
41.05000 203.598
41.06000 204.951
41.07000 208.038
41.08000 211.023
41.09000 213.234
41.10000 215.286
41.11000 217.020
41.12000 213.501
41.13000 209.983
41.14000 206.501
41.15000 203.136
41.16000 199.779
41.17000 199.599
41.18000 206.383
41.19000 213.414
41.20000 217.634
41.21000 218.933
41.22000 219.837
41.23000 219.776
41.24000 218.774
41.25000 217.738
41.26000 213.675
41.27000 207.668
41.28000 201.822
41.29000 201.216
41.30000 202.817
41.31000 204.040
41.32000 200.601
41.33000 195.776
41.34000 192.377
41.35000 199.255
41.36000 208.170
41.37000 215.648
41.38000 211.221
41.39000 206.294
41.40000 202.864
41.41000 204.078
41.42000 205.623
41.43000 205.000
41.44000 199.784
41.45000 194.419
41.46000 191.248
41.47000 199.866
41.48000 206.019
41.49000 208.962
41.50000 208.899
41.51000 208.872
41.52000 211.479
41.53000 215.719
41.54000 219.835
41.55000 212.664
41.56000 201.344
41.57000 191.249
41.58000 195.448
41.59000 203.746
41.60000 210.975
41.61000 210.823
41.62000 209.263
41.63000 207.965
41.64000 205.785
41.65000 203.892
41.66000 201.329
41.67000 196.763
41.68000 192.062
41.69000 189.246
41.70000 190.287
41.71000 191.441
41.72000 192.113
41.73000 194.485
41.74000 196.158
41.75000 196.138
41.76000 194.596
41.77000 193.124
41.78000 196.105
41.79000 201.748
41.80000 207.213
41.81000 206.446
41.82000 203.323
41.83000 200.716
41.84000 203.803
41.85000 208.466
41.86000 211.934
41.87000 207.491
41.88000 201.600
41.89000 196.729
41.90000 195.981
41.91000 195.752
41.92000 196.901
41.93000 202.033
41.94000 207.417
41.95000 210.699
41.96000 209.832
41.97000 208.854
41.98000 208.295
41.99000 206.268
42.00000 204.847
42.01000 203.564
42.02000 202.399
42.03000 201.272
42.04000 202.262
42.05000 204.473
42.06000 206.609
42.07000 208.767
42.08000 210.810
42.09000 212.889
42.10000 215.354
42.11000 217.923
42.12000 219.414
42.13000 214.077
42.14000 207.538
42.15000 202.170
42.16000 205.540
42.17000 209.086
42.18000 211.497
42.19000 210.732
42.20000 209.780
42.21000 209.009
42.22000 208.584
42.23000 208.168
42.24000 207.933
42.25000 212.689
42.26000 215.998
42.27000 216.940
42.28000 215.915
42.29000 214.960
42.30000 217.540
42.31000 222.086
42.32000 226.464
42.33000 221.827
42.34000 214.260
42.35000 207.082
42.36000 203.779
42.37000 201.473
42.38000 200.202
42.39000 205.222
42.40000 211.304
42.41000 216.260
42.42000 213.847
42.43000 211.251
42.44000 208.866
42.45000 207.050
42.46000 205.266
42.47000 204.859
42.48000 206.988
42.49000 209.173
42.50000 210.380
42.51000 213.899
42.52000 216.314
42.53000 213.264
42.54000 205.842
42.55000 198.581
42.56000 198.457
42.57000 202.167
42.58000 205.729
42.59000 209.235
42.60000 212.495
42.61000 215.121
42.62000 211.723
42.63000 206.831
42.64000 202.686
42.65000 202.902
42.66000 203.825
42.67000 204.572
42.68000 209.032
42.69000 212.957
42.70000 216.613
42.71000 219.569
42.72000 222.488
42.73000 223.714
42.74000 221.934
42.75000 220.096
42.76000 219.098
42.77000 210.825
42.78000 205.157
42.79000 202.564
42.80000 202.340
42.81000 202.082
42.82000 200.506
42.83000 198.247
42.84000 196.084
42.85000 195.412
42.86000 195.278
42.87000 195.131
42.88000 194.866
42.89000 194.572
42.90000 194.788
42.91000 197.861
42.92000 201.378
42.93000 204.198
42.94000 198.599
42.95000 193.428
42.96000 190.286
42.97000 192.246
42.98000 194.452
42.99000 194.829
43.00000 192.071
43.01000 189.260
43.02000 187.761
43.03000 198.138
43.04000 205.188
43.05000 206.858
43.06000 204.536
43.07000 202.227
43.08000 200.402
43.09000 198.818
43.10000 197.307
43.11000 194.468
43.12000 191.411
43.13000 189.004
43.14000 192.197
43.15000 196.680
43.16000 200.462
43.17000 200.470
43.18000 199.916
43.19000 199.476
43.20000 188.476
43.21000 178.856
43.22000 174.005
43.23000 180.732
43.24000 187.979
43.25000 191.756
43.26000 189.797
43.27000 187.752
43.28000 186.682
43.29000 190.615
43.30000 193.276
43.31000 195.550
43.32000 197.546
43.33000 199.446
43.34000 198.206
43.35000 195.449
43.36000 192.827
43.37000 191.418
43.38000 190.486
43.39000 189.852
43.40000 191.673
43.41000 194.038
43.42000 195.862
43.43000 194.881
43.44000 193.499
43.45000 192.410
43.46000 193.031
43.47000 193.644
43.48000 191.401
43.49000 182.462
43.50000 173.244
43.51000 170.892
43.52000 179.486
43.53000 188.221
43.54000 192.704
43.55000 199.110
43.56000 203.363
43.57000 201.011
43.58000 194.107
43.59000 187.473
43.60000 188.878
43.61000 194.034
43.62000 198.920
43.63000 194.648
43.64000 188.028
43.65000 182.820
43.66000 188.705
43.67000 196.956
43.68000 204.120
43.69000 205.863
43.70000 206.867
43.71000 207.652
43.72000 200.869
43.73000 194.973
43.74000 191.098
43.75000 191.796
43.76000 192.669
43.77000 191.158
43.78000 185.982
43.79000 180.765
43.80000 178.141
43.81000 176.409
43.82000 175.297
43.83000 178.785
43.84000 185.328
43.85000 191.603
43.86000 190.536
43.87000 186.162
43.88000 182.032
43.89000 185.719
43.90000 191.304
43.91000 196.232
43.92000 196.214
43.93000 195.181
43.94000 193.258
43.95000 187.071
43.96000 180.326
43.97000 175.097
43.98000 179.242
43.99000 183.096
44.00000 185.737
44.01000 185.729
44.02000 185.628
44.03000 186.320
44.04000 188.188
44.05000 190.066
44.06000 190.868
44.07000 190.624
44.08000 190.354
44.09000 187.919
44.10000 184.097
44.11000 180.514
44.12000 182.939
44.13000 187.978
44.14000 192.719
44.15000 192.857
44.16000 191.737
44.17000 190.614
44.18000 189.474
44.19000 188.330
44.20000 187.798
44.21000 190.085
44.22000 192.725
44.23000 194.752
44.24000 193.820
44.25000 192.918
44.26000 191.488
44.27000 188.948
44.28000 186.372
44.29000 185.056
44.30000 185.542
44.31000 186.041
44.32000 187.640
44.33000 190.263
44.34000 192.877
44.35000 194.868
44.36000 196.475
44.37000 197.810
44.38000 192.825
44.39000 185.184
44.40000 178.023
44.41000 185.120
44.42000 195.291
44.43000 204.826
44.44000 209.990
44.45000 214.323
44.46000 217.077
44.47000 212.820
44.48000 207.728
44.49000 203.852
44.50000 206.418
44.51000 208.776
44.52000 210.352
44.53000 210.331
44.54000 210.264
44.55000 210.078
44.56000 209.729
44.57000 209.378
44.58000 208.019
44.59000 205.759
44.60000 203.562
44.61000 205.433
44.62000 209.728
44.63000 214.008
44.64000 217.991
44.65000 221.853
44.66000 225.459
44.67000 225.201
44.68000 224.001
44.69000 223.096
44.70000 224.133
44.71000 225.526
44.72000 226.750
44.73000 227.256
44.74000 227.680
44.75000 227.999
44.76000 226.449
44.77000 225.144
44.78000 224.138
44.79000 223.725
44.80000 223.328
44.81000 222.490
44.82000 221.067
44.83000 219.643
44.84000 220.348
44.85000 222.884
44.86000 225.376
44.87000 225.395
44.88000 223.992
44.89000 222.754
44.90000 224.822
44.91000 228.186
44.92000 231.312
44.93000 234.804
44.94000 238.043
44.95000 241.044
44.96000 242.544
44.97000 243.780
44.98000 244.125
44.99000 240.801
45.00000 237.080
45.01000 234.300
45.02000 232.361
45.03000 230.888
45.04000 233.050
45.05000 242.120
45.06000 251.355
45.07000 253.601
45.08000 246.919
45.09000 240.213
45.10000 239.698
45.11000 244.300
45.12000 248.833
45.13000 249.963
45.14000 249.206
45.15000 248.301
45.16000 244.635
45.17000 239.924
45.18000 235.563
45.19000 234.060
45.20000 233.368
45.21000 233.309
45.22000 237.085
45.23000 241.507
45.24000 244.100
45.25000 239.430
45.26000 234.010
45.27000 230.003
45.28000 230.142
45.29000 230.427
45.30000 229.295
45.31000 225.563
45.32000 221.776
45.33000 220.950
45.34000 223.765
45.35000 226.585
45.36000 225.508
45.37000 221.342
45.38000 217.207
45.39000 214.485
45.40000 212.519
45.41000 210.636
45.42000 210.199
45.43000 210.291
45.44000 210.376
45.45000 210.204
45.46000 209.994
45.47000 209.973
45.48000 211.057
45.49000 212.320
45.50000 212.717
45.51000 209.805
45.52000 206.568
45.53000 204.198
45.54000 205.251
45.55000 206.200
45.56000 204.632
45.57000 198.606
45.58000 192.496
45.59000 193.467
45.60000 202.814
45.61000 212.153
45.62000 215.417
45.63000 214.024
45.64000 212.615
45.65000 210.641
45.66000 208.373
45.67000 206.260
45.68000 206.694
45.69000 208.027
45.70000 209.249
45.71000 203.995
45.72000 197.934
45.73000 192.843
45.74000 193.169
45.75000 194.335
45.76000 194.159
45.77000 189.030
45.78000 183.439
45.79000 179.389
45.80000 188.415
45.81000 195.829
45.82000 200.625
45.83000 200.952
45.84000 201.202
45.85000 197.486
45.86000 189.257
45.87000 181.048
45.88000 180.680
45.89000 186.068
45.90000 191.341
45.91000 192.508
45.92000 191.624
45.93000 190.802
45.94000 190.908
45.95000 191.331
45.96000 191.717
45.97000 195.282
45.98000 199.095
45.99000 201.167
46.00000 193.893
46.01000 185.232
46.02000 178.030
46.03000 176.028
46.04000 174.486
46.05000 173.380
46.06000 174.121
46.07000 174.749
46.08000 176.758
46.09000 181.040
46.10000 185.357
46.11000 187.497
46.12000 187.257
46.13000 187.017
46.14000 185.917
46.15000 184.221
46.16000 182.448
46.17000 178.165
46.18000 172.671
46.19000 167.535
46.20000 167.588
46.21000 169.346
46.22000 170.944
46.23000 172.423
46.24000 173.707
46.25000 174.993
46.26000 176.288
46.27000 177.583
46.28000 178.480
46.29000 178.008
46.30000 177.421
46.31000 177.005
46.32000 167.440
46.33000 159.880
46.34000 157.700
46.35000 164.071
46.36000 170.552
46.37000 173.808
46.38000 173.676
46.39000 173.544
46.40000 176.772
46.41000 182.243
46.42000 187.521
46.43000 187.087
46.44000 183.996
46.45000 181.026
46.46000 179.718
46.47000 178.937
46.48000 178.231
46.49000 177.905
46.50000 177.688
46.51000 177.168
46.52000 175.138
46.53000 172.902
46.54000 171.398
46.55000 172.316
46.56000 173.427
46.57000 174.206
46.58000 172.589
46.59000 171.297
46.60000 170.914
46.61000 171.927
46.62000 172.955
46.63000 172.004
46.64000 169.057
46.65000 166.128
46.66000 165.120
46.67000 165.379
46.68000 165.757
46.69000 169.384
46.70000 174.470
46.71000 179.201
46.72000 179.351
46.73000 178.099
46.74000 176.972
46.75000 176.358
46.76000 175.912
46.77000 175.553
46.78000 175.609
46.79000 175.718
46.80000 176.212
46.81000 177.934
46.82000 179.748
46.83000 181.004
46.84000 173.951
46.85000 168.423
46.86000 167.020
46.87000 171.715
46.88000 176.464
46.89000 176.230
46.90000 171.170
46.91000 166.147
46.92000 163.225
46.93000 161.670
46.94000 160.218
46.95000 161.350
46.96000 163.604
46.97000 165.894
46.98000 168.614
46.99000 171.462
47.00000 174.012
47.01000 173.600
47.02000 172.732
47.03000 171.206
47.04000 166.659
47.05000 161.737
47.06000 158.667
47.07000 161.313
47.08000 164.364
47.09000 166.453
47.10000 166.867
47.11000 167.137
47.12000 166.807
47.13000 165.625
47.14000 164.436
47.15000 163.089
47.16000 161.595
47.17000 160.114
47.18000 159.349
47.19000 159.033
47.20000 158.756
47.21000 159.400
47.22000 160.430
47.23000 161.334
47.24000 160.788
47.25000 159.829
47.26000 158.975
47.27000 164.791
47.28000 170.943
47.29000 174.753
47.30000 168.200
47.31000 160.415
47.32000 155.152
47.33000 157.401
47.34000 160.150
47.35000 162.009
47.36000 165.203
47.37000 167.612
47.38000 167.492
47.39000 163.899
47.40000 160.286
47.41000 157.488
47.42000 155.419
47.43000 153.369
47.44000 154.681
47.45000 157.919
47.46000 160.979
47.47000 160.200
47.48000 157.868
47.49000 155.668
47.50000 154.919
47.51000 154.569
47.52000 154.259
47.53000 164.551
47.54000 175.126
47.55000 182.634
47.56000 177.076
47.57000 170.036
47.58000 163.816
47.59000 159.949
47.60000 156.229
47.61000 153.744
47.62000 160.525
47.63000 165.732
47.64000 167.348
47.65000 164.215
47.66000 161.064
47.67000 160.766
47.68000 162.918
47.69000 165.046
47.70000 163.799
47.71000 160.694
47.72000 157.811
47.73000 159.343
47.74000 162.601
47.75000 165.602
47.76000 165.923
47.77000 165.535
47.78000 165.192
47.79000 162.244
47.80000 159.311
47.81000 156.432
47.82000 153.775
47.83000 151.142
47.84000 149.312
47.85000 149.712
47.86000 150.243
47.87000 150.593
47.88000 156.666
47.89000 161.244
47.90000 163.099
47.91000 161.488
47.92000 159.863
47.93000 157.198
47.94000 153.674
47.95000 150.196
47.96000 149.636
47.97000 150.661
47.98000 151.759
47.99000 154.234
48.00000 157.226
48.01000 160.043
48.02000 161.112
48.03000 161.734
48.04000 162.279
48.05000 159.066
48.06000 155.769
48.07000 152.464
48.08000 149.126
48.09000 145.784
48.10000 144.579
48.11000 149.102
48.12000 153.938
48.13000 157.088
48.14000 157.775
48.15000 158.240
48.16000 161.009
48.17000 166.600
48.18000 172.174
48.19000 170.035
48.20000 161.764
48.21000 153.615
48.22000 152.398
48.23000 154.807
48.24000 156.967
48.25000 154.782
48.26000 151.013
48.27000 148.127
48.28000 153.545
48.29000 161.008
48.30000 167.507
48.31000 165.915
48.32000 163.444
48.33000 160.732
48.34000 157.105
48.35000 153.389
48.36000 151.133
48.37000 152.658
48.38000 154.376
48.39000 155.480
48.40000 156.062
48.41000 156.479
48.42000 157.798
48.43000 160.182
48.44000 162.553
48.45000 161.439
48.46000 157.658
48.47000 153.939
48.48000 156.385
48.49000 161.824
48.50000 166.812
48.51000 164.430
48.52000 159.456
48.53000 155.355
48.54000 159.084
48.55000 164.672
48.56000 169.508
48.57000 165.169
48.58000 160.276
48.59000 155.837
48.60000 153.073
48.61000 150.463
48.62000 148.002
48.63000 145.911
48.64000 143.837
48.65000 142.523
48.66000 152.396
48.67000 159.695
48.68000 161.395
48.69000 156.749
48.70000 152.106
48.71000 149.066
48.72000 147.210
48.73000 145.387
48.74000 148.488
48.75000 153.841
48.76000 158.700
48.77000 155.981
48.78000 150.689
48.79000 145.979
48.80000 146.241
48.81000 147.641
48.82000 148.844
48.83000 154.898
48.84000 160.629
48.85000 164.452
48.86000 161.503
48.87000 157.958
48.88000 155.013
48.89000 153.513
48.90000 152.077
48.91000 151.180
48.92000 158.479
48.93000 163.832
48.94000 166.227
48.95000 165.398
48.96000 164.562
48.97000 162.940
48.98000 160.760
48.99000 158.624
49.00000 155.729
49.01000 152.594
49.02000 149.829
49.03000 152.409
49.04000 156.741
49.05000 160.350
49.06000 158.057
49.07000 154.464
49.08000 151.394
49.09000 153.843
49.10000 156.566
49.11000 158.552
49.12000 158.015
49.13000 157.267
49.14000 156.415
49.15000 155.319
49.16000 154.212
49.17000 153.531
49.18000 154.723
49.19000 155.595
49.20000 154.737
49.21000 152.066
49.22000 149.426
49.23000 150.517
49.24000 154.161
49.25000 157.722
49.26000 155.653
49.27000 151.168
49.28000 147.172
49.29000 149.842
49.30000 154.621
49.31000 158.673
49.32000 157.052
49.33000 154.228
49.34000 151.831
49.35000 153.230
49.36000 154.836
49.37000 155.013
49.38000 150.469
49.39000 145.552
49.40000 144.145
49.41000 150.641
49.42000 157.435
49.43000 161.559
49.44000 160.120
49.45000 159.051
49.46000 156.939
49.47000 153.780
49.48000 150.639
49.49000 149.231
49.50000 148.969
49.51000 148.712
49.52000 147.915
49.53000 146.922
49.54000 145.860
49.55000 143.911
49.56000 141.692
49.57000 139.992
49.58000 142.156
49.59000 145.108
49.60000 147.597
49.61000 150.158
49.62000 152.304
49.63000 153.181
49.64000 150.014
49.65000 146.544
49.66000 144.554
49.67000 145.780
49.68000 147.117
49.69000 147.917
49.70000 149.516
49.71000 150.656
49.72000 150.108
49.73000 147.932
49.74000 145.766
49.75000 144.496
49.76000 143.796
49.77000 143.115
49.78000 143.447
49.79000 144.181
49.80000 144.985
49.81000 146.638
49.82000 148.541
49.83000 149.993
49.84000 148.226
49.85000 145.828
49.86000 143.820
49.87000 146.822
49.88000 149.834
49.89000 152.491
49.90000 154.058
49.91000 155.549
49.92000 155.860
49.93000 153.694
49.94000 151.449
49.95000 150.128
49.96000 156.555
49.97000 161.127
49.98000 159.367
49.99000 151.739
50.00000 144.183
50.01000 141.683
50.02000 142.286
50.03000 142.872
50.04000 142.657
50.05000 142.135
50.06000 142.114
50.07000 147.846
50.08000 155.213
50.09000 161.231
50.10000 158.030
50.11000 153.091
50.12000 148.984
50.13000 149.710
50.14000 150.784
50.15000 150.415
50.16000 145.762
50.17000 140.824
50.18000 140.248
50.19000 148.511
50.20000 157.030
50.21000 161.964
50.22000 153.898
50.23000 148.189
50.24000 145.223
50.25000 144.699
50.26000 144.206
50.27000 145.667
50.28000 148.285
50.29000 150.817
50.30000 152.806
50.31000 154.478
50.32000 155.871
50.33000 154.234
50.34000 151.765
50.35000 150.178
50.36000 154.353
50.37000 159.573
50.38000 163.881
50.39000 163.041
50.40000 161.870
50.41000 161.890
50.42000 165.325
50.43000 168.972
50.44000 169.259
50.45000 162.969
50.46000 156.507
50.47000 152.825
50.48000 154.902
50.49000 156.367
50.50000 157.187
50.51000 157.455
50.52000 157.712
50.53000 157.404
50.54000 156.774
50.55000 156.166
50.56000 157.202
50.57000 158.779
50.58000 160.126
50.59000 159.084
50.60000 157.410
50.61000 155.817
50.62000 154.732
50.63000 153.736
50.64000 152.919
50.65000 159.170
50.66000 164.918
50.67000 168.179
50.68000 164.551
50.69000 160.522
50.70000 160.193
50.71000 166.853
50.72000 173.679
50.73000 177.502
50.74000 171.786
50.75000 167.801
50.76000 163.365
50.77000 158.559
50.78000 153.850
50.79000 153.812
50.80000 156.351
50.81000 158.794
50.82000 157.209
50.83000 154.302
50.84000 151.640
50.85000 151.392
50.86000 151.759
50.87000 152.045
50.88000 151.837
50.89000 151.546
50.90000 151.310
50.91000 154.980
50.92000 158.302
50.93000 160.245
50.94000 158.505
50.95000 156.564
50.96000 153.445
50.97000 148.177
50.98000 142.863
50.99000 139.939
51.00000 145.885
51.01000 149.993
51.02000 153.441
51.03000 156.364
51.04000 159.161
51.05000 156.543
51.06000 151.042
51.07000 145.764
51.08000 142.746
51.09000 140.692
51.10000 139.169
51.11000 142.614
51.12000 147.281
51.13000 151.079
51.14000 149.857
51.15000 147.830
51.16000 146.195
51.17000 143.917
51.18000 142.015
51.19000 140.850
51.20000 141.586
51.21000 142.419
51.22000 143.679
51.23000 145.692
51.24000 147.719
51.25000 148.816
51.26000 148.872
51.27000 148.906
51.28000 148.318
51.29000 147.254
51.30000 146.178
51.31000 144.640
51.32000 142.865
51.33000 141.166
51.34000 140.882
51.35000 141.080
51.36000 141.101
51.37000 139.547
51.38000 137.621
51.39000 135.750
51.40000 134.182
51.41000 132.660
51.42000 131.443
51.43000 138.383
51.44000 144.604
51.45000 148.551
51.46000 146.826
51.47000 144.833
51.48000 142.237
51.49000 138.618
51.50000 134.982
51.51000 133.052
51.52000 135.598
51.53000 137.324
51.54000 137.552
51.55000 136.679
51.56000 135.877
51.57000 137.553
51.58000 140.459
51.59000 143.229
51.60000 142.837
51.61000 141.481
51.62000 140.414
51.63000 141.815
51.64000 143.779
51.65000 145.196
51.66000 143.698
51.67000 141.771
51.68000 140.241
51.69000 138.647
51.70000 137.360
51.71000 137.175
51.72000 139.645
51.73000 142.232
51.74000 141.780
51.75000 136.349
51.76000 130.846
51.77000 127.980
51.78000 130.826
51.79000 132.740
51.80000 133.220
51.81000 132.683
51.82000 132.205
51.83000 133.579
51.84000 135.841
51.85000 137.990
51.86000 141.021
51.87000 144.087
51.88000 146.679
51.89000 145.417
51.90000 143.308
51.91000 141.409
51.92000 140.578
51.93000 139.899
51.94000 139.364
51.95000 143.514
51.96000 147.150
51.97000 148.322
51.98000 143.767
51.99000 138.979
52.00000 137.485
52.01000 141.199
52.02000 144.978
52.03000 146.907
52.04000 140.718
52.05000 136.585
52.06000 135.095
52.07000 135.410
52.08000 135.822
52.09000 139.087
52.10000 143.671
52.11000 148.012
52.12000 145.764
52.13000 141.783
52.14000 138.330
52.15000 138.972
52.16000 140.480
52.17000 141.595
52.18000 140.774
52.19000 139.692
52.20000 138.848
52.21000 137.070
52.22000 135.594
52.23000 135.081
52.24000 136.728
52.25000 138.457
52.26000 139.410
52.27000 139.182
52.28000 138.941
52.29000 138.821
52.30000 139.002
52.31000 139.116
52.32000 138.559
52.33000 137.561
52.34000 136.529
52.35000 134.582
52.36000 132.226
52.37000 130.003
52.38000 136.112
52.39000 144.036
52.40000 150.283
52.41000 144.066
52.42000 135.315
52.43000 128.318
52.44000 129.651
52.45000 132.059
52.46000 133.921
52.47000 137.929
52.48000 141.236
52.49000 143.096
52.50000 141.820
52.51000 140.435
52.52000 138.835
52.53000 136.919
52.54000 134.999
52.55000 137.054
52.56000 142.931
52.57000 148.728
52.58000 148.074
52.59000 143.326
52.60000 138.835
52.61000 140.702
52.62000 145.310
52.63000 149.641
52.64000 146.086
52.65000 140.726
52.66000 136.118
52.67000 136.856
52.68000 138.641
52.69000 139.504
52.70000 136.160
52.71000 132.297
52.72000 129.336
52.73000 131.279
52.74000 133.085
52.75000 134.547
52.76000 135.292
52.77000 136.014
52.78000 136.400
52.79000 136.310
52.80000 136.216
52.81000 137.658
52.82000 140.517
52.83000 143.345
52.84000 143.937
52.85000 143.162
52.86000 142.314
52.87000 139.822
52.88000 136.645
52.89000 133.670
52.90000 134.778
52.91000 136.837
52.92000 138.218
52.93000 134.983
52.94000 130.880
52.95000 128.007
52.96000 130.545
52.97000 133.720
52.98000 136.132
52.99000 138.180
53.00000 139.771
53.01000 141.164
53.02000 142.160
53.03000 143.144
53.04000 142.533
53.05000 139.746
53.06000 136.947
53.07000 136.007
53.08000 136.715
53.09000 137.423
53.10000 138.126
53.11000 138.826
53.12000 139.546
53.13000 140.695
53.14000 142.017
53.15000 143.250
53.16000 144.839
53.17000 146.367
53.18000 147.923
53.19000 149.667
53.20000 151.445
53.21000 153.344
53.22000 155.761
53.23000 158.236
53.24000 160.097
53.25000 157.695
53.26000 155.610
53.27000 153.674
53.28000 152.031
53.29000 150.395
53.30000 150.276
53.31000 152.150
53.32000 154.031
53.33000 150.918
53.34000 143.558
53.35000 136.386
53.36000 139.303
53.37000 147.968
53.38000 156.248
53.39000 156.919
53.40000 154.635
53.41000 152.513
53.42000 154.771
53.43000 157.849
53.44000 160.274
53.45000 158.618
53.46000 156.255
53.47000 153.928
53.48000 151.755
53.49000 149.598
53.50000 147.991
53.51000 152.848
53.52000 156.921
53.53000 157.358
53.54000 150.948
53.55000 144.378
53.56000 138.433
53.57000 133.278
53.58000 128.133
53.59000 129.849
53.60000 137.175
53.61000 144.420
53.62000 147.844
53.63000 149.166
53.64000 150.381
53.65000 149.595
53.66000 148.059
53.67000 146.639
53.68000 141.781
53.69000 136.633
53.70000 133.050
53.71000 138.856
53.72000 146.226
53.73000 152.483
53.74000 154.358
53.75000 155.787
53.76000 156.841
53.77000 148.061
53.78000 140.847
53.79000 136.613
53.80000 137.796
53.81000 139.093
53.82000 139.758
53.83000 139.652
53.84000 139.545
53.85000 138.823
53.86000 137.622
53.87000 136.430
53.88000 135.660
53.89000 135.114
53.90000 134.704
53.91000 136.660
53.92000 139.472
53.93000 142.062
53.94000 142.002
53.95000 141.369
53.96000 140.534
53.97000 138.539
53.98000 136.360
53.99000 135.290
54.00000 138.428
54.01000 141.974
54.02000 144.562
54.03000 139.009
54.04000 134.411
54.05000 132.671
54.06000 135.946
54.07000 139.314
54.08000 139.843
54.09000 137.049
54.10000 134.256
54.11000 132.286
54.12000 130.949
54.13000 129.598
54.14000 127.693
54.15000 125.505
54.16000 123.735
54.17000 128.737
54.18000 136.107
54.19000 142.863
54.20000 146.389
54.21000 148.851
54.22000 149.777
54.23000 142.207
54.24000 133.334
54.25000 127.254
54.26000 131.384
54.27000 136.454
54.28000 140.116
54.29000 134.128
54.30000 129.186
54.31000 127.251
54.32000 130.409
54.33000 133.649
54.34000 136.719
54.35000 139.597
54.36000 142.466
54.37000 142.666
54.38000 140.925
54.39000 139.200
54.40000 138.065
54.41000 137.221
54.42000 136.242
54.43000 133.234
54.44000 129.540
54.45000 126.170
54.46000 132.930
54.47000 140.968
54.48000 146.967
54.49000 142.127
54.50000 135.696
54.51000 130.849
54.52000 131.592
54.53000 132.823
54.54000 133.703
54.55000 132.229
54.56000 131.025
54.57000 130.920
54.58000 132.611
54.59000 134.327
54.60000 133.863
54.61000 131.038
54.62000 128.224
54.63000 129.946
54.64000 134.820
54.65000 139.524
54.66000 138.840
54.67000 135.584
54.68000 132.581
54.69000 133.209
54.70000 135.021
54.71000 136.666
54.72000 133.134
54.73000 129.014
54.74000 126.432
54.75000 131.708
54.76000 138.091
54.77000 142.909
54.78000 142.407
54.79000 141.465
54.80000 140.799
54.81000 142.343
54.82000 143.583
54.83000 144.612
54.84000 145.308
54.85000 145.999
54.86000 145.005
54.87000 142.259
54.88000 139.527
54.89000 136.408
54.90000 133.067
54.91000 129.951
54.92000 133.384
54.93000 139.837
54.94000 145.832
54.95000 145.670
54.96000 143.572
54.97000 141.675
54.98000 138.909
54.99000 136.315
55.00000 134.896
55.01000 139.249
55.02000 144.378
55.03000 148.661
55.04000 150.165
55.05000 151.451
55.06000 152.350
55.07000 148.755
55.08000 145.912
55.09000 143.195
55.10000 140.668
55.11000 138.142
55.12000 138.129
55.13000 140.625
55.14000 143.105
55.15000 144.458
55.16000 145.063
55.17000 145.746
55.18000 148.492
55.19000 152.156
55.20000 155.399
55.21000 153.279
55.22000 149.530
55.23000 146.161
55.24000 148.242
55.25000 151.033
55.26000 153.513
55.27000 154.520
55.28000 155.338
55.29000 155.619
55.30000 154.196
55.31000 152.647
55.32000 151.577
55.33000 149.605
55.34000 148.099
55.35000 148.824
55.36000 152.818
55.37000 156.839
55.38000 158.542
55.39000 158.022
55.40000 157.506
55.41000 161.804
55.42000 169.025
55.43000 176.176
55.44000 181.606
55.45000 186.297
55.46000 190.423
55.47000 187.754
55.48000 183.095
55.49000 178.929
55.50000 182.842
55.51000 187.628
55.52000 192.978
55.53000 200.895
55.54000 209.128
55.55000 216.475
55.56000 221.111
55.57000 225.559
55.58000 228.596
55.59000 232.310
55.60000 235.103
55.61000 239.939
55.62000 247.659
55.63000 255.399
55.64000 264.458
55.65000 274.731
55.66000 284.912
55.67000 294.851
55.68000 304.453
55.69000 314.144
55.70000 325.867
55.71000 338.435
55.72000 350.718
55.73000 359.759
55.74000 367.885
55.75000 375.113
55.76000 387.992
55.77000 400.092
55.78000 413.426
55.79000 432.171
55.80000 451.551
55.81000 469.428
55.82000 482.869
55.83000 496.019
55.84000 504.888
55.85000 505.532
55.86000 505.837
55.87000 513.473
55.88000 531.077
55.89000 548.730
55.90000 557.004
55.91000 556.979
55.92000 556.955
55.93000 560.604
55.94000 566.286
55.95000 571.839
55.96000 574.632
55.97000 576.320
55.98000 577.733
55.99000 576.175
56.00000 573.806
56.01000 571.711
56.02000 565.452
56.03000 559.394
56.04000 551.264
56.05000 534.387
56.06000 516.530
56.07000 500.120
56.08000 487.835
56.09000 475.803
56.10000 467.788
56.11000 449.699
56.12000 436.118
56.13000 421.803
56.14000 406.528
56.15000 391.258
56.16000 381.575
56.17000 376.645
56.18000 371.774
56.19000 364.273
56.20000 355.501
56.21000 346.407
56.22000 330.999
56.23000 313.145
56.24000 296.023
56.25000 286.412
56.26000 278.776
56.27000 272.059
56.28000 264.507
56.29000 257.884
56.30000 250.093
56.31000 237.548
56.32000 224.497
56.33000 213.134
56.34000 206.420
56.35000 199.973
56.36000 195.733
56.37000 195.617
56.38000 195.602
56.39000 190.864
56.40000 180.171
56.41000 169.474
56.42000 165.137
56.43000 166.005
56.44000 166.862
56.45000 165.114
56.46000 162.026
56.47000 159.099
56.48000 159.127
56.49000 160.260
56.50000 161.498
56.51000 163.765
56.52000 166.292
56.53000 168.503
56.54000 166.267
56.55000 163.718
56.56000 160.854
56.57000 156.753
56.58000 152.527
56.59000 148.764
56.60000 146.230
56.61000 143.763
56.62000 142.161
56.63000 143.567
56.64000 144.643
56.65000 143.738
56.66000 140.429
56.67000 137.120
56.68000 135.102
56.69000 134.103
56.70000 133.118
56.71000 134.019
56.72000 135.859
56.73000 137.660
56.74000 138.773
56.75000 139.637
56.76000 140.232
56.77000 138.328
56.78000 135.812
56.79000 133.626
56.80000 132.285
56.81000 131.256
56.82000 130.719
56.83000 132.040
56.84000 133.541
56.85000 135.487
56.86000 138.574
56.87000 141.719
56.88000 143.733
56.89000 138.586
56.90000 134.740
56.91000 132.322
56.92000 131.571
56.93000 130.810
56.94000 127.496
56.95000 122.245
56.96000 117.085
56.97000 116.419
56.98000 117.994
56.99000 119.661
57.00000 122.787
57.01000 126.422
57.02000 129.740
57.03000 130.249
57.04000 130.098
57.05000 129.967
57.06000 123.311
57.07000 116.812
57.08000 113.037
57.09000 119.191
57.10000 126.254
57.11000 131.356
57.12000 131.594
57.13000 131.604
57.14000 131.611
57.15000 128.138
57.16000 125.581
57.17000 123.890
57.18000 123.172
57.19000 122.476
57.20000 125.363
57.21000 130.867
57.22000 136.267
57.23000 137.018
57.24000 135.533
57.25000 133.971
57.26000 131.233
57.27000 128.100
57.28000 124.790
57.29000 119.977
57.30000 114.825
57.31000 110.401
57.32000 112.029
57.33000 114.155
57.34000 116.177
57.35000 117.835
57.36000 119.462
57.37000 121.026
57.38000 122.440
57.39000 123.848
57.40000 124.725
57.41000 126.350
57.42000 127.529
57.43000 129.723
57.44000 133.013
57.45000 136.277
57.46000 136.083
57.47000 133.455
57.48000 130.882
57.49000 124.926
57.50000 117.657
57.51000 111.261
57.52000 117.274
57.53000 127.321
57.54000 135.929
57.55000 132.931
57.56000 127.402
57.57000 122.685
57.58000 127.864
57.59000 133.390
57.60000 136.464
57.61000 131.223
57.62000 125.297
57.63000 122.847
57.64000 128.431
57.65000 134.337
57.66000 137.962
57.67000 133.174
57.68000 129.669
57.69000 125.634
57.70000 121.047
57.71000 116.494
57.72000 115.635
57.73000 117.284
57.74000 118.894
57.75000 122.089
57.76000 125.847
57.77000 129.292
57.78000 128.563
57.79000 126.524
57.80000 124.319
57.81000 120.831
57.82000 117.074
57.83000 113.890
57.84000 116.747
57.85000 119.820
57.86000 123.633
57.87000 129.870
57.88000 136.295
57.89000 139.013
57.90000 133.456
57.91000 127.594
57.92000 124.049
57.93000 124.269
57.94000 124.454
57.95000 124.572
57.96000 124.624
57.97000 124.678
57.98000 124.934
57.99000 125.322
58.00000 125.700
58.01000 127.509
58.02000 129.840
58.03000 131.756
58.04000 128.430
58.05000 123.517
58.06000 119.427
58.07000 121.407
58.08000 124.615
58.09000 127.314
58.10000 124.162
58.11000 120.908
58.12000 117.927
58.13000 115.813
58.14000 113.763
58.15000 114.215
58.16000 120.060
58.17000 126.088
58.18000 129.679
58.19000 130.149
58.20000 130.464
58.21000 129.136
58.22000 126.240
58.23000 123.380
58.24000 123.410
58.25000 125.262
58.26000 127.063
58.27000 123.663
58.28000 118.310
58.29000 113.172
58.30000 110.613
58.31000 108.808
58.32000 107.622
58.33000 110.811
58.34000 114.850
58.35000 118.227
58.36000 119.720
58.37000 120.768
58.38000 121.251
58.39000 120.010
58.40000 118.649
58.41000 118.008
58.42000 118.866
58.43000 119.771
58.44000 120.301
58.45000 119.339
58.46000 118.653
58.47000 117.967
58.48000 117.280
58.49000 116.599
58.50000 116.346
58.51000 116.355
58.52000 116.364
58.53000 118.854
58.54000 122.186
58.55000 125.370
58.56000 126.867
58.57000 127.888
58.58000 128.738
58.59000 128.435
58.60000 127.916
58.61000 127.485
58.62000 125.993
58.63000 124.657
58.64000 123.718
58.65000 123.948
58.66000 124.254
58.67000 123.276
58.68000 119.716
58.69000 116.083
58.70000 113.987
58.71000 119.876
58.72000 124.027
58.73000 123.751
58.74000 119.573
58.75000 115.453
58.76000 114.801
58.77000 116.184
58.78000 117.521
58.79000 118.698
58.80000 119.748
58.81000 120.736
58.82000 121.058
58.83000 121.199
58.84000 120.938
58.85000 118.076
58.86000 114.747
58.87000 112.004
58.88000 112.719
58.89000 113.624
58.90000 114.229
58.91000 113.980
58.92000 113.679
58.93000 112.936
58.94000 111.336
58.95000 109.714
58.96000 108.794
58.97000 121.225
58.98000 129.908
58.99000 131.602
59.00000 127.369
59.01000 123.126
59.02000 118.291
59.03000 113.120
59.04000 108.134
59.05000 111.732
59.06000 118.233
59.07000 124.165
59.08000 124.269
59.09000 122.847
59.10000 121.787
59.11000 122.980
59.12000 124.561
59.13000 125.854
59.14000 119.952
59.15000 114.492
59.16000 111.469
59.17000 115.133
59.18000 119.180
59.19000 121.129
59.20000 119.149
59.21000 117.080
59.22000 115.926
59.23000 115.017
59.24000 114.393
59.25000 115.349
59.26000 117.594
59.27000 119.822
59.28000 121.239
59.29000 122.213
59.30000 123.150
59.31000 122.874
59.32000 122.192
59.33000 121.202
59.34000 117.206
59.35000 112.451
59.36000 108.337
59.37000 108.047
59.38000 108.388
59.39000 108.666
59.40000 109.862
59.41000 110.914
59.42000 111.751
59.43000 112.019
59.44000 112.258
59.45000 112.598
59.46000 113.122
59.47000 113.651
59.48000 113.940
59.49000 119.630
59.50000 123.546
59.51000 125.809
59.52000 126.775
59.53000 127.670
59.54000 125.564
59.55000 121.875
59.56000 118.339
59.57000 117.888
59.58000 118.504
59.59000 118.710
59.60000 115.121
59.61000 110.609
59.62000 107.433
59.63000 111.905
59.64000 117.591
59.65000 122.169
59.66000 119.167
59.67000 116.139
59.68000 113.911
59.69000 113.729
59.70000 113.648
59.71000 113.918
59.72000 114.798
59.73000 115.689
59.74000 116.169
59.75000 117.406
59.76000 118.258
59.77000 120.274
59.78000 123.170
59.79000 125.946
59.80000 124.211
59.81000 120.178
59.82000 116.323
59.83000 114.848
59.84000 114.245
59.85000 114.134
59.86000 118.354
59.87000 123.590
59.88000 126.977
59.89000 120.205
59.90000 111.886
59.91000 105.243
59.92000 106.790
59.93000 108.644
59.94000 110.606
59.95000 112.836
59.96000 115.078
59.97000 117.008
59.98000 118.411
59.99000 119.805
60.00000 120.542
60.01000 117.876
60.02000 116.063
60.03000 114.272
60.04000 112.496
60.05000 110.838
60.06000 113.270
60.07000 117.712
60.08000 121.944
60.09000 120.526
60.10000 117.457
60.11000 114.433
60.12000 111.799
60.13000 109.252
60.14000 107.519
60.15000 110.084
60.16000 113.276
60.17000 115.804
60.18000 119.557
60.19000 122.659
60.20000 124.231
60.21000 122.152
60.22000 119.916
60.23000 118.883
60.24000 119.804
60.25000 120.751
60.26000 121.242
60.27000 119.609
60.28000 118.503
60.29000 116.811
60.30000 114.708
60.31000 112.689
60.32000 113.322
60.33000 115.214
60.34000 117.010
60.35000 118.733
60.36000 120.303
60.37000 121.362
60.38000 118.324
60.39000 114.395
60.40000 111.012
60.41000 110.399
60.42000 110.173
60.43000 109.995
60.44000 112.165
60.45000 114.055
60.46000 116.360
60.47000 119.620
60.48000 122.919
60.49000 123.771
60.50000 120.791
60.51000 117.765
60.52000 116.228
60.53000 115.310
60.54000 114.707
60.55000 115.473
60.56000 117.164
60.57000 118.775
60.58000 118.085
60.59000 116.340
60.60000 114.689
60.61000 116.138
60.62000 118.361
60.63000 120.366
60.64000 120.699
60.65000 120.681
60.66000 120.393
60.67000 118.787
60.68000 117.004
60.69000 115.616
60.70000 117.656
60.71000 119.492
60.72000 119.555
60.73000 115.672
60.74000 111.644
60.75000 109.949
60.76000 111.778
60.77000 113.641
60.78000 114.867
60.79000 115.459
60.80000 116.046
60.81000 116.054
60.82000 115.684
60.83000 115.356
60.84000 116.110
60.85000 117.343
60.86000 118.506
60.87000 118.114
60.88000 117.327
60.89000 116.768
60.90000 117.884
60.91000 119.337
60.92000 120.298
60.93000 118.951
60.94000 117.309
60.95000 116.042
60.96000 121.352
60.97000 125.942
60.98000 127.816
60.99000 123.852
61.00000 119.692
61.01000 116.904
61.02000 116.114
61.03000 115.340
61.04000 117.361
61.05000 122.040
61.06000 126.673
61.07000 127.676
61.08000 126.396
61.09000 125.045
61.10000 121.958
61.11000 118.128
61.12000 114.532
61.13000 117.576
61.14000 122.115
61.15000 126.414
61.16000 129.023
61.17000 131.304
61.18000 133.338
61.19000 134.254
61.20000 135.034
61.21000 135.630
61.22000 129.709
61.23000 124.684
61.24000 121.766
61.25000 123.221
61.26000 124.810
61.27000 125.583
61.28000 125.210
61.29000 124.829
61.30000 124.337
61.31000 123.742
61.32000 123.134
61.33000 121.626
61.34000 119.570
61.35000 117.649
61.36000 118.726
61.37000 121.040
61.38000 123.205
61.39000 123.252
61.40000 122.755
61.41000 122.179
61.42000 121.082
61.43000 119.888
61.44000 119.570
61.45000 123.068
61.46000 127.010
61.47000 129.996
61.48000 135.678
61.49000 140.276
61.50000 143.326
61.51000 143.275
61.52000 143.137
61.53000 151.577
61.54000 171.610
61.55000 191.696
61.56000 205.547
61.57000 213.906
61.58000 222.268
61.59000 230.770
61.60000 239.354
61.61000 248.030
61.62000 258.607
61.63000 269.942
61.64000 280.502
61.65000 283.043
61.66000 283.378
61.67000 284.317
61.68000 289.156
61.69000 294.694
61.70000 299.023
61.71000 298.283
61.72000 296.980
61.73000 296.002
61.74000 288.875
61.75000 283.014
61.76000 274.057
61.77000 259.110
61.78000 244.012
61.79000 227.283
61.80000 208.434
61.81000 189.593
61.82000 175.957
61.83000 166.745
61.84000 157.648
61.85000 154.576
61.86000 154.905
61.87000 154.988
61.88000 150.290
61.89000 143.752
61.90000 137.686
61.91000 133.997
61.92000 131.232
61.93000 128.949
61.94000 129.645
61.95000 130.853
61.96000 131.424
61.97000 129.420
61.98000 127.144
61.99000 125.453
62.00000 125.743
62.01000 126.056
62.02000 126.513
62.03000 127.240
62.04000 127.973
62.05000 126.526
62.06000 122.349
62.07000 118.170
62.08000 118.083
62.09000 121.313
62.10000 124.526
62.11000 126.951
62.12000 128.947
62.13000 130.808
62.14000 130.233
62.15000 128.753
62.16000 127.386
62.17000 130.364
62.18000 134.017
62.19000 137.251
62.20000 138.000
62.21000 138.338
62.22000 137.516
62.23000 132.166
62.24000 126.361
62.25000 122.090
62.26000 122.477
62.27000 122.969
62.28000 123.946
62.29000 125.795
62.30000 127.662
62.31000 129.199
62.32000 130.339
62.33000 131.475
62.34000 129.788
62.35000 125.910
62.36000 122.153
62.37000 123.386
62.38000 127.245
62.39000 130.917
62.40000 131.438
62.41000 130.827
62.42000 130.266
62.43000 131.481
62.44000 132.952
62.45000 134.718
62.46000 138.170
62.47000 141.888
62.48000 143.731
62.49000 138.526
62.50000 132.647
62.51000 128.367
62.52000 130.873
62.53000 133.063
62.54000 132.956
62.55000 128.856
62.56000 124.685
62.57000 124.428
62.58000 128.711
62.59000 132.989
62.60000 132.287
62.61000 127.864
62.62000 123.586
62.63000 124.755
62.64000 128.690
62.65000 132.453
62.66000 133.473
62.67000 133.543
62.68000 133.607
62.69000 125.140
62.70000 115.832
62.71000 108.537
62.72000 112.267
62.73000 117.670
62.74000 122.187
62.75000 123.497
62.76000 124.515
62.77000 125.249
62.78000 128.148
62.79000 130.445
62.80000 131.443
62.81000 130.260
62.82000 129.043
62.83000 128.245
62.84000 127.916
62.85000 127.587
62.86000 127.276
62.87000 126.980
62.88000 126.617
62.89000 123.956
62.90000 120.168
62.91000 116.822
62.92000 120.077
62.93000 125.540
62.94000 130.519
62.95000 132.914
62.96000 134.521
62.97000 135.853
62.98000 135.746
62.99000 135.429
63.00000 134.669
63.01000 132.362
63.02000 129.921
63.03000 128.181
63.04000 129.620
63.05000 130.820
63.06000 130.491
63.07000 127.690
63.08000 124.854
63.09000 123.833
63.10000 124.757
63.11000 125.677
63.12000 126.989
63.13000 128.559
63.14000 130.091
63.15000 130.460
63.16000 130.279
63.17000 130.210
63.18000 131.715
63.19000 133.729
63.20000 135.555
63.21000 131.474
63.22000 126.744
63.23000 123.122
63.24000 125.110
63.25000 127.879
63.26000 130.506
63.27000 132.657
63.28000 134.770
63.29000 136.259
63.30000 135.463
63.31000 134.791
63.32000 134.598
63.33000 135.153
63.34000 135.717
63.35000 135.879
63.36000 135.626
63.37000 135.375
63.38000 133.054
63.39000 129.384
63.40000 125.870
63.41000 126.765
63.42000 129.676
63.43000 132.503
63.44000 134.221
63.45000 135.592
63.46000 136.830
63.47000 136.308
63.48000 135.526
63.49000 134.772
63.50000 134.148
63.51000 133.541
63.52000 132.291
63.53000 128.946
63.54000 125.440
63.55000 122.996
63.56000 123.819
63.57000 124.529
63.58000 124.301
63.59000 122.659
63.60000 121.003
63.61000 123.408
63.62000 129.823
63.63000 136.196
63.64000 135.933
63.65000 131.425
63.66000 127.132
63.67000 128.458
63.68000 132.265
63.69000 135.805
63.70000 135.990
63.71000 135.167
63.72000 134.428
63.73000 136.108
63.74000 138.002
63.75000 139.351
63.76000 138.144
63.77000 136.611
63.78000 135.896
63.79000 137.749
63.80000 139.789
63.81000 141.194
63.82000 142.209
63.83000 142.961
63.84000 143.374
63.85000 143.297
63.86000 143.215
63.87000 142.013
63.88000 139.748
63.89000 137.501
63.90000 135.795
63.91000 134.452
63.92000 133.242
63.93000 135.239
63.94000 138.604
63.95000 141.924
63.96000 144.705
63.97000 147.329
63.98000 149.673
63.99000 149.283
64.00000 148.484
64.01000 147.653
64.02000 146.681
64.03000 145.692
64.04000 145.406
64.05000 147.252
64.06000 149.244
64.07000 150.600
64.08000 143.273
64.09000 137.603
64.10000 134.441
64.11000 134.785
64.12000 135.154
64.13000 136.048
64.14000 137.420
64.15000 138.779
64.16000 138.704
64.17000 137.781
64.18000 136.954
64.19000 138.279
64.20000 140.490
64.21000 142.438
64.22000 141.416
64.23000 139.564
64.24000 137.918
64.25000 138.424
64.26000 139.210
64.27000 140.305
64.28000 142.746
64.29000 145.342
64.30000 148.914
64.31000 155.344
64.32000 161.958
64.33000 166.406
64.34000 159.648
64.35000 154.395
64.36000 151.264
64.37000 150.993
64.38000 150.738
64.39000 152.191
64.40000 155.139
64.41000 158.055
64.42000 156.717
64.43000 152.983
64.44000 149.438
64.45000 149.830
64.46000 151.788
64.47000 153.448
64.48000 151.939
64.49000 149.575
64.50000 147.487
64.51000 149.490
64.52000 151.850
64.53000 153.919
64.54000 154.768
64.55000 155.483
64.56000 157.046
64.57000 161.004
64.58000 165.106
64.59000 167.831
64.60000 164.312
64.61000 161.595
64.62000 160.350
64.63000 161.013
64.64000 161.683
64.65000 161.436
64.66000 160.416
64.67000 159.408
64.68000 157.393
64.69000 154.876
64.70000 152.548
64.71000 153.878
64.72000 156.611
64.73000 159.422
64.74000 163.016
64.75000 166.813
64.76000 170.149
64.77000 168.145
64.78000 165.638
64.79000 164.490
64.80000 168.828
64.81000 173.743
64.82000 176.998
64.83000 175.724
64.84000 174.193
64.85000 173.190
64.86000 171.947
64.87000 171.030
64.88000 172.183
64.89000 175.921
64.90000 179.660
64.91000 180.545
64.92000 179.118
64.93000 177.710
64.94000 178.555
64.95000 180.565
64.96000 182.405
64.97000 181.178
64.98000 178.814
64.99000 177.313
65.00000 184.144
65.01000 193.065
65.02000 200.856
65.03000 197.182
65.04000 192.425
65.05000 187.948
65.06000 184.558
65.07000 181.278
65.08000 180.095
65.09000 184.438
65.10000 189.074
65.11000 192.074
65.12000 195.733
65.13000 198.419
65.14000 199.816
65.15000 199.662
65.16000 199.516
65.17000 202.098
65.18000 206.808
65.19000 211.445
65.20000 210.575
65.21000 206.933
65.22000 203.458
65.23000 202.807
65.24000 203.167
65.25000 204.187
65.26000 211.276
65.27000 219.832
65.28000 227.260
65.29000 232.909
65.30000 237.485
65.31000 241.219
65.32000 241.801
65.33000 242.083
65.34000 241.374
65.35000 238.145
65.36000 234.792
65.37000 232.652
65.38000 245.190
65.39000 254.502
65.40000 259.641
65.41000 259.956
65.42000 260.247
65.43000 257.151
65.44000 251.510
65.45000 245.968
65.46000 253.373
65.47000 266.858
65.48000 279.531
65.49000 279.338
65.50000 274.700
65.51000 271.393
65.52000 279.737
65.53000 290.796
65.54000 300.337
65.55000 312.303
65.56000 322.765
65.57000 332.641
65.58000 340.404
65.59000 347.975
65.60000 356.020
65.61000 365.228
65.62000 374.490
65.63000 380.321
65.64000 421.852
65.65000 452.305
65.66000 489.453
65.67000 534.042
65.68000 578.745
65.69000 640.770
65.70000 715.329
65.71000 788.434
65.72000 885.758
65.73000 990.864
65.74000 1096.697
65.75000 1213.342
65.76000 1333.595
65.77000 1452.314
65.78000 1558.232
65.79000 1661.276
65.80000 1749.609
65.81000 1796.841
65.82000 1831.704
65.83000 1866.627
65.84000 1901.759
65.85000 1936.910
65.86000 1954.049
65.87000 1928.461
65.88000 1901.055
65.89000 1884.047
65.90000 1875.142
65.91000 1868.814
65.92000 1832.496
65.93000 1764.149
65.94000 1695.643
65.95000 1607.841
65.96000 1506.582
65.97000 1407.511
65.98000 1275.986
65.99000 1135.062
66.00000 996.898
66.01000 897.407
66.02000 810.372
66.03000 725.079
66.04000 653.678
66.05000 585.279
66.06000 527.025
66.07000 488.353
66.08000 458.122
66.09000 431.800
66.10000 418.625
66.11000 406.516
66.12000 394.626
66.13000 383.239
66.14000 371.871
66.15000 364.919
66.16000 360.152
66.17000 356.760
66.18000 356.479
66.19000 359.389
66.20000 362.283
66.21000 363.455
66.22000 363.470
66.23000 363.485
66.24000 372.194
66.25000 384.315
66.26000 397.126
66.27000 419.060
66.28000 443.828
66.29000 468.584
66.30000 493.244
66.31000 517.884
66.32000 538.730
66.33000 565.414
66.34000 588.395
66.35000 604.352
66.36000 597.520
66.37000 588.939
66.38000 585.531
66.39000 593.564
66.40000 602.012
66.41000 607.102
66.42000 617.743
66.43000 625.354
66.44000 626.832
66.45000 622.273
66.46000 617.647
66.47000 607.036
66.48000 592.547
66.49000 578.436
66.50000 560.576
66.51000 541.980
66.52000 523.380
66.53000 504.738
66.54000 486.084
66.55000 467.203
66.56000 446.661
66.57000 425.787
66.58000 408.246
66.59000 389.757
66.60000 374.251
66.61000 363.618
66.62000 368.242
66.63000 373.972
66.64000 377.102
66.65000 374.679
66.66000 372.072
66.67000 370.526
66.68000 362.218
66.69000 356.302
66.70000 352.602
66.71000 350.998
66.72000 349.416
66.73000 349.508
66.74000 350.646
66.75000 351.753
66.76000 353.420
66.77000 355.231
66.78000 356.702
66.79000 354.160
66.80000 350.456
66.81000 347.304
66.82000 348.004
66.83000 349.445
66.84000 350.647
66.85000 354.128
66.86000 357.243
66.87000 359.854
66.88000 360.942
66.89000 361.926
66.90000 361.148
66.91000 356.732
66.92000 352.207
66.93000 349.564
66.94000 347.487
66.95000 346.031
66.96000 349.281
66.97000 356.807
66.98000 364.170
66.99000 360.867
67.00000 351.133
67.01000 341.701
67.02000 346.300
67.03000 356.105
67.04000 365.588
67.05000 371.449
67.06000 376.299
67.07000 380.566
67.08000 380.930
67.09000 380.573
67.10000 380.276
67.11000 377.069
67.12000 374.144
67.13000 373.060
67.14000 377.348
67.15000 381.981
67.16000 382.889
67.17000 376.382
67.18000 369.670
67.19000 365.815
67.20000 365.697
67.21000 365.632
67.22000 369.416
67.23000 376.559
67.24000 383.660
67.25000 388.342
67.26000 391.618
67.27000 394.784
67.28000 394.090
67.29000 391.992
67.30000 389.790
67.31000 386.484
67.32000 382.881
67.33000 380.185
67.34000 383.308
67.35000 387.465
67.36000 390.883
67.37000 394.429
67.38000 397.355
67.39000 400.503
67.40000 404.275
67.41000 408.085
67.42000 409.915
67.43000 407.937
67.44000 405.864
67.45000 404.693
67.46000 404.716
67.47000 404.740
67.48000 406.900
67.49000 410.855
67.50000 414.801
67.51000 418.315
67.52000 421.587
67.53000 424.740
67.54000 422.039
67.55000 417.395
67.56000 413.432
67.57000 416.335
67.58000 421.021
67.59000 426.165
67.60000 434.126
67.61000 442.568
67.62000 449.458
67.63000 444.566
67.64000 439.552
67.65000 432.705
67.66000 420.871
67.67000 408.757
67.68000 403.984
67.69000 412.840
67.70000 421.999
67.71000 427.086
67.72000 440.892
67.73000 450.431
67.74000 453.684
67.75000 451.858
67.76000 450.035
67.77000 448.329
67.78000 446.686
67.79000 445.107
67.80000 447.330
67.81000 450.726
67.82000 454.249
67.83000 458.991
67.84000 464.038
67.85000 468.982
67.86000 473.323
67.87000 477.564
67.88000 480.999
67.89000 480.868
67.90000 480.470
67.91000 480.816
67.92000 483.115
67.93000 485.517
67.94000 485.233
67.95000 480.138
67.96000 474.946
67.97000 472.114
67.98000 479.077
67.99000 483.870
68.00000 488.299
68.01000 492.446
68.02000 496.522
68.03000 497.715
68.04000 497.401
68.05000 497.100
68.06000 497.757
68.07000 498.690
68.08000 499.924
68.09000 503.916
68.10000 508.573
68.11000 512.068
68.12000 508.988
68.13000 504.874
68.14000 501.568
68.15000 507.842
68.16000 513.664
68.17000 518.624
68.18000 521.399
68.19000 524.066
68.20000 527.170
68.21000 531.027
68.22000 534.898
68.23000 536.972
68.24000 548.500
68.25000 556.380
68.26000 565.446
68.27000 575.399
68.28000 585.016
68.29000 582.244
68.30000 573.219
68.31000 564.601
68.32000 571.196
68.33000 582.196
68.34000 592.018
68.35000 591.574
68.36000 588.745
68.37000 587.529
68.38000 595.092
68.39000 603.977
68.40000 611.058
68.41000 612.527
68.42000 613.304
68.43000 615.973
68.44000 623.272
68.45000 630.783
68.46000 639.143
68.47000 648.918
68.48000 658.715
68.49000 663.866
68.50000 672.654
68.51000 678.654
68.52000 690.965
68.53000 707.826
68.54000 724.459
68.55000 733.426
68.56000 738.655
68.57000 743.632
68.58000 765.963
68.59000 791.976
68.60000 818.171
68.61000 845.878
68.62000 873.923
68.63000 901.683
68.64000 927.953
68.65000 954.007
68.66000 974.601
68.67000 1035.471
68.68000 1087.108
68.69000 1135.327
68.70000 1175.462
68.71000 1215.256
68.72000 1259.302
68.73000 1310.189
68.74000 1361.168
68.75000 1387.455
68.76000 1427.017
68.77000 1453.720
68.78000 1487.111
68.79000 1525.151
68.80000 1563.278
68.81000 1604.038
68.82000 1646.038
68.83000 1685.875
68.84000 1758.024
68.85000 1834.111
68.86000 1916.386
68.87000 2047.824
68.88000 2189.853
68.89000 2359.853
68.90000 2670.468
68.91000 3000.502
68.92000 3259.146
68.93000 4396.485
68.94000 5362.167
68.95000 6716.231
68.96000 8957.393
68.97000 11233.210
68.98000 13921.344
68.99000 17249.266
69.00000 20584.533
69.01000 22270.459
69.02000 27147.801
69.03000 30405.125
69.04000 33018.043
69.05000 35199.145
69.06000 37351.340
69.07000 38694.582
69.08000 39670.176
69.09000 40592.242
69.10000 41301.211
69.11000 41891.660
69.12000 42487.621
69.13000 43125.410
69.14000 43771.875
69.15000 44420.828
69.16000 45081.840
69.17000 45744.445
69.18000 46259.203
69.19000 45602.746
69.20000 45009.465
69.21000 43799.563
69.22000 41229.594
69.23000 38610.730
69.24000 35949.230
69.25000 33223.941
69.26000 30498.064
69.27000 28253.605
69.28000 26481.533
69.29000 24715.459
69.30000 23477.738
69.31000 22581.383
69.32000 21701.725
69.33000 21251.855
69.34000 20990.615
69.35000 20744.609
69.36000 20334.184
69.37000 19913.773
69.38000 19412.090
69.39000 18320.111
69.40000 17110.393
69.41000 15791.606
69.42000 13965.203
69.43000 12074.699
69.44000 10619.105
69.45000 8706.995
69.46000 7167.252
69.47000 5797.293
69.48000 4788.957
69.49000 3792.537
69.50000 3016.867
69.51000 2559.560
69.52000 2104.862
69.53000 1785.102
69.54000 1592.535
69.55000 1401.007
69.56000 1287.878
69.57000 1223.598
69.58000 1159.678
69.59000 1104.311
69.60000 1052.568
69.61000 1004.027
69.62000 958.090
69.63000 916.921
69.64000 877.680
69.65000 851.841
69.66000 828.573
69.67000 807.342
69.68000 795.244
69.69000 784.246
69.70000 775.857
69.71000 741.785
69.72000 713.569
69.73000 689.616
69.74000 674.434
69.75000 659.515
69.76000 648.652
69.77000 643.426
69.78000 638.238
69.79000 627.374
69.80000 611.385
69.81000 595.534
69.82000 588.638
69.83000 587.124
69.84000 585.454
69.85000 580.340
69.86000 573.815
69.87000 567.719
69.88000 555.303
69.89000 542.440
69.90000 530.600
69.91000 525.565
69.92000 521.784
69.93000 518.617
69.94000 518.098
69.95000 517.884
69.96000 517.722
69.97000 511.386
69.98000 506.109
69.99000 498.983
70.00000 488.185
