20.00000 476.575
20.01000 472.717
20.02000 468.308
20.03000 465.813
20.04000 470.844
20.05000 476.643
20.06000 480.921
20.07000 484.026
20.08000 486.382
20.09000 483.826
20.10000 472.339
20.11000 460.665
20.12000 455.695
20.13000 458.888
20.14000 462.095
20.15000 466.068
20.16000 470.626
20.17000 474.973
20.18000 470.337
20.19000 460.933
20.20000 452.018
20.21000 451.525
20.22000 454.084
20.23000 456.440
20.24000 466.838
20.25000 477.901
20.26000 485.703
20.27000 474.722
20.28000 460.739
20.29000 450.726
20.30000 455.776
20.31000 462.285
20.32000 467.037
20.33000 463.035
20.34000 459.608
20.35000 458.046
20.36000 459.755
20.37000 461.525
20.38000 462.560
20.39000 462.735
20.40000 462.908
20.41000 464.184
20.42000 466.285
20.43000 468.366
20.44000 469.656
20.45000 470.540
20.46000 471.162
20.47000 467.556
20.48000 462.470
20.49000 457.808
20.50000 454.862
20.51000 452.599
20.52000 450.722
20.53000 450.984
20.54000 451.574
20.55000 452.912
20.56000 456.982
20.57000 461.305
20.58000 464.427
20.59000 461.288
20.60000 458.654
20.61000 458.511
20.62000 462.586
20.63000 466.731
20.64000 466.112
20.65000 460.128
20.66000 454.160
20.67000 456.330
20.68000 464.398
20.69000 472.379
20.70000 477.306
20.71000 480.724
20.72000 483.685
20.73000 479.728
20.74000 473.434
20.75000 467.691
20.76000 464.727
20.77000 462.658
20.78000 461.347
20.79000 464.068
20.80000 467.380
20.81000 469.219
20.82000 465.859
20.83000 462.045
20.84000 459.319
20.85000 459.134
20.86000 459.078
20.87000 459.968
20.88000 462.406
20.89000 464.867
20.90000 468.210
20.91000 472.509
20.92000 476.790
20.93000 477.686
20.94000 476.206
20.95000 474.414
20.96000 462.740
20.97000 446.344
20.98000 431.460
20.99000 438.171
21.00000 451.921
21.01000 464.407
21.02000 464.273
21.03000 461.715
21.04000 458.966
21.05000 455.242
21.06000 451.380
21.07000 449.267
21.08000 453.104
21.09000 457.434
21.10000 460.495
21.11000 455.071
21.12000 450.692
21.13000 449.160
21.14000 452.115
21.15000 455.126
21.16000 458.591
21.17000 462.530
21.18000 466.448
21.19000 465.689
21.20000 461.794
21.21000 457.993
21.22000 456.913
21.23000 457.088
21.24000 457.027
21.25000 453.787
21.26000 449.546
21.27000 445.714
21.28000 448.670
21.29000 452.528
21.30000 456.439
21.31000 460.614
21.32000 464.824
21.33000 467.919
21.34000 467.350
21.35000 466.494
21.36000 465.896
21.37000 472.121
21.38000 477.017
21.39000 477.411
21.40000 470.966
21.41000 464.449
21.42000 460.042
21.43000 457.740
21.44000 455.453
21.45000 453.907
21.46000 452.863
21.47000 452.011
21.48000 456.299
21.49000 462.876
21.50000 468.754
21.51000 465.733
21.52000 460.010
21.53000 454.865
21.54000 453.082
21.55000 452.118
21.56000 451.198
21.57000 450.491
21.58000 449.810
21.59000 449.944
21.60000 452.658
21.61000 455.563
21.62000 457.569
21.63000 469.970
21.64000 479.559
21.65000 480.069
21.66000 467.279
21.67000 454.374
21.68000 449.099
21.69000 451.135
21.70000 453.156
21.71000 457.169
21.72000 462.353
21.73000 467.358
21.74000 467.965
21.75000 466.679
21.76000 465.685
21.77000 468.208
21.78000 471.762
21.79000 474.940
21.80000 475.983
21.81000 476.530
21.82000 477.282
21.83000 478.970
21.84000 480.773
21.85000 483.010
21.86000 486.575
21.87000 490.232
21.88000 492.729
21.89000 496.552
21.90000 499.442
21.91000 505.499
21.92000 516.025
21.93000 526.583
21.94000 534.187
21.95000 539.074
21.96000 543.917
21.97000 547.729
21.98000 550.851
21.99000 553.924
22.00000 555.868
22.01000 557.344
22.02000 558.452
22.03000 555.362
22.04000 551.086
22.05000 547.283
22.06000 559.280
22.07000 572.266
22.08000 580.787
22.09000 569.727
22.10000 556.369
22.11000 546.679
22.12000 547.820
22.13000 549.671
22.14000 550.920
22.15000 548.621
22.16000 546.835
22.17000 546.291
22.18000 547.435
22.19000 548.582
22.20000 542.929
22.21000 531.259
22.22000 519.709
22.23000 518.933
22.24000 524.380
22.25000 529.558
22.26000 529.063
22.27000 526.292
22.28000 523.053
22.29000 514.741
22.30000 505.047
22.31000 496.471
22.32000 492.424
22.33000 489.632
22.34000 486.962
22.35000 484.809
22.36000 482.714
22.37000 480.031
22.38000 475.671
22.39000 471.207
22.40000 468.233
22.41000 480.087
22.42000 489.144
22.43000 489.290
22.44000 477.762
22.45000 466.188
22.46000 458.025
22.47000 452.764
22.48000 447.566
22.49000 444.423
22.50000 442.498
22.51000 440.786
22.52000 443.269
22.53000 447.378
22.54000 451.226
22.55000 452.394
22.56000 452.857
22.57000 453.265
22.58000 452.807
22.59000 452.284
22.60000 451.627
22.61000 450.428
22.62000 449.170
22.63000 444.614
22.64000 430.978
22.65000 416.818
22.66000 407.504
22.67000 414.587
22.68000 420.082
22.69000 425.434
22.70000 430.606
22.71000 435.760
22.72000 433.763
22.73000 425.915
22.74000 418.171
22.75000 414.679
22.76000 413.549
22.77000 412.896
22.78000 421.000
22.79000 432.379
22.80000 442.947
22.81000 445.594
22.82000 446.235
22.83000 446.795
22.84000 444.164
22.85000 441.456
22.86000 439.076
22.87000 437.984
22.88000 437.023
22.89000 437.832
22.90000 443.346
22.91000 449.114
22.92000 452.859
22.93000 453.609
22.94000 454.113
22.95000 453.810
22.96000 452.528
22.97000 451.226
22.98000 444.810
22.99000 434.365
23.00000 424.080
23.01000 423.104
23.02000 426.936
23.03000 430.601
23.04000 431.420
23.05000 431.209
23.06000 431.408
23.07000 435.410
23.08000 440.341
23.09000 444.628
23.10000 439.518
23.11000 433.882
23.12000 430.133
23.13000 433.520
23.14000 437.596
23.15000 439.023
23.16000 433.652
23.17000 427.938
23.18000 424.279
23.19000 426.876
23.20000 428.851
23.21000 429.083
23.22000 427.279
23.23000 425.476
23.24000 424.709
23.25000 424.727
23.26000 424.745
23.27000 421.432
23.28000 416.584
23.29000 412.175
23.30000 414.813
23.31000 419.909
23.32000 424.914
23.33000 429.112
23.34000 433.121
23.35000 436.584
23.36000 429.973
23.37000 423.051
23.38000 417.428
23.39000 416.540
23.40000 416.087
23.41000 417.981
23.42000 425.694
23.43000 433.680
23.44000 438.725
23.45000 433.558
23.46000 429.694
23.47000 431.435
23.48000 439.471
23.49000 447.465
23.50000 447.664
23.51000 442.168
23.52000 436.777
23.53000 432.497
23.54000 428.900
23.55000 425.380
23.56000 423.001
23.57000 421.006
23.58000 419.882
23.59000 426.113
23.60000 434.010
23.61000 440.792
23.62000 442.003
23.63000 442.338
23.64000 442.094
23.65000 439.812
23.66000 437.354
23.67000 434.314
23.68000 429.883
23.69000 425.392
23.70000 422.594
23.71000 431.953
23.72000 438.820
23.73000 444.214
23.74000 448.020
23.75000 451.819
23.76000 454.841
23.77000 457.316
23.78000 459.738
23.79000 454.902
23.80000 446.937
23.81000 439.883
23.82000 445.779
23.83000 455.883
23.84000 464.494
23.85000 461.051
23.86000 454.977
23.87000 449.796
23.88000 453.379
23.89000 457.429
23.90000 461.439
23.91000 465.318
23.92000 469.186
23.93000 473.517
23.94000 478.918
23.95000 484.362
23.96000 487.704
23.97000 475.110
23.98000 465.946
23.99000 460.028
24.00000 457.472
24.01000 454.972
24.02000 458.687
24.03000 466.617
24.04000 474.364
24.05000 474.480
24.06000 471.232
24.07000 468.029
24.08000 465.423
24.09000 463.005
24.10000 461.406
24.11000 466.123
24.12000 472.167
24.13000 477.290
24.14000 461.599
24.15000 446.112
24.16000 435.229
24.17000 439.422
24.18000 444.788
24.19000 447.335
24.20000 443.590
24.21000 439.611
24.22000 437.205
24.23000 433.747
24.24000 431.274
24.25000 429.534
24.26000 428.522
24.27000 427.527
24.28000 428.135
24.29000 429.792
24.30000 431.406
24.31000 425.516
24.32000 416.716
24.33000 408.726
24.34000 410.997
24.35000 416.374
24.36000 421.244
24.37000 422.373
24.38000 422.746
24.39000 423.060
24.40000 422.082
24.41000 421.129
24.42000 420.883
24.43000 422.876
24.44000 425.034
24.45000 425.118
24.46000 420.733
24.47000 416.196
24.48000 413.494
24.49000 420.772
24.50000 425.989
24.51000 425.924
24.52000 420.815
24.53000 415.706
24.54000 410.601
24.55000 405.500
24.56000 400.541
24.57000 400.780
24.58000 403.127
24.59000 404.945
24.60000 400.425
24.61000 394.053
24.62000 388.568
24.63000 389.339
24.64000 391.326
24.65000 392.987
24.66000 387.742
24.67000 382.684
24.68000 380.716
24.69000 388.173
24.70000 396.283
24.71000 402.648
24.72000 405.381
24.73000 408.001
24.74000 409.538
24.75000 405.407
24.76000 402.469
24.77000 398.647
24.78000 394.013
24.79000 389.501
24.80000 393.318
24.81000 402.203
24.82000 410.819
24.83000 414.025
24.84000 414.940
24.85000 415.570
24.86000 412.958
24.87000 409.432
24.88000 406.121
24.89000 404.259
24.90000 402.667
24.91000 401.346
24.92000 394.855
24.93000 388.990
24.94000 387.812
24.95000 400.433
24.96000 413.954
24.97000 419.736
24.98000 409.965
24.99000 399.756
25.00000 393.866
25.01000 392.424
25.02000 391.432
25.03000 391.807
25.04000 393.387
25.05000 394.958
25.06000 395.975
25.07000 396.666
25.08000 397.335
25.09000 392.892
25.10000 386.768
25.11000 381.499
25.12000 385.443
25.13000 391.890
25.14000 397.739
25.15000 399.722
25.16000 401.010
25.17000 402.072
25.18000 402.729
25.19000 403.232
25.20000 402.584
25.21000 398.663
25.22000 394.541
25.23000 393.506
25.24000 398.462
25.25000 403.571
25.26000 406.470
25.27000 403.238
25.28000 400.965
25.29000 395.511
25.30000 387.359
25.31000 379.382
25.32000 380.635
25.33000 387.116
25.34000 393.366
25.35000 397.725
25.36000 401.139
25.37000 403.673
25.38000 397.202
25.39000 388.371
25.40000 380.736
25.41000 380.527
25.42000 381.599
25.43000 382.476
25.44000 386.953
25.45000 390.932
25.46000 393.285
25.47000 391.173
25.48000 388.806
25.49000 387.663
25.50000 388.813
25.51000 390.016
25.52000 390.687
25.53000 390.719
25.54000 390.758
25.55000 397.832
25.56000 410.645
25.57000 423.093
25.58000 418.432
25.59000 404.418
25.60000 390.943
25.61000 389.866
25.62000 393.190
25.63000 395.586
25.64000 388.952
25.65000 380.038
25.66000 373.922
25.67000 384.482
25.68000 397.802
25.69000 408.612
25.70000 396.008
25.71000 383.804
25.72000 376.999
25.73000 384.506
25.74000 392.781
25.75000 395.892
25.76000 389.671
25.77000 383.258
25.78000 379.744
25.79000 371.916
25.80000 366.549
25.81000 367.741
25.82000 374.085
25.83000 380.353
25.84000 383.441
25.85000 384.850
25.86000 386.201
25.87000 392.166
25.88000 399.287
25.89000 405.120
25.90000 399.025
25.91000 390.026
25.92000 381.603
25.93000 376.474
25.94000 371.868
25.95000 368.159
25.96000 366.482
25.97000 365.280
25.98000 366.350
25.99000 373.236
26.00000 380.413
26.01000 384.639
26.02000 383.717
26.03000 382.701
26.04000 382.154
26.05000 379.496
26.06000 377.686
26.07000 377.797
26.08000 379.359
26.09000 380.961
26.10000 384.057
26.11000 387.914
26.12000 391.600
26.13000 391.119
26.14000 389.323
26.15000 387.704
26.16000 387.638
26.17000 387.937
26.18000 388.363
26.19000 389.492
26.20000 390.727
26.21000 391.714
26.22000 390.762
26.23000 389.851
26.24000 389.667
26.25000 391.279
26.26000 392.974
26.27000 390.540
26.28000 381.152
26.29000 371.653
26.30000 366.635
26.31000 370.471
26.32000 373.057
26.33000 371.829
26.34000 367.823
26.35000 363.982
26.36000 365.789
26.37000 370.374
26.38000 374.741
26.39000 375.953
26.40000 376.096
26.41000 375.823
26.42000 372.057
26.43000 367.503
26.44000 364.363
26.45000 368.693
26.46000 374.113
26.47000 378.406
26.48000 375.830
26.49000 373.282
26.50000 371.048
26.51000 369.565
26.52000 368.113
26.53000 367.727
26.54000 369.071
26.55000 370.439
26.56000 371.148
26.57000 368.922
26.58000 367.430
26.59000 367.207
26.60000 367.875
26.61000 368.549
26.62000 369.382
26.63000 370.290
26.64000 371.152
26.65000 373.047
26.66000 375.105
26.67000 376.673
26.68000 374.305
26.69000 371.080
26.70000 369.313
26.71000 374.954
26.72000 381.629
26.73000 386.871
26.74000 382.482
26.75000 378.339
26.76000 375.894
26.77000 377.363
26.78000 378.988
26.79000 378.349
26.80000 374.164
26.81000 369.936
26.82000 367.788
26.83000 373.424
26.84000 377.179
26.85000 378.535
26.86000 378.269
26.87000 378.023
26.88000 378.375
26.89000 379.002
26.90000 379.594
26.91000 376.520
26.92000 372.640
26.93000 369.412
26.94000 371.197
26.95000 374.033
26.96000 375.921
26.97000 373.184
26.98000 369.828
26.99000 367.216
27.00000 370.572
27.01000 373.612
27.02000 374.287
27.03000 369.694
27.04000 364.908
27.05000 363.167
27.06000 366.024
27.07000 368.929
27.08000 368.435
27.09000 364.574
27.10000 360.775
27.11000 362.757
27.12000 368.510
27.13000 373.819
27.14000 367.453
27.15000 355.917
27.16000 345.044
27.17000 348.430
27.18000 355.470
27.19000 362.145
27.20000 366.134
27.21000 369.581
27.22000 371.846
27.23000 368.555
27.24000 364.553
27.25000 361.464
27.26000 368.731
27.27000 375.091
27.28000 375.586
27.29000 363.478
27.30000 350.945
27.31000 350.215
27.32000 366.671
27.33000 383.270
27.34000 390.884
27.35000 389.947
27.36000 388.947
27.37000 383.102
27.38000 374.211
27.39000 365.757
27.40000 367.902
27.41000 374.580
27.42000 380.851
27.43000 379.053
27.44000 375.270
27.45000 371.430
27.46000 367.189
27.47000 362.870
27.48000 359.711
27.49000 361.798
27.50000 364.526
27.51000 366.612
27.52000 367.661
27.53000 368.432
27.54000 368.051
27.55000 365.278
27.56000 362.432
27.57000 360.874
27.58000 361.123
27.59000 361.385
27.60000 362.120
27.61000 363.286
27.62000 364.398
27.63000 361.935
27.64000 357.302
27.65000 353.158
27.66000 360.012
27.67000 371.407
27.68000 382.066
27.69000 383.234
27.70000 381.874
27.71000 380.464
27.72000 378.720
27.73000 376.914
27.74000 374.492
27.75000 369.391
27.76000 363.977
27.77000 359.876
27.78000 361.473
27.79000 363.016
27.80000 362.490
27.81000 357.815
27.82000 353.024
27.83000 352.889
27.84000 359.047
27.85000 365.236
27.86000 368.769
27.87000 369.965
27.88000 371.166
27.89000 372.649
27.90000 374.298
27.91000 375.963
27.92000 377.969
27.93000 380.110
27.94000 382.106
27.95000 378.995
27.96000 374.929
27.97000 370.682
27.98000 365.266
27.99000 359.642
28.00000 355.029
28.01000 354.663
28.02000 354.768
28.03000 354.848
28.04000 356.073
28.05000 357.085
28.06000 356.587
28.07000 353.168
28.08000 349.676
28.09000 350.866
28.10000 358.152
28.11000 365.457
28.12000 362.806
28.13000 351.766
28.14000 341.001
28.15000 344.529
28.16000 356.130
28.17000 367.138
28.18000 366.620
28.19000 361.665
28.20000 357.067
28.21000 359.832
28.22000 364.055
28.23000 366.760
28.24000 360.068
28.25000 351.760
28.26000 345.221
28.27000 345.836
28.28000 347.207
28.29000 348.227
28.30000 359.339
28.31000 368.426
28.32000 371.992
28.33000 365.247
28.34000 358.267
28.35000 353.906
28.36000 352.830
28.37000 351.764
28.38000 355.972
28.39000 364.436
28.40000 372.745
28.41000 373.827
28.42000 370.970
28.43000 367.963
28.44000 362.226
28.45000 355.475
28.46000 349.238
28.47000 349.711
28.48000 351.651
28.49000 353.164
28.50000 352.141
28.51000 350.701
28.52000 350.940
28.53000 357.724
28.54000 365.166
28.55000 370.642
28.56000 365.926
28.57000 361.857
28.58000 359.356
28.59000 359.681
28.60000 360.064
28.61000 357.931
28.62000 352.766
28.63000 347.604
28.64000 344.877
28.65000 344.059
28.66000 343.323
28.67000 345.983
28.68000 350.429
28.69000 354.794
28.70000 357.764
28.71000 360.233
28.72000 362.504
28.73000 361.622
28.74000 360.150
28.75000 358.558
28.76000 356.285
28.77000 353.904
28.78000 351.913
28.79000 351.385
28.80000 350.997
28.81000 350.715
28.82000 344.569
28.83000 339.614
28.84000 337.883
28.85000 341.763
28.86000 345.744
28.87000 346.974
28.88000 345.012
28.89000 343.051
28.90000 343.651
28.91000 346.164
28.92000 348.571
28.93000 346.993
28.94000 343.391
28.95000 339.871
28.96000 337.650
28.97000 335.881
28.98000 334.260
28.99000 339.210
29.00000 344.981
29.01000 349.391
29.02000 346.347
29.03000 342.172
29.04000 339.134
29.05000 340.217
29.06000 341.674
29.07000 342.724
29.08000 338.719
29.09000 335.471
29.10000 334.967
29.11000 339.067
29.12000 343.239
29.13000 342.274
29.14000 335.579
29.15000 328.904
29.16000 330.324
29.17000 337.559
29.18000 344.661
29.19000 347.284
29.20000 347.709
29.21000 348.101
29.22000 347.986
29.23000 347.701
29.24000 347.441
29.25000 344.427
29.26000 341.207
29.27000 338.340
29.28000 337.327
29.29000 336.584
29.30000 337.601
29.31000 344.771
29.32000 352.470
29.33000 357.958
29.34000 351.895
29.35000 346.896
29.36000 344.362
29.37000 345.818
29.38000 347.330
29.39000 347.177
29.40000 345.241
29.41000 343.313
29.42000 339.883
29.43000 335.451
29.44000 331.144
29.45000 330.716
29.46000 332.125
29.47000 333.737
29.48000 338.192
29.49000 343.567
29.50000 348.441
29.51000 353.100
29.52000 357.170
29.53000 360.251
29.54000 358.332
29.55000 355.717
29.56000 353.541
29.57000 352.848
29.58000 352.276
29.59000 351.873
29.60000 343.359
29.61000 336.657
29.62000 335.541
29.63000 343.148
29.64000 350.857
29.65000 353.552
29.66000 351.085
29.67000 348.631
29.68000 351.070
29.69000 356.734
29.70000 362.103
29.71000 359.107
29.72000 352.287
29.73000 346.225
29.74000 350.250
29.75000 357.419
29.76000 363.889
29.77000 360.411
29.78000 355.530
29.79000 351.165
29.80000 349.305
29.81000 347.778
29.82000 347.716
29.83000 352.420
29.84000 357.490
29.85000 361.024
29.86000 355.020
29.87000 350.227
29.88000 349.135
29.89000 353.617
29.90000 358.155
29.91000 362.484
29.92000 366.607
29.93000 370.703
29.94000 373.298
29.95000 374.894
29.96000 376.491
29.97000 378.114
29.98000 379.748
29.99000 381.200
30.00000 380.365
30.01000 378.841
30.02000 377.473
30.03000 376.941
30.04000 376.624
30.05000 375.346
30.06000 369.573
30.07000 363.228
30.08000 360.660
30.09000 369.954
30.10000 380.112
30.11000 387.110
30.12000 378.573
30.13000 371.774
30.14000 369.627
30.15000 374.234
30.16000 378.896
30.17000 377.094
30.18000 369.161
30.19000 361.291
30.20000 360.391
30.21000 363.801
30.22000 367.010
30.23000 365.381
30.24000 361.690
30.25000 358.514
30.26000 361.458
30.27000 366.178
30.28000 370.394
30.29000 367.239
30.30000 363.253
30.31000 360.157
30.32000 361.079
30.33000 362.489
30.34000 364.328
30.35000 367.463
30.36000 370.687
30.37000 372.882
30.38000 368.298
30.39000 364.719
30.40000 359.119
30.41000 350.694
30.42000 342.257
30.43000 346.206
30.44000 361.445
30.45000 376.543
30.46000 379.029
30.47000 373.989
30.48000 368.865
30.49000 361.866
30.50000 354.095
30.51000 346.537
30.52000 341.385
30.53000 336.906
30.54000 332.927
30.55000 335.815
30.56000 339.424
30.57000 342.087
30.58000 340.636
30.59000 338.708
30.60000 339.984
30.61000 350.642
30.62000 361.905
30.63000 369.479
30.64000 356.274
30.65000 346.033
30.66000 339.479
30.67000 337.893
30.68000 336.342
30.69000 342.800
30.70000 356.273
30.71000 369.602
30.72000 369.444
30.73000 361.598
30.74000 353.993
30.75000 351.401
30.76000 350.801
30.77000 350.841
30.78000 357.710
30.79000 366.423
30.80000 374.121
30.81000 372.928
30.82000 370.530
30.83000 368.101
30.84000 365.544
30.85000 362.972
30.86000 362.561
30.87000 368.255
30.88000 374.319
30.89000 378.346
30.90000 381.761
30.91000 384.274
30.92000 387.449
30.93000 391.482
30.94000 395.525
30.95000 403.249
30.96000 414.072
30.97000 424.763
30.98000 424.961
30.99000 419.396
31.00000 414.367
31.01000 419.699
31.02000 429.009
31.03000 438.251
31.04000 446.804
31.05000 455.179
31.06000 462.535
31.07000 476.087
31.08000 488.649
31.09000 502.713
31.10000 522.834
31.11000 543.593
31.12000 561.380
31.13000 571.057
31.14000 580.273
31.15000 586.315
31.16000 626.296
31.17000 656.258
31.18000 687.844
31.19000 721.458
31.20000 755.055
31.21000 779.954
31.22000 797.802
31.23000 815.402
31.24000 847.100
31.25000 885.351
31.26000 923.349
31.27000 956.795
31.28000 988.554
31.29000 1019.777
31.30000 1045.833
31.31000 1070.592
31.32000 1092.214
31.33000 1120.396
31.34000 1145.440
31.35000 1166.793
31.36000 1173.806
31.37000 1179.382
31.38000 1186.641
31.39000 1198.334
31.40000 1210.263
31.41000 1217.981
31.42000 1200.443
31.43000 1187.242
31.44000 1171.779
31.45000 1153.595
31.46000 1135.396
31.47000 1114.346
31.48000 1091.072
31.49000 1068.162
31.50000 1036.519
31.51000 1001.419
31.52000 966.988
31.53000 943.817
31.54000 924.678
31.55000 903.680
31.56000 865.596
31.57000 823.378
31.58000 786.732
31.59000 755.784
31.60000 730.179
31.61000 704.390
31.62000 677.916
31.63000 651.376
31.64000 622.935
31.65000 589.658
31.66000 556.142
31.67000 534.748
31.68000 521.910
31.69000 512.682
31.70000 501.276
31.71000 487.352
31.72000 473.461
31.73000 466.939
31.74000 465.953
31.75000 464.985
31.76000 454.650
31.77000 440.084
31.78000 426.145
31.79000 422.104
31.80000 421.485
31.81000 419.981
31.82000 410.725
31.83000 399.663
31.84000 390.119
31.85000 386.181
31.86000 383.559
31.87000 381.017
31.88000 378.764
31.89000 376.538
31.90000 374.610
31.91000 373.414
31.92000 372.251
31.93000 371.519
31.94000 362.825
31.95000 356.445
31.96000 351.791
31.97000 349.056
31.98000 346.342
31.99000 346.766
32.00000 349.462
32.01000 352.106
32.02000 349.108
32.03000 343.566
32.04000 338.060
32.05000 333.091
32.06000 328.301
32.07000 324.400
32.08000 327.931
32.09000 333.130
32.10000 337.587
32.11000 330.334
32.12000 322.776
32.13000 317.903
32.14000 322.392
32.15000 327.683
32.16000 333.307
32.17000 339.721
32.18000 346.169
32.19000 350.171
32.20000 336.153
32.21000 325.890
32.22000 324.947
32.23000 333.959
32.24000 342.926
32.25000 345.783
32.26000 344.378
32.27000 343.004
32.28000 340.178
32.29000 336.809
32.30000 333.568
32.31000 332.133
32.32000 331.280
32.33000 330.755
32.34000 332.841
32.35000 335.492
32.36000 337.749
32.37000 340.622
32.38000 343.110
32.39000 343.585
32.40000 337.293
32.41000 330.452
32.42000 323.987
32.43000 318.386
32.44000 312.819
32.45000 309.414
32.46000 319.284
32.47000 326.457
32.48000 328.792
32.49000 326.162
32.50000 323.570
32.51000 325.064
32.52000 329.304
32.53000 333.443
32.54000 331.859
32.55000 327.849
32.56000 323.865
32.57000 320.235
32.58000 316.715
32.59000 313.549
32.60000 313.082
32.61000 313.177
32.62000 313.257
32.63000 316.429
32.64000 319.427
32.65000 322.111
32.66000 323.775
32.67000 325.360
32.68000 324.628
32.69000 318.769
32.70000 312.725
32.71000 309.083
32.72000 314.626
32.73000 318.634
32.74000 321.512
32.75000 323.278
32.76000 325.022
32.77000 324.712
32.78000 323.072
32.79000 321.475
32.80000 336.317
32.81000 357.364
32.82000 377.679
32.83000 388.853
32.84000 397.284
32.85000 405.981
32.86000 416.609
32.87000 427.623
32.88000 436.879
32.89000 458.937
32.90000 478.667
32.91000 495.866
32.92000 505.134
32.93000 513.828
32.94000 519.468
32.95000 518.585
32.96000 517.485
32.97000 516.832
32.98000 530.249
32.99000 539.821
33.00000 538.908
33.01000 528.081
33.02000 517.256
33.03000 506.645
33.04000 496.168
33.05000 485.988
33.06000 470.397
33.07000 453.402
33.08000 436.355
33.09000 418.704
33.10000 400.878
33.11000 383.398
33.12000 368.337
33.13000 353.742
33.14000 341.564
33.15000 334.024
33.16000 328.236
33.17000 321.383
33.18000 311.310
33.19000 301.018
33.20000 294.023
33.21000 293.830
33.22000 293.843
33.23000 293.850
33.24000 298.468
33.25000 301.737
33.26000 302.366
33.27000 300.598
33.28000 298.837
33.29000 297.489
33.30000 296.392
33.31000 295.328
33.32000 294.459
33.33000 293.712
33.34000 293.103
33.35000 294.040
33.36000 295.409
33.37000 296.704
33.38000 297.506
33.39000 298.216
33.40000 298.804
33.41000 295.610
33.42000 292.611
33.43000 291.864
33.44000 297.690
33.45000 303.936
33.46000 304.587
33.47000 294.091
33.48000 283.287
33.49000 277.081
33.50000 281.752
33.51000 285.057
33.52000 287.110
33.53000 288.070
33.54000 289.016
33.55000 289.235
33.56000 289.029
33.57000 288.830
33.58000 289.212
33.59000 289.789
33.60000 289.961
33.61000 285.828
33.62000 280.535
33.63000 276.465
33.64000 280.230
33.65000 285.387
33.66000 289.629
33.67000 288.637
33.68000 287.349
33.69000 286.602
33.70000 287.382
33.71000 288.253
33.72000 289.374
33.73000 290.975
33.74000 292.588
33.75000 293.499
33.76000 286.737
33.77000 282.032
33.78000 286.276
33.79000 298.038
33.80000 309.651
33.81000 313.710
33.82000 313.527
33.83000 313.350
33.84000 312.413
33.85000 311.258
33.86000 310.094
33.87000 308.837
33.88000 307.556
33.89000 305.939
33.90000 302.264
33.91000 298.238
33.92000 294.952
33.93000 299.944
33.94000 304.738
33.95000 306.962
33.96000 302.194
33.97000 297.031
33.98000 293.571
33.99000 293.273
34.00000 293.046
34.01000 292.920
34.02000 297.321
34.03000 300.365
34.04000 301.223
34.05000 300.312
34.06000 299.534
34.07000 304.730
34.08000 313.164
34.09000 321.268
34.10000 319.231
34.11000 313.813
34.12000 308.758
34.13000 307.195
34.14000 306.507
34.15000 306.128
34.16000 307.578
34.17000 309.327
34.18000 310.744
34.19000 316.545
34.20000 321.625
34.21000 324.463
34.22000 321.412
34.23000 318.050
34.24000 315.784
34.25000 315.483
34.26000 315.221
34.27000 315.078
34.28000 315.903
34.29000 316.477
34.30000 318.674
34.31000 322.133
34.32000 325.551
34.33000 327.291
34.34000 328.154
34.35000 328.981
34.36000 328.992
34.37000 328.731
34.38000 327.888
34.39000 321.718
34.40000 314.263
34.41000 307.675
34.42000 305.999
34.43000 305.094
34.44000 304.367
34.45000 306.182
34.46000 307.848
34.47000 308.250
34.48000 305.445
34.49000 302.483
34.50000 299.284
34.51000 295.675
34.52000 292.059
34.53000 290.122
34.54000 295.576
34.55000 299.283
34.56000 298.744
34.57000 295.026
34.58000 291.530
34.59000 296.270
34.60000 305.167
34.61000 313.663
34.62000 308.475
34.63000 299.272
34.64000 290.902
34.65000 289.799
34.66000 290.384
34.67000 291.081
34.68000 292.384
34.69000 293.778
34.70000 294.889
34.71000 294.424
34.72000 293.933
34.73000 293.992
34.74000 295.396
34.75000 296.862
34.76000 295.831
34.77000 290.637
34.78000 285.378
34.79000 282.613
34.80000 284.884
34.81000 286.400
34.82000 283.732
34.83000 278.047
34.84000 272.509
34.85000 271.922
34.86000 273.749
34.87000 275.488
34.88000 277.759
34.89000 280.024
34.90000 282.349
34.91000 285.169
34.92000 288.100
34.93000 289.468
34.94000 282.666
34.95000 274.685
34.96000 268.377
34.97000 272.171
34.98000 275.910
34.99000 277.843
35.00000 275.505
35.01000 272.985
35.02000 270.205
35.03000 267.007
35.04000 263.803
35.05000 262.150
35.06000 270.915
35.07000 276.766
35.08000 275.613
35.09000 269.589
35.10000 263.810
35.11000 265.479
35.12000 270.654
35.13000 275.563
35.14000 269.770
35.15000 261.259
35.16000 253.577
35.17000 252.471
35.18000 252.783
35.19000 254.283
35.20000 261.762
35.21000 270.067
35.22000 276.576
35.23000 276.715
35.24000 276.415
35.25000 275.542
35.26000 273.359
35.27000 271.126
35.28000 268.051
35.29000 263.673
35.30000 259.280
35.31000 257.059
35.32000 261.482
35.33000 264.452
35.34000 268.529
35.35000 273.349
35.36000 277.948
35.37000 276.365
35.38000 271.971
35.39000 267.818
35.40000 265.636
35.41000 264.194
35.42000 262.935
35.43000 263.067
35.44000 263.487
35.45000 264.152
35.46000 266.004
35.47000 268.013
35.48000 269.573
35.49000 266.553
35.50000 263.873
35.51000 261.799
35.52000 261.065
35.53000 260.379
35.54000 259.436
35.55000 258.108
35.56000 256.776
35.57000 256.287
35.58000 256.625
35.59000 256.977
35.60000 258.597
35.61000 261.036
35.62000 263.330
35.63000 261.861
35.64000 258.741
35.65000 255.803
35.66000 257.845
35.67000 261.075
35.68000 264.058
35.69000 265.249
35.70000 266.082
35.71000 266.882
35.72000 267.528
35.73000 268.154
35.74000 268.636
35.75000 258.588
35.76000 250.033
35.77000 246.116
35.78000 252.079
35.79000 258.368
35.80000 261.172
35.81000 258.947
35.82000 256.682
35.83000 256.148
35.84000 257.244
35.85000 258.332
35.86000 258.879
35.87000 259.089
35.88000 259.385
35.89000 261.740
35.90000 264.967
35.91000 267.995
35.92000 263.895
35.93000 258.285
35.94000 253.637
35.95000 255.676
35.96000 258.998
35.97000 262.078
35.98000 264.077
35.99000 265.947
36.00000 267.373
36.01000 263.380
36.02000 259.945
36.03000 259.442
36.04000 264.970
36.05000 270.680
36.06000 272.218
36.07000 267.957
36.08000 263.660
36.09000 260.475
36.10000 258.298
36.11000 256.158
36.12000 256.465
36.13000 258.242
36.14000 259.896
36.15000 258.839
36.16000 256.671
36.17000 254.645
36.18000 250.168
36.19000 245.486
36.20000 241.314
36.21000 240.539
36.22000 240.390
36.23000 240.910
36.24000 244.315
36.25000 248.053
36.26000 250.878
36.27000 252.227
36.28000 253.211
36.29000 252.956
36.30000 250.244
36.31000 247.464
36.32000 246.117
36.33000 246.689
36.34000 247.271
36.35000 247.982
36.36000 248.802
36.37000 249.640
36.38000 251.463
36.39000 253.857
36.40000 256.156
36.41000 256.526
36.42000 256.132
36.43000 255.765
36.44000 256.871
36.45000 258.227
36.46000 259.468
36.47000 259.968
36.48000 260.337
36.49000 260.039
36.50000 256.967
36.51000 253.590
36.52000 251.062
36.53000 252.042
36.54000 252.970
36.55000 252.203
36.56000 248.185
36.57000 244.087
36.58000 242.645
36.59000 244.626
36.60000 246.618
36.61000 249.604
36.62000 253.411
36.63000 257.129
36.64000 256.370
36.65000 253.105
36.66000 250.209
36.67000 254.377
36.68000 261.240
36.69000 267.602
36.70000 262.429
36.71000 255.087
36.72000 249.241
36.73000 252.555
36.74000 257.428
36.75000 260.730
36.76000 257.735
36.77000 254.082
36.78000 251.375
36.79000 254.698
36.80000 257.542
36.81000 259.791
36.82000 260.939
36.83000 262.063
36.84000 263.901
36.85000 266.627
36.86000 269.351
36.87000 267.820
36.88000 262.882
36.89000 258.109
36.90000 260.783
36.91000 267.481
36.92000 273.624
36.93000 269.890
36.94000 262.516
36.95000 255.711
36.96000 255.695
36.97000 257.198
36.98000 258.680
36.99000 260.033
37.00000 261.365
37.01000 260.987
37.02000 254.010
37.03000 246.376
37.04000 240.775
37.05000 246.445
37.06000 251.283
37.07000 256.527
37.08000 262.497
37.09000 268.482
37.10000 270.420
37.11000 267.522
37.12000 264.622
37.13000 266.456
37.14000 271.929
37.15000 277.252
37.16000 276.481
37.17000 272.532
37.18000 268.695
37.19000 266.715
37.20000 265.398
37.21000 264.187
37.22000 267.181
37.23000 270.757
37.24000 273.536
37.25000 271.823
37.26000 269.406
37.27000 266.872
37.28000 263.905
37.29000 260.897
37.30000 258.713
37.31000 255.172
37.32000 252.399
37.33000 252.956
37.34000 259.255
37.35000 265.653
37.36000 266.913
37.37000 262.271
37.38000 257.635
37.39000 256.639
37.40000 258.347
37.41000 259.903
37.42000 255.905
37.43000 249.111
37.44000 242.687
37.45000 242.071
37.46000 243.449
37.47000 244.710
37.48000 245.911
37.49000 246.967
37.50000 247.280
37.51000 243.564
37.52000 239.243
37.53000 237.241
37.54000 243.569
37.55000 250.643
37.56000 255.726
37.57000 253.402
37.58000 251.367
37.59000 249.819
37.60000 249.082
37.61000 248.358
37.62000 249.299
37.63000 252.081
37.64000 254.853
37.65000 258.009
37.66000 261.409
37.67000 264.642
37.68000 262.298
37.69000 257.244
37.70000 252.207
37.71000 247.435
37.72000 242.750
37.73000 238.486
37.74000 238.344
37.75000 239.033
37.76000 239.663
37.77000 239.995
37.78000 240.283
37.79000 241.231
37.80000 244.461
37.81000 247.886
37.82000 250.321
37.83000 248.900
37.84000 247.695
37.85000 247.132
37.86000 247.599
37.87000 248.079
37.88000 247.057
37.89000 244.442
37.90000 241.838
37.91000 240.712
37.92000 240.611
37.93000 240.704
37.94000 246.677
37.95000 255.410
37.96000 263.459
37.97000 262.026
37.98000 257.556
37.99000 253.508
38.00000 250.196
38.01000 247.416
38.02000 245.953
38.03000 251.089
38.04000 257.133
38.05000 260.598
38.06000 255.438
38.07000 249.584
38.08000 245.469
38.09000 243.336
38.10000 241.777
38.11000 241.840
38.12000 244.409
38.13000 247.006
38.14000 247.230
38.15000 245.035
38.16000 242.853
38.17000 244.888
38.18000 249.675
38.19000 254.411
38.20000 257.726
38.21000 260.396
38.22000 262.592
38.23000 258.566
38.24000 252.618
38.25000 247.256
38.26000 252.131
38.27000 258.265
38.28000 262.770
38.29000 259.422
38.30000 255.040
38.31000 253.063
38.32000 258.844
38.33000 265.215
38.34000 269.643
38.35000 282.076
38.36000 291.662
38.37000 299.084
38.38000 303.276
38.39000 307.438
38.40000 313.882
38.41000 322.561
38.42000 331.178
38.43000 336.860
38.44000 340.592
38.45000 344.670
38.46000 357.642
38.47000 374.507
38.48000 391.338
38.49000 407.769
38.50000 424.080
38.51000 438.705
38.52000 463.475
38.53000 486.883
38.54000 509.336
38.55000 527.362
38.56000 544.831
38.57000 563.816
38.58000 587.520
38.59000 611.564
38.60000 628.078
38.61000 668.625
38.62000 699.619
38.63000 731.198
38.64000 763.621
38.65000 796.049
38.66000 819.574
38.67000 834.740
38.68000 849.781
38.69000 869.186
38.70000 890.904
38.71000 911.645
38.72000 909.320
38.73000 897.246
38.74000 886.620
38.75000 892.947
38.76000 904.150
38.77000 914.144
38.78000 895.930
38.79000 875.392
38.80000 855.008
38.81000 835.313
38.82000 815.702
38.83000 796.035
38.84000 776.204
38.85000 756.362
38.86000 742.895
38.87000 691.652
38.88000 652.583
38.89000 617.336
38.90000 587.382
38.91000 557.466
38.92000 532.505
38.93000 512.015
38.94000 491.722
38.95000 468.374
38.96000 443.715
38.97000 419.249
38.98000 399.015
38.99000 380.508
39.00000 362.252
39.01000 346.774
39.02000 332.067
39.03000 319.021
39.04000 317.967
39.05000 318.963
39.06000 316.867
39.07000 301.463
39.08000 284.535
39.09000 270.452
39.10000 264.628
39.11000 259.329
39.12000 255.776
39.13000 252.158
39.14000 249.472
39.15000 250.838
39.16000 257.612
39.17000 264.404
39.18000 263.062
39.19000 254.663
39.20000 246.356
39.21000 237.409
39.22000 228.307
39.23000 219.654
39.24000 220.142
39.25000 224.233
39.26000 228.047
39.27000 228.937
39.28000 229.044
39.29000 229.139
39.30000 231.356
39.31000 233.591
39.32000 235.166
39.33000 234.002
39.34000 232.540
39.35000 230.068
39.36000 224.766
39.37000 219.295
39.38000 215.673
39.39000 221.564
39.40000 226.084
39.41000 228.570
39.42000 228.440
39.43000 228.301
39.44000 228.325
39.45000 228.487
39.46000 228.647
39.47000 228.967
39.48000 229.365
39.49000 229.625
39.50000 227.278
39.51000 223.939
39.52000 221.282
39.53000 225.465
39.54000 231.413
39.55000 236.630
39.56000 229.127
39.57000 220.833
39.58000 214.785
39.59000 217.712
39.60000 221.573
39.61000 224.992
39.62000 227.218
39.63000 229.378
39.64000 230.789
39.65000 229.585
39.66000 228.659
39.67000 227.997
39.68000 227.660
39.69000 227.332
39.70000 229.473
39.71000 233.598
39.72000 237.663
39.73000 234.678
39.74000 228.092
39.75000 221.974
39.76000 224.143
39.77000 229.359
39.78000 233.824
39.79000 231.137
39.80000 226.671
39.81000 222.776
39.82000 227.614
39.83000 232.964
39.84000 236.994
39.85000 235.937
39.86000 234.377
39.87000 232.079
39.88000 227.850
39.89000 223.521
39.90000 220.730
39.91000 216.622
39.92000 213.603
39.93000 212.717
39.94000 214.371
39.95000 216.033
39.96000 218.745
39.97000 222.269
39.98000 225.736
39.99000 228.847
40.00000 231.679
40.01000 234.197
40.02000 231.481
40.03000 226.908
40.04000 222.773
40.05000 222.604
40.06000 223.387
40.07000 224.066
40.08000 223.831
40.09000 223.509
40.10000 223.524
40.11000 224.789
40.12000 226.171
40.13000 225.926
40.14000 221.578
40.15000 217.030
40.16000 214.137
40.17000 216.845
40.18000 218.883
40.19000 219.264
40.20000 217.746
40.21000 216.223
40.22000 213.870
40.23000 210.900
40.24000 207.983
40.25000 208.351
40.26000 210.296
40.27000 212.121
40.28000 212.059
40.29000 211.350
40.30000 211.722
40.31000 221.458
40.32000 233.354
40.33000 243.602
40.34000 235.985
40.35000 227.267
40.36000 220.227
40.37000 219.196
40.38000 218.700
40.39000 217.835
40.40000 216.067
40.41000 214.258
40.42000 213.124
40.43000 215.907
40.44000 217.962
40.45000 218.210
40.46000 216.472
40.47000 214.735
40.48000 213.452
40.49000 212.495
40.50000 211.558
40.51000 209.573
40.52000 207.176
40.53000 205.034
40.54000 206.623
40.55000 209.448
40.56000 212.196
40.57000 214.320
40.58000 216.304
40.59000 218.003
40.60000 221.021
40.61000 223.727
40.62000 225.059
40.63000 221.645
40.64000 217.830
40.65000 213.874
40.66000 209.588
40.67000 205.289
40.68000 202.630
40.69000 207.911
40.70000 211.780
40.71000 212.141
40.72000 208.792
40.73000 205.464
40.74000 204.670
40.75000 205.629
40.76000 206.567
40.77000 211.769
40.78000 218.672
40.79000 224.768
40.80000 219.724
40.81000 211.124
40.82000 203.338
40.83000 201.972
40.84000 201.980
40.85000 201.987
40.86000 204.573
40.87000 207.041
40.88000 209.267
40.89000 210.686
40.90000 212.039
40.91000 213.764
40.92000 216.332
40.93000 218.933
40.94000 220.518
40.95000 220.150
40.96000 219.872
40.97000 216.369
40.98000 209.593
40.99000 202.830
41.00000 197.449
41.01000 192.989
41.02000 188.637
41.03000 192.589
41.04000 199.953
41.05000 206.896
41.06000 208.370
41.07000 208.160
41.08000 207.173
41.09000 200.343
41.10000 192.309
41.11000 185.523
41.12000 193.451
41.13000 201.691
41.14000 207.981
41.15000 207.997
41.16000 207.538
41.17000 205.187
41.18000 198.685
41.19000 192.036
41.20000 188.046
41.21000 198.560
41.22000 206.128
41.23000 209.385
41.24000 208.440
41.25000 207.489
41.26000 206.068
41.27000 204.343
41.28000 202.665
41.29000 204.378
41.30000 207.418
41.31000 210.273
41.32000 210.834
41.33000 210.713
41.34000 210.837
41.35000 212.724
41.36000 214.961
41.37000 216.837
41.38000 219.463
41.39000 221.726
41.40000 222.770
41.41000 220.029
41.42000 217.017
41.43000 215.595
41.44000 217.540
41.45000 219.593
41.46000 220.807
41.47000 216.480
41.48000 213.391
41.49000 205.756
41.50000 193.867
41.51000 182.104
41.52000 179.727
41.53000 183.165
41.54000 186.502
41.55000 193.864
41.56000 202.461
41.57000 210.570
41.58000 212.981
41.59000 213.758
41.60000 213.911
41.61000 209.766
41.62000 204.801
41.63000 200.666
41.64000 205.118
41.65000 209.658
41.66000 212.542
41.67000 210.460
41.68000 208.044
41.69000 205.446
41.70000 202.475
41.71000 199.493
41.72000 197.759
41.73000 199.577
41.74000 200.869
41.75000 201.459
41.76000 201.416
41.77000 201.373
41.78000 201.260
41.79000 201.106
41.80000 200.957
41.81000 197.643
41.82000 193.289
41.83000 189.645
41.84000 193.832
41.85000 200.186
41.86000 206.083
41.87000 208.954
41.88000 211.271
41.89000 213.187
41.90000 210.089
41.91000 207.062
41.92000 203.909
41.93000 200.392
41.94000 196.853
41.95000 197.624
41.96000 206.905
41.97000 216.415
41.98000 221.856
41.99000 212.027
42.00000 205.119
42.01000 204.663
42.02000 209.786
42.03000 214.811
42.04000 214.293
42.05000 210.580
42.06000 206.994
42.07000 203.403
42.08000 200.018
42.09000 197.118
42.10000 199.301
42.11000 202.840
42.12000 205.900
42.13000 205.921
42.14000 205.408
42.15000 204.986
42.16000 204.172
42.17000 203.469
42.18000 203.176
42.19000 204.032
42.20000 204.955
42.21000 205.882
42.22000 206.816
42.23000 207.750
42.24000 208.275
42.25000 209.484
42.26000 210.323
42.27000 210.363
42.28000 209.740
42.29000 209.095
42.30000 207.369
42.31000 205.041
42.32000 202.800
42.33000 202.415
42.34000 202.716
42.35000 203.142
42.36000 204.818
42.37000 206.815
42.38000 207.902
42.39000 203.448
42.40000 198.058
42.41000 193.667
42.42000 199.655
42.43000 205.427
42.44000 208.462
42.45000 204.117
42.46000 199.362
42.47000 198.047
42.48000 203.060
42.49000 208.210
42.50000 211.058
42.51000 211.424
42.52000 211.656
42.53000 206.650
42.54000 197.453
42.55000 188.514
42.56000 191.022
42.57000 199.678
42.58000 207.989
42.59000 209.431
42.60000 208.425
42.61000 207.328
42.62000 205.366
42.63000 203.190
42.64000 201.026
42.65000 198.933
42.66000 196.852
42.67000 195.170
42.68000 200.778
42.69000 205.924
42.70000 208.281
42.71000 203.374
42.72000 198.091
42.73000 196.395
42.74000 201.069
42.75000 205.865
42.76000 208.470
42.77000 200.520
42.78000 195.074
42.79000 193.954
42.80000 196.165
42.81000 198.313
42.82000 197.903
42.83000 196.169
42.84000 194.508
42.85000 199.656
42.86000 206.698
42.87000 212.352
42.88000 205.467
42.89000 195.585
42.90000 187.433
42.91000 188.975
42.92000 192.024
42.93000 194.469
42.94000 194.543
42.95000 194.422
42.96000 194.059
42.97000 193.084
42.98000 192.079
42.99000 194.238
43.00000 201.817
43.01000 209.488
43.02000 213.579
43.03000 201.182
43.04000 192.755
43.05000 190.096
43.06000 191.717
43.07000 193.376
43.08000 196.367
43.09000 200.026
43.10000 203.516
43.11000 204.041
43.12000 203.587
43.13000 203.098
43.14000 202.312
43.15000 201.457
43.16000 200.880
43.17000 201.802
43.18000 202.947
43.19000 203.858
43.20000 200.152
43.21000 196.835
43.22000 195.089
43.23000 197.156
43.24000 199.395
43.25000 201.220
43.26000 202.364
43.27000 203.497
43.28000 204.091
43.29000 199.456
43.30000 196.326
43.31000 194.609
43.32000 193.903
43.33000 193.233
43.34000 193.773
43.35000 194.897
43.36000 195.966
43.37000 199.470
43.38000 203.453
43.39000 206.470
43.40000 201.538
43.41000 194.845
43.42000 190.510
43.43000 198.390
43.44000 208.014
43.45000 215.604
43.46000 212.871
43.47000 209.981
43.48000 206.018
43.49000 199.538
43.50000 192.953
43.51000 190.832
43.52000 195.832
43.53000 200.923
43.54000 203.535
43.55000 199.903
43.56000 197.472
43.57000 196.500
43.58000 196.532
43.59000 196.663
43.60000 199.714
43.61000 204.128
43.62000 208.311
43.63000 201.046
43.64000 190.998
43.65000 181.964
43.66000 180.891
43.67000 181.517
43.68000 182.930
43.69000 188.263
43.70000 194.132
43.71000 198.722
43.72000 200.589
43.73000 201.905
43.74000 201.208
43.75000 195.949
43.76000 190.515
43.77000 187.354
43.78000 187.687
43.79000 188.059
43.80000 188.247
43.81000 188.118
43.82000 188.022
43.83000 187.000
43.84000 185.363
43.85000 183.895
43.86000 187.079
43.87000 192.358
43.88000 197.344
43.89000 196.332
43.90000 193.714
43.91000 191.611
43.92000 193.386
43.93000 195.956
43.94000 197.212
43.95000 192.165
43.96000 186.296
43.97000 181.746
43.98000 181.863
43.99000 182.236
44.00000 183.509
44.01000 186.752
44.02000 190.065
44.03000 191.412
44.04000 189.844
44.05000 188.250
44.06000 187.385
44.07000 187.229
44.08000 187.087
44.09000 188.115
44.10000 189.893
44.11000 191.509
44.12000 189.046
44.13000 184.809
44.14000 180.823
44.15000 188.384
44.16000 198.421
44.17000 206.610
44.18000 201.527
44.19000 193.821
44.20000 188.682
44.21000 195.380
44.22000 203.556
44.23000 209.837
44.24000 202.732
44.25000 196.363
44.26000 192.101
44.27000 192.287
44.28000 192.617
44.29000 194.827
44.30000 199.724
44.31000 204.641
44.32000 205.450
44.33000 202.429
44.34000 199.448
44.35000 199.449
44.36000 201.292
44.37000 203.072
44.38000 203.403
44.39000 203.126
44.40000 202.866
44.41000 203.145
44.42000 203.539
44.43000 203.834
44.44000 203.447
44.45000 202.931
44.46000 202.203
44.47000 200.537
44.48000 198.760
44.49000 197.407
44.50000 195.067
44.51000 193.174
44.52000 194.343
44.53000 201.752
44.54000 209.345
44.55000 213.494
44.56000 212.901
44.57000 212.279
44.58000 209.434
44.59000 204.602
44.60000 199.829
44.61000 198.790
44.62000 199.976
44.63000 201.087
44.64000 200.589
44.65000 199.439
44.66000 198.365
44.67000 208.455
44.68000 220.393
44.69000 230.466
44.70000 228.243
44.71000 223.775
44.72000 220.556
44.73000 222.674
44.74000 225.398
44.75000 227.453
44.76000 234.802
44.77000 240.817
44.78000 243.740
44.79000 240.574
44.80000 237.246
44.81000 235.977
44.82000 237.440
44.83000 238.914
44.84000 238.368
44.85000 236.086
44.86000 233.851
44.87000 234.300
44.88000 236.291
44.89000 238.365
44.90000 242.101
44.91000 246.488
44.92000 250.566
44.93000 251.063
44.94000 250.651
44.95000 250.638
44.96000 253.150
44.97000 256.104
44.98000 259.200
44.99000 262.878
45.00000 266.618
45.01000 269.411
45.02000 269.418
45.03000 269.296
45.04000 270.999
45.05000 276.170
45.06000 281.424
45.07000 281.977
45.08000 276.526
45.09000 271.060
45.10000 269.875
45.11000 272.232
45.12000 274.504
45.13000 272.647
45.14000 268.499
45.15000 264.503
45.16000 263.370
45.17000 263.319
45.18000 263.272
45.19000 261.398
45.20000 259.292
45.21000 256.880
45.22000 252.615
45.23000 248.038
45.24000 245.102
45.25000 248.679
45.26000 252.928
45.27000 256.070
45.28000 255.024
45.29000 254.034
45.30000 250.380
45.31000 241.842
45.32000 233.198
45.33000 229.249
45.34000 231.074
45.35000 232.910
45.36000 232.924
45.37000 231.491
45.38000 230.011
45.39000 226.471
45.40000 221.829
45.41000 217.357
45.42000 215.878
45.43000 215.494
45.44000 215.140
45.45000 215.907
45.46000 216.842
45.47000 217.168
45.48000 213.946
45.49000 210.150
45.50000 208.384
45.51000 214.382
45.52000 221.142
45.53000 226.090
45.54000 218.410
45.55000 211.982
45.56000 207.662
45.57000 207.076
45.58000 206.562
45.59000 203.914
45.60000 198.743
45.61000 193.580
45.62000 192.555
45.63000 194.695
45.64000 196.901
45.65000 201.734
45.66000 207.925
45.67000 213.751
45.68000 213.576
45.69000 211.285
45.70000 209.182
45.71000 209.290
45.72000 209.857
45.73000 209.390
45.74000 203.146
45.75000 196.008
45.76000 190.069
45.77000 188.558
45.78000 187.460
45.79000 186.665
45.80000 190.763
45.81000 194.090
45.82000 193.724
45.83000 187.049
45.84000 180.267
45.85000 180.951
45.86000 190.130
45.87000 199.288
45.88000 197.145
45.89000 186.724
45.90000 176.547
45.91000 175.088
45.92000 177.978
45.93000 180.762
45.94000 181.898
45.95000 182.472
45.96000 182.996
45.97000 181.349
45.98000 179.444
45.99000 177.398
46.00000 174.602
46.01000 171.694
46.02000 169.966
46.03000 172.435
46.04000 175.275
46.05000 177.310
46.06000 178.748
46.07000 179.827
46.08000 178.801
46.09000 174.306
46.10000 169.760
46.11000 170.556
46.12000 177.191
46.13000 183.803
46.14000 186.169
46.15000 185.516
46.16000 184.856
46.17000 183.989
46.18000 183.023
46.19000 182.155
46.20000 182.702
46.21000 183.714
46.22000 184.634
46.23000 181.237
46.24000 177.389
46.25000 174.285
46.26000 175.016
46.27000 176.292
46.28000 177.506
46.29000 178.506
46.30000 179.488
46.31000 180.184
46.32000 179.238
46.33000 178.467
46.34000 176.441
46.35000 172.422
46.36000 168.377
46.37000 168.433
46.38000 172.794
46.39000 177.134
46.40000 176.343
46.41000 172.080
46.42000 167.945
46.43000 167.630
46.44000 169.091
46.45000 170.439
46.46000 170.242
46.47000 169.554
46.48000 168.931
46.49000 172.840
46.50000 177.130
46.51000 179.709
46.52000 173.803
46.53000 166.743
46.54000 162.563
46.55000 167.927
46.56000 174.048
46.57000 178.339
46.58000 171.235
46.59000 165.534
46.60000 163.596
46.61000 167.431
46.62000 171.329
46.63000 175.795
46.64000 180.836
46.65000 185.846
46.66000 187.051
46.67000 185.755
46.68000 184.396
46.69000 181.338
46.70000 177.516
46.71000 173.889
46.72000 172.778
46.73000 172.438
46.74000 172.131
46.75000 173.745
46.76000 175.503
46.77000 176.967
46.78000 177.024
46.79000 176.898
46.80000 176.067
46.81000 172.984
46.82000 169.732
46.83000 167.478
46.84000 164.419
46.85000 162.096
46.86000 162.396
46.87000 166.574
46.88000 170.788
46.89000 173.026
46.90000 173.351
46.91000 173.674
46.92000 170.600
46.93000 165.444
46.94000 160.466
46.95000 159.958
46.96000 161.390
46.97000 163.213
46.98000 169.805
46.99000 177.806
47.00000 184.971
47.01000 181.476
47.02000 176.593
47.03000 171.919
47.04000 168.203
47.05000 164.606
47.06000 160.712
47.07000 155.903
47.08000 151.029
47.09000 147.691
47.10000 157.622
47.11000 165.378
47.12000 169.505
47.13000 168.464
47.14000 167.384
47.15000 166.700
47.16000 166.384
47.17000 166.070
47.18000 167.776
47.19000 170.670
47.20000 173.344
47.21000 170.930
47.22000 166.385
47.23000 162.203
47.24000 162.220
47.25000 163.435
47.26000 164.517
47.27000 165.851
47.28000 167.051
47.29000 167.555
47.30000 164.972
47.31000 162.023
47.32000 161.136
47.33000 166.390
47.34000 172.053
47.35000 175.885
47.36000 171.207
47.37000 167.536
47.38000 164.977
47.39000 163.944
47.40000 162.918
47.41000 160.712
47.42000 157.450
47.43000 154.221
47.44000 154.417
47.45000 156.601
47.46000 158.612
47.47000 156.908
47.48000 153.702
47.49000 150.821
47.50000 151.511
47.51000 153.183
47.52000 154.664
47.53000 155.580
47.54000 156.284
47.55000 156.854
47.56000 156.852
47.57000 156.785
47.58000 158.800
47.59000 166.799
47.60000 175.172
47.61000 180.768
47.62000 175.947
47.63000 172.170
47.64000 167.333
47.65000 161.093
47.66000 154.852
47.67000 152.122
47.68000 152.408
47.69000 152.691
47.70000 153.278
47.71000 154.021
47.72000 154.728
47.73000 154.717
47.74000 154.427
47.75000 154.082
47.76000 153.166
47.77000 152.099
47.78000 151.159
47.79000 154.160
47.80000 157.339
47.81000 160.185
47.82000 161.666
47.83000 162.999
47.84000 164.096
47.85000 164.536
47.86000 164.938
47.87000 165.203
47.88000 164.903
47.89000 164.672
47.90000 164.445
47.91000 164.221
47.92000 163.993
47.93000 161.816
47.94000 158.030
47.95000 154.293
47.96000 154.890
47.97000 157.804
47.98000 160.449
47.99000 158.078
48.00000 153.813
48.01000 149.807
48.02000 148.354
48.03000 147.554
48.04000 146.854
48.05000 145.921
48.06000 145.088
48.07000 144.746
48.08000 146.348
48.09000 148.150
48.10000 150.568
48.11000 154.635
48.12000 158.794
48.13000 161.502
48.14000 156.571
48.15000 152.835
48.16000 152.455
48.17000 156.190
48.18000 159.922
48.19000 159.464
48.20000 155.676
48.21000 151.944
48.22000 152.474
48.23000 155.197
48.24000 157.859
48.25000 159.466
48.26000 160.689
48.27000 161.850
48.28000 162.435
48.29000 162.879
48.30000 163.265
48.31000 159.401
48.32000 155.516
48.33000 152.671
48.34000 153.789
48.35000 155.295
48.36000 154.622
48.37000 148.311
48.38000 141.711
48.39000 137.469
48.40000 145.964
48.41000 152.336
48.42000 153.792
48.43000 149.452
48.44000 145.124
48.45000 145.728
48.46000 150.108
48.47000 154.415
48.48000 156.487
48.49000 157.378
48.50000 158.091
48.51000 155.908
48.52000 152.707
48.53000 150.191
48.54000 153.818
48.55000 158.903
48.56000 163.303
48.57000 157.447
48.58000 151.121
48.59000 146.009
48.60000 145.363
48.61000 145.131
48.62000 145.795
48.63000 148.699
48.64000 151.709
48.65000 153.617
48.66000 151.788
48.67000 150.415
48.68000 149.730
48.69000 149.824
48.70000 149.938
48.71000 153.507
48.72000 159.623
48.73000 165.625
48.74000 163.980
48.75000 158.723
48.76000 153.671
48.77000 151.766
48.78000 150.929
48.79000 150.621
48.80000 154.828
48.81000 160.068
48.82000 164.574
48.83000 160.518
48.84000 156.013
48.85000 152.825
48.86000 154.311
48.87000 156.209
48.88000 156.934
48.89000 154.831
48.90000 152.603
48.91000 151.210
48.92000 152.257
48.93000 153.038
48.94000 153.737
48.95000 154.347
48.96000 154.940
48.97000 153.150
48.98000 149.667
48.99000 146.255
49.00000 150.208
49.01000 157.408
49.02000 163.965
49.03000 161.241
49.04000 155.474
49.05000 150.435
49.06000 151.341
49.07000 153.557
49.08000 155.450
49.09000 155.747
49.10000 155.806
49.11000 154.748
49.12000 149.868
49.13000 144.670
49.14000 142.223
49.15000 146.190
49.16000 150.419
49.17000 153.025
49.18000 156.244
49.19000 158.559
49.20000 157.147
49.21000 151.834
49.22000 146.536
49.23000 143.001
49.24000 140.675
49.25000 138.401
49.26000 140.764
49.27000 145.089
49.28000 149.222
49.29000 150.744
49.30000 151.440
49.31000 152.457
49.32000 155.980
49.33000 160.035
49.34000 163.477
49.35000 163.180
49.36000 162.506
49.37000 160.607
49.38000 154.661
49.39000 148.396
49.40000 143.896
49.41000 143.369
49.42000 142.992
49.43000 142.764
49.44000 142.807
49.45000 142.840
49.46000 144.539
49.47000 147.912
49.48000 151.246
49.49000 150.779
49.50000 147.803
49.51000 144.901
49.52000 144.811
49.53000 145.928
49.54000 146.909
49.55000 146.141
49.56000 144.838
49.57000 143.968
49.58000 146.325
49.59000 149.339
49.60000 151.882
49.61000 153.276
49.62000 154.317
49.63000 155.535
49.64000 157.320
49.65000 159.147
49.66000 158.345
49.67000 151.826
49.68000 145.109
49.69000 141.093
49.70000 143.989
49.71000 146.089
49.72000 146.811
49.73000 146.204
49.74000 145.624
49.75000 147.220
49.76000 150.201
49.77000 153.101
49.78000 150.843
49.79000 146.572
49.80000 142.859
49.81000 145.917
49.82000 150.971
49.83000 155.475
49.84000 156.059
49.85000 155.874
49.86000 155.719
49.87000 152.768
49.88000 150.027
49.89000 147.147
49.90000 143.836
49.91000 140.495
49.92000 137.435
49.93000 134.967
49.94000 132.518
49.95000 131.077
49.96000 138.936
49.97000 144.528
49.98000 148.547
49.99000 151.108
50.00000 153.611
50.01000 151.991
50.02000 147.839
50.03000 143.811
50.04000 143.827
50.05000 145.445
50.06000 146.865
50.07000 146.016
50.08000 144.523
50.09000 142.925
50.10000 140.617
50.11000 138.175
50.12000 136.144
50.13000 142.139
50.14000 147.886
50.15000 152.797
50.16000 155.229
50.17000 157.497
50.18000 158.341
50.19000 156.299
50.20000 154.174
50.21000 152.944
50.22000 145.643
50.23000 140.501
50.24000 141.014
50.25000 146.561
50.26000 152.058
50.27000 154.420
50.28000 154.926
50.29000 155.415
50.30000 156.003
50.31000 156.597
50.32000 157.438
50.33000 160.990
50.34000 165.284
50.35000 168.248
50.36000 162.504
50.37000 155.180
50.38000 149.135
50.39000 147.731
50.40000 147.006
50.41000 146.866
50.42000 148.401
50.43000 150.042
50.44000 151.407
50.45000 152.233
50.46000 153.045
50.47000 153.508
50.48000 155.135
50.49000 156.275
50.50000 158.448
50.51000 161.505
50.52000 164.518
50.53000 165.128
50.54000 164.364
50.55000 163.627
50.56000 165.479
50.57000 168.173
50.58000 170.321
50.59000 166.816
50.60000 161.816
50.61000 158.158
50.62000 162.921
50.63000 169.151
50.64000 174.255
50.65000 169.803
50.66000 165.311
50.67000 162.150
50.68000 162.672
50.69000 163.410
50.70000 163.417
50.71000 162.046
50.72000 160.643
50.73000 159.857
50.74000 162.175
50.75000 163.783
50.76000 162.236
50.77000 158.091
50.78000 154.031
50.79000 154.059
50.80000 156.342
50.81000 158.539
50.82000 159.588
50.83000 160.167
50.84000 160.893
50.85000 163.058
50.86000 165.590
50.87000 167.795
50.88000 168.026
50.89000 167.927
50.90000 167.847
50.91000 165.341
50.92000 163.092
50.93000 160.392
50.94000 156.485
50.95000 152.512
50.96000 150.333
50.97000 151.425
50.98000 152.586
50.99000 153.225
51.00000 149.736
51.01000 147.343
51.02000 150.523
51.03000 158.119
51.04000 165.504
51.05000 163.776
51.06000 157.199
51.07000 150.889
51.08000 152.228
51.09000 156.078
51.10000 159.286
51.11000 156.493
51.12000 152.225
51.13000 148.666
51.14000 149.205
51.15000 150.403
51.16000 151.369
51.17000 151.711
51.18000 151.939
51.19000 151.052
51.20000 147.285
51.21000 143.371
51.22000 141.101
51.23000 141.722
51.24000 142.397
51.25000 142.762
51.26000 143.033
51.27000 143.228
51.28000 145.588
51.29000 149.600
51.30000 153.428
51.31000 150.103
51.32000 143.104
51.33000 136.409
51.34000 136.680
51.35000 139.207
51.36000 141.371
51.37000 140.301
51.38000 138.465
51.39000 136.273
51.40000 132.105
51.41000 127.633
51.42000 124.055
51.43000 129.399
51.44000 134.387
51.45000 138.187
51.46000 139.025
51.47000 139.722
51.48000 140.249
51.49000 140.486
51.50000 140.719
51.51000 140.842
51.52000 135.284
51.53000 131.513
51.54000 130.239
51.55000 130.799
51.56000 131.430
51.57000 134.502
51.58000 138.787
51.59000 142.871
51.60000 146.117
51.61000 148.865
51.62000 150.751
51.63000 145.297
51.64000 138.170
51.65000 132.753
51.66000 136.461
51.67000 141.514
51.68000 145.525
51.69000 139.278
51.70000 133.526
51.71000 130.266
51.72000 133.004
51.73000 136.005
51.74000 138.489
51.75000 140.126
51.76000 141.751
51.77000 142.597
51.78000 142.110
51.79000 141.786
51.80000 142.120
51.81000 142.921
51.82000 143.715
51.83000 144.274
51.84000 144.721
51.85000 145.145
51.86000 148.530
51.87000 152.551
51.88000 155.696
51.89000 151.724
51.90000 146.189
51.91000 141.206
51.92000 139.054
51.93000 137.302
51.94000 135.923
51.95000 135.190
51.96000 134.646
51.97000 134.140
51.98000 133.722
51.99000 133.307
52.00000 132.565
52.01000 131.306
52.02000 130.040
52.03000 129.393
52.04000 132.911
52.05000 135.247
52.06000 134.633
52.07000 132.005
52.08000 129.560
52.09000 132.472
52.10000 137.863
52.11000 142.966
52.12000 144.179
52.13000 144.166
52.14000 143.834
52.15000 141.024
52.16000 137.691
52.17000 133.927
52.18000 128.039
52.19000 121.865
52.20000 117.047
52.21000 125.302
52.22000 132.703
52.23000 137.138
52.24000 134.916
52.25000 132.444
52.26000 133.588
52.27000 140.242
52.28000 146.954
52.29000 150.312
52.30000 143.109
52.31000 138.323
52.32000 135.267
52.33000 133.348
52.34000 131.470
52.35000 130.670
52.36000 130.351
52.37000 130.051
52.38000 130.975
52.39000 132.164
52.40000 133.502
52.41000 135.941
52.42000 138.604
52.43000 140.426
52.44000 138.258
52.45000 135.574
52.46000 133.499
52.47000 137.099
52.48000 140.291
52.49000 142.279
52.50000 141.659
52.51000 140.950
52.52000 140.945
52.53000 141.976
52.54000 143.015
52.55000 141.488
52.56000 137.493
52.57000 133.530
52.58000 132.110
52.59000 132.304
52.60000 132.612
52.61000 135.727
52.62000 140.054
52.63000 144.120
52.64000 142.182
52.65000 138.802
52.66000 136.036
52.67000 137.625
52.68000 140.068
52.69000 141.656
52.70000 139.346
52.71000 136.556
52.72000 134.417
52.73000 138.424
52.74000 141.929
52.75000 144.312
52.76000 144.348
52.77000 144.310
52.78000 142.969
52.79000 139.781
52.80000 136.580
52.81000 135.541
52.82000 136.500
52.83000 137.454
52.84000 138.183
52.85000 138.772
52.86000 139.178
52.87000 135.400
52.88000 129.879
52.89000 124.710
52.90000 130.152
52.91000 137.835
52.92000 144.245
52.93000 141.991
52.94000 138.106
52.95000 135.091
52.96000 135.894
52.97000 137.147
52.98000 138.099
52.99000 139.902
53.00000 141.363
53.01000 142.652
53.02000 143.593
53.03000 144.524
53.04000 142.899
53.05000 137.786
53.06000 132.656
53.07000 131.528
53.08000 133.947
53.09000 136.341
53.10000 137.127
53.11000 136.966
53.12000 136.861
53.13000 137.965
53.14000 139.556
53.15000 141.040
53.16000 143.811
53.17000 146.639
53.18000 149.039
53.19000 148.642
53.20000 147.740
53.21000 147.070
53.22000 147.380
53.23000 147.800
53.24000 148.117
53.25000 143.703
53.26000 140.022
53.27000 137.576
53.28000 137.541
53.29000 137.568
53.30000 140.464
53.31000 147.130
53.32000 153.807
53.33000 154.810
53.34000 150.980
53.35000 147.231
53.36000 147.881
53.37000 151.038
53.38000 154.030
53.39000 153.768
53.40000 152.242
53.41000 150.825
53.42000 152.096
53.43000 153.882
53.44000 154.827
53.45000 150.521
53.46000 145.303
53.47000 141.152
53.48000 141.357
53.49000 142.030
53.50000 142.530
53.51000 141.948
53.52000 141.445
53.53000 142.015
53.54000 144.603
53.55000 147.239
53.56000 147.383
53.57000 144.376
53.58000 141.362
53.59000 142.389
53.60000 146.718
53.61000 150.932
53.62000 149.611
53.63000 145.247
53.64000 141.082
53.65000 140.575
53.66000 141.442
53.67000 142.243
53.68000 141.839
53.69000 141.201
53.70000 140.649
53.71000 140.616
53.72000 140.668
53.73000 140.553
53.74000 139.774
53.75000 138.928
53.76000 138.305
53.77000 143.983
53.78000 148.647
53.79000 148.594
53.80000 139.969
53.81000 131.163
53.82000 128.484
53.83000 133.264
53.84000 138.052
53.85000 138.195
53.86000 134.686
53.87000 131.253
53.88000 131.063
53.89000 132.595
53.90000 134.083
53.91000 134.827
53.92000 135.301
53.93000 135.737
53.94000 137.857
53.95000 140.122
53.96000 142.041
53.97000 141.968
53.98000 141.576
53.99000 140.777
54.00000 138.433
54.01000 135.938
54.02000 134.117
54.03000 136.388
54.04000 138.297
54.05000 139.610
54.06000 139.876
54.07000 140.122
54.08000 140.399
54.09000 140.710
54.10000 141.021
54.11000 139.650
54.12000 137.016
54.13000 134.486
54.14000 135.957
54.15000 139.477
54.16000 142.632
54.17000 139.885
54.18000 135.073
54.19000 130.662
54.20000 131.012
54.21000 132.325
54.22000 133.425
54.23000 133.353
54.24000 133.100
54.25000 133.820
54.26000 138.094
54.27000 142.696
54.28000 146.020
54.29000 138.507
54.30000 132.353
54.31000 129.134
54.32000 130.885
54.33000 132.718
54.34000 135.524
54.35000 139.427
54.36000 143.318
54.37000 145.077
54.38000 145.273
54.39000 145.383
54.40000 142.511
54.41000 138.164
54.42000 134.118
54.43000 134.638
54.44000 136.699
54.45000 138.580
54.46000 137.075
54.47000 135.057
54.48000 133.446
54.49000 133.999
54.50000 134.869
54.51000 135.697
54.52000 136.378
54.53000 137.046
54.54000 137.523
54.55000 132.137
54.56000 127.832
54.57000 126.165
54.58000 128.808
54.59000 131.512
54.60000 134.889
54.61000 138.994
54.62000 143.081
54.63000 141.664
54.64000 136.415
54.65000 131.386
54.66000 133.354
54.67000 138.663
54.68000 143.750
54.69000 145.642
54.70000 146.493
54.71000 147.266
54.72000 143.200
54.73000 138.674
54.74000 134.652
54.75000 133.208
54.76000 132.126
54.77000 131.212
54.78000 130.868
54.79000 130.571
54.80000 130.361
54.81000 131.268
54.82000 131.990
54.83000 133.100
54.84000 134.817
54.85000 136.542
54.86000 137.633
54.87000 138.064
54.88000 138.493
54.89000 137.564
54.90000 135.734
54.91000 133.941
54.92000 133.267
54.93000 133.109
54.94000 133.071
54.95000 134.659
54.96000 136.759
54.97000 138.657
54.98000 142.509
54.99000 146.259
55.00000 149.019
55.01000 146.918
55.02000 144.162
55.03000 141.740
55.04000 140.411
55.05000 139.167
55.06000 138.297
55.07000 137.165
55.08000 136.301
55.09000 136.433
55.10000 138.077
55.11000 139.737
55.12000 140.451
55.13000 140.223
55.14000 139.997
55.15000 138.306
55.16000 135.693
55.17000 133.277
55.18000 136.123
55.19000 141.311
55.20000 146.420
55.21000 150.521
55.22000 154.316
55.23000 157.729
55.24000 156.666
55.25000 154.942
55.26000 152.787
55.27000 148.598
55.28000 144.148
55.29000 141.597
55.30000 145.065
55.31000 148.977
55.32000 151.680
55.33000 151.178
55.34000 150.719
55.35000 151.122
55.36000 152.787
55.37000 154.464
55.38000 154.888
55.39000 154.114
55.40000 153.345
55.41000 153.167
55.42000 153.359
55.43000 153.603
55.44000 155.101
55.45000 157.139
55.46000 159.612
55.47000 167.319
55.48000 176.559
55.49000 184.823
55.50000 187.889
55.51000 189.678
55.52000 191.104
55.53000 190.880
55.54000 190.452
55.55000 192.162
55.56000 200.410
55.57000 209.114
55.58000 215.056
55.59000 217.531
55.60000 219.301
55.61000 222.349
55.62000 227.201
55.63000 232.065
55.64000 237.318
55.65000 242.928
55.66000 248.488
55.67000 263.874
55.68000 284.841
55.69000 305.279
55.70000 313.680
55.71000 317.081
55.72000 321.050
55.73000 331.481
55.74000 343.739
55.75000 354.642
55.76000 361.721
55.77000 367.244
55.78000 374.942
55.79000 392.171
55.80000 410.519
55.81000 427.476
55.82000 440.323
55.83000 452.902
55.84000 461.386
55.85000 478.826
55.86000 491.991
55.87000 502.684
55.88000 510.013
55.89000 517.326
55.90000 526.845
55.91000 538.316
55.92000 549.669
55.93000 559.743
55.94000 568.859
55.95000 577.505
55.96000 576.245
55.97000 571.012
55.98000 565.538
55.99000 557.463
56.00000 548.679
56.01000 540.909
56.02000 544.400
56.03000 549.171
56.04000 550.550
56.05000 537.606
56.06000 523.058
56.07000 508.917
56.08000 495.938
56.09000 483.030
56.10000 474.431
56.11000 454.779
56.12000 440.023
56.13000 429.609
56.14000 424.883
56.15000 420.171
56.16000 407.935
56.17000 389.299
56.18000 370.884
56.19000 360.373
56.20000 354.501
56.21000 348.201
56.22000 333.498
56.23000 315.541
56.24000 298.320
56.25000 288.662
56.26000 280.992
56.27000 274.244
56.28000 262.148
56.29000 250.943
56.30000 240.693
56.31000 234.335
56.32000 228.392
56.33000 222.616
56.34000 217.298
56.35000 212.006
56.36000 208.526
56.37000 201.815
56.38000 196.818
56.39000 192.391
56.40000 188.681
56.41000 184.971
56.42000 180.123
56.43000 174.344
56.44000 168.644
56.45000 165.727
56.46000 164.374
56.47000 162.975
56.48000 160.723
56.49000 158.153
56.50000 155.834
56.51000 155.976
56.52000 156.742
56.53000 157.412
56.54000 153.797
56.55000 150.090
56.56000 147.291
56.57000 148.051
56.58000 149.171
56.59000 148.934
56.60000 145.089
56.61000 141.050
56.62000 138.428
56.63000 135.725
56.64000 133.745
56.65000 133.110
56.66000 134.106
56.67000 135.106
56.68000 135.772
56.69000 136.177
56.70000 136.575
56.71000 136.997
56.72000 137.419
56.73000 137.833
56.74000 138.108
56.75000 138.332
56.76000 138.362
56.77000 136.579
56.78000 134.353
56.79000 132.418
56.80000 135.454
56.81000 138.720
56.82000 140.555
56.83000 136.987
56.84000 132.898
56.85000 130.511
56.86000 132.496
56.87000 134.700
56.88000 136.112
56.89000 134.358
56.90000 133.038
56.91000 132.234
56.92000 132.033
56.93000 131.835
56.94000 131.999
56.95000 132.436
56.96000 132.866
56.97000 131.609
56.98000 129.561
56.99000 127.530
57.00000 125.763
57.01000 124.089
57.02000 122.361
57.03000 120.158
57.04000 117.844
57.05000 115.845
57.06000 121.964
57.07000 128.213
57.08000 133.552
57.09000 135.569
57.10000 137.283
57.11000 136.917
57.12000 131.402
57.13000 125.645
57.14000 122.009
57.15000 121.018
57.16000 120.331
57.17000 121.518
57.18000 124.806
57.19000 128.054
57.20000 124.112
57.21000 114.918
57.22000 105.899
57.23000 108.420
57.24000 116.332
57.25000 123.809
57.26000 124.698
57.27000 123.369
57.28000 122.318
57.29000 123.615
57.30000 125.445
57.31000 127.016
57.32000 126.809
57.33000 126.415
57.34000 125.389
57.35000 122.146
57.36000 118.709
57.37000 117.422
57.38000 121.277
57.39000 125.357
57.40000 127.897
57.41000 133.617
57.42000 137.771
57.43000 135.772
57.44000 127.135
57.45000 118.539
57.46000 115.869
57.47000 117.368
57.48000 118.836
57.49000 118.074
57.50000 116.322
57.51000 114.912
57.52000 118.375
57.53000 123.422
57.54000 128.042
57.55000 129.226
57.56000 129.661
57.57000 130.032
57.58000 124.934
57.59000 119.998
57.60000 115.839
57.61000 114.315
57.62000 113.007
57.63000 112.615
57.64000 114.340
57.65000 116.150
57.66000 117.261
57.67000 115.285
57.68000 113.842
57.69000 115.437
57.70000 120.180
57.71000 124.896
57.72000 126.645
57.73000 126.381
57.74000 126.124
57.75000 125.711
57.76000 125.247
57.77000 124.796
57.78000 124.507
57.79000 124.269
57.80000 124.083
57.81000 124.290
57.82000 124.581
57.83000 124.827
57.84000 122.093
57.85000 119.467
57.86000 118.338
57.87000 122.105
57.88000 126.254
57.89000 127.726
57.90000 123.229
57.91000 118.510
57.92000 115.656
57.93000 118.857
57.94000 121.183
57.95000 123.999
57.96000 127.303
57.97000 130.537
57.98000 127.246
57.99000 119.688
58.00000 112.322
58.01000 112.276
58.02000 115.333
58.03000 118.258
58.04000 119.522
58.05000 120.282
58.06000 120.747
58.07000 119.033
58.08000 116.880
58.09000 115.067
58.10000 116.300
58.11000 117.655
58.12000 118.968
58.13000 120.149
58.14000 121.321
58.15000 121.618
58.16000 120.031
58.17000 118.381
58.18000 117.398
58.19000 114.492
58.20000 112.422
58.21000 111.186
58.22000 110.747
58.23000 110.350
58.24000 113.317
58.25000 118.407
58.26000 123.354
58.27000 123.694
58.28000 122.140
58.29000 120.659
58.30000 120.068
58.31000 119.736
58.32000 119.140
58.33000 116.673
58.34000 113.842
58.35000 111.476
58.36000 110.621
58.37000 110.064
58.38000 109.984
58.39000 111.356
58.40000 112.828
58.41000 113.544
58.42000 112.686
58.43000 111.779
58.44000 111.248
58.45000 113.415
58.46000 114.954
58.47000 114.686
58.48000 112.759
58.49000 110.906
58.50000 114.086
58.51000 120.327
58.52000 126.379
58.53000 125.370
58.54000 121.644
58.55000 118.232
58.56000 118.399
58.57000 119.574
58.58000 120.178
58.59000 116.928
58.60000 112.959
58.61000 109.664
58.62000 112.984
58.63000 116.367
58.64000 118.782
58.65000 118.349
58.66000 117.730
58.67000 115.656
58.68000 110.659
58.69000 105.580
58.70000 102.650
58.71000 104.394
58.72000 105.635
58.73000 107.544
58.74000 110.043
58.75000 112.530
58.76000 114.268
58.77000 115.568
58.78000 116.824
58.79000 116.077
58.80000 114.615
58.81000 113.573
58.82000 117.052
58.83000 121.760
58.84000 125.863
58.85000 126.056
58.86000 125.547
58.87000 125.127
58.88000 116.783
58.89000 109.191
58.90000 104.822
58.91000 109.616
58.92000 114.970
58.93000 119.574
58.94000 122.721
58.95000 125.831
58.96000 127.595
58.97000 121.621
58.98000 117.443
58.99000 115.448
59.00000 115.305
59.01000 115.161
59.02000 114.970
59.03000 114.753
59.04000 114.544
59.05000 115.977
59.06000 117.921
59.07000 119.768
59.08000 120.623
59.09000 121.218
59.10000 121.910
59.11000 123.203
59.12000 124.601
59.13000 125.743
59.14000 122.888
59.15000 120.201
59.16000 118.937
59.17000 121.573
59.18000 124.433
59.19000 123.317
59.20000 114.757
59.21000 106.025
59.22000 101.155
59.23000 105.336
59.24000 108.252
59.25000 112.094
59.26000 116.692
59.27000 121.161
59.28000 119.564
59.29000 114.651
59.30000 109.928
59.31000 109.698
59.32000 111.054
59.33000 112.283
59.34000 112.289
59.35000 111.986
59.36000 111.544
59.37000 110.271
59.38000 108.860
59.39000 107.716
59.40000 109.614
59.41000 111.412
59.42000 113.581
59.43000 116.734
59.44000 119.940
59.45000 120.739
59.46000 117.186
59.47000 113.543
59.48000 111.547
59.49000 114.012
59.50000 115.716
59.51000 117.792
59.52000 120.162
59.53000 122.473
59.54000 122.361
59.55000 120.970
59.56000 119.636
59.57000 120.927
59.58000 123.014
59.59000 124.582
59.60000 121.350
59.61000 116.950
59.62000 113.597
59.63000 116.237
59.64000 119.827
59.65000 122.718
59.66000 119.564
59.67000 116.533
59.68000 114.536
59.69000 115.183
59.70000 115.963
59.71000 115.282
59.72000 112.052
59.73000 108.775
59.74000 107.012
59.75000 116.747
59.76000 123.391
59.77000 125.790
59.78000 124.980
59.79000 124.169
59.80000 123.320
59.81000 122.452
59.82000 121.622
59.83000 117.783
59.84000 113.239
59.85000 109.287
59.86000 110.560
59.87000 113.058
59.88000 114.875
59.89000 112.954
59.90000 110.464
59.91000 108.475
59.92000 113.086
59.93000 117.297
59.94000 119.410
59.95000 116.342
59.96000 113.032
59.97000 111.384
59.98000 112.534
59.99000 113.728
60.00000 114.358
60.01000 118.291
60.02000 120.936
60.03000 118.905
60.04000 113.471
60.05000 108.244
60.06000 110.104
60.07000 115.450
60.08000 120.542
60.09000 116.046
60.10000 108.899
60.11000 102.713
60.12000 104.610
60.13000 108.334
60.14000 112.032
60.15000 115.595
60.16000 119.139
60.17000 121.946
60.18000 121.733
60.19000 121.353
60.20000 120.205
60.21000 117.229
60.22000 114.173
60.23000 112.647
60.24000 113.605
60.25000 114.598
60.26000 115.113
60.27000 117.039
60.28000 118.332
60.29000 118.796
60.30000 118.678
60.31000 118.560
60.32000 118.463
60.33000 118.375
60.34000 118.292
60.35000 116.488
60.36000 114.308
60.37000 112.468
60.38000 113.357
60.39000 114.839
60.40000 116.291
60.41000 117.589
60.42000 118.866
60.43000 119.869
60.44000 115.225
60.45000 111.139
60.46000 107.490
60.47000 104.848
60.48000 102.246
60.49000 103.006
60.50000 109.030
60.51000 115.117
60.52000 118.210
60.53000 116.070
60.54000 114.657
60.55000 115.549
60.56000 117.999
60.57000 120.331
60.58000 119.240
60.59000 116.582
60.60000 114.066
60.61000 113.485
60.62000 113.507
60.63000 114.003
60.64000 118.135
60.65000 123.029
60.66000 126.184
60.67000 120.843
60.68000 114.368
60.69000 109.326
60.70000 113.946
60.71000 118.222
60.72000 120.698
60.73000 119.174
60.74000 117.503
60.75000 115.731
60.76000 113.807
60.77000 111.882
60.78000 111.843
60.79000 113.676
60.80000 115.511
60.81000 117.647
60.82000 119.979
60.83000 122.273
60.84000 123.587
60.85000 124.466
60.86000 125.295
60.87000 120.787
60.88000 115.185
60.89000 110.439
60.90000 111.983
60.91000 114.794
60.92000 117.673
60.93000 120.870
60.94000 124.109
60.95000 126.607
60.96000 127.117
60.97000 127.406
60.98000 126.420
60.99000 122.696
61.00000 118.880
61.01000 118.104
61.02000 121.756
61.03000 125.445
61.04000 124.013
61.05000 117.709
61.06000 111.464
61.07000 109.884
61.08000 111.235
61.09000 112.572
61.10000 113.541
61.11000 114.352
61.12000 115.114
61.13000 113.047
61.14000 110.411
61.15000 108.474
61.16000 111.446
61.17000 115.369
61.18000 118.327
61.19000 116.923
61.20000 114.986
61.21000 113.505
61.22000 111.642
61.23000 110.151
61.24000 111.673
61.25000 119.446
61.26000 127.411
61.27000 129.853
61.28000 124.547
61.29000 119.190
61.30000 117.642
61.31000 119.577
61.32000 121.489
61.33000 121.936
61.34000 121.493
61.35000 121.019
61.36000 119.821
61.37000 118.326
61.38000 116.928
61.39000 121.285
61.40000 126.712
61.41000 130.907
61.42000 126.812
61.43000 121.173
61.44000 117.194
61.45000 120.443
61.46000 124.534
61.47000 127.634
61.48000 127.559
61.49000 127.339
61.50000 131.044
61.51000 142.610
61.52000 154.396
61.53000 167.301
61.54000 181.719
61.55000 196.137
61.56000 209.253
61.57000 221.206
61.58000 233.151
61.59000 244.563
61.60000 255.665
61.61000 266.494
61.62000 271.638
61.63000 274.515
61.64000 277.196
61.65000 282.000
61.66000 286.867
61.67000 291.156
61.68000 291.715
61.69000 291.608
61.70000 291.305
61.71000 290.182
61.72000 288.969
61.73000 288.058
61.74000 279.139
61.75000 271.790
61.76000 263.742
61.77000 254.341
61.78000 244.906
61.79000 232.388
61.80000 215.858
61.81000 199.326
61.82000 186.824
61.83000 177.750
61.84000 168.685
61.85000 160.003
61.86000 151.539
61.87000 143.251
61.88000 138.399
61.89000 134.870
61.90000 131.596
61.91000 132.488
61.92000 134.273
61.93000 135.859
61.94000 136.222
61.95000 136.375
61.96000 136.464
61.97000 136.300
61.98000 136.108
61.99000 135.966
62.00000 131.791
62.01000 128.367
62.02000 126.804
62.03000 128.714
62.04000 130.703
62.05000 130.600
62.06000 127.873
62.07000 125.142
62.08000 123.690
62.09000 123.279
62.10000 122.905
62.11000 124.233
62.12000 126.488
62.13000 128.603
62.14000 128.153
62.15000 126.750
62.16000 125.453
62.17000 122.206
62.18000 118.852
62.19000 116.379
62.20000 119.138
62.21000 122.761
62.22000 126.038
62.23000 127.970
62.24000 129.767
62.25000 131.089
62.26000 131.106
62.27000 131.066
62.28000 129.718
62.29000 126.016
62.30000 122.265
62.31000 119.696
62.32000 118.551
62.33000 117.411
62.34000 118.363
62.35000 120.937
62.36000 123.490
62.37000 125.183
62.38000 126.422
62.39000 127.614
62.40000 127.993
62.41000 128.081
62.42000 128.162
62.43000 130.824
62.44000 133.762
62.45000 136.268
62.46000 136.309
62.47000 135.960
62.48000 134.458
62.49000 128.619
62.50000 122.366
62.51000 117.813
62.52000 122.319
62.53000 126.134
62.54000 127.742
62.55000 125.510
62.56000 123.208
62.57000 121.837
62.58000 121.545
62.59000 121.254
62.60000 121.778
62.61000 122.907
62.62000 124.105
62.63000 127.877
62.64000 132.956
62.65000 137.860
62.66000 139.986
62.67000 141.149
62.68000 142.213
62.69000 137.507
62.70000 132.120
62.71000 127.236
62.72000 125.105
62.73000 123.392
62.74000 122.336
62.75000 123.663
62.76000 125.206
62.77000 126.318
62.78000 122.663
62.79000 119.694
62.80000 119.262
62.81000 123.087
62.82000 126.980
62.83000 127.867
62.84000 125.403
62.85000 122.944
62.86000 122.541
62.87000 123.619
62.88000 124.668
62.89000 124.746
62.90000 124.348
62.91000 124.153
62.92000 126.981
62.93000 130.821
62.94000 134.320
62.95000 132.522
62.96000 129.872
62.97000 127.611
62.98000 127.401
62.99000 127.489
63.00000 127.791
63.01000 128.844
63.02000 129.962
63.03000 130.758
63.04000 130.704
63.05000 130.636
63.06000 130.694
63.07000 130.958
63.08000 131.224
63.09000 134.244
63.10000 140.214
63.11000 146.158
63.12000 145.505
63.13000 140.294
63.14000 135.170
63.15000 132.740
63.16000 131.586
63.17000 130.658
63.18000 132.925
63.19000 136.223
63.20000 139.214
63.21000 134.786
63.22000 129.460
63.23000 125.490
63.24000 128.383
63.25000 132.232
63.26000 135.780
63.27000 138.319
63.28000 140.775
63.29000 142.506
63.30000 137.638
63.31000 133.747
63.32000 133.146
63.33000 137.682
63.34000 142.278
63.35000 141.864
63.36000 136.293
63.37000 130.753
63.38000 128.553
63.39000 128.604
63.40000 128.765
63.41000 132.025
63.42000 136.703
63.43000 140.731
63.44000 136.141
63.45000 128.864
63.46000 122.297
63.47000 126.729
63.48000 132.640
63.49000 137.638
63.50000 138.199
63.51000 138.169
63.52000 137.358
63.53000 134.003
63.54000 130.451
63.55000 127.976
63.56000 130.726
63.57000 132.944
63.58000 134.314
63.59000 134.405
63.60000 134.483
63.61000 133.758
63.62000 132.239
63.63000 130.729
63.64000 131.877
63.65000 134.709
63.66000 137.515
63.67000 139.640
63.68000 141.464
63.69000 142.923
63.70000 139.810
63.71000 135.321
63.72000 131.290
63.73000 132.590
63.74000 134.663
63.75000 136.497
63.76000 137.213
63.77000 137.787
63.78000 137.794
63.79000 136.021
63.80000 134.119
63.81000 132.808
63.82000 138.811
63.83000 143.501
63.84000 146.194
63.85000 145.990
63.86000 145.762
63.87000 142.057
63.88000 135.053
63.89000 128.105
63.90000 129.454
63.91000 135.889
63.92000 142.097
63.93000 142.801
63.94000 141.159
63.95000 139.842
63.96000 142.392
63.97000 146.064
63.98000 149.344
63.99000 148.700
64.00000 147.479
64.01000 145.597
64.02000 140.734
64.03000 135.510
64.04000 131.704
64.05000 132.202
64.06000 132.994
64.07000 133.534
64.08000 144.285
64.09000 152.549
64.10000 155.221
64.11000 150.075
64.12000 144.879
64.13000 144.103
64.14000 147.355
64.15000 150.578
64.16000 149.790
64.17000 146.641
64.18000 143.702
64.19000 145.415
64.20000 149.044
64.21000 152.415
64.22000 152.869
64.23000 152.506
64.24000 152.184
64.25000 151.323
64.26000 150.489
64.27000 149.360
64.28000 146.944
64.29000 144.379
64.30000 143.246
64.31000 146.303
64.32000 149.630
64.33000 151.867
64.34000 151.918
64.35000 151.910
64.36000 152.588
64.37000 154.192
64.38000 155.796
64.39000 153.948
64.40000 149.077
64.41000 144.258
64.42000 146.584
64.43000 152.931
64.44000 158.901
64.45000 157.068
64.46000 152.134
64.47000 147.909
64.48000 151.260
64.49000 156.657
64.50000 161.424
64.51000 166.754
64.52000 171.443
64.53000 173.659
64.54000 165.533
64.55000 156.264
64.56000 150.087
64.57000 152.646
64.58000 155.735
64.59000 157.786
64.60000 156.668
64.61000 155.784
64.62000 156.303
64.63000 158.644
64.64000 160.995
64.65000 164.855
64.66000 169.986
64.67000 175.055
64.68000 173.993
64.69000 169.593
64.70000 165.397
64.71000 165.138
64.72000 166.392
64.73000 167.668
64.74000 169.184
64.75000 170.763
64.76000 172.149
64.77000 177.821
64.78000 183.327
64.79000 187.478
64.80000 186.165
64.81000 184.277
64.82000 181.765
64.83000 177.554
64.84000 173.247
64.85000 170.424
64.86000 169.180
64.87000 168.292
64.88000 168.749
64.89000 170.887
64.90000 173.027
64.91000 174.195
64.92000 174.575
64.93000 174.950
64.94000 179.314
64.95000 185.662
64.96000 191.707
64.97000 192.296
64.98000 190.863
64.99000 189.511
65.00000 188.947
65.01000 188.582
65.02000 188.262
65.03000 186.004
65.04000 183.798
65.05000 182.085
65.06000 182.287
65.07000 182.680
65.08000 184.627
65.09000 190.666
65.10000 196.922
65.11000 200.970
65.12000 202.913
65.13000 204.303
65.14000 203.436
65.15000 199.856
65.16000 196.278
65.17000 194.957
65.18000 195.397
65.19000 195.829
65.20000 203.246
65.21000 213.981
65.22000 224.400
65.23000 229.480
65.24000 232.650
65.25000 235.521
65.26000 235.654
65.27000 235.124
65.28000 234.664
65.29000 230.105
65.30000 225.669
65.31000 223.321
65.32000 228.795
65.33000 235.014
65.34000 240.419
65.35000 243.754
65.36000 246.987
65.37000 249.050
65.38000 248.241
65.39000 247.616
65.40000 252.885
65.41000 264.969
65.42000 277.012
65.43000 278.792
65.44000 272.864
65.45000 267.040
65.46000 272.259
65.47000 282.702
65.48000 292.504
65.49000 292.155
65.50000 288.298
65.51000 285.413
65.52000 291.040
65.53000 298.650
65.54000 305.215
65.55000 314.220
65.56000 322.171
65.57000 331.726
65.58000 347.076
65.59000 362.949
65.60000 376.548
65.61000 384.557
65.62000 392.310
65.63000 397.191
65.64000 440.941
65.65000 473.036
65.66000 512.163
65.67000 559.105
65.68000 606.189
65.69000 674.891
65.70000 759.237
65.71000 841.937
65.72000 950.719
65.73000 1067.733
65.74000 1184.771
65.75000 1302.149
65.76000 1419.642
65.77000 1535.818
65.78000 1641.001
65.79000 1743.716
65.80000 1831.768
65.81000 1869.005
65.82000 1894.239
65.83000 1918.521
65.84000 1939.489
65.85000 1960.173
65.86000 1972.091
65.87000 1963.216
65.88000 1953.456
65.89000 1947.399
65.90000 1905.223
65.91000 1874.521
65.92000 1825.008
65.93000 1755.405
65.94000 1685.634
65.95000 1594.941
65.96000 1489.657
65.97000 1386.649
65.98000 1253.142
65.99000 1111.200
66.00000 971.746
66.01000 867.139
66.02000 773.755
66.03000 683.828
66.04000 621.470
66.05000 565.071
66.06000 517.036
66.07000 488.101
66.08000 466.000
66.09000 445.513
66.10000 430.455
66.11000 415.839
66.12000 404.100
66.13000 398.955
66.14000 394.070
66.15000 391.082
66.16000 382.390
66.17000 376.123
66.18000 368.419
66.19000 359.243
66.20000 350.174
66.21000 352.473
66.22000 362.413
66.23000 372.116
66.24000 387.332
66.25000 404.289
66.26000 421.565
66.27000 443.051
66.28000 465.845
66.29000 488.843
66.30000 513.387
66.31000 538.254
66.32000 559.292
66.33000 567.953
66.34000 573.828
66.35000 581.035
66.36000 592.563
66.37000 604.424
66.38000 614.321
66.39000 619.877
66.40000 625.276
66.41000 628.528
66.42000 623.765
66.43000 620.320
66.44000 616.318
66.45000 611.768
66.46000 607.224
66.47000 603.305
66.48000 599.790
66.49000 596.366
66.50000 575.394
66.51000 548.040
66.52000 521.198
66.53000 500.765
66.54000 482.254
66.55000 464.132
66.56000 448.844
66.57000 434.124
66.58000 421.754
66.59000 403.049
66.60000 386.795
66.61000 373.420
66.62000 369.056
66.63000 365.345
66.64000 362.923
66.65000 363.252
66.66000 363.672
66.67000 363.922
66.68000 362.624
66.69000 361.696
66.70000 355.995
66.71000 345.780
66.72000 335.695
66.73000 335.523
66.74000 341.546
66.75000 347.397
66.76000 345.279
66.77000 340.049
66.78000 335.749
66.79000 342.433
66.80000 352.296
66.81000 360.905
66.82000 360.757
66.83000 358.923
66.84000 357.393
66.85000 358.384
66.86000 359.459
66.87000 360.263
66.88000 360.246
66.89000 360.173
66.90000 361.986
66.91000 367.689
66.92000 373.510
66.93000 376.910
66.94000 365.232
66.95000 356.952
66.96000 357.383
66.97000 365.724
66.98000 373.969
66.99000 375.799
67.00000 373.763
67.01000 371.789
67.02000 375.605
67.03000 381.468
67.04000 386.572
67.05000 383.186
67.06000 377.429
67.07000 372.164
67.08000 370.185
67.09000 368.813
67.10000 367.677
67.11000 376.473
67.12000 384.683
67.13000 388.971
67.14000 381.818
67.15000 373.931
67.16000 372.207
67.17000 382.758
67.18000 393.646
67.19000 399.902
67.20000 391.637
67.21000 385.805
67.22000 381.755
67.23000 379.259
67.24000 376.905
67.25000 382.828
67.26000 393.563
67.27000 403.938
67.28000 408.099
67.29000 409.699
67.30000 410.630
67.31000 404.447
67.32000 396.349
67.33000 389.797
67.34000 393.144
67.35000 398.251
67.36000 402.451
67.37000 397.161
67.38000 391.954
67.39000 389.380
67.40000 394.222
67.41000 399.511
67.42000 401.842
67.43000 398.488
67.44000 394.992
67.45000 393.017
67.46000 397.174
67.47000 400.087
67.48000 406.308
67.49000 415.307
67.50000 424.266
67.51000 431.135
67.52000 436.831
67.53000 442.320
67.54000 437.063
67.55000 428.258
67.56000 420.232
67.57000 420.076
67.58000 421.964
67.59000 424.898
67.60000 434.263
67.61000 444.725
67.62000 453.264
67.63000 451.803
67.64000 449.750
67.65000 447.902
67.66000 446.615
67.67000 445.360
67.68000 446.344
67.69000 451.485
67.70000 456.719
67.71000 459.625
67.72000 462.188
67.73000 463.954
67.74000 464.504
67.75000 464.072
67.76000 463.599
67.77000 461.260
67.78000 457.909
67.79000 454.689
67.80000 455.707
67.81000 458.126
67.82000 460.926
67.83000 467.377
67.84000 474.743
67.85000 481.438
67.86000 484.185
67.87000 486.286
67.88000 487.987
67.89000 484.858
67.90000 481.917
67.91000 482.374
67.92000 491.754
67.93000 501.604
67.94000 503.074
67.95000 489.532
67.96000 475.692
67.97000 468.142
67.98000 478.716
67.99000 485.993
68.00000 491.002
68.01000 494.247
68.02000 497.450
68.03000 498.951
68.04000 499.561
68.05000 500.146
68.06000 510.835
68.07000 524.170
68.08000 535.549
68.09000 529.044
68.10000 518.226
68.11000 510.552
68.12000 520.676
68.13000 533.596
68.14000 543.978
68.15000 548.438
68.16000 551.598
68.17000 554.585
68.18000 557.131
68.19000 559.656
68.20000 560.481
68.21000 558.367
68.22000 556.201
68.23000 555.041
68.24000 558.161
68.25000 560.282
68.26000 560.000
68.27000 557.917
68.28000 556.123
68.29000 564.935
68.30000 579.103
68.31000 592.631
68.32000 596.008
68.33000 595.897
68.34000 596.103
68.35000 599.076
68.36000 602.692
68.37000 606.231
68.38000 609.348
68.39000 612.402
68.40000 614.836
68.41000 617.154
68.42000 619.016
68.43000 624.734
68.44000 639.894
68.45000 655.486
68.46000 670.511
68.47000 684.593
68.48000 698.660
68.49000 706.056
68.50000 691.075
68.51000 681.000
68.52000 685.252
68.53000 699.840
68.54000 714.476
68.55000 730.720
68.56000 747.749
68.57000 763.955
68.58000 791.132
68.59000 819.665
68.60000 848.224
68.61000 877.006
68.62000 905.837
68.63000 938.039
68.64000 987.859
68.65000 1040.222
68.66000 1081.609
68.67000 1116.688
68.68000 1144.423
68.69000 1177.198
68.70000 1221.893
68.71000 1267.092
68.72000 1312.302
68.73000 1357.528
68.74000 1402.754
68.75000 1426.076
68.76000 1503.014
68.77000 1554.798
68.78000 1600.240
68.79000 1641.274
68.80000 1682.634
68.81000 1733.973
68.82000 1790.007
68.83000 1843.154
68.84000 1937.615
68.85000 2036.938
68.86000 2139.203
68.87000 2264.845
68.88000 2395.522
68.89000 2568.484
68.90000 2954.021
68.91000 3368.915
68.92000 3694.063
68.93000 5081.651
68.94000 6259.194
68.95000 7832.424
68.96000 10309.438
68.97000 12821.759
68.98000 15735.743
68.99000 19272.988
69.00000 22817.387
69.01000 24609.027
69.02000 29288.074
69.03000 32412.258
69.04000 34844.402
69.05000 36812.816
69.06000 38755.285
69.07000 39971.828
69.08000 40858.449
69.09000 41696.430
69.10000 42350.613
69.11000 42899.094
69.12000 43468.738
69.13000 44199.105
69.14000 44962.801
69.15000 45700.934
69.16000 46315.453
69.17000 46913.648
69.18000 47378.367
69.19000 46141.035
69.20000 45053.473
69.21000 43470.020
69.22000 40792.773
69.23000 38076.203
69.24000 35416.578
69.25000 32842.145
69.26000 30268.568
69.27000 28118.912
69.28000 26385.230
69.29000 24657.627
69.30000 23465.432
69.31000 22619.160
69.32000 21790.721
69.33000 21421.313
69.34000 21253.363
69.35000 21095.209
69.36000 20607.135
69.37000 20070.424
69.38000 19437.781
69.39000 18108.357
69.40000 16639.955
69.41000 15108.656
69.42000 13284.624
69.43000 11423.628
69.44000 9990.752
69.45000 8182.245
69.46000 6729.131
69.47000 5438.304
69.48000 4493.133
69.49000 3559.352
69.50000 2836.898
69.51000 2419.218
69.52000 2004.034
69.53000 1715.910
69.54000 1547.549
69.55000 1380.080
69.56000 1279.832
69.57000 1221.469
69.58000 1163.114
69.59000 1104.915
69.60000 1046.783
69.61000 992.249
69.62000 961.223
69.63000 939.135
69.64000 915.882
69.65000 884.527
69.66000 851.617
69.67000 820.077
69.68000 794.671
69.69000 770.005
69.70000 751.186
69.71000 740.887
69.72000 733.229
69.73000 722.273
69.74000 704.537
69.75000 686.596
69.76000 669.457
69.77000 653.430
69.78000 637.415
69.79000 626.409
69.80000 619.944
69.81000 613.374
69.82000 600.018
69.83000 582.581
69.84000 565.807
69.85000 563.600
69.86000 567.357
69.87000 570.867
69.88000 566.442
69.89000 560.423
69.90000 552.759
69.91000 534.133
69.92000 513.487
69.93000 498.513
69.94000 508.020
69.95000 520.344
69.96000 529.658
69.97000 510.643
69.98000 494.316
69.99000 483.621
70.00000 484.109
