20.00000 482.616
20.01000 480.836
20.02000 478.803
20.03000 477.115
20.04000 476.781
20.05000 476.586
20.06000 476.443
20.07000 476.549
20.08000 476.643
20.09000 475.787
20.10000 473.206
20.11000 470.588
20.12000 476.225
20.13000 491.915
20.14000 507.599
20.15000 509.437
20.16000 500.377
20.17000 491.439
20.18000 487.729
20.19000 486.794
20.20000 485.648
20.21000 480.861
20.22000 474.755
20.23000 469.132
20.24000 466.016
20.25000 463.778
20.26000 463.596
20.27000 475.259
20.28000 488.817
20.29000 497.726
20.30000 489.003
20.31000 478.571
20.32000 470.956
20.33000 469.532
20.34000 468.676
20.35000 469.480
20.36000 473.195
20.37000 476.965
20.38000 478.492
20.39000 477.393
20.40000 476.293
20.41000 472.276
20.42000 466.081
20.43000 460.084
20.44000 461.770
20.45000 467.392
20.46000 472.822
20.47000 475.141
20.48000 476.373
20.49000 477.502
20.50000 474.578
20.51000 471.121
20.52000 467.121
20.53000 460.120
20.54000 452.658
20.55000 447.071
20.56000 448.344
20.57000 450.249
20.58000 451.624
20.59000 461.282
20.60000 468.990
20.61000 473.498
20.62000 472.591
20.63000 471.595
20.64000 471.219
20.65000 471.543
20.66000 471.866
20.67000 468.413
20.68000 462.246
20.69000 456.245
20.70000 456.092
20.71000 458.831
20.72000 461.606
20.73000 464.929
20.74000 468.437
20.75000 471.638
20.76000 464.813
20.77000 456.738
20.78000 451.201
20.79000 459.150
20.80000 469.081
20.81000 476.816
20.82000 476.804
20.83000 476.115
20.84000 475.623
20.85000 469.919
20.86000 465.392
20.87000 462.634
20.88000 462.766
20.89000 462.940
20.90000 459.099
20.91000 450.912
20.92000 442.758
20.93000 444.075
20.94000 452.000
20.95000 459.917
20.96000 467.590
20.97000 475.147
20.98000 481.897
20.99000 477.099
21.00000 468.538
21.01000 460.765
21.02000 460.494
21.03000 461.706
21.04000 462.060
21.05000 458.029
21.06000 453.381
21.07000 451.253
21.08000 457.702
21.09000 464.859
21.10000 469.918
21.11000 466.269
21.12000 463.230
21.13000 462.866
21.14000 466.717
21.15000 470.619
21.16000 468.453
21.17000 459.974
21.18000 451.540
21.19000 453.220
21.20000 461.678
21.21000 469.953
21.22000 472.899
21.23000 473.386
21.24000 473.484
21.25000 468.333
21.26000 461.531
21.27000 455.385
21.28000 455.335
21.29000 456.421
21.30000 457.967
21.31000 461.774
21.32000 465.886
21.33000 465.809
21.34000 451.975
21.35000 437.065
21.36000 426.644
21.37000 448.880
21.38000 466.601
21.39000 476.958
21.40000 476.127
21.41000 475.178
21.42000 472.238
21.43000 467.310
21.44000 462.414
21.45000 462.820
21.46000 466.651
21.47000 470.338
21.48000 470.192
21.49000 468.340
21.50000 466.653
21.51000 467.081
21.52000 468.150
21.53000 469.111
21.54000 467.385
21.55000 465.396
21.56000 463.172
21.57000 459.836
21.58000 456.357
21.59000 452.991
21.60000 449.979
21.61000 446.993
21.62000 444.931
21.63000 456.282
21.64000 465.161
21.65000 469.467
21.66000 467.077
21.67000 464.629
21.68000 466.679
21.69000 473.041
21.70000 479.356
21.71000 479.380
21.72000 475.492
21.73000 471.881
21.74000 475.058
21.75000 481.155
21.76000 486.291
21.77000 479.866
21.78000 470.054
21.79000 461.278
21.80000 460.592
21.81000 461.369
21.82000 463.025
21.83000 468.683
21.84000 474.834
21.85000 479.515
21.86000 479.701
21.87000 479.574
21.88000 479.487
21.89000 492.531
21.90000 502.594
21.91000 507.850
21.92000 506.319
21.93000 504.738
21.94000 500.696
21.95000 494.390
21.96000 488.140
21.97000 488.230
21.98000 492.114
21.99000 495.892
22.00000 497.282
22.01000 497.679
22.02000 498.055
22.03000 498.176
22.04000 498.225
22.05000 498.269
22.06000 491.683
22.07000 484.886
22.08000 482.166
22.09000 497.316
22.10000 514.565
22.11000 526.715
22.12000 523.808
22.13000 519.915
22.14000 517.289
22.15000 511.002
22.16000 506.246
22.17000 501.989
22.18000 498.412
22.19000 494.837
22.20000 488.730
22.21000 480.382
22.22000 472.121
22.23000 470.631
22.24000 473.075
22.25000 475.074
22.26000 467.707
22.27000 456.582
22.28000 446.743
22.29000 450.810
22.30000 458.668
22.31000 465.619
22.32000 472.507
22.33000 478.451
22.34000 481.937
22.35000 475.048
22.36000 466.998
22.37000 460.516
22.38000 458.508
22.39000 456.775
22.40000 455.620
22.41000 456.909
22.42000 457.910
22.43000 456.708
22.44000 452.622
22.45000 448.529
22.46000 448.428
22.47000 451.723
22.48000 454.979
22.49000 453.517
22.50000 449.477
22.51000 445.647
22.52000 445.940
22.53000 447.830
22.54000 449.174
22.55000 444.907
22.56000 439.165
22.57000 434.114
22.58000 436.123
22.59000 438.904
22.60000 441.428
22.61000 442.907
22.62000 444.274
22.63000 443.898
22.64000 438.722
22.65000 433.269
22.66000 429.683
22.67000 433.030
22.68000 435.613
22.69000 438.156
22.70000 440.648
22.71000 443.144
22.72000 447.669
22.73000 453.852
22.74000 459.953
22.75000 459.056
22.76000 454.453
22.77000 449.905
22.78000 446.368
22.79000 443.210
22.80000 440.197
22.81000 438.600
22.82000 437.361
22.83000 436.279
22.84000 435.827
22.85000 435.530
22.86000 435.766
22.87000 438.093
22.88000 440.632
22.89000 442.648
22.90000 443.276
22.91000 443.829
22.92000 444.187
22.93000 444.325
22.94000 444.422
22.95000 444.275
22.96000 443.829
22.97000 443.392
22.98000 445.700
22.99000 450.172
23.00000 454.575
23.01000 452.053
23.02000 446.052
23.03000 440.397
23.04000 440.675
23.05000 443.096
23.06000 444.988
23.07000 441.951
23.08000 437.711
23.09000 434.026
23.10000 437.488
23.11000 441.414
23.12000 445.151
23.13000 448.173
23.14000 451.126
23.15000 452.399
23.16000 449.358
23.17000 446.101
23.18000 444.014
23.19000 455.314
23.20000 463.725
23.21000 466.048
23.22000 461.262
23.23000 456.471
23.24000 453.022
23.25000 450.590
23.26000 448.199
23.27000 446.007
23.28000 443.987
23.29000 442.403
23.30000 447.832
23.31000 455.707
23.32000 462.241
23.33000 456.896
23.34000 448.756
23.35000 441.722
23.36000 441.800
23.37000 442.789
23.38000 444.224
23.39000 447.286
23.40000 450.498
23.41000 452.428
23.42000 451.184
23.43000 449.792
23.44000 448.912
23.45000 436.201
23.46000 426.852
23.47000 422.825
23.48000 424.773
23.49000 426.725
23.50000 428.410
23.51000 429.902
23.52000 431.364
23.53000 434.860
23.54000 439.194
23.55000 443.576
23.56000 448.670
23.57000 454.004
23.58000 458.257
23.59000 453.380
23.60000 446.434
23.61000 440.470
23.62000 441.309
23.63000 442.861
23.64000 445.943
23.65000 454.407
23.66000 463.338
23.67000 470.814
23.68000 474.806
23.69000 478.647
23.70000 481.040
23.71000 463.582
23.72000 450.801
23.73000 451.286
23.74000 466.085
23.75000 480.805
23.76000 484.183
23.77000 479.575
23.78000 475.064
23.79000 475.564
23.80000 478.336
23.81000 481.234
23.82000 485.914
23.83000 491.173
23.84000 496.558
23.85000 502.957
23.86000 509.577
23.87000 515.225
23.88000 517.818
23.89000 519.640
23.90000 521.622
23.91000 524.152
23.92000 526.727
23.93000 526.879
23.94000 521.428
23.95000 515.752
23.96000 512.268
23.97000 511.948
23.98000 511.746
23.99000 515.205
24.00000 522.457
24.01000 529.644
24.02000 529.666
24.03000 524.826
24.04000 520.099
24.05000 514.605
24.06000 509.009
24.07000 503.434
24.08000 498.152
24.09000 492.962
24.10000 488.557
24.11000 490.198
24.12000 493.111
24.13000 495.579
24.14000 493.780
24.15000 491.794
24.16000 489.577
24.17000 486.602
24.18000 483.569
24.19000 477.179
24.20000 463.299
24.21000 449.142
24.22000 440.580
24.23000 450.963
24.24000 458.500
24.25000 460.686
24.26000 457.546
24.27000 454.447
24.28000 455.103
24.29000 458.216
24.30000 461.250
24.31000 456.256
24.32000 448.090
24.33000 440.622
24.34000 442.003
24.35000 446.062
24.36000 448.274
24.37000 436.869
24.38000 422.711
24.39000 410.793
24.40000 419.000
24.41000 428.000
24.42000 434.243
24.43000 431.780
24.44000 428.678
24.45000 426.340
24.46000 425.653
24.47000 425.022
24.48000 424.645
24.49000 420.020
24.50000 416.717
24.51000 416.689
24.52000 419.788
24.53000 422.784
24.54000 417.644
24.55000 407.372
24.56000 397.386
24.57000 397.665
24.58000 402.116
24.59000 406.177
24.60000 405.571
24.61000 403.602
24.62000 402.743
24.63000 409.718
24.64000 418.215
24.65000 425.319
24.66000 423.653
24.67000 421.377
24.68000 417.342
24.69000 407.939
24.70000 398.165
24.71000 395.200
24.72000 406.406
24.73000 418.052
24.74000 424.880
24.75000 424.399
24.76000 424.022
24.77000 420.223
24.78000 413.286
24.79000 406.473
24.80000 408.222
24.81000 415.181
24.82000 421.929
24.83000 415.306
24.84000 403.786
24.85000 393.615
24.86000 398.765
24.87000 408.231
24.88000 415.638
24.89000 409.131
24.90000 400.025
24.91000 392.467
24.92000 392.601
24.93000 393.456
24.94000 395.419
24.95000 400.645
24.96000 406.083
24.97000 407.341
24.98000 400.201
24.99000 392.824
25.00000 388.568
25.01000 391.241
25.02000 393.141
25.03000 395.469
25.04000 398.174
25.05000 400.892
25.06000 404.353
25.07000 408.249
25.08000 412.018
25.09000 410.304
25.10000 406.615
25.11000 403.202
25.12000 402.744
25.13000 403.090
25.14000 402.693
25.15000 397.488
25.16000 391.419
25.17000 386.418
25.18000 390.521
25.19000 394.732
25.20000 396.775
25.21000 392.659
25.22000 388.166
25.23000 387.037
25.24000 392.434
25.25000 397.998
25.26000 401.155
25.27000 407.591
25.28000 412.069
25.29000 408.893
25.30000 399.226
25.31000 389.666
25.32000 385.723
25.33000 384.963
25.34000 384.229
25.35000 391.991
25.36000 402.378
25.37000 411.852
25.38000 411.976
25.39000 409.651
25.40000 406.411
25.41000 397.489
25.42000 387.586
25.43000 379.488
25.44000 387.193
25.45000 394.878
25.46000 399.055
25.47000 393.601
25.48000 387.595
25.49000 383.316
25.50000 382.269
25.51000 381.297
25.52000 380.754
25.53000 402.573
25.54000 417.690
25.55000 420.527
25.56000 413.346
25.57000 406.143
25.58000 397.920
25.59000 389.138
25.60000 380.694
25.61000 382.711
25.62000 388.257
25.63000 392.975
25.64000 389.639
25.65000 384.268
25.66000 380.391
25.67000 385.417
25.68000 391.917
25.69000 397.192
25.70000 393.876
25.71000 390.464
25.72000 388.652
25.73000 391.081
25.74000 393.737
25.75000 395.936
25.76000 397.308
25.77000 398.664
25.78000 399.407
25.79000 395.620
25.80000 393.009
25.81000 390.623
25.82000 388.413
25.83000 386.221
25.84000 384.816
25.85000 383.827
25.86000 382.879
25.87000 384.074
25.88000 385.912
25.89000 388.031
25.90000 392.763
25.91000 398.131
25.92000 401.999
25.93000 397.290
25.94000 391.219
25.95000 386.330
25.96000 396.295
25.97000 405.540
25.98000 412.490
25.99000 413.569
26.00000 414.354
26.01000 409.178
26.02000 393.605
26.03000 377.841
26.04000 369.358
26.05000 380.013
26.06000 387.307
26.07000 393.109
26.08000 397.783
26.09000 402.328
26.10000 401.972
26.11000 399.121
26.12000 396.396
26.13000 395.536
26.14000 395.340
26.15000 394.893
26.16000 392.226
26.17000 389.038
26.18000 385.774
26.19000 382.094
26.20000 378.350
26.21000 375.361
26.22000 381.064
26.23000 386.312
26.24000 390.360
26.25000 391.443
26.26000 392.389
26.27000 391.450
26.28000 387.340
26.29000 383.179
26.30000 380.980
26.31000 375.247
26.32000 371.382
26.33000 372.511
26.34000 377.277
26.35000 381.893
26.36000 381.352
26.37000 378.275
26.38000 375.344
26.39000 381.983
26.40000 391.111
26.41000 399.196
26.42000 398.503
26.43000 395.827
26.44000 392.767
26.45000 387.684
26.46000 382.305
26.47000 378.045
26.48000 378.868
26.49000 379.884
26.50000 380.684
26.51000 380.969
26.52000 381.231
26.53000 381.511
26.54000 381.819
26.55000 382.128
26.56000 382.288
26.57000 381.233
26.58000 380.519
26.59000 379.671
26.60000 378.727
26.61000 377.800
26.62000 377.403
26.63000 377.257
26.64000 377.119
26.65000 378.828
26.66000 380.957
26.67000 382.179
26.68000 376.108
26.69000 368.450
26.70000 362.072
26.71000 362.193
26.72000 363.221
26.73000 364.029
26.74000 368.883
26.75000 373.033
26.76000 374.267
26.77000 368.781
26.78000 363.027
26.79000 362.528
26.80000 370.258
26.81000 378.087
26.82000 382.065
26.83000 381.154
26.84000 380.534
26.85000 378.982
26.86000 376.799
26.87000 374.637
26.88000 373.059
26.89000 371.750
26.90000 370.512
26.91000 375.475
26.92000 381.822
26.93000 387.412
26.94000 387.197
26.95000 385.765
26.96000 384.063
26.97000 381.036
26.98000 377.833
26.99000 375.338
27.00000 390.379
27.01000 403.439
27.02000 406.639
27.03000 387.896
27.04000 368.346
27.05000 358.328
27.06000 362.701
27.07000 367.221
27.08000 371.887
27.09000 376.698
27.10000 381.465
27.11000 382.214
27.12000 380.344
27.13000 378.405
27.14000 374.661
27.15000 370.118
27.16000 365.836
27.17000 375.671
27.18000 388.578
27.19000 399.778
27.20000 398.432
27.21000 394.558
27.22000 389.828
27.23000 381.069
27.24000 371.795
27.25000 364.638
27.26000 371.482
27.27000 377.717
27.28000 379.853
27.29000 373.180
27.30000 366.209
27.31000 363.500
27.32000 366.996
27.33000 370.544
27.34000 371.782
27.35000 370.821
27.36000 369.912
27.37000 373.046
27.38000 378.723
27.39000 383.956
27.40000 378.415
27.41000 368.267
27.42000 358.737
27.43000 359.877
27.44000 363.751
27.45000 367.940
27.46000 374.345
27.47000 381.178
27.48000 385.674
27.49000 379.588
27.50000 372.212
27.51000 366.571
27.52000 375.655
27.53000 383.621
27.54000 386.213
27.55000 377.654
27.56000 368.752
27.57000 362.429
27.58000 359.724
27.59000 357.045
27.60000 361.814
27.61000 373.386
27.62000 384.760
27.63000 382.745
27.64000 372.609
27.65000 362.621
27.66000 355.970
27.67000 350.697
27.68000 345.765
27.69000 349.779
27.70000 355.708
27.71000 361.236
27.72000 364.069
27.73000 366.401
27.74000 368.785
27.75000 371.400
27.76000 374.043
27.77000 376.044
27.78000 377.082
27.79000 377.848
27.80000 377.965
27.81000 376.782
27.82000 375.562
27.83000 375.005
27.84000 375.343
27.85000 375.686
27.86000 375.267
27.87000 374.179
27.88000 373.054
27.89000 369.723
27.90000 365.103
27.91000 360.906
27.92000 365.554
27.93000 373.730
27.94000 381.347
27.95000 372.122
27.96000 359.649
27.97000 349.065
27.98000 350.675
27.99000 354.467
28.00000 358.987
28.01000 366.562
28.02000 374.476
28.03000 380.415
28.04000 370.135
28.05000 361.331
28.06000 354.864
28.07000 352.917
28.08000 351.084
28.09000 356.054
28.10000 369.879
28.11000 383.729
28.12000 388.063
28.13000 384.363
28.14000 380.699
28.15000 378.908
28.16000 378.175
28.17000 377.128
28.18000 369.980
28.19000 360.483
28.20000 351.672
28.21000 354.047
28.22000 358.821
28.23000 362.137
28.24000 356.440
28.25000 349.193
28.26000 344.322
28.27000 349.064
28.28000 354.823
28.29000 359.102
28.30000 362.708
28.31000 365.481
28.32000 365.803
28.33000 361.546
28.34000 357.185
28.35000 357.438
28.36000 363.473
28.37000 369.517
28.38000 373.726
28.39000 376.432
28.40000 379.048
28.41000 377.470
28.42000 373.606
28.43000 369.896
28.44000 368.983
28.45000 369.111
28.46000 369.229
28.47000 369.018
28.48000 368.755
28.49000 368.361
28.50000 367.197
28.51000 365.906
28.52000 363.535
28.53000 356.956
28.54000 349.954
28.55000 344.802
28.56000 353.317
28.57000 360.469
28.58000 363.516
28.59000 359.165
28.60000 354.664
28.61000 350.270
28.62000 346.004
28.63000 341.748
28.64000 343.027
28.65000 348.610
28.66000 354.146
28.67000 357.703
28.68000 360.219
28.69000 362.371
28.70000 358.335
28.71000 352.077
28.72000 346.322
28.73000 349.852
28.74000 355.019
28.75000 359.122
28.76000 357.161
28.77000 354.239
28.78000 353.542
28.79000 361.205
28.80000 369.669
28.81000 375.831
28.82000 376.285
28.83000 376.417
28.84000 373.483
28.85000 365.219
28.86000 356.859
28.87000 348.743
28.88000 340.911
28.89000 333.101
28.90000 331.253
28.91000 333.882
28.92000 336.586
28.93000 342.080
28.94000 348.992
28.95000 355.395
28.96000 353.685
28.97000 349.164
28.98000 345.024
28.99000 349.845
29.00000 355.998
29.01000 361.492
29.02000 363.380
29.03000 364.720
29.04000 365.669
29.05000 365.201
29.06000 364.603
29.07000 364.173
29.08000 367.487
29.09000 370.158
29.10000 370.233
29.11000 365.951
29.12000 361.600
29.13000 357.805
29.14000 354.631
29.15000 351.469
29.16000 347.424
29.17000 342.779
29.18000 338.249
29.19000 337.616
29.20000 338.895
29.21000 340.516
29.22000 347.259
29.23000 355.717
29.24000 363.424
29.25000 357.423
29.26000 349.370
29.27000 342.199
29.28000 339.667
29.29000 337.808
29.30000 338.012
29.31000 345.424
29.32000 353.457
29.33000 359.183
29.34000 353.295
29.35000 348.428
29.36000 344.716
29.37000 342.873
29.38000 341.056
29.39000 341.228
29.40000 343.535
29.41000 345.831
29.42000 348.404
29.43000 351.141
29.44000 353.792
29.45000 353.779
29.46000 352.503
29.47000 350.999
29.48000 346.283
29.49000 340.528
29.50000 335.308
29.51000 341.981
29.52000 350.143
29.53000 357.462
29.54000 360.514
29.55000 362.972
29.56000 365.802
29.57000 369.886
29.58000 374.072
29.59000 377.023
29.60000 367.518
29.61000 359.934
29.62000 354.367
29.63000 351.948
29.64000 349.566
29.65000 348.538
29.66000 348.904
29.67000 349.268
29.68000 355.501
29.69000 365.563
29.70000 375.300
29.71000 375.837
29.72000 372.167
29.73000 368.236
29.74000 360.847
29.75000 352.379
29.76000 344.738
29.77000 346.401
29.78000 349.569
29.79000 352.759
29.80000 356.062
29.81000 359.379
29.82000 362.870
29.83000 366.923
29.84000 371.019
29.85000 373.874
29.86000 379.387
29.87000 383.621
29.88000 386.081
29.89000 385.872
29.90000 385.635
29.91000 385.404
29.92000 385.178
29.93000 384.952
29.94000 385.246
29.95000 385.866
29.96000 386.421
29.97000 385.272
29.98000 383.370
29.99000 381.467
30.00000 379.544
30.01000 377.616
30.02000 375.884
30.03000 375.716
30.04000 375.845
30.05000 376.128
30.06000 377.137
30.07000 378.238
30.08000 377.922
30.09000 373.154
30.10000 368.063
30.11000 364.555
30.12000 365.543
30.13000 366.398
30.14000 365.284
30.15000 361.310
30.16000 357.314
30.17000 359.143
30.18000 366.498
30.19000 373.796
30.20000 375.923
30.21000 374.829
30.22000 373.747
30.23000 372.957
30.24000 372.292
30.25000 371.119
30.26000 363.921
30.27000 354.972
30.28000 346.980
30.29000 353.220
30.30000 361.049
30.31000 368.020
30.32000 371.123
30.33000 373.757
30.34000 376.212
30.35000 378.130
30.36000 380.011
30.37000 381.292
30.38000 378.364
30.39000 376.081
30.40000 371.838
30.41000 364.855
30.42000 357.859
30.43000 360.952
30.44000 373.240
30.45000 385.414
30.46000 386.675
30.47000 381.443
30.48000 376.357
30.49000 374.557
30.50000 374.110
30.51000 373.526
30.52000 371.402
30.53000 368.848
30.54000 366.579
30.55000 365.599
30.56000 364.956
30.57000 365.311
30.58000 369.995
30.59000 375.182
30.60000 377.998
30.61000 373.878
30.62000 369.310
30.63000 366.239
30.64000 374.210
30.65000 380.362
30.66000 385.367
30.67000 388.828
30.68000 392.275
30.69000 391.666
30.70000 387.502
30.71000 383.382
30.72000 381.688
30.73000 381.417
30.74000 381.282
30.75000 383.982
30.76000 387.811
30.77000 391.703
30.78000 396.270
30.79000 401.020
30.80000 405.216
30.81000 401.330
30.82000 396.729
30.83000 392.575
30.84000 390.290
30.85000 388.212
30.86000 389.072
30.87000 398.230
30.88000 407.892
30.89000 414.308
30.90000 415.532
30.91000 416.341
30.92000 420.568
30.93000 429.233
30.94000 437.906
30.95000 441.544
30.96000 440.938
30.97000 440.339
30.98000 449.334
30.99000 463.366
31.00000 476.861
31.01000 479.997
31.02000 479.156
31.03000 479.432
31.04000 491.038
31.05000 505.595
31.06000 518.382
31.07000 528.030
31.08000 535.862
31.09000 545.705
31.10000 563.656
31.11000 582.462
31.12000 599.596
31.13000 612.171
31.14000 624.487
31.15000 632.562
31.16000 662.660
31.17000 685.158
31.18000 710.130
31.19000 738.195
31.20000 766.261
31.21000 791.713
31.22000 815.046
31.23000 838.054
31.24000 853.882
31.25000 865.471
31.26000 876.787
31.27000 883.192
31.28000 887.777
31.29000 893.512
31.30000 910.353
31.31000 929.983
31.32000 947.124
31.33000 964.795
31.34000 979.994
31.35000 993.153
31.36000 998.387
31.37000 1002.826
31.38000 1008.679
31.39000 1018.259
31.40000 1028.036
31.41000 1034.362
31.42000 1003.060
31.43000 979.610
31.44000 959.362
31.45000 942.964
31.46000 926.590
31.47000 914.725
31.48000 906.377
31.49000 898.160
31.50000 879.752
31.51000 856.736
31.52000 833.191
31.53000 800.714
31.54000 765.038
31.55000 730.831
31.56000 710.115
31.57000 692.663
31.58000 677.514
31.59000 659.635
31.60000 644.035
31.61000 628.539
31.62000 613.438
31.63000 598.374
31.64000 582.133
31.65000 562.896
31.66000 543.512
31.67000 531.138
31.68000 517.311
31.69000 507.232
31.70000 500.600
31.71000 497.952
31.72000 495.280
31.73000 486.650
31.74000 473.545
31.75000 460.669
31.76000 445.314
31.77000 429.269
31.78000 414.110
31.79000 412.976
31.80000 416.691
31.81000 419.499
31.82000 414.369
31.83000 407.388
31.84000 401.366
31.85000 399.263
31.86000 397.982
31.87000 396.984
31.88000 397.008
31.89000 397.124
31.90000 394.096
31.91000 383.344
31.92000 372.237
31.93000 365.245
31.94000 359.098
31.95000 354.659
31.96000 352.553
31.97000 353.039
31.98000 353.534
31.99000 355.024
32.00000 357.236
32.01000 359.405
32.02000 362.654
32.03000 366.291
32.04000 369.520
32.05000 366.668
32.06000 361.789
32.07000 358.039
32.08000 363.735
32.09000 371.551
32.10000 378.252
32.11000 367.032
32.12000 355.364
32.13000 346.200
32.14000 345.760
32.15000 346.069
32.16000 345.965
32.17000 344.881
32.18000 343.755
32.19000 343.056
32.20000 348.004
32.21000 351.621
32.22000 355.055
32.23000 358.294
32.24000 361.488
32.25000 358.858
32.26000 352.165
32.27000 345.616
32.28000 344.395
32.29000 345.638
32.30000 346.758
32.31000 346.172
32.32000 345.036
32.33000 343.849
32.34000 342.265
32.35000 340.594
32.36000 339.170
32.37000 336.588
32.38000 334.281
32.39000 334.698
32.40000 344.274
32.41000 354.592
32.42000 358.700
32.43000 348.577
32.44000 337.894
32.45000 331.360
32.46000 337.165
32.47000 341.422
32.48000 341.450
32.49000 337.141
32.50000 332.843
32.51000 329.729
32.52000 327.412
32.53000 325.149
32.54000 321.918
32.55000 318.406
32.56000 314.915
32.57000 311.710
32.58000 308.594
32.59000 305.846
32.60000 305.900
32.61000 306.538
32.62000 307.078
32.63000 312.288
32.64000 317.167
32.65000 319.952
32.66000 315.940
32.67000 311.407
32.68000 307.614
32.69000 305.459
32.70000 303.364
32.71000 302.101
32.72000 319.505
32.73000 332.020
32.74000 335.589
32.75000 330.348
32.76000 325.215
32.77000 329.668
32.78000 340.335
32.79000 350.723
32.80000 351.444
32.81000 348.075
32.82000 346.455
32.83000 366.690
32.84000 393.483
32.85000 418.237
32.86000 428.133
32.87000 435.054
32.88000 440.870
32.89000 454.538
32.90000 466.755
32.91000 478.665
32.92000 489.612
32.93000 500.490
32.94000 511.992
32.95000 524.830
32.96000 537.712
32.97000 545.355
32.98000 542.958
32.99000 541.205
33.00000 541.216
33.01000 542.895
33.02000 544.427
33.03000 534.719
33.04000 517.984
33.05000 501.726
33.06000 486.167
33.07000 471.670
33.08000 456.805
33.09000 437.591
33.10000 417.117
33.11000 397.292
33.12000 381.996
33.13000 367.571
33.14000 355.534
33.15000 340.062
33.16000 326.883
33.17000 314.634
33.18000 305.194
33.19000 295.945
33.20000 289.667
33.21000 289.519
33.22000 289.557
33.23000 289.579
33.24000 294.401
33.25000 297.813
33.26000 295.131
33.27000 286.915
33.28000 278.862
33.29000 281.574
33.30000 290.778
33.31000 299.696
33.32000 301.112
33.33000 299.537
33.34000 298.403
33.35000 302.219
33.36000 307.417
33.37000 311.244
33.38000 305.915
33.39000 298.891
33.40000 293.072
33.41000 288.433
33.42000 284.716
33.43000 283.317
33.44000 288.681
33.45000 294.480
33.46000 301.191
33.47000 309.717
33.48000 318.293
33.49000 323.221
33.50000 313.863
33.51000 307.270
33.52000 303.332
33.53000 301.714
33.54000 300.069
33.55000 296.854
33.56000 292.727
33.57000 288.738
33.58000 287.912
33.59000 288.314
33.60000 289.035
33.61000 293.131
33.62000 298.135
33.63000 302.546
33.64000 303.152
33.65000 303.081
33.66000 303.023
33.67000 306.124
33.68000 308.958
33.69000 310.513
33.70000 308.461
33.71000 306.192
33.72000 303.780
33.73000 301.092
33.74000 298.397
33.75000 296.875
33.76000 287.150
33.77000 280.379
33.78000 280.258
33.79000 285.722
33.80000 291.074
33.81000 290.632
33.82000 286.939
33.83000 283.379
33.84000 286.505
33.85000 291.848
33.86000 296.702
33.87000 296.621
33.88000 295.258
33.89000 294.104
33.90000 294.239
33.91000 294.594
33.92000 294.883
33.93000 299.582
33.94000 303.805
33.95000 307.963
33.96000 311.944
33.97000 315.914
33.98000 315.508
33.99000 306.978
34.00000 298.266
34.01000 293.428
34.02000 294.232
34.03000 294.810
34.04000 299.137
34.05000 306.492
34.06000 313.723
34.07000 315.246
34.08000 313.677
34.09000 312.170
34.10000 311.269
34.11000 310.634
34.12000 310.440
34.13000 314.471
34.14000 319.559
34.15000 323.741
34.16000 322.577
34.17000 320.536
34.18000 318.884
34.19000 316.064
34.20000 313.672
34.21000 313.173
34.22000 317.644
34.23000 322.377
34.24000 324.550
34.25000 322.137
34.26000 319.632
34.27000 318.265
34.28000 321.535
34.29000 323.771
34.30000 321.833
34.31000 316.647
34.32000 311.569
34.33000 310.890
34.34000 312.511
34.35000 314.065
34.36000 316.169
34.37000 318.314
34.38000 320.422
34.39000 322.176
34.40000 323.846
34.41000 325.184
34.42000 324.643
34.43000 323.807
34.44000 323.135
34.45000 309.768
34.46000 297.957
34.47000 291.739
34.48000 299.712
34.49000 308.382
34.50000 313.098
34.51000 310.979
34.52000 308.740
34.53000 307.540
34.54000 299.782
34.55000 294.490
34.56000 290.718
34.57000 288.084
34.58000 285.706
34.59000 292.787
34.60000 304.645
34.61000 315.967
34.62000 312.536
34.63000 304.622
34.64000 297.565
34.65000 297.972
34.66000 300.113
34.67000 302.166
34.68000 303.739
34.69000 305.239
34.70000 306.435
34.71000 295.396
34.72000 285.600
34.73000 280.757
34.74000 288.044
34.75000 295.886
34.76000 296.041
34.77000 283.374
34.78000 270.509
34.79000 263.744
34.80000 272.114
34.81000 277.770
34.82000 279.264
34.83000 277.755
34.84000 276.358
34.85000 278.652
34.86000 282.747
34.87000 286.645
34.88000 283.719
34.89000 278.909
34.90000 274.695
34.91000 275.449
34.92000 277.314
34.93000 278.327
34.94000 274.892
34.95000 270.814
34.96000 267.590
34.97000 271.289
34.98000 274.733
34.99000 277.107
35.00000 276.946
35.01000 276.679
35.02000 276.078
35.03000 274.942
35.04000 273.798
35.05000 273.209
35.06000 264.244
35.07000 258.268
35.08000 260.424
35.09000 268.233
35.10000 275.856
35.11000 277.779
35.12000 277.019
35.13000 276.298
35.14000 276.387
35.15000 276.709
35.16000 276.836
35.17000 275.416
35.18000 273.662
35.19000 271.500
35.20000 267.281
35.21000 262.777
35.22000 259.248
35.23000 261.682
35.24000 264.013
35.25000 267.103
35.26000 271.932
35.27000 276.828
35.28000 280.049
35.29000 280.672
35.30000 281.265
35.31000 281.565
35.32000 274.292
35.33000 269.452
35.34000 267.328
35.35000 267.024
35.36000 266.646
35.37000 264.221
35.38000 260.865
35.39000 257.693
35.40000 256.045
35.41000 254.965
35.42000 253.970
35.43000 253.620
35.44000 253.403
35.45000 254.139
35.46000 259.484
35.47000 265.439
35.48000 270.064
35.49000 269.569
35.50000 268.863
35.51000 269.380
35.52000 272.593
35.53000 275.902
35.54000 275.307
35.55000 268.868
35.56000 262.373
35.57000 262.396
35.58000 268.814
35.59000 275.177
35.60000 276.565
35.61000 274.739
35.62000 272.908
35.63000 270.922
35.64000 268.869
35.65000 266.935
35.66000 265.376
35.67000 264.052
35.68000 262.605
35.69000 260.264
35.70000 257.745
35.71000 255.925
35.72000 257.360
35.73000 259.207
35.74000 260.629
35.75000 258.859
35.76000 257.275
35.77000 256.273
35.78000 256.508
35.79000 256.784
35.80000 257.556
35.81000 259.044
35.82000 260.537
35.83000 260.970
35.84000 260.405
35.85000 259.804
35.86000 256.533
35.87000 251.599
35.88000 246.910
35.89000 248.063
35.90000 251.690
35.91000 255.094
35.92000 261.438
35.93000 267.992
35.94000 273.417
35.95000 270.992
35.96000 267.062
35.97000 263.561
35.98000 261.981
35.99000 260.633
36.00000 259.605
36.01000 258.265
36.02000 257.193
36.03000 256.165
36.04000 255.228
36.05000 254.293
36.06000 255.503
36.07000 259.694
36.08000 263.902
36.09000 261.765
36.10000 253.889
36.11000 246.190
36.12000 250.071
36.13000 260.913
36.14000 271.208
36.15000 269.454
36.16000 262.768
36.17000 256.521
36.18000 255.003
36.19000 254.820
36.20000 254.264
36.21000 251.219
36.22000 247.715
36.23000 245.089
36.24000 246.251
36.25000 247.849
36.26000 249.056
36.27000 246.361
36.28000 244.052
36.29000 245.951
36.30000 256.208
36.31000 266.692
36.32000 270.850
36.33000 266.535
36.34000 262.179
36.35000 260.124
36.36000 260.070
36.37000 259.961
36.38000 256.647
36.39000 251.475
36.40000 246.633
36.41000 248.561
36.42000 253.165
36.43000 257.451
36.44000 257.385
36.45000 256.271
36.46000 255.149
36.47000 253.974
36.48000 252.789
36.49000 251.803
36.50000 251.641
36.51000 251.570
36.52000 251.516
36.53000 254.092
36.54000 256.224
36.55000 255.942
36.56000 251.028
36.57000 246.000
36.58000 245.823
36.59000 251.899
36.60000 257.994
36.61000 263.527
36.62000 268.575
36.63000 273.469
36.64000 270.563
36.65000 263.290
36.66000 256.397
36.67000 256.730
36.68000 259.821
36.69000 262.686
36.70000 261.939
36.71000 260.426
36.72000 259.471
36.73000 261.937
36.74000 264.985
36.75000 266.225
36.76000 260.216
36.77000 253.450
36.78000 248.434
36.79000 257.227
36.80000 264.657
36.81000 267.491
36.82000 261.819
36.83000 255.959
36.84000 253.352
36.85000 254.782
36.86000 256.221
36.87000 259.178
36.88000 263.341
36.89000 267.384
36.90000 266.014
36.91000 261.720
36.92000 257.622
36.93000 257.022
36.94000 257.712
36.95000 258.349
36.96000 255.998
36.97000 253.222
36.98000 251.766
36.99000 258.066
37.00000 265.633
37.01000 271.152
37.02000 268.765
37.03000 265.592
37.04000 263.264
37.05000 261.869
37.06000 260.829
37.07000 262.098
37.08000 267.490
37.09000 272.965
37.10000 270.805
37.11000 259.526
37.12000 248.255
37.13000 246.261
37.14000 251.431
37.15000 256.563
37.16000 260.173
37.17000 262.990
37.18000 265.606
37.19000 264.860
37.20000 262.917
37.21000 261.133
37.22000 261.451
37.23000 262.187
37.24000 262.226
37.25000 258.331
37.26000 253.819
37.27000 249.962
37.28000 248.541
37.29000 247.349
37.30000 246.484
37.31000 251.514
37.32000 255.603
37.33000 257.397
37.34000 255.237
37.35000 253.007
37.36000 253.291
37.37000 256.460
37.38000 259.623
37.39000 255.467
37.40000 245.917
37.41000 236.582
37.42000 235.138
37.43000 237.666
37.44000 240.449
37.45000 247.228
37.46000 255.379
37.47000 262.834
37.48000 259.771
37.49000 254.882
37.50000 250.648
37.51000 249.958
37.52000 249.801
37.53000 250.281
37.54000 253.052
37.55000 256.028
37.56000 258.167
37.57000 247.618
37.58000 239.105
37.59000 237.247
37.60000 246.455
37.61000 255.833
37.62000 259.036
37.63000 255.423
37.64000 251.819
37.65000 245.052
37.66000 236.092
37.67000 227.409
37.68000 227.915
37.69000 232.888
37.70000 237.634
37.71000 239.038
37.72000 239.333
37.73000 239.602
37.74000 241.797
37.75000 244.120
37.76000 246.228
37.77000 247.213
37.78000 248.036
37.79000 249.224
37.80000 251.679
37.81000 254.242
37.82000 256.063
37.83000 260.664
37.84000 264.256
37.85000 264.282
37.86000 258.585
37.87000 252.813
37.88000 250.256
37.89000 251.110
37.90000 251.961
37.91000 250.844
37.92000 248.391
37.93000 246.008
37.94000 245.758
37.95000 246.508
37.96000 247.094
37.97000 245.392
37.98000 242.958
37.99000 240.754
38.00000 240.626
38.01000 240.906
38.02000 240.946
38.03000 239.781
38.04000 238.451
38.05000 238.607
38.06000 243.736
38.07000 249.264
38.08000 253.150
38.09000 253.794
38.10000 254.186
38.11000 254.665
38.12000 255.276
38.13000 255.889
38.14000 256.278
38.15000 256.439
38.16000 256.599
38.17000 257.614
38.18000 259.179
38.19000 260.791
38.20000 263.684
38.21000 267.157
38.22000 270.140
38.23000 266.704
38.24000 261.285
38.25000 256.401
38.26000 260.306
38.27000 265.326
38.28000 270.612
38.29000 277.173
38.30000 283.902
38.31000 288.809
38.32000 287.838
38.33000 286.420
38.34000 285.435
38.35000 288.347
38.36000 290.647
38.37000 295.861
38.38000 305.423
38.39000 315.026
38.40000 322.272
38.41000 327.212
38.42000 332.118
38.43000 341.553
38.44000 353.713
38.45000 365.688
38.46000 372.962
38.47000 378.178
38.48000 383.687
38.49000 392.831
38.50000 403.058
38.51000 412.228
38.52000 433.023
38.53000 453.213
38.54000 473.088
38.55000 491.499
38.56000 509.725
38.57000 529.220
38.58000 552.663
38.59000 576.389
38.60000 592.685
38.61000 607.066
38.62000 617.803
38.63000 633.197
38.64000 655.289
38.65000 677.432
38.66000 686.738
38.67000 683.990
38.68000 681.265
38.69000 682.901
38.70000 687.169
38.71000 691.105
38.72000 687.206
38.73000 679.995
38.74000 672.712
38.75000 664.583
38.76000 656.209
38.77000 648.741
38.78000 629.533
38.79000 610.868
38.80000 595.011
38.81000 591.703
38.82000 589.903
38.83000 582.762
38.84000 559.572
38.85000 535.299
38.86000 518.825
38.87000 486.586
38.88000 462.185
38.89000 444.009
38.90000 434.458
38.91000 424.960
38.92000 411.573
38.93000 394.677
38.94000 377.943
38.95000 364.602
38.96000 353.529
38.97000 342.540
38.98000 333.411
38.99000 325.040
39.00000 316.600
39.01000 307.381
39.02000 297.946
39.03000 289.576
39.04000 284.756
39.05000 281.146
39.06000 277.297
39.07000 272.417
39.08000 267.419
39.09000 263.374
39.10000 262.093
39.11000 260.987
39.12000 260.246
39.13000 260.279
39.14000 260.319
39.15000 259.360
39.16000 257.068
39.17000 254.765
39.18000 249.124
39.19000 240.586
39.20000 232.143
39.21000 232.049
39.22000 236.674
39.23000 241.079
39.24000 241.038
39.25000 239.245
39.26000 237.503
39.27000 236.313
39.28000 235.270
39.29000 234.350
39.30000 236.527
39.31000 238.876
39.32000 241.467
39.33000 245.063
39.34000 248.769
39.35000 249.875
39.36000 243.700
39.37000 237.091
39.38000 232.717
39.39000 231.358
39.40000 230.409
39.41000 234.100
39.42000 243.756
39.43000 253.413
39.44000 252.535
39.45000 242.865
39.46000 233.317
39.47000 232.142
39.48000 235.548
39.49000 238.644
39.50000 235.846
39.51000 230.804
39.52000 226.744
39.53000 232.512
39.54000 240.817
39.55000 248.101
39.56000 238.552
39.57000 227.901
39.58000 220.097
39.59000 223.662
39.60000 228.410
39.61000 231.899
39.62000 231.985
39.63000 231.882
39.64000 231.814
39.65000 230.340
39.66000 229.235
39.67000 229.165
39.68000 230.375
39.69000 231.590
39.70000 233.195
39.71000 235.112
39.72000 237.002
39.73000 234.716
39.74000 230.312
39.75000 226.368
39.76000 230.593
39.77000 237.820
39.78000 244.313
39.79000 243.819
39.80000 241.587
39.81000 239.641
39.82000 237.618
39.83000 235.878
39.84000 234.580
39.85000 234.987
39.86000 235.562
39.87000 235.471
39.88000 233.642
39.89000 231.721
39.90000 230.483
39.91000 225.182
39.92000 221.252
39.93000 222.543
39.94000 230.049
39.95000 237.532
39.96000 236.452
39.97000 228.752
39.98000 221.177
39.99000 220.867
40.00000 224.224
40.01000 227.340
40.02000 226.474
40.03000 224.194
40.04000 222.408
40.05000 225.096
40.06000 228.856
40.07000 232.115
40.08000 234.373
40.09000 236.162
40.10000 235.974
40.11000 228.446
40.12000 220.228
40.13000 214.519
40.14000 215.141
40.15000 216.069
40.16000 216.660
40.17000 219.659
40.18000 221.867
40.19000 221.515
40.20000 218.231
40.21000 214.973
40.22000 217.389
40.23000 224.029
40.24000 230.549
40.25000 228.279
40.26000 221.831
40.27000 215.846
40.28000 217.086
40.29000 220.801
40.30000 223.781
40.31000 220.414
40.32000 215.581
40.33000 211.419
40.34000 208.459
40.35000 206.104
40.36000 205.937
40.37000 213.600
40.38000 221.962
40.39000 224.844
40.40000 214.376
40.41000 203.307
40.42000 196.363
40.43000 205.768
40.44000 212.742
40.45000 216.019
40.46000 215.227
40.47000 214.426
40.48000 212.646
40.49000 210.164
40.50000 207.731
40.51000 210.248
40.52000 214.976
40.53000 219.537
40.54000 221.637
40.55000 222.924
40.56000 223.979
40.57000 223.122
40.58000 221.839
40.59000 220.742
40.60000 215.077
40.61000 209.746
40.62000 206.913
40.63000 212.706
40.64000 219.228
40.65000 223.557
40.66000 222.727
40.67000 221.681
40.68000 221.034
40.69000 216.464
40.70000 213.143
40.71000 209.201
40.72000 204.602
40.73000 200.080
40.74000 204.851
40.75000 216.046
40.76000 226.993
40.77000 224.631
40.78000 216.393
40.79000 208.588
40.80000 206.747
40.81000 206.810
40.82000 207.122
40.83000 209.397
40.84000 212.091
40.85000 214.383
40.86000 211.750
40.87000 208.972
40.88000 208.101
40.89000 213.585
40.90000 219.577
40.91000 223.720
40.92000 223.662
40.93000 223.442
40.94000 223.308
40.95000 219.415
40.96000 216.602
40.97000 214.795
40.98000 214.009
40.99000 213.214
41.00000 211.577
41.01000 209.379
41.02000 207.234
41.03000 208.169
41.04000 210.392
41.05000 212.609
41.06000 214.750
41.07000 216.868
41.08000 218.737
41.09000 218.721
41.10000 218.318
41.11000 217.977
41.12000 210.636
41.13000 203.731
41.14000 198.451
41.15000 198.397
41.16000 198.739
41.17000 199.198
41.18000 199.916
41.19000 200.642
41.20000 201.079
41.21000 202.632
41.22000 203.743
41.23000 204.536
41.24000 205.017
41.25000 205.519
41.26000 207.776
41.27000 211.159
41.28000 214.453
41.29000 210.592
41.30000 203.941
41.31000 197.982
41.32000 200.549
41.33000 205.651
41.34000 210.529
41.35000 213.791
41.36000 216.734
41.37000 219.202
41.38000 213.497
41.39000 207.897
41.40000 204.464
41.41000 207.758
41.42000 211.533
41.43000 213.276
41.44000 210.719
41.45000 208.022
41.46000 206.428
41.47000 204.459
41.48000 203.066
41.49000 204.394
41.50000 208.268
41.51000 212.111
41.52000 213.713
41.53000 213.928
41.54000 214.136
41.55000 213.325
41.56000 212.148
41.57000 211.136
41.58000 212.036
41.59000 213.486
41.60000 215.035
41.61000 217.273
41.62000 219.641
41.63000 221.614
41.64000 211.167
41.65000 201.280
41.66000 195.394
41.67000 201.495
41.68000 208.403
41.69000 211.627
41.70000 207.320
41.71000 202.790
41.72000 200.155
41.73000 196.059
41.74000 193.179
41.75000 194.537
41.76000 199.707
41.77000 204.812
41.78000 205.778
41.79000 204.272
41.80000 202.813
41.81000 202.381
41.82000 202.369
41.83000 202.228
41.84000 200.676
41.85000 198.734
41.86000 197.449
41.87000 200.519
41.88000 204.387
41.89000 207.585
41.90000 209.577
41.91000 211.106
41.92000 212.624
41.93000 214.106
41.94000 215.586
41.95000 216.095
41.96000 214.686
41.97000 213.226
41.98000 212.391
41.99000 217.675
42.00000 221.381
42.01000 221.283
42.02000 217.897
42.03000 214.534
42.04000 212.512
42.05000 211.263
42.06000 210.057
42.07000 212.859
42.08000 216.985
42.09000 220.893
42.10000 222.528
42.11000 223.556
42.12000 223.813
42.13000 219.183
42.14000 213.692
42.15000 209.185
42.16000 208.901
42.17000 209.045
42.18000 209.182
42.19000 209.298
42.20000 209.413
42.21000 209.469
42.22000 209.410
42.23000 209.349
42.24000 209.315
42.25000 208.351
42.26000 207.682
42.27000 208.139
42.28000 209.531
42.29000 210.944
42.30000 213.386
42.31000 216.401
42.32000 219.305
42.33000 218.788
42.34000 217.084
42.35000 215.485
42.36000 214.940
42.37000 214.666
42.38000 214.136
42.39000 212.050
42.40000 209.702
42.41000 207.789
42.42000 206.396
42.43000 205.301
42.44000 205.854
42.45000 210.849
42.46000 216.090
42.47000 216.975
42.48000 209.845
42.49000 202.541
42.50000 198.503
42.51000 204.475
42.52000 208.609
42.53000 211.381
42.54000 213.061
42.55000 214.713
42.56000 215.120
42.57000 214.858
42.58000 214.607
42.59000 209.857
42.60000 203.872
42.61000 199.014
42.62000 204.840
42.63000 213.315
42.64000 220.447
42.65000 219.731
42.66000 217.743
42.67000 216.137
42.68000 210.341
42.69000 205.291
42.70000 201.485
42.71000 200.919
42.72000 200.522
42.73000 202.222
42.74000 207.648
42.75000 213.147
42.76000 216.133
42.77000 204.633
42.78000 196.753
42.79000 194.408
42.80000 196.327
42.81000 198.243
42.82000 200.026
42.83000 201.739
42.84000 203.379
42.85000 203.594
42.86000 203.326
42.87000 203.062
42.88000 202.834
42.89000 202.614
42.90000 202.234
42.91000 200.947
42.92000 199.520
42.93000 198.376
42.94000 198.506
42.95000 198.707
42.96000 199.364
42.97000 201.167
42.98000 203.026
42.99000 203.568
43.00000 201.855
43.01000 200.103
43.02000 199.169
43.03000 208.516
43.04000 214.864
43.05000 216.075
43.06000 213.476
43.07000 210.833
43.08000 206.628
43.09000 201.641
43.10000 196.883
43.11000 200.127
43.12000 205.676
43.13000 210.296
43.14000 206.911
43.15000 201.683
43.16000 197.168
43.17000 196.492
43.18000 196.387
43.19000 196.304
43.20000 193.309
43.21000 190.686
43.22000 188.919
43.23000 189.227
43.24000 189.628
43.25000 191.022
43.26000 194.058
43.27000 197.117
43.28000 198.719
43.29000 194.902
43.30000 192.344
43.31000 193.911
43.32000 198.427
43.33000 202.836
43.34000 203.784
43.35000 203.059
43.36000 202.370
43.37000 197.789
43.38000 192.366
43.39000 187.947
43.40000 191.789
43.41000 197.462
43.42000 202.112
43.43000 201.465
43.44000 200.063
43.45000 198.957
43.46000 198.296
43.47000 197.795
43.48000 198.257
43.49000 200.974
43.50000 203.785
43.51000 204.035
43.52000 200.202
43.53000 196.316
43.54000 194.322
43.55000 197.411
43.56000 199.492
43.57000 201.961
43.58000 204.699
43.59000 207.315
43.60000 206.300
43.61000 203.589
43.62000 201.020
43.63000 201.539
43.64000 202.921
43.65000 203.779
43.66000 200.516
43.67000 196.372
43.68000 192.880
43.69000 192.631
43.70000 192.824
43.71000 192.976
43.72000 188.595
43.73000 184.810
43.74000 183.607
43.75000 188.251
43.76000 193.119
43.77000 195.073
43.78000 192.546
43.79000 189.969
43.80000 188.673
43.81000 182.674
43.82000 178.708
43.83000 178.868
43.84000 181.767
43.85000 184.638
43.86000 186.752
43.87000 188.524
43.88000 190.198
43.89000 188.718
43.90000 186.472
43.91000 184.990
43.92000 189.252
43.93000 194.694
43.94000 198.801
43.95000 196.518
43.96000 193.400
43.97000 190.982
43.98000 189.610
43.99000 188.583
44.00000 187.428
44.01000 185.997
44.02000 184.555
44.03000 183.895
44.04000 184.392
44.05000 184.900
44.06000 186.097
44.07000 187.963
44.08000 189.812
44.09000 190.233
44.10000 189.740
44.11000 189.363
44.12000 191.917
44.13000 195.746
44.14000 199.349
44.15000 199.507
44.16000 198.717
44.17000 198.193
44.18000 199.581
44.19000 201.346
44.20000 201.736
44.21000 195.784
44.22000 189.040
44.23000 183.859
44.24000 185.784
44.25000 187.704
44.26000 188.952
44.27000 188.778
44.28000 188.558
44.29000 190.059
44.30000 194.020
44.31000 198.000
44.32000 203.636
44.33000 210.816
44.34000 217.859
44.35000 215.009
44.36000 206.049
44.37000 197.348
44.38000 194.662
44.39000 194.505
44.40000 194.358
44.41000 194.203
44.42000 194.061
44.43000 194.536
44.44000 199.254
44.45000 204.778
44.46000 209.508
44.47000 210.714
44.48000 211.500
44.49000 212.098
44.50000 210.527
44.51000 209.175
44.52000 207.840
44.53000 206.535
44.54000 205.232
44.55000 205.046
44.56000 206.401
44.57000 207.764
44.58000 208.899
44.59000 209.828
44.60000 210.744
44.61000 210.824
44.62000 210.407
44.63000 209.960
44.64000 208.888
44.65000 207.563
44.66000 206.326
44.67000 206.656
44.68000 207.347
44.69000 208.011
44.70000 208.496
44.71000 208.949
44.72000 209.883
44.73000 212.870
44.74000 216.092
44.75000 218.521
44.76000 218.892
44.77000 219.082
44.78000 219.259
44.79000 219.415
44.80000 219.569
44.81000 219.855
44.82000 220.314
44.83000 220.774
44.84000 218.389
44.85000 213.562
44.86000 208.824
44.87000 208.986
44.88000 211.964
44.89000 214.970
44.90000 218.512
44.91000 222.264
44.92000 225.753
44.93000 224.499
44.94000 222.229
44.95000 220.377
44.96000 221.167
44.97000 222.420
44.98000 223.411
44.99000 223.320
45.00000 223.112
45.01000 222.957
45.02000 226.513
45.03000 229.454
45.04000 230.217
45.05000 226.841
45.06000 223.365
45.07000 221.893
45.08000 222.982
45.09000 224.078
45.10000 223.485
45.11000 221.498
45.12000 219.546
45.13000 219.291
45.14000 219.978
45.15000 220.612
45.16000 220.257
45.17000 219.529
45.18000 218.854
45.19000 223.687
45.20000 229.302
45.21000 233.187
45.22000 226.586
45.23000 218.219
45.24000 212.156
45.25000 215.240
45.26000 219.268
45.27000 222.246
45.28000 217.636
45.29000 213.735
45.30000 210.881
45.31000 209.944
45.32000 209.048
45.33000 208.107
45.34000 207.110
45.35000 206.115
45.36000 207.827
45.37000 211.681
45.38000 215.409
45.39000 213.596
45.40000 208.817
45.41000 204.308
45.42000 204.547
45.43000 206.520
45.44000 208.339
45.45000 212.191
45.46000 216.091
45.47000 218.135
45.48000 209.388
45.49000 198.897
45.50000 190.199
45.51000 188.361
45.52000 187.196
45.53000 186.344
45.54000 189.513
45.55000 192.118
45.56000 194.417
45.57000 196.172
45.58000 197.917
45.59000 198.281
45.60000 197.012
45.61000 195.743
45.62000 192.573
45.63000 187.972
45.64000 183.502
45.65000 184.241
45.66000 187.673
45.67000 190.969
45.68000 192.055
45.69000 192.362
45.70000 192.643
45.71000 188.569
45.72000 184.012
45.73000 180.404
45.74000 182.095
45.75000 184.607
45.76000 186.756
45.77000 187.561
45.78000 188.241
45.79000 188.734
45.80000 182.179
45.81000 176.885
45.82000 173.925
45.83000 174.953
45.84000 176.047
45.85000 176.639
45.86000 176.657
45.87000 176.675
45.88000 176.691
45.89000 176.705
45.90000 176.724
45.91000 176.885
45.92000 177.117
45.93000 177.484
45.94000 179.939
45.95000 183.105
45.96000 185.998
45.97000 182.729
45.98000 178.572
45.99000 175.235
46.00000 176.299
46.01000 178.016
46.02000 178.876
46.03000 176.685
46.04000 174.226
46.05000 172.463
46.06000 174.047
46.07000 175.372
46.08000 175.070
46.09000 172.086
46.10000 169.063
46.11000 168.736
46.12000 171.358
46.13000 173.971
46.14000 175.155
46.15000 175.320
46.16000 175.571
46.17000 178.643
46.18000 183.073
46.19000 187.177
46.20000 186.554
46.21000 184.377
46.22000 182.398
46.23000 181.997
46.24000 181.950
46.25000 181.184
46.26000 176.706
46.27000 171.701
46.28000 168.407
46.29000 170.989
46.30000 174.064
46.31000 176.244
46.32000 179.576
46.33000 182.145
46.34000 183.591
46.35000 183.251
46.36000 182.887
46.37000 179.887
46.38000 174.119
46.39000 168.378
46.40000 166.519
46.41000 167.316
46.42000 168.134
46.43000 169.559
46.44000 171.266
46.45000 172.881
46.46000 173.216
46.47000 173.146
46.48000 173.082
46.49000 172.981
46.50000 172.886
46.51000 172.529
46.52000 170.875
46.53000 169.045
46.54000 167.755
46.55000 168.254
46.56000 168.895
46.57000 169.344
46.58000 175.171
46.59000 179.734
46.60000 180.714
46.61000 176.200
46.62000 171.626
46.63000 170.319
46.64000 172.306
46.65000 174.281
46.66000 176.806
46.67000 179.656
46.68000 182.357
46.69000 181.035
46.70000 177.905
46.71000 175.107
46.72000 176.582
46.73000 179.367
46.74000 181.873
46.75000 177.886
46.76000 173.226
46.77000 169.449
46.78000 169.888
46.79000 170.875
46.80000 172.703
46.81000 177.217
46.82000 181.932
46.83000 185.200
46.84000 179.884
46.85000 175.657
46.86000 174.026
46.87000 176.233
46.88000 178.475
46.89000 178.489
46.90000 176.347
46.91000 174.220
46.92000 171.464
46.93000 168.356
46.94000 165.302
46.95000 163.583
46.96000 162.442
46.97000 161.737
46.98000 166.351
46.99000 172.537
47.00000 178.076
47.01000 179.848
47.02000 180.748
47.03000 180.631
47.04000 175.845
47.05000 170.478
47.06000 166.135
47.07000 164.953
47.08000 163.993
47.09000 163.337
47.10000 169.382
47.11000 174.069
47.12000 175.568
47.13000 172.525
47.14000 169.448
47.15000 167.130
47.16000 165.517
47.17000 163.919
47.18000 164.789
47.19000 167.134
47.20000 169.493
47.21000 172.167
47.22000 174.974
47.23000 177.434
47.24000 175.894
47.25000 173.214
47.26000 170.827
47.27000 168.107
47.28000 165.688
47.29000 163.815
47.30000 164.355
47.31000 165.181
47.32000 166.509
47.33000 169.328
47.34000 172.246
47.35000 174.220
47.36000 169.364
47.37000 165.598
47.38000 163.070
47.39000 162.240
47.40000 161.422
47.41000 162.863
47.42000 166.320
47.43000 169.743
47.44000 167.577
47.45000 162.207
47.46000 157.150
47.47000 158.818
47.48000 163.208
47.49000 167.337
47.50000 168.618
47.51000 169.115
47.52000 169.556
47.53000 168.522
47.54000 167.395
47.55000 167.342
47.56000 171.864
47.57000 176.905
47.58000 178.269
47.59000 169.059
47.60000 159.187
47.61000 152.590
47.62000 163.035
47.63000 171.110
47.64000 172.023
47.65000 163.463
47.66000 154.872
47.67000 154.646
47.68000 161.608
47.69000 168.491
47.70000 169.754
47.71000 167.844
47.72000 165.853
47.73000 162.249
47.74000 158.014
47.75000 154.233
47.76000 155.172
47.77000 157.363
47.78000 159.294
47.79000 158.043
47.80000 156.487
47.81000 155.728
47.82000 158.242
47.83000 161.109
47.84000 163.365
47.85000 163.924
47.86000 164.384
47.87000 164.687
47.88000 168.120
47.89000 170.706
47.90000 171.031
47.91000 168.479
47.92000 165.914
47.93000 162.563
47.94000 158.561
47.95000 154.612
47.96000 155.459
47.97000 158.867
47.98000 162.071
47.99000 161.486
48.00000 159.471
48.01000 157.573
48.02000 156.828
48.03000 156.378
48.04000 155.985
48.05000 159.038
48.06000 162.154
48.07000 163.722
48.08000 159.170
48.09000 153.988
48.10000 150.253
48.11000 150.393
48.12000 150.746
48.13000 150.976
48.14000 158.882
48.15000 164.801
48.16000 165.047
48.17000 158.341
48.18000 151.631
48.19000 148.987
48.20000 149.579
48.21000 150.161
48.22000 152.724
48.23000 156.237
48.24000 159.719
48.25000 162.663
48.26000 165.411
48.27000 167.809
48.28000 166.916
48.29000 165.212
48.30000 163.728
48.31000 160.655
48.32000 157.812
48.33000 156.970
48.34000 163.762
48.35000 171.300
48.36000 173.801
48.37000 163.259
48.38000 152.050
48.39000 144.847
48.40000 149.575
48.41000 153.190
48.42000 155.414
48.43000 155.998
48.44000 156.579
48.45000 156.858
48.46000 156.907
48.47000 156.954
48.48000 157.663
48.49000 158.677
48.50000 159.721
48.51000 161.236
48.52000 162.917
48.53000 164.375
48.54000 163.830
48.55000 162.809
48.56000 161.925
48.57000 159.718
48.58000 157.668
48.59000 156.601
48.60000 159.150
48.61000 162.035
48.62000 163.791
48.63000 162.727
48.64000 161.528
48.65000 160.768
48.66000 160.130
48.67000 159.669
48.68000 158.098
48.69000 155.269
48.70000 152.454
48.71000 152.514
48.72000 154.693
48.73000 156.832
48.74000 156.690
48.75000 155.459
48.76000 154.369
48.77000 155.447
48.78000 157.260
48.79000 158.687
48.80000 156.816
48.81000 154.190
48.82000 151.931
48.83000 156.318
48.84000 160.864
48.85000 164.305
48.86000 163.828
48.87000 163.006
48.88000 161.318
48.89000 157.541
48.90000 153.671
48.91000 151.252
48.92000 149.640
48.93000 148.485
48.94000 149.632
48.95000 153.288
48.96000 156.941
48.97000 159.950
48.98000 162.500
48.99000 164.999
49.00000 168.418
49.01000 172.130
49.02000 175.302
49.03000 170.684
49.04000 163.513
49.05000 156.945
49.06000 155.305
49.07000 154.750
49.08000 154.276
49.09000 155.380
49.10000 156.500
49.11000 157.220
49.12000 156.579
49.13000 155.823
49.14000 155.970
49.15000 158.220
49.16000 160.556
49.17000 161.996
49.18000 156.010
49.19000 151.647
49.20000 151.535
49.21000 155.873
49.22000 160.179
49.23000 160.735
49.24000 158.723
49.25000 156.757
49.26000 156.218
49.27000 156.336
49.28000 156.490
49.29000 157.151
49.30000 157.971
49.31000 159.071
49.32000 162.349
49.33000 166.090
49.34000 169.265
49.35000 164.212
49.36000 159.037
49.37000 154.510
49.38000 152.126
49.39000 149.910
49.40000 149.811
49.41000 154.475
49.42000 159.319
49.43000 162.259
49.44000 154.910
49.45000 149.587
49.46000 149.882
49.47000 155.823
49.48000 161.693
49.49000 160.775
49.50000 155.377
49.51000 150.113
49.52000 150.367
49.53000 152.971
49.54000 155.373
49.55000 155.170
49.56000 154.172
49.57000 153.403
49.58000 154.339
49.59000 155.623
49.60000 156.705
49.61000 156.854
49.62000 156.877
49.63000 157.078
49.64000 157.844
49.65000 158.653
49.66000 158.790
49.67000 157.469
49.68000 156.097
49.69000 155.277
49.70000 157.252
49.71000 158.671
49.72000 158.715
49.73000 157.433
49.74000 156.153
49.75000 154.936
49.76000 153.761
49.77000 152.618
49.78000 150.596
49.79000 148.310
49.80000 146.150
49.81000 145.516
49.82000 145.332
49.83000 145.403
49.84000 147.298
49.85000 149.551
49.86000 151.437
49.87000 151.757
49.88000 151.861
49.89000 151.991
49.90000 152.198
49.91000 152.411
49.92000 151.241
49.93000 147.171
49.94000 143.008
49.95000 140.558
49.96000 145.397
49.97000 148.849
49.98000 152.681
49.99000 156.863
50.00000 160.988
50.01000 160.983
50.02000 158.443
50.03000 155.979
50.04000 155.093
50.05000 154.878
50.06000 154.561
50.07000 153.074
50.08000 151.254
50.09000 149.952
50.10000 152.185
50.11000 155.085
50.12000 157.496
50.13000 150.998
50.14000 144.749
50.15000 140.395
50.16000 141.669
50.17000 143.316
50.18000 146.241
50.19000 151.759
50.20000 157.353
50.21000 160.592
50.22000 161.308
50.23000 161.796
50.24000 159.219
50.25000 153.912
50.26000 148.657
50.27000 146.611
50.28000 146.465
50.29000 146.324
50.30000 146.943
50.31000 147.819
50.32000 148.927
50.33000 152.571
50.34000 156.912
50.35000 160.366
50.36000 158.025
50.37000 154.632
50.38000 151.831
50.39000 155.053
50.40000 158.267
50.41000 160.040
50.42000 157.682
50.43000 155.067
50.44000 155.989
50.45000 163.831
50.46000 171.855
50.47000 176.426
50.48000 169.364
50.49000 164.406
50.50000 161.900
50.51000 161.493
50.52000 161.092
50.53000 161.007
50.54000 161.101
50.55000 161.193
50.56000 159.818
50.57000 157.986
50.58000 156.613
50.59000 159.996
50.60000 164.636
50.61000 169.059
50.62000 172.115
50.63000 174.932
50.64000 177.241
50.65000 173.010
50.66000 168.965
50.67000 165.506
50.68000 163.671
50.69000 161.930
50.70000 162.873
50.71000 168.886
50.72000 175.019
50.73000 178.454
50.74000 166.482
50.75000 158.160
50.76000 155.231
50.77000 156.744
50.78000 158.251
50.79000 159.440
50.80000 160.454
50.81000 161.430
50.82000 159.921
50.83000 157.628
50.84000 155.572
50.85000 155.860
50.86000 156.745
50.87000 157.522
50.88000 157.647
50.89000 157.664
50.90000 157.677
50.91000 155.910
50.92000 154.318
50.93000 153.484
50.94000 154.677
50.95000 155.979
50.96000 156.134
50.97000 154.194
50.98000 152.211
50.99000 151.119
51.00000 150.521
51.01000 150.119
51.02000 152.642
51.03000 157.483
51.04000 162.174
51.05000 160.385
51.06000 155.146
51.07000 150.119
51.08000 146.833
51.09000 144.353
51.10000 142.378
51.11000 145.139
51.12000 149.065
51.13000 152.305
51.14000 151.583
51.15000 150.226
51.16000 149.131
51.17000 147.155
51.18000 145.479
51.19000 145.057
51.20000 147.871
51.21000 150.850
51.22000 151.333
51.23000 147.423
51.24000 143.431
51.25000 141.273
51.26000 145.929
51.27000 149.111
51.28000 149.425
51.29000 147.551
51.30000 145.666
51.31000 143.364
51.32000 140.848
51.33000 138.441
51.34000 142.413
51.35000 148.193
51.36000 153.624
51.37000 155.933
51.38000 157.504
51.39000 157.626
51.40000 149.708
51.41000 140.553
51.42000 133.227
51.43000 133.547
51.44000 134.378
51.45000 134.676
51.46000 133.649
51.47000 132.559
51.48000 134.510
51.49000 141.627
51.50000 148.829
51.51000 152.652
51.52000 148.357
51.53000 145.454
51.54000 146.639
51.55000 150.830
51.56000 154.848
51.57000 152.758
51.58000 147.639
51.59000 142.760
51.60000 139.125
51.61000 136.146
51.62000 133.710
51.63000 135.900
51.64000 139.146
51.65000 142.203
51.66000 144.257
51.67000 146.163
51.68000 147.676
51.69000 146.856
51.70000 146.031
51.71000 146.186
51.72000 148.699
51.73000 151.315
51.74000 151.539
51.75000 147.844
51.76000 144.093
51.77000 142.139
51.78000 143.467
51.79000 144.363
51.80000 144.989
51.81000 145.422
51.82000 145.825
51.83000 145.265
51.84000 144.244
51.85000 143.274
51.86000 143.849
51.87000 144.846
51.88000 145.346
51.89000 141.807
51.90000 137.381
51.91000 134.206
51.92000 137.446
51.93000 141.591
51.94000 144.854
51.95000 143.814
51.96000 142.694
51.97000 141.844
51.98000 141.622
51.99000 141.424
52.00000 142.057
52.01000 144.001
52.02000 145.961
52.03000 146.962
52.04000 144.722
52.05000 143.223
52.06000 142.292
52.07000 141.749
52.08000 141.267
52.09000 142.564
52.10000 144.684
52.11000 146.691
52.12000 147.390
52.13000 147.653
52.14000 147.836
52.15000 147.397
52.16000 146.827
52.17000 146.215
52.18000 145.396
52.19000 144.549
52.20000 143.888
52.21000 143.833
52.22000 143.826
52.23000 142.748
52.24000 139.265
52.25000 135.692
52.26000 136.219
52.27000 142.995
52.28000 149.837
52.29000 153.260
52.30000 144.904
52.31000 139.354
52.32000 135.824
52.33000 133.625
52.34000 131.543
52.35000 132.618
52.36000 135.102
52.37000 137.445
52.38000 138.891
52.39000 139.966
52.40000 140.630
52.41000 138.247
52.42000 135.245
52.43000 132.733
52.44000 132.552
52.45000 132.672
52.46000 132.765
52.47000 136.765
52.48000 140.170
52.49000 142.928
52.50000 144.287
52.51000 145.598
52.52000 145.604
52.53000 143.693
52.54000 141.766
52.55000 142.093
52.56000 144.587
52.57000 147.047
52.58000 146.741
52.59000 144.680
52.60000 142.768
52.61000 144.553
52.62000 147.933
52.63000 151.109
52.64000 148.772
52.65000 145.159
52.66000 141.857
52.67000 140.773
52.68000 140.122
52.69000 139.850
52.70000 141.314
52.71000 142.992
52.72000 144.278
52.73000 146.317
52.74000 147.968
52.75000 149.185
52.76000 149.493
52.77000 149.772
52.78000 147.386
52.79000 141.229
52.80000 135.045
52.81000 134.644
52.82000 139.583
52.83000 144.469
52.84000 145.744
52.85000 144.809
52.86000 143.772
52.87000 140.432
52.88000 136.132
52.89000 132.106
52.90000 134.010
52.91000 137.268
52.92000 140.215
52.93000 141.036
52.94000 141.459
52.95000 141.852
52.96000 142.115
52.97000 142.364
52.98000 142.552
52.99000 144.615
53.00000 146.332
53.01000 145.895
53.02000 141.101
53.03000 136.181
53.04000 132.938
53.05000 131.980
53.06000 131.036
53.07000 133.255
53.08000 138.276
53.09000 143.290
53.10000 147.929
53.11000 152.345
53.12000 156.506
53.13000 155.226
53.14000 151.758
53.15000 148.524
53.16000 141.393
53.17000 133.970
53.18000 127.874
53.19000 130.421
53.20000 134.530
53.21000 138.078
53.22000 139.255
53.23000 140.164
53.24000 140.849
53.25000 139.002
53.26000 137.436
53.27000 137.669
53.28000 141.414
53.29000 145.251
53.30000 145.774
53.31000 141.945
53.32000 138.100
53.33000 139.436
53.34000 145.183
53.35000 150.792
53.36000 149.069
53.37000 143.168
53.38000 137.642
53.39000 139.514
53.40000 144.259
53.41000 148.667
53.42000 147.982
53.43000 146.154
53.44000 144.866
53.45000 146.961
53.46000 149.643
53.47000 150.477
53.48000 143.768
53.49000 136.251
53.50000 130.652
53.51000 138.866
53.52000 145.883
53.53000 150.261
53.54000 149.670
53.55000 148.963
53.56000 147.153
53.57000 143.950
53.58000 140.747
53.59000 140.369
53.60000 142.304
53.61000 144.187
53.62000 143.603
53.63000 141.661
53.64000 139.850
53.65000 140.440
53.66000 141.930
53.67000 143.309
53.68000 142.386
53.69000 141.032
53.70000 139.857
53.71000 139.750
53.72000 139.821
53.73000 140.159
53.74000 141.550
53.75000 143.048
53.76000 144.152
53.77000 138.897
53.78000 134.559
53.79000 133.340
53.80000 137.790
53.81000 142.359
53.82000 142.539
53.83000 137.376
53.84000 132.210
53.85000 131.612
53.86000 134.608
53.87000 137.586
53.88000 139.816
53.89000 141.648
53.90000 143.256
53.91000 140.989
53.92000 137.319
53.93000 133.940
53.94000 142.015
53.95000 151.746
53.96000 159.365
53.97000 154.823
53.98000 148.336
53.99000 143.449
54.00000 144.634
54.01000 146.407
54.02000 147.701
54.03000 140.161
54.04000 134.005
54.05000 130.010
54.06000 129.807
54.07000 129.675
54.08000 130.741
54.09000 133.213
54.10000 135.681
54.11000 135.471
54.12000 133.241
54.13000 131.214
54.14000 137.053
54.15000 146.921
54.16000 155.912
54.17000 150.729
54.18000 140.590
54.19000 131.297
54.20000 132.358
54.21000 135.480
54.22000 137.933
54.23000 136.688
54.24000 134.876
54.25000 134.519
54.26000 139.486
54.27000 144.944
54.28000 148.886
54.29000 142.336
54.30000 136.932
54.31000 133.955
54.32000 135.085
54.33000 136.282
54.34000 136.993
54.35000 137.155
54.36000 137.316
54.37000 138.154
54.38000 139.476
54.39000 140.708
54.40000 138.757
54.41000 135.232
54.42000 131.974
54.43000 132.766
54.44000 134.925
54.45000 136.894
54.46000 141.442
54.47000 145.995
54.48000 149.083
54.49000 144.380
54.50000 138.533
54.51000 133.746
54.52000 132.698
54.53000 131.976
54.54000 131.460
54.55000 134.120
54.56000 136.256
54.57000 137.938
54.58000 138.878
54.59000 139.808
54.60000 140.500
54.61000 140.935
54.62000 141.368
54.63000 141.378
54.64000 141.094
54.65000 140.826
54.66000 141.066
54.67000 141.550
54.68000 141.991
54.69000 141.814
54.70000 141.435
54.71000 141.091
54.72000 139.442
54.73000 137.733
54.74000 136.319
54.75000 136.418
54.76000 136.729
54.77000 137.874
54.78000 141.855
54.79000 146.071
54.80000 149.051
54.81000 145.076
54.82000 141.844
54.83000 141.163
54.84000 144.500
54.85000 147.886
54.86000 149.741
54.87000 150.002
54.88000 150.262
54.89000 147.003
54.90000 141.419
54.91000 136.076
54.92000 137.739
54.93000 142.633
54.94000 147.142
54.95000 146.473
54.96000 144.176
54.97000 142.100
54.98000 142.810
54.99000 143.951
55.00000 145.158
55.01000 146.689
55.02000 148.264
55.03000 149.782
55.04000 151.113
55.05000 152.429
55.06000 153.349
55.07000 147.865
55.08000 143.541
55.09000 139.985
55.10000 137.595
55.11000 135.217
55.12000 137.239
55.13000 143.652
55.14000 150.025
55.15000 150.210
55.16000 146.391
55.17000 142.728
55.18000 143.207
55.19000 145.530
55.20000 147.854
55.21000 150.171
55.22000 152.486
55.23000 154.568
55.24000 154.527
55.25000 154.116
55.26000 154.079
55.27000 155.816
55.28000 157.781
55.29000 158.539
55.30000 155.469
55.31000 152.117
55.32000 149.801
55.33000 158.074
55.34000 164.566
55.35000 165.138
55.36000 157.041
55.37000 148.869
55.38000 149.831
55.39000 159.544
55.40000 169.184
55.41000 170.329
55.42000 166.170
55.43000 162.279
55.44000 164.960
55.45000 170.467
55.46000 175.616
55.47000 176.462
55.48000 176.046
55.49000 175.675
55.50000 177.088
55.51000 178.622
55.52000 179.916
55.53000 180.112
55.54000 180.174
55.55000 183.109
55.56000 194.834
55.57000 207.170
55.58000 215.593
55.59000 214.442
55.60000 213.357
55.61000 214.675
55.62000 219.385
55.63000 224.120
55.64000 229.707
55.65000 236.080
55.66000 242.397
55.67000 244.005
55.68000 242.766
55.69000 241.940
55.70000 250.514
55.71000 262.992
55.72000 274.620
55.73000 276.555
55.74000 275.750
55.75000 275.035
55.76000 273.362
55.77000 271.754
55.78000 271.847
55.79000 279.391
55.80000 287.810
55.81000 294.653
55.82000 296.843
55.83000 298.728
55.84000 300.000
55.85000 309.654
55.86000 317.014
55.87000 319.512
55.88000 315.396
55.89000 311.249
55.90000 313.729
55.91000 322.070
55.92000 330.325
55.93000 333.841
55.94000 334.552
55.95000 335.108
55.96000 332.387
55.97000 328.352
55.98000 324.478
55.99000 322.333
56.00000 320.660
56.01000 319.181
56.02000 317.825
56.03000 316.673
56.04000 314.707
56.05000 309.308
56.06000 303.525
56.07000 297.947
56.08000 292.957
56.09000 288.003
56.10000 284.703
56.11000 274.320
56.12000 266.499
56.13000 263.498
56.14000 266.810
56.15000 270.140
56.16000 267.810
56.17000 260.665
56.18000 253.605
56.19000 246.391
56.20000 239.268
56.21000 232.212
56.22000 226.469
56.23000 221.234
56.24000 216.319
56.25000 214.693
56.26000 213.930
56.27000 213.259
56.28000 205.263
56.29000 197.292
56.30000 190.877
56.31000 190.798
56.32000 191.395
56.33000 190.996
56.34000 187.857
56.35000 184.561
56.36000 182.393
56.37000 180.497
56.38000 179.105
56.39000 179.620
56.40000 182.540
56.41000 185.456
56.42000 184.046
56.43000 179.095
56.44000 174.211
56.45000 172.972
56.46000 173.712
56.47000 174.274
56.48000 171.598
56.49000 167.712
56.50000 163.651
56.51000 157.891
56.52000 151.701
56.53000 146.287
56.54000 152.107
56.55000 158.693
56.56000 163.061
56.57000 158.734
56.58000 153.526
56.59000 150.311
56.60000 152.398
56.61000 154.770
56.62000 156.309
56.63000 153.146
56.64000 150.758
56.65000 147.190
56.66000 142.192
56.67000 137.204
56.68000 136.261
56.69000 138.505
56.70000 140.715
56.71000 141.030
56.72000 140.362
56.73000 139.775
56.74000 140.567
56.75000 141.857
56.76000 142.748
56.77000 139.930
56.78000 136.206
56.79000 132.969
56.80000 133.289
56.81000 134.046
56.82000 134.968
56.83000 136.516
56.84000 138.124
56.85000 138.164
56.86000 134.182
56.87000 129.998
56.88000 127.318
56.89000 132.963
56.90000 137.187
56.91000 138.993
56.92000 137.976
56.93000 136.957
56.94000 136.476
56.95000 136.403
56.96000 136.332
56.97000 136.977
56.98000 137.955
56.99000 138.846
57.00000 138.330
57.01000 137.323
57.02000 136.247
57.03000 134.554
57.04000 132.716
57.05000 131.128
57.06000 129.962
57.07000 129.027
57.08000 128.607
57.09000 130.069
57.10000 131.703
57.11000 133.592
57.12000 136.113
57.13000 138.663
57.14000 140.274
57.15000 137.592
57.16000 135.598
57.17000 135.641
57.18000 137.970
57.19000 140.277
57.20000 138.493
57.21000 133.720
57.22000 129.038
57.23000 125.343
57.24000 122.252
57.25000 119.513
57.26000 122.075
57.27000 126.423
57.28000 130.281
57.29000 129.999
57.30000 128.779
57.31000 127.731
57.32000 131.513
57.33000 135.308
57.34000 137.422
57.35000 133.621
57.36000 129.306
57.37000 125.965
57.38000 124.952
57.39000 124.041
57.40000 123.474
57.41000 125.755
57.42000 127.427
57.43000 128.136
57.44000 127.804
57.45000 127.476
57.46000 127.561
57.47000 127.937
57.48000 128.305
57.49000 126.259
57.50000 123.189
57.51000 120.438
57.52000 122.218
57.53000 125.471
57.54000 128.426
57.55000 128.974
57.56000 128.997
57.57000 129.017
57.58000 126.180
57.59000 123.454
57.60000 122.069
57.61000 125.227
57.62000 128.760
57.63000 131.739
57.64000 133.442
57.65000 135.093
57.66000 136.107
57.67000 130.084
57.68000 125.707
57.69000 125.385
57.70000 129.266
57.71000 133.132
57.72000 135.325
57.73000 136.383
57.74000 137.417
57.75000 132.725
57.76000 125.714
57.77000 119.363
57.78000 121.866
57.79000 127.146
57.80000 131.592
57.81000 129.613
57.82000 126.286
57.83000 123.466
57.84000 123.570
57.85000 123.986
57.86000 124.991
57.87000 127.924
57.88000 131.007
57.89000 132.152
57.90000 128.970
57.91000 125.627
57.92000 123.606
57.93000 125.472
57.94000 126.830
57.95000 124.696
57.96000 119.089
57.97000 113.544
57.98000 113.908
57.99000 118.135
58.00000 122.254
58.01000 122.963
58.02000 122.193
58.03000 121.677
58.04000 124.372
58.05000 128.038
58.06000 130.977
58.07000 128.547
58.08000 125.032
58.09000 122.074
58.10000 125.465
58.11000 128.973
58.12000 130.351
58.13000 125.002
58.14000 119.159
58.15000 115.675
58.16000 117.276
58.17000 119.050
58.18000 120.107
58.19000 126.556
58.20000 131.158
58.21000 131.178
58.22000 126.823
58.23000 122.504
58.24000 121.090
58.25000 121.507
58.26000 121.912
58.27000 123.617
58.28000 125.768
58.29000 127.691
58.30000 126.883
58.31000 125.278
58.32000 123.742
58.33000 122.698
58.34000 121.750
58.35000 120.958
58.36000 120.967
58.37000 121.055
58.38000 121.003
58.39000 120.521
58.40000 120.009
58.41000 119.528
58.42000 119.114
58.43000 118.702
58.44000 118.461
58.45000 115.710
58.46000 113.762
58.47000 115.966
58.48000 121.977
58.49000 127.896
58.50000 127.445
58.51000 123.118
58.52000 118.922
58.53000 118.331
58.54000 119.185
58.55000 119.890
58.56000 118.905
58.57000 117.444
58.58000 116.162
58.59000 116.085
58.60000 116.233
58.61000 116.356
58.62000 118.420
58.63000 120.313
58.64000 121.593
58.65000 121.068
58.66000 120.425
58.67000 119.989
58.68000 119.968
58.69000 119.958
58.70000 119.952
58.71000 119.733
58.72000 119.580
58.73000 119.714
58.74000 120.104
58.75000 120.475
58.76000 119.744
58.77000 118.367
58.78000 117.036
58.79000 116.722
58.80000 116.810
58.81000 116.909
58.82000 117.132
58.83000 117.388
58.84000 118.028
58.85000 121.152
58.86000 124.721
58.87000 127.661
58.88000 122.873
58.89000 118.225
58.90000 115.314
58.91000 117.345
58.92000 119.677
58.93000 120.114
58.94000 116.873
58.95000 113.539
58.96000 111.647
58.97000 119.031
58.98000 124.193
58.99000 125.151
59.00000 122.543
59.01000 119.994
59.02000 120.518
59.03000 122.782
59.04000 124.965
59.05000 125.296
59.06000 124.933
59.07000 124.538
59.08000 123.821
59.09000 123.019
59.10000 122.337
59.11000 122.399
59.12000 122.590
59.13000 122.745
59.14000 119.274
59.15000 116.115
59.16000 113.351
59.17000 111.670
59.18000 110.052
59.19000 110.258
59.20000 113.884
59.21000 117.587
59.22000 119.653
59.23000 122.221
59.24000 123.995
59.25000 123.860
59.26000 122.168
59.27000 120.499
59.28000 119.857
59.29000 119.776
59.30000 119.699
59.31000 122.386
59.32000 125.871
59.33000 128.831
59.34000 126.680
59.35000 123.239
59.36000 120.227
59.37000 119.776
59.38000 119.750
59.39000 119.728
59.40000 117.667
59.41000 115.818
59.42000 115.481
59.43000 119.148
59.44000 123.030
59.45000 124.605
59.46000 122.012
59.47000 119.333
59.48000 117.865
59.49000 118.225
59.50000 118.474
59.51000 118.302
59.52000 117.800
59.53000 117.269
59.54000 115.519
59.55000 113.125
59.56000 110.831
59.57000 112.420
59.58000 115.210
59.59000 117.790
59.60000 118.417
59.61000 118.570
59.62000 118.700
59.63000 118.699
59.64000 118.677
59.65000 118.660
59.66000 117.519
59.67000 116.505
59.68000 116.474
59.69000 118.954
59.70000 121.560
59.71000 123.061
59.72000 122.636
59.73000 122.175
59.74000 121.928
59.75000 124.887
59.76000 126.892
59.77000 124.656
59.78000 119.213
59.79000 113.951
59.80000 115.493
59.81000 120.501
59.82000 125.287
59.83000 125.760
59.84000 124.807
59.85000 123.676
59.86000 120.991
59.87000 117.940
59.88000 115.851
59.89000 119.051
59.90000 123.055
59.91000 126.253
59.92000 121.109
59.93000 116.339
59.94000 112.440
59.95000 110.690
59.96000 109.040
59.97000 108.844
59.98000 111.097
59.99000 113.390
60.00000 114.600
60.01000 114.940
60.02000 115.181
60.03000 117.092
60.04000 120.219
60.05000 123.227
60.06000 122.145
60.07000 119.051
60.08000 116.103
60.09000 116.824
60.10000 118.633
60.11000 120.392
60.12000 121.730
60.13000 122.973
60.14000 123.965
60.15000 123.631
60.16000 123.104
60.17000 122.686
60.18000 119.120
60.19000 116.035
60.20000 113.812
60.21000 113.648
60.22000 113.573
60.23000 113.464
60.24000 113.300
60.25000 113.136
60.26000 113.051
60.27000 117.229
60.28000 120.056
60.29000 123.796
60.30000 128.176
60.31000 132.410
60.32000 132.074
60.33000 129.570
60.34000 127.192
60.35000 123.755
60.36000 120.267
60.37000 117.481
60.38000 120.331
60.39000 124.407
60.40000 127.334
60.41000 124.424
60.42000 120.699
60.43000 117.774
60.44000 118.652
60.45000 119.603
60.46000 119.119
60.47000 115.325
60.48000 111.399
60.49000 110.025
60.50000 112.645
60.51000 115.312
60.52000 116.668
60.53000 119.247
60.54000 120.978
60.55000 122.975
60.56000 125.151
60.57000 127.166
60.58000 124.561
60.59000 119.838
60.60000 115.371
60.61000 111.647
60.62000 108.438
60.63000 106.304
60.64000 112.424
60.65000 120.271
60.66000 126.187
60.67000 122.666
60.68000 117.885
60.69000 114.163
60.70000 118.205
60.71000 121.902
60.72000 124.615
60.73000 125.135
60.74000 125.574
60.75000 126.581
60.76000 128.444
60.77000 130.315
60.78000 130.677
60.79000 129.541
60.80000 128.386
60.81000 125.444
60.82000 121.337
60.83000 117.401
60.84000 117.959
60.85000 120.506
60.86000 122.906
60.87000 125.165
60.88000 127.193
60.89000 129.348
60.90000 132.426
60.91000 135.690
60.92000 137.538
60.93000 132.731
60.94000 127.074
60.95000 122.709
60.96000 123.557
60.97000 124.531
60.98000 123.765
60.99000 119.258
61.00000 114.625
61.01000 113.447
61.02000 117.297
61.03000 121.189
61.04000 124.305
61.05000 126.681
61.06000 129.029
61.07000 129.192
61.08000 127.981
61.09000 126.860
61.10000 127.937
61.11000 129.953
61.12000 131.846
61.13000 131.683
61.14000 130.988
61.15000 130.037
61.16000 127.292
61.17000 124.199
61.18000 122.063
61.19000 124.257
61.20000 126.981
61.21000 129.063
61.22000 126.950
61.23000 125.055
61.24000 123.759
61.25000 123.707
61.26000 123.693
61.27000 123.777
61.28000 123.998
61.29000 124.220
61.30000 124.684
61.31000 125.369
61.32000 126.060
61.33000 127.218
61.34000 128.659
61.35000 129.971
61.36000 128.404
61.37000 125.648
61.38000 123.070
61.39000 123.141
61.40000 123.881
61.41000 125.037
61.42000 128.990
61.43000 133.464
61.44000 137.399
61.45000 138.984
61.46000 140.294
61.47000 141.288
61.48000 136.440
61.49000 132.337
61.50000 132.181
61.51000 139.934
61.52000 147.908
61.53000 159.622
61.54000 176.391
61.55000 193.179
61.56000 207.340
61.57000 219.176
61.58000 231.035
61.59000 244.249
61.60000 258.255
61.61000 271.752
61.62000 274.626
61.63000 273.266
61.64000 271.999
61.65000 278.968
61.66000 287.290
61.67000 294.610
61.68000 295.455
61.69000 295.142
61.70000 294.684
61.71000 293.621
61.72000 292.491
61.73000 291.643
61.74000 292.206
61.75000 292.712
61.76000 287.518
61.77000 271.297
61.78000 254.797
61.79000 239.113
61.80000 224.490
61.81000 209.886
61.82000 197.636
61.83000 187.401
61.84000 177.201
61.85000 168.797
61.86000 161.408
61.87000 154.226
61.88000 151.072
61.89000 149.468
61.90000 147.980
61.91000 147.209
61.92000 146.684
61.93000 145.434
61.94000 139.697
61.95000 133.190
61.96000 127.848
61.97000 127.215
61.98000 127.081
61.99000 126.980
62.00000 132.352
62.01000 136.771
62.02000 137.787
62.03000 132.452
62.04000 126.971
62.05000 123.805
62.06000 123.538
62.07000 123.280
62.08000 125.569
62.09000 129.911
62.10000 134.177
62.11000 134.946
62.12000 133.808
62.13000 132.597
62.14000 130.072
62.15000 127.059
62.16000 124.275
62.17000 123.180
62.18000 122.579
62.19000 122.209
62.20000 123.204
62.21000 124.424
62.22000 125.110
62.23000 123.714
62.24000 122.108
62.25000 120.927
62.26000 119.959
62.27000 119.219
62.28000 119.171
62.29000 120.369
62.30000 121.593
62.31000 121.618
62.32000 120.198
62.33000 118.779
62.34000 120.505
62.35000 124.673
62.36000 128.723
62.37000 127.911
62.38000 124.542
62.39000 121.537
62.40000 124.719
62.41000 130.123
62.42000 135.093
62.43000 130.953
62.44000 125.279
62.45000 120.444
62.46000 120.395
62.47000 121.104
62.48000 121.611
62.49000 121.359
62.50000 121.034
62.51000 120.798
62.52000 132.075
62.53000 141.198
62.54000 145.617
62.55000 141.860
62.56000 137.955
62.57000 135.560
62.58000 134.916
62.59000 134.276
62.60000 135.220
62.61000 137.343
62.62000 139.382
62.63000 138.317
62.64000 135.675
62.65000 132.988
62.66000 129.577
62.67000 125.916
62.68000 122.564
62.69000 123.539
62.70000 125.308
62.71000 126.683
62.72000 125.901
62.73000 124.793
62.74000 124.159
62.75000 125.246
62.76000 126.488
62.77000 127.383
62.78000 128.111
62.79000 128.663
62.80000 128.769
62.81000 128.128
62.82000 127.474
62.83000 127.886
62.84000 129.486
62.85000 131.082
62.86000 130.906
62.87000 129.458
62.88000 128.098
62.89000 129.774
62.90000 132.938
62.91000 135.928
62.92000 136.313
62.93000 135.826
62.94000 135.383
62.95000 133.657
62.96000 131.872
62.97000 130.507
62.98000 131.348
62.99000 132.510
63.00000 132.862
63.01000 130.388
63.02000 127.670
63.03000 125.732
63.04000 126.626
63.05000 127.399
63.06000 129.146
63.07000 132.467
63.08000 135.810
63.09000 136.466
63.10000 134.242
63.11000 132.027
63.12000 131.033
63.13000 130.895
63.14000 130.795
63.15000 131.911
63.16000 133.601
63.17000 135.340
63.18000 137.765
63.19000 140.412
63.20000 142.813
63.21000 140.635
63.22000 137.838
63.23000 135.877
63.24000 138.146
63.25000 141.003
63.26000 142.719
63.27000 140.589
63.28000 138.145
63.29000 136.422
63.30000 136.065
63.31000 135.835
63.32000 136.239
63.33000 137.633
63.34000 139.039
63.35000 139.730
63.36000 139.685
63.37000 139.641
63.38000 139.427
63.39000 139.104
63.40000 138.767
63.41000 138.042
63.42000 137.139
63.43000 136.248
63.44000 135.502
63.45000 134.803
63.46000 134.172
63.47000 137.839
63.48000 141.850
63.49000 145.289
63.50000 145.951
63.51000 146.242
63.52000 145.028
63.53000 138.915
63.54000 132.424
63.55000 127.900
63.56000 131.732
63.57000 134.854
63.58000 135.979
63.59000 134.098
63.60000 132.186
63.61000 130.160
63.62000 128.021
63.63000 125.896
63.64000 128.304
63.65000 133.577
63.66000 138.694
63.67000 139.740
63.68000 138.988
63.69000 138.390
63.70000 139.717
63.71000 141.624
63.72000 143.335
63.73000 142.137
63.74000 140.578
63.75000 139.704
63.76000 142.034
63.77000 144.772
63.78000 146.210
63.79000 143.566
63.80000 140.625
63.81000 138.599
63.82000 140.543
63.83000 142.102
63.84000 141.676
63.85000 138.369
63.86000 135.038
63.87000 135.452
63.88000 139.417
63.89000 143.350
63.90000 140.915
63.91000 134.600
63.92000 128.457
63.93000 126.483
63.94000 126.286
63.95000 126.437
63.96000 130.714
63.97000 136.188
63.98000 141.077
63.99000 143.560
64.00000 145.318
64.01000 147.035
64.02000 148.572
64.03000 150.087
64.04000 151.145
64.05000 150.821
64.06000 150.402
64.07000 150.117
64.08000 149.210
64.09000 148.518
64.10000 147.647
64.11000 146.524
64.12000 145.401
64.13000 145.261
64.14000 146.016
64.15000 146.764
64.16000 147.761
64.17000 148.887
64.18000 149.936
64.19000 149.292
64.20000 147.951
64.21000 146.983
64.22000 150.208
64.23000 154.609
64.24000 158.517
64.25000 158.204
64.26000 157.253
64.27000 156.295
64.28000 155.306
64.29000 154.313
64.30000 153.581
64.31000 153.615
64.32000 153.699
64.33000 153.755
64.34000 152.653
64.35000 151.810
64.36000 152.642
64.37000 155.732
64.38000 158.831
64.39000 159.574
64.40000 158.252
64.41000 156.944
64.42000 159.338
64.43000 163.788
64.44000 167.963
64.45000 166.432
64.46000 162.631
64.47000 159.067
64.48000 158.022
64.49000 157.657
64.50000 157.335
64.51000 159.750
64.52000 162.256
64.53000 163.768
64.54000 161.117
64.55000 158.005
64.56000 156.965
64.57000 161.775
64.58000 166.939
64.59000 170.368
64.60000 166.549
64.61000 163.591
64.62000 161.252
64.63000 159.718
64.64000 158.191
64.65000 158.955
64.66000 161.651
64.67000 164.314
64.68000 166.838
64.69000 169.223
64.70000 171.405
64.71000 169.673
64.72000 166.440
64.73000 163.773
64.74000 166.850
64.75000 171.423
64.76000 175.440
64.77000 175.416
64.78000 174.800
64.79000 173.859
64.80000 171.607
64.81000 169.217
64.82000 168.685
64.83000 173.222
64.84000 178.046
64.85000 181.209
64.86000 183.397
64.87000 184.991
64.88000 185.133
64.89000 183.463
64.90000 181.794
64.91000 182.951
64.92000 186.396
64.93000 189.793
64.94000 188.176
64.95000 183.957
64.96000 180.203
64.97000 184.821
64.98000 192.543
64.99000 199.559
65.00000 199.764
65.01000 198.259
65.02000 196.944
65.03000 192.179
65.04000 187.615
65.05000 185.683
65.06000 193.975
65.07000 203.291
65.08000 209.596
65.09000 207.969
65.10000 205.921
65.11000 204.596
65.12000 200.409
65.13000 197.304
65.14000 198.359
65.15000 204.415
65.16000 210.477
65.17000 215.639
65.18000 220.100
65.19000 224.492
65.20000 224.437
65.21000 222.125
65.22000 219.701
65.23000 215.399
65.24000 210.425
65.25000 206.223
65.26000 209.117
65.27000 213.726
65.28000 217.727
65.29000 221.964
65.30000 225.606
65.31000 228.309
65.32000 227.495
65.33000 226.347
65.34000 226.701
65.35000 230.874
65.36000 235.236
65.37000 238.021
65.38000 244.659
65.39000 249.539
65.40000 255.902
65.41000 263.982
65.42000 272.039
65.43000 275.042
65.44000 274.248
65.45000 273.468
65.46000 273.545
65.47000 274.037
65.48000 274.507
65.49000 274.625
65.50000 274.622
65.51000 275.048
65.52000 279.228
65.53000 284.283
65.54000 288.643
65.55000 300.064
65.56000 310.657
65.57000 320.427
65.58000 327.223
65.59000 333.751
65.60000 344.253
65.61000 364.519
65.62000 385.234
65.63000 398.274
65.64000 416.340
65.65000 429.469
65.66000 457.171
65.67000 501.069
65.68000 545.107
65.69000 609.534
65.70000 688.716
65.71000 766.353
65.72000 876.443
65.73000 997.717
65.74000 1118.792
65.75000 1236.904
65.76000 1354.027
65.77000 1470.627
65.78000 1582.851
65.79000 1694.093
65.80000 1789.454
65.81000 1842.214
65.82000 1881.562
65.83000 1919.947
65.84000 1954.972
65.85000 1989.710
65.86000 2012.891
65.87000 2008.658
65.88000 2003.257
65.89000 1999.905
65.90000 1970.844
65.91000 1949.681
65.92000 1906.141
65.93000 1838.702
65.94000 1771.073
65.95000 1679.907
65.96000 1572.328
65.97000 1467.073
65.98000 1334.230
65.99000 1194.244
66.00000 1055.855
66.01000 939.834
66.02000 831.016
66.03000 726.548
66.04000 656.765
66.05000 594.479
66.06000 541.430
66.07000 502.749
66.08000 471.902
66.09000 443.303
66.10000 422.264
66.11000 401.839
66.12000 387.883
66.13000 388.748
66.14000 390.195
66.15000 391.081
66.16000 375.935
66.17000 364.963
66.18000 361.595
66.19000 366.025
66.20000 370.459
66.21000 375.313
66.22000 380.448
66.23000 385.461
66.24000 394.017
66.25000 403.745
66.26000 414.214
66.27000 434.487
66.28000 457.806
66.29000 480.669
66.30000 500.049
66.31000 518.704
66.32000 534.487
66.33000 554.926
66.34000 572.550
66.35000 589.886
66.36000 606.292
66.37000 622.626
66.38000 633.914
66.39000 634.040
66.40000 633.762
66.41000 633.594
66.42000 631.132
66.43000 629.364
66.44000 629.034
66.45000 630.119
66.46000 631.097
66.47000 622.546
66.48000 607.820
66.49000 593.478
66.50000 582.804
66.51000 574.169
66.52000 564.511
66.53000 542.073
66.54000 515.802
66.55000 489.958
66.56000 467.230
66.57000 445.125
66.58000 426.551
66.59000 407.796
66.60000 392.151
66.61000 379.397
66.62000 375.696
66.63000 372.650
66.64000 371.705
66.65000 375.246
66.66000 378.937
66.67000 381.126
66.68000 370.585
66.69000 363.055
66.70000 360.734
66.71000 363.337
66.72000 365.862
66.73000 362.376
66.74000 355.134
66.75000 348.098
66.76000 346.109
66.77000 346.258
66.78000 346.419
66.79000 346.731
66.80000 347.085
66.81000 347.766
66.82000 350.719
66.83000 354.110
66.84000 356.939
66.85000 357.294
66.86000 357.341
66.87000 358.533
66.88000 363.187
66.89000 368.077
66.90000 370.147
66.91000 366.398
66.92000 362.473
66.93000 360.181
66.94000 363.727
66.95000 366.248
66.96000 368.525
66.97000 370.579
66.98000 372.597
66.99000 372.226
67.00000 370.416
67.01000 368.661
67.02000 379.841
67.03000 395.449
67.04000 409.052
67.05000 400.208
67.06000 385.098
67.07000 373.013
67.08000 381.152
67.09000 393.032
67.10000 402.874
67.11000 401.006
67.12000 398.347
67.13000 396.677
67.14000 397.896
67.15000 399.299
67.16000 401.659
67.17000 405.924
67.18000 410.242
67.19000 412.723
67.20000 408.553
67.21000 405.615
67.22000 403.637
67.23000 402.498
67.24000 401.383
67.25000 401.598
67.26000 402.587
67.27000 403.542
67.28000 398.803
67.29000 392.204
67.30000 386.288
67.31000 387.634
67.32000 390.934
67.33000 394.381
67.34000 398.765
67.35000 403.316
67.36000 407.058
67.37000 408.823
67.38000 410.095
67.39000 410.931
67.40000 410.541
67.41000 410.078
67.42000 410.730
67.43000 413.527
67.44000 416.378
67.45000 417.989
67.46000 422.252
67.47000 425.222
67.48000 427.810
67.49000 430.075
67.50000 432.306
67.51000 432.775
67.52000 432.254
67.53000 431.752
67.54000 433.310
67.55000 435.514
67.56000 436.675
67.57000 427.292
67.58000 415.173
67.59000 406.267
67.60000 417.103
67.61000 431.307
67.62000 442.901
67.63000 441.687
67.64000 439.595
67.65000 438.386
67.66000 439.578
67.67000 440.905
67.68000 444.483
67.69000 452.240
67.70000 460.091
67.71000 464.450
67.72000 457.500
67.73000 452.696
67.74000 455.230
67.75000 463.694
67.76000 471.942
67.77000 470.389
67.78000 463.525
67.79000 456.930
67.80000 459.564
67.81000 465.223
67.82000 470.488
67.83000 471.961
67.84000 472.485
67.85000 472.173
67.86000 466.932
67.87000 460.883
67.88000 455.984
67.89000 470.533
67.90000 483.960
67.91000 493.890
67.92000 494.637
67.93000 494.901
67.94000 495.148
67.95000 495.365
67.96000 495.583
67.97000 495.701
67.98000 493.295
67.99000 491.663
68.00000 496.436
68.01000 506.189
68.02000 515.709
68.03000 515.722
68.04000 510.764
68.05000 506.014
68.06000 505.551
68.07000 506.545
68.08000 508.402
68.09000 518.144
68.10000 529.788
68.11000 539.951
68.12000 541.732
68.13000 542.196
68.14000 542.569
68.15000 528.335
68.16000 515.675
68.17000 512.038
68.18000 531.286
68.19000 551.658
68.20000 564.689
68.21000 565.030
68.22000 565.147
68.23000 565.210
68.24000 563.580
68.25000 562.480
68.26000 563.946
68.27000 567.333
68.28000 571.080
68.29000 588.089
68.30000 611.793
68.31000 634.427
68.32000 628.825
68.33000 614.580
68.34000 602.624
68.35000 610.631
68.36000 623.277
68.37000 634.186
68.38000 635.647
68.39000 635.685
68.40000 635.716
68.41000 624.705
68.42000 615.020
68.43000 612.906
68.44000 629.333
68.45000 646.607
68.46000 659.639
68.47000 665.597
68.48000 671.446
68.49000 674.521
68.50000 687.892
68.51000 696.956
68.52000 705.250
68.53000 712.986
68.54000 720.846
68.55000 732.826
68.56000 746.815
68.57000 760.128
68.58000 782.864
68.59000 806.809
68.60000 830.787
68.61000 855.037
68.62000 879.347
68.63000 907.581
68.64000 956.324
68.65000 1008.027
68.66000 1048.892
68.67000 1109.747
68.68000 1159.982
68.69000 1202.336
68.70000 1226.050
68.71000 1248.975
68.72000 1283.114
68.73000 1335.292
68.74000 1387.712
68.75000 1414.743
68.76000 1445.847
68.77000 1466.998
68.78000 1513.182
68.79000 1576.770
68.80000 1640.116
68.81000 1696.089
68.82000 1748.592
68.83000 1798.390
68.84000 1858.225
68.85000 1916.364
68.86000 1981.681
68.87000 2104.023
68.88000 2238.649
68.89000 2398.795
68.90000 2687.231
68.91000 2993.384
68.92000 3233.313
68.93000 4307.991
68.94000 5220.758
68.95000 6517.923
68.96000 8693.085
68.97000 10902.547
68.98000 13621.804
68.99000 17132.105
69.00000 20651.486
69.01000 22430.480
69.02000 27467.635
69.03000 30832.002
69.04000 33563.344
69.05000 35870.504
69.06000 38149.363
69.07000 39636.367
69.08000 40763.492
69.09000 41828.773
69.10000 42560.441
69.11000 43137.438
69.12000 43733.953
69.13000 44478.676
69.14000 45254.129
69.15000 45999.707
69.16000 46600.805
69.17000 47182.816
69.18000 47634.961
69.19000 47135.852
69.20000 46681.082
69.21000 45605.230
69.22000 43159.473
69.23000 40664.465
69.24000 38015.719
69.25000 35136.961
69.26000 32256.010
69.27000 29841.615
69.28000 27885.033
69.29000 25934.797
69.30000 24543.416
69.31000 23513.105
69.32000 22503.514
69.33000 22027.270
69.34000 21785.100
69.35000 21557.057
69.36000 21128.037
69.37000 20680.621
69.38000 20159.766
69.39000 19105.518
69.40000 17944.883
69.41000 16667.170
69.42000 14844.564
69.43000 12953.153
69.44000 11496.859
69.45000 9357.153
69.46000 7624.295
69.47000 6116.302
69.48000 5087.250
69.49000 4073.979
69.50000 3264.242
69.51000 2748.037
69.52000 2234.249
69.53000 1888.897
69.54000 1702.296
69.55000 1516.439
69.56000 1386.749
69.57000 1292.056
69.58000 1198.725
69.59000 1137.786
69.60000 1090.575
69.61000 1046.286
69.62000 996.583
69.63000 949.878
69.64000 906.919
69.65000 890.018
69.66000 878.115
69.67000 864.217
69.68000 841.384
69.69000 817.472
69.70000 799.230
69.71000 764.638
69.72000 736.509
69.73000 713.806
69.74000 702.259
69.75000 691.047
69.76000 678.938
69.77000 665.582
69.78000 652.221
69.79000 641.650
69.80000 633.611
69.81000 625.631
69.82000 621.585
69.83000 619.903
69.84000 618.041
69.85000 612.222
69.86000 604.783
69.87000 597.832
69.88000 588.857
69.89000 580.203
69.90000 570.482
69.91000 553.663
69.92000 535.535
69.93000 519.202
69.94000 510.616
69.95000 502.921
69.96000 497.105
69.97000 506.257
69.98000 514.182
69.99000 517.253
70.00000 510.687
