20.00000 454.675
20.01000 461.080
20.02000 468.400
20.03000 474.665
20.04000 476.774
20.05000 478.460
20.06000 479.703
20.07000 481.699
20.08000 483.277
20.09000 481.095
20.10000 472.077
20.11000 462.915
20.12000 457.401
20.13000 456.327
20.14000 455.267
20.15000 460.891
20.16000 471.746
20.17000 482.309
20.18000 480.377
20.19000 471.813
20.20000 463.952
20.21000 468.205
20.22000 476.845
20.23000 484.801
20.24000 487.099
20.25000 487.915
20.26000 487.874
20.27000 482.895
20.28000 477.128
20.29000 472.291
20.30000 470.984
20.31000 470.019
20.32000 469.314
20.33000 460.965
20.34000 454.230
20.35000 454.118
20.36000 465.628
20.37000 477.354
20.38000 480.122
20.39000 472.396
20.40000 464.674
20.41000 458.408
20.42000 453.282
20.43000 448.396
20.44000 452.774
20.45000 461.898
20.46000 470.659
20.47000 473.557
20.48000 474.405
20.49000 475.181
20.50000 466.164
20.51000 456.074
20.52000 447.798
20.53000 449.561
20.54000 452.863
20.55000 455.045
20.56000 453.132
20.57000 450.842
20.58000 449.188
20.59000 449.320
20.60000 449.485
20.61000 450.892
20.62000 454.399
20.63000 457.940
20.64000 460.290
20.65000 461.296
20.66000 462.298
20.67000 464.140
20.68000 466.576
20.69000 468.946
20.70000 468.988
20.71000 467.878
20.72000 467.022
20.73000 470.015
20.74000 474.308
20.75000 478.225
20.76000 469.624
20.77000 459.471
20.78000 450.921
20.79000 450.894
20.80000 452.119
20.81000 454.806
20.82000 462.653
20.83000 470.950
20.84000 476.880
20.85000 463.637
20.86000 452.890
20.87000 446.252
20.88000 446.325
20.89000 446.493
20.90000 450.358
20.91000 458.225
20.92000 466.060
20.93000 466.538
20.94000 461.869
20.95000 457.340
20.96000 457.283
20.97000 459.360
20.98000 461.158
20.99000 458.950
21.00000 455.437
21.01000 452.247
21.02000 456.271
21.03000 461.220
21.04000 465.271
21.05000 464.735
21.06000 463.554
21.07000 462.855
21.08000 463.796
21.09000 464.874
21.10000 465.636
21.11000 457.746
21.12000 451.489
21.13000 448.185
21.14000 449.534
21.15000 450.940
21.16000 455.348
21.17000 462.877
21.18000 470.368
21.19000 471.610
21.20000 468.637
21.21000 465.626
21.22000 461.527
21.23000 456.926
21.24000 452.721
21.25000 453.861
21.26000 456.683
21.27000 459.232
21.28000 462.789
21.29000 466.104
21.30000 468.736
21.31000 468.010
21.32000 466.831
21.33000 467.808
21.34000 475.861
21.35000 484.468
21.36000 490.484
21.37000 479.990
21.38000 471.595
21.39000 464.291
21.40000 458.645
21.41000 453.017
21.42000 450.070
21.43000 449.801
21.44000 449.533
21.45000 456.246
21.46000 467.377
21.47000 477.999
21.48000 475.040
21.49000 466.034
21.50000 457.229
21.51000 450.990
21.52000 445.531
21.53000 440.622
21.54000 446.368
21.55000 453.292
21.56000 459.876
21.57000 464.856
21.58000 469.629
21.59000 472.571
21.60000 469.707
21.61000 466.415
21.62000 464.140
21.63000 459.878
21.64000 456.623
21.65000 456.557
21.66000 461.161
21.67000 465.806
21.68000 467.195
21.69000 465.464
21.70000 463.747
21.71000 464.771
21.72000 467.482
21.73000 469.978
21.74000 467.167
21.75000 462.075
21.76000 457.822
21.77000 463.685
21.78000 472.510
21.79000 480.404
21.80000 478.878
21.81000 475.947
21.82000 472.549
21.83000 467.026
21.84000 461.242
21.85000 459.905
21.86000 472.170
21.87000 485.382
21.88000 494.404
21.89000 501.273
21.90000 506.360
21.91000 506.120
21.92000 498.360
21.93000 490.549
21.94000 491.226
21.95000 499.716
21.96000 508.130
21.97000 514.368
21.98000 519.182
21.99000 523.581
22.00000 518.558
22.01000 509.620
22.02000 502.231
22.03000 512.502
22.04000 527.763
22.05000 541.338
22.06000 538.344
22.07000 533.048
22.08000 530.054
22.09000 537.158
22.10000 545.447
22.11000 550.826
22.12000 547.612
22.13000 543.835
22.14000 541.288
22.15000 533.737
22.16000 528.013
22.17000 521.576
22.18000 514.170
22.19000 506.761
22.20000 502.443
22.21000 500.858
22.22000 499.289
22.23000 500.361
22.24000 502.931
22.25000 505.171
22.26000 500.457
22.27000 492.954
22.28000 486.304
22.29000 488.875
22.30000 493.961
22.31000 498.459
22.32000 489.749
22.33000 480.163
22.34000 472.464
22.35000 472.732
22.36000 473.892
22.37000 474.983
22.38000 475.878
22.39000 476.761
22.40000 477.350
22.41000 486.068
22.42000 492.676
22.43000 490.627
22.44000 477.235
22.45000 463.802
22.46000 455.547
22.47000 451.698
22.48000 447.894
22.49000 447.753
22.50000 449.645
22.51000 451.503
22.52000 452.686
22.53000 453.609
22.54000 454.481
22.55000 454.834
22.56000 455.050
22.57000 455.241
22.58000 457.263
22.59000 459.277
22.60000 459.813
22.61000 454.336
22.62000 448.217
22.63000 445.183
22.64000 450.639
22.65000 456.583
22.66000 460.494
22.67000 450.838
22.68000 443.496
22.69000 439.162
22.70000 438.620
22.71000 438.102
22.72000 441.787
22.73000 448.914
22.74000 455.945
22.75000 449.655
22.76000 436.434
22.77000 424.013
22.78000 426.258
22.79000 433.989
22.80000 441.290
22.81000 444.383
22.82000 446.410
22.83000 448.183
22.84000 445.907
22.85000 443.380
22.86000 440.256
22.87000 434.786
22.88000 429.079
22.89000 428.373
22.90000 440.960
22.91000 454.265
22.92000 462.902
22.93000 451.487
22.94000 442.822
22.95000 436.517
22.96000 433.077
22.97000 429.657
22.98000 429.790
22.99000 432.723
23.00000 435.611
23.01000 442.049
23.02000 450.112
23.03000 457.703
23.04000 457.203
23.05000 453.780
23.06000 449.093
23.07000 432.649
23.08000 413.333
23.09000 396.540
23.10000 403.396
23.11000 412.458
23.12000 421.121
23.13000 428.271
23.14000 435.276
23.15000 438.063
23.16000 430.029
23.17000 421.450
23.18000 415.955
23.19000 429.262
23.20000 439.208
23.21000 444.557
23.22000 444.538
23.23000 444.499
23.24000 441.978
23.25000 437.574
23.26000 433.246
23.27000 428.716
23.28000 424.237
23.29000 419.887
23.30000 417.607
23.31000 416.048
23.32000 414.967
23.33000 418.130
23.34000 422.291
23.35000 425.886
23.36000 426.581
23.37000 426.796
23.38000 427.351
23.39000 429.152
23.40000 431.067
23.41000 432.437
23.42000 432.455
23.43000 432.410
23.44000 432.382
23.45000 431.122
23.46000 430.194
23.47000 430.803
23.48000 433.137
23.49000 435.425
23.50000 429.699
23.51000 418.120
23.52000 406.761
23.53000 407.579
23.54000 414.155
23.55000 420.627
23.56000 425.527
23.57000 429.897
23.58000 434.189
23.59000 437.822
23.60000 441.305
23.61000 444.295
23.62000 442.965
23.63000 441.305
23.64000 440.508
23.65000 442.742
23.66000 445.240
23.67000 446.748
23.68000 445.888
23.69000 444.925
23.70000 444.325
23.71000 454.905
23.72000 462.643
23.73000 463.854
23.74000 458.021
23.75000 452.250
23.76000 455.161
23.77000 464.184
23.78000 473.017
23.79000 483.623
23.80000 494.621
23.81000 504.658
23.82000 501.029
23.83000 492.960
23.84000 485.093
23.85000 478.867
23.86000 473.000
23.87000 467.994
23.88000 481.316
23.89000 494.692
23.90000 504.440
23.91000 501.878
23.92000 498.304
23.93000 498.266
23.94000 506.402
23.95000 514.866
23.96000 520.062
23.97000 506.083
23.98000 495.900
23.99000 493.658
24.00000 499.648
24.01000 505.604
24.02000 507.612
24.03000 506.941
24.04000 506.287
24.05000 499.730
24.06000 490.855
24.07000 482.403
24.08000 479.616
24.09000 478.607
24.10000 477.957
24.11000 480.078
24.12000 482.782
24.13000 485.073
24.14000 487.109
24.15000 488.785
24.16000 487.577
24.17000 476.923
24.18000 465.533
24.19000 461.132
24.20000 472.333
24.21000 484.112
24.22000 491.235
24.23000 476.948
24.24000 466.611
24.25000 462.571
24.26000 464.798
24.27000 466.950
24.28000 462.173
24.29000 452.863
24.30000 443.790
24.31000 443.235
24.32000 446.316
24.33000 449.183
24.34000 449.342
24.35000 448.680
24.36000 446.900
24.37000 436.866
24.38000 425.165
24.39000 415.315
24.40000 418.099
24.41000 421.772
24.42000 422.324
24.43000 413.011
24.44000 402.973
24.45000 399.249
24.46000 409.132
24.47000 419.477
24.48000 425.638
24.49000 426.208
24.50000 426.578
24.51000 423.760
24.52000 417.896
24.53000 412.097
24.54000 411.394
24.55000 413.906
24.56000 416.347
24.57000 416.420
24.58000 415.524
24.59000 414.386
24.60000 410.360
24.61000 405.491
24.62000 401.539
24.63000 404.068
24.64000 407.856
24.65000 411.023
24.66000 416.910
24.67000 422.075
24.68000 424.294
24.69000 417.526
24.70000 410.135
24.71000 404.355
24.72000 401.927
24.73000 399.604
24.74000 398.242
24.75000 401.364
24.76000 403.586
24.77000 405.913
24.78000 408.337
24.79000 410.712
24.80000 409.714
24.81000 406.663
24.82000 403.706
24.83000 401.277
24.84000 399.184
24.85000 397.222
24.86000 396.756
24.87000 396.711
24.88000 396.845
24.89000 398.193
24.90000 399.768
24.91000 401.076
24.92000 401.777
24.93000 402.299
24.94000 402.819
24.95000 403.337
24.96000 403.855
24.97000 402.660
24.98000 398.023
24.99000 393.290
25.00000 390.559
25.01000 397.794
25.02000 402.895
25.03000 403.667
25.04000 400.621
25.05000 397.603
25.06000 396.280
25.07000 395.952
25.08000 395.634
25.09000 401.559
25.10000 409.508
25.11000 416.473
25.12000 412.833
25.13000 406.310
25.14000 401.032
25.15000 403.807
25.16000 408.029
25.17000 411.508
25.18000 408.961
25.19000 406.313
25.20000 403.013
25.21000 397.859
25.22000 392.591
25.23000 388.069
25.24000 384.993
25.25000 381.955
25.26000 380.231
25.27000 392.659
25.28000 401.349
25.29000 406.770
25.30000 409.420
25.31000 411.903
25.32000 405.622
25.33000 394.375
25.34000 383.529
25.35000 384.608
25.36000 389.954
25.37000 394.986
25.38000 396.796
25.39000 397.762
25.40000 398.606
25.41000 398.685
25.42000 398.632
25.43000 398.589
25.44000 393.308
25.45000 388.528
25.46000 387.086
25.47000 394.811
25.48000 403.062
25.49000 407.527
25.50000 404.905
25.51000 402.120
25.52000 400.567
25.53000 397.787
25.54000 395.862
25.55000 394.049
25.56000 392.327
25.57000 390.591
25.58000 388.183
25.59000 385.407
25.60000 382.737
25.61000 388.333
25.62000 396.465
25.63000 403.642
25.64000 401.528
25.65000 397.067
25.66000 393.181
25.67000 392.721
25.68000 392.828
25.69000 392.915
25.70000 396.518
25.71000 399.746
25.72000 399.548
25.73000 390.275
25.74000 380.514
25.75000 375.631
25.76000 379.562
25.77000 383.673
25.78000 385.927
25.79000 380.923
25.80000 377.492
25.81000 379.865
25.82000 386.796
25.83000 393.543
25.84000 392.538
25.85000 387.441
25.86000 382.556
25.87000 384.752
25.88000 389.183
25.89000 393.178
25.90000 393.140
25.91000 392.119
25.92000 391.234
25.93000 391.123
25.94000 391.134
25.95000 391.143
25.96000 380.949
25.97000 371.881
25.98000 367.453
25.99000 374.901
26.00000 382.943
26.01000 388.312
26.02000 389.021
26.03000 389.645
26.04000 389.981
26.05000 377.944
26.06000 369.735
26.07000 367.719
26.08000 370.388
26.09000 372.975
26.10000 372.473
26.11000 370.397
26.12000 368.413
26.13000 368.846
26.14000 370.030
26.15000 371.596
26.16000 376.535
26.17000 382.265
26.18000 387.064
26.19000 386.741
26.20000 385.640
26.21000 384.760
26.22000 387.181
26.23000 389.380
26.24000 389.446
26.25000 384.241
26.26000 378.791
26.27000 374.248
26.28000 371.232
26.29000 368.240
26.30000 366.659
26.31000 380.032
26.32000 389.088
26.33000 392.368
26.34000 391.441
26.35000 390.560
26.36000 391.249
26.37000 392.711
26.38000 394.103
26.39000 394.761
26.40000 395.141
26.41000 395.400
26.42000 394.642
26.43000 393.654
26.44000 391.758
26.45000 385.064
26.46000 377.671
26.47000 371.815
26.48000 379.122
26.49000 385.912
26.50000 390.895
26.51000 391.569
26.52000 392.057
26.53000 392.609
26.54000 393.268
26.55000 393.927
26.56000 394.269
26.57000 381.255
26.58000 372.524
26.59000 370.954
26.60000 374.410
26.61000 377.554
26.62000 370.921
26.63000 359.647
26.64000 348.943
26.65000 354.639
26.66000 364.800
26.67000 374.315
26.68000 378.646
26.69000 381.848
26.70000 384.423
26.71000 383.815
26.72000 382.763
26.73000 381.936
26.74000 380.122
26.75000 378.606
26.76000 376.637
26.77000 373.624
26.78000 370.569
26.79000 369.049
26.80000 369.933
26.81000 370.847
26.82000 371.311
26.83000 369.806
26.84000 368.789
26.85000 366.864
26.86000 364.324
26.87000 361.907
26.88000 362.980
26.89000 365.655
26.90000 368.185
26.91000 362.448
26.92000 354.797
26.93000 348.807
26.94000 355.567
26.95000 364.998
26.96000 373.952
26.97000 380.579
26.98000 386.895
26.99000 391.813
27.00000 380.423
27.01000 370.346
27.02000 363.106
27.03000 362.178
27.04000 361.482
27.05000 360.674
27.06000 359.693
27.07000 358.711
27.08000 362.608
27.09000 371.342
27.10000 380.013
27.11000 382.986
27.12000 382.243
27.13000 381.579
27.14000 382.984
27.15000 385.305
27.16000 387.493
27.17000 377.395
27.18000 364.754
27.19000 353.718
27.20000 354.479
27.21000 357.616
27.22000 360.248
27.23000 360.506
27.24000 360.460
27.25000 360.424
27.26000 354.995
27.27000 350.379
27.28000 351.304
27.29000 364.134
27.30000 377.365
27.31000 385.792
27.32000 387.225
27.33000 388.598
27.34000 385.527
27.35000 378.227
27.36000 370.963
27.37000 366.550
27.38000 363.931
27.39000 361.458
27.40000 362.540
27.41000 365.141
27.42000 367.584
27.43000 371.306
27.44000 375.040
27.45000 378.768
27.46000 382.458
27.47000 386.141
27.48000 387.973
27.49000 381.427
27.50000 373.859
27.51000 368.071
27.52000 373.975
27.53000 379.269
27.54000 381.175
27.55000 376.051
27.56000 370.710
27.57000 365.328
27.58000 359.886
27.59000 354.445
27.60000 354.730
27.61000 360.247
27.62000 365.671
27.63000 364.777
27.64000 360.050
27.65000 355.513
27.66000 355.219
27.67000 356.678
27.68000 358.043
27.69000 365.715
27.70000 374.293
27.71000 382.237
27.72000 385.922
27.73000 388.812
27.74000 389.468
27.75000 380.388
27.76000 370.173
27.77000 362.434
27.78000 364.366
27.79000 366.374
27.80000 365.412
27.81000 358.498
27.82000 351.417
27.83000 350.871
27.84000 359.158
27.85000 367.488
27.86000 371.436
27.87000 371.532
27.88000 371.582
27.89000 368.995
27.90000 364.863
27.91000 360.956
27.92000 361.734
27.93000 364.379
27.94000 366.844
27.95000 370.000
27.96000 373.024
27.97000 375.453
27.98000 374.032
27.99000 371.924
28.00000 368.600
28.01000 360.177
28.02000 351.188
28.03000 344.443
28.04000 351.229
28.05000 357.175
28.06000 359.343
28.07000 354.204
28.08000 348.879
28.09000 346.084
28.10000 346.583
28.11000 347.096
28.12000 348.276
28.13000 350.017
28.14000 351.733
28.15000 352.205
28.16000 351.974
28.17000 351.878
28.18000 354.391
28.19000 357.909
28.20000 361.172
28.21000 364.033
28.22000 366.515
28.23000 368.131
28.24000 364.390
28.25000 359.728
28.26000 355.819
28.27000 354.956
28.28000 354.415
28.29000 354.013
28.30000 356.730
28.31000 358.981
28.32000 358.515
28.33000 352.975
28.34000 347.319
28.35000 347.064
28.36000 353.579
28.37000 360.105
28.38000 362.204
28.39000 360.710
28.40000 359.134
28.41000 353.793
28.42000 346.399
28.43000 339.473
28.44000 341.031
28.45000 345.744
28.46000 350.099
28.47000 347.797
28.48000 344.228
28.49000 340.898
28.50000 338.983
28.51000 337.302
28.52000 337.433
28.53000 344.629
28.54000 352.537
28.55000 358.354
28.56000 355.850
28.57000 353.569
28.58000 355.463
28.59000 364.880
28.60000 374.449
28.61000 375.083
28.62000 364.939
28.63000 354.792
28.64000 349.561
28.65000 348.184
28.66000 346.971
28.67000 352.586
28.68000 361.793
28.69000 370.195
28.70000 364.919
28.71000 354.733
28.72000 345.365
28.73000 344.309
28.74000 345.168
28.75000 346.573
28.76000 351.095
28.77000 356.109
28.78000 360.225
28.79000 360.967
28.80000 361.386
28.81000 361.691
28.82000 367.149
28.83000 371.549
28.84000 370.590
28.85000 360.314
28.86000 349.870
28.87000 344.211
28.88000 344.103
28.89000 344.002
28.90000 350.249
28.91000 361.204
28.92000 371.854
28.93000 371.044
28.94000 364.412
28.95000 358.082
28.96000 356.534
28.97000 356.645
28.98000 356.746
28.99000 351.082
29.00000 344.843
29.01000 339.731
29.02000 340.790
29.03000 342.786
29.04000 344.073
29.05000 342.790
29.06000 341.273
29.07000 340.180
29.08000 337.901
29.09000 336.113
29.10000 334.201
29.11000 332.081
29.12000 329.957
29.13000 335.930
29.14000 350.932
29.15000 365.888
29.16000 368.681
29.17000 362.695
29.18000 356.818
29.19000 354.653
29.20000 354.310
29.21000 354.076
29.22000 355.490
29.23000 357.455
29.24000 359.245
29.25000 353.996
29.26000 347.940
29.27000 343.601
29.28000 348.304
29.29000 354.321
29.30000 357.984
29.31000 353.415
29.32000 348.138
29.33000 344.376
29.34000 341.076
29.35000 338.575
29.36000 338.850
29.37000 343.620
29.38000 348.451
29.39000 351.454
29.40000 352.497
29.41000 353.534
29.42000 348.859
29.43000 340.278
29.44000 331.996
29.45000 332.951
29.46000 338.282
29.47000 343.676
29.48000 349.971
29.49000 356.556
29.50000 362.528
29.51000 361.267
29.52000 358.770
29.53000 356.323
29.54000 354.129
29.55000 351.969
29.56000 348.715
29.57000 341.767
29.58000 334.518
29.59000 329.408
29.60000 342.987
29.61000 353.848
29.62000 358.716
29.63000 354.225
29.64000 349.624
29.65000 347.726
29.66000 348.610
29.67000 349.489
29.68000 349.825
29.69000 349.796
29.70000 349.885
29.71000 353.289
29.72000 358.211
29.73000 362.813
29.74000 363.167
29.75000 362.197
29.76000 361.321
29.77000 359.381
29.78000 357.481
29.79000 354.940
29.80000 349.274
29.81000 343.193
29.82000 340.942
29.83000 351.158
29.84000 362.336
29.85000 370.126
29.86000 370.262
29.87000 370.153
29.88000 368.210
29.89000 363.502
29.90000 358.767
29.91000 358.658
29.92000 363.118
29.93000 367.549
29.94000 365.593
29.95000 359.577
29.96000 354.125
29.97000 363.423
29.98000 379.233
29.99000 393.928
30.00000 394.636
30.01000 391.137
30.02000 387.995
30.03000 391.854
30.04000 396.459
30.05000 399.227
30.06000 393.388
30.07000 386.454
30.08000 382.186
30.09000 386.295
30.10000 391.013
30.11000 394.264
30.12000 386.830
30.13000 380.981
30.14000 378.387
30.15000 380.519
30.16000 382.690
30.17000 384.179
30.18000 385.021
30.19000 385.856
30.20000 384.477
30.21000 381.758
30.22000 378.939
30.23000 373.692
30.24000 367.410
30.25000 361.479
30.26000 359.715
30.27000 359.161
30.28000 358.667
30.29000 364.426
30.30000 370.494
30.31000 375.812
30.32000 377.744
30.33000 379.265
30.34000 379.419
30.35000 375.427
30.36000 371.151
30.37000 368.241
30.38000 359.795
30.39000 353.360
30.40000 348.567
30.41000 346.069
30.42000 343.587
30.43000 343.050
30.44000 344.286
30.45000 345.511
30.46000 348.134
30.47000 351.534
30.48000 355.028
30.49000 360.643
30.50000 367.131
30.51000 373.181
30.52000 374.304
30.53000 374.046
30.54000 373.817
30.55000 367.326
30.56000 360.688
30.57000 355.507
30.58000 356.655
30.59000 358.537
30.60000 360.544
30.61000 362.915
30.62000 365.311
30.63000 366.922
30.64000 369.548
30.65000 371.521
30.66000 370.675
30.67000 366.031
30.68000 361.370
30.69000 360.076
30.70000 361.731
30.71000 363.369
30.72000 361.481
30.73000 357.625
30.74000 354.156
30.75000 358.709
30.76000 366.452
30.77000 373.342
30.78000 371.117
30.79000 366.430
30.80000 362.290
30.81000 370.450
30.82000 379.390
30.83000 386.985
30.84000 388.958
30.85000 390.308
30.86000 391.087
30.87000 390.250
30.88000 389.314
30.89000 388.693
30.90000 398.347
30.91000 405.674
30.92000 408.484
30.93000 405.432
30.94000 402.366
30.95000 405.324
30.96000 413.357
30.97000 421.292
30.98000 433.627
30.99000 448.065
31.00000 461.663
31.01000 459.046
31.02000 450.202
31.03000 443.855
31.04000 462.835
31.05000 488.411
31.06000 510.877
31.07000 519.639
31.08000 525.153
31.09000 533.693
31.10000 554.436
31.11000 576.466
31.12000 599.227
31.13000 623.988
31.14000 648.862
31.15000 665.170
31.16000 705.745
31.17000 735.984
31.18000 764.488
31.19000 790.823
31.20000 817.131
31.21000 835.748
31.22000 848.131
31.23000 860.341
31.24000 892.242
31.25000 933.642
31.26000 974.361
31.27000 1002.793
31.28000 1026.669
31.29000 1050.552
31.30000 1074.507
31.31000 1098.479
31.32000 1119.414
31.33000 1145.951
31.34000 1169.453
31.35000 1189.397
31.36000 1195.517
31.37000 1200.251
31.38000 1205.091
31.39000 1210.209
31.40000 1215.343
31.41000 1218.664
31.42000 1207.304
31.43000 1198.779
31.44000 1187.586
31.45000 1173.184
31.46000 1158.733
31.47000 1133.069
31.48000 1098.655
31.49000 1064.779
31.50000 1030.306
31.51000 996.600
31.52000 962.895
31.53000 929.196
31.54000 895.500
31.55000 862.475
31.56000 835.614
31.57000 810.245
31.58000 788.223
31.59000 757.241
31.60000 729.638
31.61000 701.804
31.62000 673.110
31.63000 644.334
31.64000 616.905
31.65000 592.902
31.66000 569.068
31.67000 553.854
31.68000 534.952
31.69000 521.153
31.70000 504.074
31.71000 483.202
31.72000 462.392
31.73000 455.000
31.74000 457.689
31.75000 460.330
31.76000 450.732
31.77000 435.474
31.78000 420.586
31.79000 411.575
31.80000 404.596
31.81000 398.004
31.82000 394.812
31.83000 392.413
31.84000 390.344
31.85000 387.859
31.86000 385.699
31.87000 382.804
31.88000 377.258
31.89000 371.471
31.90000 365.906
31.91000 360.883
31.92000 355.885
31.93000 352.739
31.94000 365.915
31.95000 375.633
31.96000 379.615
31.97000 377.221
31.98000 374.790
31.99000 367.204
32.00000 355.887
32.01000 344.791
32.02000 344.612
32.03000 349.581
32.04000 353.849
32.05000 347.693
32.06000 338.060
32.07000 329.141
32.08000 326.198
32.09000 324.596
32.10000 323.223
32.11000 333.291
32.12000 343.193
32.13000 350.607
32.14000 349.351
32.15000 347.352
32.16000 344.179
32.17000 338.225
32.18000 332.152
32.19000 328.383
32.20000 330.093
32.21000 331.377
32.22000 333.414
32.23000 336.254
32.24000 339.076
32.25000 339.511
32.26000 338.283
32.27000 337.081
32.28000 336.367
32.29000 335.904
32.30000 335.357
32.31000 333.631
32.32000 331.526
32.33000 329.107
32.34000 324.183
32.35000 318.718
32.36000 314.063
32.37000 315.790
32.38000 317.986
32.39000 321.152
32.40000 327.581
32.41000 334.276
32.42000 338.624
32.43000 337.597
32.44000 336.358
32.45000 335.600
32.46000 331.098
32.47000 327.845
32.48000 327.386
32.49000 329.793
32.50000 332.168
32.51000 331.068
32.52000 327.632
32.53000 324.277
32.54000 323.977
32.55000 325.022
32.56000 325.589
32.57000 319.832
32.58000 312.109
32.59000 305.296
32.60000 305.418
32.61000 306.982
32.62000 308.305
32.63000 308.467
32.64000 308.474
32.65000 309.174
32.66000 312.124
32.67000 315.245
32.68000 316.361
32.69000 313.038
32.70000 309.554
32.71000 307.454
32.72000 316.997
32.73000 323.869
32.74000 327.712
32.75000 328.572
32.76000 329.427
32.77000 329.784
32.78000 329.817
32.79000 329.850
32.80000 335.833
32.81000 344.033
32.82000 352.738
32.83000 367.759
32.84000 384.674
32.85000 400.424
32.86000 407.678
32.87000 413.231
32.88000 417.897
32.89000 447.955
32.90000 475.681
32.91000 498.285
32.92000 504.851
32.93000 510.255
32.94000 514.139
32.95000 514.777
32.96000 515.307
32.97000 515.622
32.98000 527.311
32.99000 535.645
33.00000 535.094
33.01000 526.141
33.02000 517.142
33.03000 504.587
33.04000 489.808
33.05000 475.450
33.06000 458.580
33.07000 441.540
33.08000 424.328
33.09000 405.084
33.10000 385.251
33.11000 367.653
33.12000 365.654
33.13000 366.658
33.14000 367.495
33.15000 353.861
33.16000 341.100
33.17000 329.536
33.18000 321.592
33.19000 313.895
33.20000 306.911
33.21000 301.399
33.22000 295.931
33.23000 292.738
33.24000 297.901
33.25000 301.570
33.26000 300.236
33.27000 294.358
33.28000 288.592
33.29000 290.204
33.30000 296.266
33.31000 302.139
33.32000 303.718
33.33000 303.543
33.34000 302.787
33.35000 295.520
33.36000 286.435
33.37000 279.396
33.38000 286.031
33.39000 295.197
33.40000 302.790
33.41000 298.819
33.42000 294.436
33.43000 291.153
33.44000 291.079
33.45000 291.211
33.46000 291.288
33.47000 291.256
33.48000 291.221
33.49000 291.200
33.50000 287.422
33.51000 284.768
33.52000 283.034
33.53000 282.105
33.54000 281.247
33.55000 284.534
33.56000 290.233
33.57000 295.740
33.58000 297.206
33.59000 297.077
33.60000 296.672
33.61000 293.334
33.62000 289.207
33.63000 285.622
33.64000 285.508
33.65000 286.012
33.66000 286.426
33.67000 285.764
33.68000 285.122
33.69000 286.284
33.70000 292.525
33.71000 299.073
33.72000 301.546
33.73000 296.184
33.74000 290.628
33.75000 287.488
33.76000 286.597
33.77000 285.990
33.78000 288.603
33.79000 293.922
33.80000 299.132
33.81000 298.782
33.82000 295.311
33.83000 291.966
33.84000 293.835
33.85000 297.467
33.86000 300.536
33.87000 297.911
33.88000 293.809
33.89000 290.600
33.90000 292.881
33.91000 296.100
33.92000 298.727
33.93000 306.057
33.94000 312.457
33.95000 315.218
33.96000 308.080
33.97000 300.383
33.98000 299.157
33.99000 309.942
34.00000 320.995
34.01000 327.134
34.02000 316.689
34.03000 309.456
34.04000 308.311
34.05000 312.086
34.06000 315.729
34.07000 313.371
34.08000 307.761
34.09000 302.371
34.10000 300.364
34.11000 299.656
34.12000 300.082
34.13000 311.410
34.14000 325.466
34.15000 336.065
34.16000 326.277
34.17000 313.148
34.18000 302.514
34.19000 316.855
34.20000 330.564
34.21000 339.797
34.22000 337.278
34.23000 334.138
34.24000 331.987
34.25000 331.606
34.26000 331.260
34.27000 331.072
34.28000 343.582
34.29000 352.160
34.30000 352.678
34.31000 346.929
34.32000 341.234
34.33000 337.800
34.34000 335.547
34.35000 333.389
34.36000 331.574
34.37000 329.994
34.38000 328.698
34.39000 329.997
34.40000 331.921
34.41000 333.344
34.42000 331.931
34.43000 330.072
34.44000 328.578
34.45000 326.813
34.46000 325.362
34.47000 323.520
34.48000 320.688
34.49000 317.807
34.50000 315.845
34.51000 315.470
34.52000 315.124
34.53000 314.938
34.54000 310.158
34.55000 306.903
34.56000 305.899
34.57000 306.580
34.58000 307.231
34.59000 306.786
34.60000 305.788
34.61000 304.834
34.62000 300.481
34.63000 295.346
34.64000 290.153
34.65000 284.451
34.66000 278.630
34.67000 274.467
34.68000 279.324
34.69000 285.540
34.70000 290.494
34.71000 290.139
34.72000 289.467
34.73000 289.609
34.74000 291.740
34.75000 293.963
34.76000 293.505
34.77000 288.575
34.78000 283.576
34.79000 280.947
34.80000 276.880
34.81000 274.164
34.82000 277.916
34.83000 286.337
34.84000 294.512
34.85000 294.446
34.86000 290.363
34.87000 286.477
34.88000 281.287
34.89000 276.082
34.90000 271.750
34.91000 274.673
34.92000 279.220
34.93000 282.259
34.94000 277.414
34.95000 271.430
34.96000 266.701
34.97000 268.975
34.98000 271.282
34.99000 274.389
35.00000 279.391
35.01000 284.473
35.02000 288.022
35.03000 289.105
35.04000 290.155
35.05000 290.696
35.06000 277.039
35.07000 267.899
35.08000 266.609
35.09000 270.777
35.10000 274.760
35.11000 273.092
35.12000 268.763
35.13000 264.658
35.14000 267.961
35.15000 273.202
35.16000 277.528
35.17000 274.599
35.18000 270.106
35.19000 266.751
35.20000 269.125
35.21000 272.289
35.22000 274.769
35.23000 274.023
35.24000 273.218
35.25000 271.585
35.26000 268.060
35.27000 264.462
35.28000 263.526
35.29000 266.722
35.30000 269.965
35.31000 271.605
35.32000 257.676
35.33000 248.444
35.34000 248.368
35.35000 254.429
35.36000 260.167
35.37000 256.889
35.38000 249.513
35.39000 242.541
35.40000 246.577
35.41000 253.417
35.42000 259.916
35.43000 263.825
35.44000 267.196
35.45000 269.378
35.46000 265.810
35.47000 261.482
35.48000 258.119
35.49000 252.090
35.50000 247.133
35.51000 247.506
35.52000 259.640
35.53000 272.196
35.54000 277.125
35.55000 270.640
35.56000 264.045
35.57000 263.364
35.58000 268.488
35.59000 273.555
35.60000 273.691
35.61000 270.638
35.62000 267.514
35.63000 262.514
35.64000 256.692
35.65000 251.209
35.66000 256.091
35.67000 263.393
35.68000 269.647
35.69000 268.288
35.70000 265.409
35.71000 263.854
35.72000 268.461
35.73000 273.847
35.74000 277.993
35.75000 275.012
35.76000 272.245
35.77000 268.531
35.78000 262.800
35.79000 257.003
35.80000 254.509
35.81000 256.780
35.82000 259.089
35.83000 259.884
35.84000 259.251
35.85000 258.662
35.86000 261.394
35.87000 266.196
35.88000 270.686
35.89000 267.769
35.90000 261.712
35.91000 256.029
35.92000 251.870
35.93000 248.480
35.94000 246.693
35.95000 256.044
35.96000 267.531
35.97000 275.320
35.98000 266.535
35.99000 255.750
36.00000 247.522
36.01000 251.330
36.02000 254.973
36.03000 256.680
36.04000 254.401
36.05000 252.003
36.06000 252.457
36.07000 256.877
36.08000 261.321
36.09000 264.553
36.10000 266.685
36.11000 268.738
36.12000 265.635
36.13000 259.432
36.14000 253.560
36.15000 254.968
36.16000 259.356
36.17000 263.456
36.18000 260.419
36.19000 255.861
36.20000 251.526
36.21000 248.681
36.22000 246.111
36.23000 244.741
36.24000 248.553
36.25000 252.961
36.26000 256.293
36.27000 251.607
36.28000 247.531
36.29000 245.468
36.30000 247.405
36.31000 249.451
36.32000 251.527
36.33000 253.642
36.34000 255.757
36.35000 258.678
36.36000 262.296
36.37000 265.929
36.38000 270.455
36.39000 275.498
36.40000 280.012
36.41000 273.705
36.42000 263.121
36.43000 253.270
36.44000 252.087
36.45000 253.120
36.46000 253.943
36.47000 253.418
36.48000 252.655
36.49000 252.214
36.50000 253.114
36.51000 254.160
36.52000 254.943
36.53000 252.254
36.54000 249.994
36.55000 249.558
36.56000 252.622
36.57000 255.771
36.58000 256.425
36.59000 253.861
36.60000 251.286
36.61000 248.329
36.62000 245.062
36.63000 241.939
36.64000 246.109
36.65000 254.360
36.66000 261.984
36.67000 257.632
36.68000 248.709
36.69000 240.439
36.70000 244.518
36.71000 251.066
36.72000 256.835
36.73000 257.835
36.74000 258.025
36.75000 257.813
36.76000 255.993
36.77000 254.005
36.78000 252.531
36.79000 252.151
36.80000 251.903
36.81000 250.861
36.82000 248.349
36.83000 245.805
36.84000 247.789
36.85000 255.394
36.86000 263.003
36.87000 270.391
36.88000 277.572
36.89000 284.503
36.90000 280.124
36.91000 269.636
36.92000 259.741
36.93000 260.417
36.94000 264.990
36.95000 269.210
36.96000 269.927
36.97000 269.785
36.98000 269.442
36.99000 267.916
37.00000 266.196
37.01000 265.525
37.02000 268.902
37.03000 272.682
37.04000 275.456
37.05000 272.737
37.06000 270.413
37.07000 269.741
37.08000 272.019
37.09000 274.355
37.10000 275.659
37.11000 275.732
37.12000 275.803
37.13000 272.883
37.14000 267.674
37.15000 262.516
37.16000 259.464
37.17000 257.510
37.18000 255.624
37.19000 254.883
37.20000 254.549
37.21000 254.242
37.22000 254.747
37.23000 255.372
37.24000 255.941
37.25000 256.193
37.26000 256.396
37.27000 257.569
37.28000 262.357
37.29000 267.486
37.30000 271.212
37.31000 265.443
37.32000 260.650
37.33000 260.809
37.34000 269.500
37.35000 278.340
37.36000 277.100
37.37000 264.282
37.38000 251.489
37.39000 243.329
37.40000 238.664
37.41000 234.217
37.42000 237.781
37.43000 245.378
37.44000 252.536
37.45000 252.831
37.46000 250.766
37.47000 248.879
37.48000 249.440
37.49000 250.443
37.50000 251.262
37.51000 251.081
37.52000 250.750
37.53000 251.867
37.54000 258.185
37.55000 264.970
37.56000 269.845
37.57000 261.730
37.58000 255.069
37.59000 249.611
37.60000 246.152
37.61000 242.723
37.62000 242.778
37.63000 246.681
37.64000 250.571
37.65000 250.763
37.66000 248.316
37.67000 246.027
37.68000 249.007
37.69000 254.549
37.70000 259.566
37.71000 256.862
37.72000 251.596
37.73000 246.803
37.74000 249.282
37.75000 252.911
37.76000 255.349
37.77000 251.579
37.78000 246.917
37.79000 245.127
37.80000 253.288
37.81000 262.294
37.82000 268.696
37.83000 258.739
37.84000 250.634
37.85000 245.302
37.86000 244.417
37.87000 243.591
37.88000 244.616
37.89000 247.606
37.90000 250.582
37.91000 250.873
37.92000 249.321
37.93000 247.835
37.94000 248.377
37.95000 249.871
37.96000 251.109
37.97000 248.788
37.98000 245.327
37.99000 242.192
38.00000 245.746
38.01000 250.145
38.02000 253.642
38.03000 252.625
38.04000 250.987
38.05000 251.146
38.06000 257.310
38.07000 263.957
38.08000 268.629
38.09000 261.582
38.10000 255.899
38.11000 252.827
38.12000 253.794
38.13000 254.808
38.14000 253.858
38.15000 250.908
38.16000 247.975
38.17000 247.745
38.18000 249.299
38.19000 250.995
38.20000 256.617
38.21000 264.020
38.22000 270.673
38.23000 267.510
38.24000 261.314
38.25000 255.730
38.26000 259.027
38.27000 263.531
38.28000 267.929
38.29000 271.815
38.30000 275.634
38.31000 277.914
38.32000 275.226
38.33000 272.161
38.34000 270.031
38.35000 282.462
38.36000 292.222
38.37000 302.150
38.38000 312.328
38.39000 322.508
38.40000 330.934
38.41000 337.645
38.42000 344.309
38.43000 352.839
38.44000 362.419
38.45000 372.414
38.46000 393.015
38.47000 418.259
38.48000 442.605
38.49000 455.831
38.50000 465.741
38.51000 474.627
38.52000 503.818
38.53000 532.854
38.54000 560.213
38.55000 579.796
38.56000 598.401
38.57000 622.769
38.58000 665.078
38.59000 708.674
38.60000 738.618
38.61000 768.124
38.62000 790.237
38.63000 812.213
38.64000 833.990
38.65000 855.765
38.66000 880.155
38.67000 906.999
38.68000 933.623
38.69000 940.548
38.70000 935.330
38.71000 930.806
38.72000 942.684
38.73000 961.494
38.74000 978.189
38.75000 970.118
38.76000 954.921
38.77000 941.366
38.78000 928.673
38.79000 917.773
38.80000 903.430
38.81000 873.706
38.82000 842.133
38.83000 811.177
38.84000 782.074
38.85000 753.095
38.86000 733.429
38.87000 697.899
38.88000 671.041
38.89000 641.774
38.90000 609.167
38.91000 576.543
38.92000 551.008
38.93000 531.868
38.94000 512.912
38.95000 487.972
38.96000 460.035
38.97000 432.340
38.98000 409.969
38.99000 389.770
39.00000 370.146
39.01000 356.892
39.02000 345.407
39.03000 335.218
39.04000 326.866
39.05000 319.924
39.06000 312.360
39.07000 302.121
39.08000 291.575
39.09000 282.045
39.10000 275.465
39.11000 269.072
39.12000 264.786
39.13000 264.040
39.14000 263.558
39.15000 259.443
39.16000 250.479
39.17000 241.501
39.18000 240.832
39.19000 247.372
39.20000 253.840
39.21000 255.116
39.22000 253.431
39.23000 251.815
39.24000 251.624
39.25000 251.995
39.26000 251.873
39.27000 246.550
39.28000 239.836
39.29000 233.912
39.30000 236.331
39.31000 239.686
39.32000 242.531
39.33000 243.257
39.34000 243.751
39.35000 242.695
39.36000 237.296
39.37000 231.639
39.38000 227.894
39.39000 233.168
39.40000 237.225
39.41000 235.253
39.42000 225.533
39.43000 215.794
39.44000 211.770
39.45000 212.513
39.46000 213.247
39.47000 219.507
39.48000 228.607
39.49000 237.246
39.50000 237.127
39.51000 233.673
39.52000 231.077
39.53000 237.065
39.54000 245.269
39.55000 252.464
39.56000 246.887
39.57000 240.239
39.58000 234.269
39.59000 231.005
39.60000 228.022
39.61000 226.786
39.62000 230.275
39.63000 234.027
39.64000 236.479
39.65000 238.128
39.66000 239.327
39.67000 238.055
39.68000 233.726
39.69000 229.402
39.70000 229.625
39.71000 233.500
39.72000 237.319
39.73000 239.212
39.74000 240.043
39.75000 240.935
39.76000 242.903
39.77000 245.267
39.78000 247.186
39.79000 244.868
39.80000 241.495
39.81000 238.555
39.82000 238.988
39.83000 239.828
39.84000 239.647
39.85000 235.535
39.86000 231.033
39.87000 229.247
39.88000 234.549
39.89000 240.221
39.90000 243.879
39.91000 239.205
39.92000 235.672
39.93000 233.979
39.94000 234.475
39.95000 234.962
39.96000 232.249
39.97000 227.063
39.98000 221.960
39.99000 220.265
40.00000 220.340
40.01000 220.599
40.02000 223.899
40.03000 228.279
40.04000 232.093
40.05000 230.773
40.06000 228.223
40.07000 226.012
40.08000 224.994
40.09000 224.286
40.10000 223.542
40.11000 222.664
40.12000 221.773
40.13000 220.384
40.14000 217.738
40.15000 215.031
40.16000 213.309
40.17000 213.998
40.18000 214.529
40.19000 214.553
40.20000 213.997
40.21000 213.445
40.22000 213.568
40.23000 214.196
40.24000 214.812
40.25000 214.452
40.26000 213.631
40.27000 212.809
40.28000 211.953
40.29000 211.086
40.30000 210.957
40.31000 217.217
40.32000 224.952
40.33000 231.614
40.34000 224.597
40.35000 216.918
40.36000 212.867
40.37000 221.813
40.38000 231.918
40.39000 237.656
40.40000 232.755
40.41000 227.375
40.42000 224.000
40.43000 220.379
40.44000 217.759
40.45000 215.583
40.46000 213.896
40.47000 212.225
40.48000 212.820
40.49000 215.040
40.50000 217.215
40.51000 215.960
40.52000 213.153
40.53000 210.657
40.54000 212.723
40.55000 216.297
40.56000 219.210
40.57000 216.658
40.58000 212.890
40.59000 209.666
40.60000 211.986
40.61000 214.613
40.62000 216.856
40.63000 217.770
40.64000 218.571
40.65000 217.926
40.66000 213.880
40.67000 209.692
40.68000 207.103
40.69000 208.964
40.70000 210.343
40.71000 211.801
40.72000 213.341
40.73000 214.849
40.74000 212.318
40.75000 206.996
40.76000 201.792
40.77000 202.710
40.78000 206.338
40.79000 209.753
40.80000 210.245
40.81000 209.803
40.82000 209.602
40.83000 211.306
40.84000 213.417
40.85000 215.212
40.86000 218.562
40.87000 221.555
40.88000 223.351
40.89000 221.160
40.90000 218.650
40.91000 216.886
40.92000 216.814
40.93000 216.807
40.94000 216.803
40.95000 222.086
40.96000 225.904
40.97000 225.207
40.98000 219.924
40.99000 214.658
41.00000 211.137
41.01000 208.777
41.02000 206.474
41.03000 205.281
41.04000 204.620
41.05000 204.210
41.06000 207.057
41.07000 210.909
41.08000 214.802
41.09000 219.012
41.10000 223.287
41.11000 226.897
41.12000 221.285
41.13000 215.581
41.14000 210.748
41.15000 208.719
41.16000 206.902
41.17000 206.229
41.18000 208.066
41.19000 209.992
41.20000 211.148
41.21000 212.429
41.22000 213.341
41.23000 211.120
41.24000 205.847
41.25000 200.627
41.26000 200.003
41.27000 202.331
41.28000 204.598
41.29000 205.704
41.30000 206.275
41.31000 206.508
41.32000 202.565
41.33000 197.381
41.34000 192.832
41.35000 192.858
41.36000 193.791
41.37000 194.574
41.38000 202.469
41.39000 209.782
41.40000 215.417
41.41000 215.844
41.42000 215.901
41.43000 215.961
41.44000 216.031
41.45000 216.102
41.46000 216.144
41.47000 208.173
41.48000 202.499
41.49000 201.012
41.50000 203.443
41.51000 205.845
41.52000 206.066
41.53000 204.936
41.54000 203.838
41.55000 200.281
41.56000 195.920
41.57000 192.120
41.58000 194.871
41.59000 199.501
41.60000 203.597
41.61000 204.002
41.62000 203.703
41.63000 203.455
41.64000 203.272
41.65000 203.127
41.66000 204.418
41.67000 210.012
41.68000 215.896
41.69000 218.467
41.70000 214.267
41.71000 209.865
41.72000 207.305
41.73000 205.218
41.74000 203.757
41.75000 205.395
41.76000 209.820
41.77000 214.226
41.78000 217.333
41.79000 219.664
41.80000 221.921
41.81000 216.908
41.82000 209.368
41.83000 202.870
41.84000 207.883
41.85000 216.082
41.86000 222.482
41.87000 216.993
41.88000 209.325
41.89000 202.984
41.90000 206.049
41.91000 209.462
41.92000 211.962
41.93000 211.821
41.94000 211.513
41.95000 210.918
41.96000 209.756
41.97000 208.579
41.98000 207.905
41.99000 203.857
42.00000 201.023
42.01000 201.647
42.02000 205.261
42.03000 208.814
42.04000 209.011
42.05000 207.273
42.06000 205.594
42.07000 207.886
42.08000 211.516
42.09000 215.369
42.10000 221.554
42.11000 228.362
42.12000 234.073
42.13000 232.830
42.14000 230.362
42.15000 228.337
42.16000 234.927
42.17000 241.106
42.18000 242.306
42.19000 229.596
42.20000 216.063
42.21000 208.587
42.22000 212.657
42.23000 217.007
42.24000 219.454
42.25000 217.063
42.26000 215.398
42.27000 217.430
42.28000 222.535
42.29000 227.530
42.30000 227.051
42.31000 223.525
42.32000 220.130
42.33000 220.331
42.34000 221.800
42.35000 222.560
42.36000 216.244
42.37000 208.107
42.38000 201.863
42.39000 207.137
42.40000 214.356
42.41000 220.238
42.42000 217.308
42.43000 214.168
42.44000 212.963
42.45000 216.977
42.46000 221.280
42.47000 223.533
42.48000 222.012
42.49000 220.410
42.50000 219.524
42.51000 211.656
42.52000 206.225
42.53000 204.047
42.54000 204.473
42.55000 204.933
42.56000 206.892
42.57000 209.656
42.58000 212.310
42.59000 211.409
42.60000 209.346
42.61000 207.303
42.62000 205.441
42.63000 203.624
42.64000 201.900
42.65000 200.715
42.66000 199.617
42.67000 198.730
42.68000 202.266
42.69000 205.497
42.70000 206.066
42.71000 199.700
42.72000 192.976
42.73000 189.350
42.74000 191.228
42.75000 193.212
42.76000 194.289
42.77000 196.697
42.78000 198.351
42.79000 200.313
42.80000 202.512
42.81000 204.595
42.82000 202.054
42.83000 197.114
42.84000 192.386
42.85000 195.392
42.86000 200.743
42.87000 205.586
42.88000 205.834
42.89000 204.984
42.90000 203.806
42.91000 200.788
42.92000 197.484
42.93000 194.835
42.94000 193.354
42.95000 192.244
42.96000 194.188
42.97000 203.809
42.98000 213.801
42.99000 218.064
43.00000 212.511
43.01000 206.791
43.02000 203.740
43.03000 197.577
43.04000 193.378
43.05000 189.639
43.06000 186.240
43.07000 182.916
43.08000 182.247
43.09000 182.906
43.10000 183.535
43.11000 184.660
43.12000 185.862
43.13000 186.931
43.14000 186.860
43.15000 186.528
43.16000 187.692
43.17000 196.922
43.18000 207.354
43.19000 215.651
43.20000 207.389
43.21000 199.546
43.22000 194.327
43.23000 195.481
43.24000 196.921
43.25000 198.003
43.26000 198.497
43.27000 198.981
43.28000 199.234
43.29000 196.124
43.30000 194.041
43.31000 195.434
43.32000 199.312
43.33000 202.990
43.34000 200.130
43.35000 194.111
43.36000 188.387
43.37000 188.229
43.38000 189.780
43.39000 191.453
43.40000 194.123
43.41000 197.015
43.42000 198.784
43.43000 194.739
43.44000 189.865
43.45000 186.021
43.46000 192.884
43.47000 199.111
43.48000 204.226
43.49000 206.734
43.50000 209.134
43.51000 208.312
43.52000 202.354
43.53000 196.329
43.54000 193.238
43.55000 194.577
43.56000 195.466
43.57000 194.818
43.58000 193.110
43.59000 191.532
43.60000 193.795
43.61000 197.851
43.62000 201.695
43.63000 198.002
43.64000 192.391
43.65000 187.933
43.66000 192.538
43.67000 199.077
43.68000 203.700
43.69000 198.778
43.70000 192.553
43.71000 187.684
43.72000 192.241
43.73000 196.479
43.74000 198.302
43.75000 194.658
43.76000 190.805
43.77000 187.557
43.78000 185.242
43.79000 182.936
43.80000 181.777
43.81000 189.288
43.82000 194.264
43.83000 195.035
43.84000 193.013
43.85000 191.141
43.86000 193.383
43.87000 197.478
43.88000 201.346
43.89000 200.470
43.90000 198.329
43.91000 196.305
43.92000 195.161
43.93000 194.198
43.94000 193.224
43.95000 192.201
43.96000 191.171
43.97000 190.373
43.98000 183.353
43.99000 177.404
44.00000 174.774
44.01000 179.400
44.02000 184.282
44.03000 189.464
44.04000 195.092
44.05000 200.724
44.06000 202.597
44.07000 200.821
44.08000 199.037
44.09000 196.519
44.10000 193.530
44.11000 190.731
44.12000 192.707
44.13000 196.760
44.14000 200.573
44.15000 200.364
44.16000 199.084
44.17000 197.649
44.18000 195.107
44.19000 192.346
44.20000 190.053
44.21000 189.915
44.22000 190.047
44.23000 190.148
44.24000 191.065
44.25000 191.835
44.26000 193.318
44.27000 196.306
44.28000 199.343
44.29000 200.233
44.30000 198.055
44.31000 195.855
44.32000 195.640
44.33000 197.278
44.34000 198.870
44.35000 197.163
44.36000 193.418
44.37000 189.790
44.38000 188.891
44.39000 189.140
44.40000 189.373
44.41000 193.785
44.42000 198.888
44.43000 203.657
44.44000 206.128
44.45000 208.163
44.46000 209.509
44.47000 207.794
44.48000 205.714
44.49000 204.131
44.50000 198.639
44.51000 194.112
44.52000 192.806
44.53000 198.068
44.54000 203.522
44.55000 208.503
44.56000 212.831
44.57000 217.153
44.58000 219.413
44.59000 219.823
44.60000 220.236
44.61000 220.859
44.62000 221.607
44.63000 222.242
44.64000 220.445
44.65000 217.660
44.66000 215.061
44.67000 215.324
44.68000 216.278
44.69000 217.729
44.70000 222.450
44.71000 227.767
44.72000 231.021
44.73000 225.446
44.74000 218.868
44.75000 213.908
44.76000 214.485
44.77000 215.209
44.78000 216.269
44.79000 217.988
44.80000 219.725
44.81000 223.351
44.82000 229.484
44.83000 235.624
44.84000 236.029
44.85000 231.500
44.86000 226.989
44.87000 223.456
44.88000 220.484
44.89000 217.790
44.90000 220.663
44.91000 225.719
44.92000 230.419
44.93000 234.065
44.94000 237.103
44.95000 239.863
44.96000 240.863
44.97000 241.556
44.98000 241.433
44.99000 237.949
45.00000 234.101
45.01000 231.228
45.02000 238.542
45.03000 244.710
45.04000 248.314
45.05000 247.043
45.06000 245.655
45.07000 242.658
45.08000 237.606
45.09000 232.552
45.10000 235.574
45.11000 245.261
45.12000 254.806
45.13000 257.335
45.14000 255.973
45.15000 254.622
45.16000 253.489
45.17000 252.438
45.18000 251.464
45.19000 245.791
45.20000 239.606
45.21000 233.727
45.22000 229.708
45.23000 226.002
45.24000 223.328
45.25000 224.754
45.26000 226.604
45.27000 227.971
45.28000 225.566
45.29000 223.539
45.30000 222.873
45.31000 224.700
45.32000 226.582
45.33000 225.024
45.34000 219.237
45.35000 213.450
45.36000 213.967
45.37000 219.490
45.38000 224.914
45.39000 225.988
45.40000 224.733
45.41000 223.391
45.42000 220.515
45.43000 217.079
45.44000 213.912
45.45000 211.000
45.46000 208.450
45.47000 206.361
45.48000 206.957
45.49000 207.986
45.50000 208.463
45.51000 206.824
45.52000 204.977
45.53000 203.625
45.54000 204.864
45.55000 205.922
45.56000 207.745
45.57000 210.920
45.58000 214.121
45.59000 211.686
45.60000 202.585
45.61000 193.495
45.62000 190.267
45.63000 191.535
45.64000 192.820
45.65000 194.794
45.66000 197.125
45.67000 199.490
45.68000 202.441
45.69000 205.599
45.70000 208.496
45.71000 201.820
45.72000 193.834
45.73000 187.722
45.74000 192.079
45.75000 198.057
45.76000 201.699
45.77000 196.716
45.78000 190.928
45.79000 186.736
45.80000 182.964
45.81000 180.083
45.82000 179.441
45.83000 182.622
45.84000 185.868
45.85000 185.346
45.86000 180.538
45.87000 175.740
45.88000 175.081
45.89000 177.465
45.90000 179.874
45.91000 183.169
45.92000 186.907
45.93000 190.134
45.94000 185.502
45.95000 178.192
45.96000 171.515
45.97000 169.989
45.98000 169.683
45.99000 170.393
46.00000 176.552
46.01000 183.521
46.02000 188.664
46.03000 187.308
46.04000 185.377
46.05000 183.994
46.06000 179.240
46.07000 175.493
46.08000 172.561
46.09000 170.971
46.10000 169.401
46.11000 168.529
46.12000 168.419
46.13000 168.310
46.14000 168.026
46.15000 167.620
46.16000 167.349
46.17000 171.441
46.18000 177.636
46.19000 183.242
46.20000 180.307
46.21000 174.564
46.22000 169.343
46.23000 169.284
46.24000 170.240
46.25000 171.504
46.26000 174.355
46.27000 177.433
46.28000 179.082
46.29000 175.828
46.30000 172.163
46.31000 169.565
46.32000 171.516
46.33000 173.142
46.34000 174.058
46.35000 173.847
46.36000 173.622
46.37000 173.522
46.38000 173.553
46.39000 173.585
46.40000 172.653
46.41000 171.079
46.42000 169.515
46.43000 168.269
46.44000 167.170
46.45000 166.201
46.46000 167.008
46.47000 168.379
46.48000 169.618
46.49000 171.659
46.50000 173.606
46.51000 174.765
46.52000 172.014
46.53000 168.732
46.54000 166.143
46.55000 165.851
46.56000 165.742
46.57000 165.665
46.58000 165.597
46.59000 165.546
46.60000 165.854
46.61000 166.711
46.62000 167.574
46.63000 167.776
46.64000 167.311
46.65000 166.849
46.66000 167.897
46.67000 169.916
46.68000 171.867
46.69000 171.955
46.70000 171.207
46.71000 170.602
46.72000 171.835
46.73000 173.631
46.74000 175.247
46.75000 175.645
46.76000 175.774
46.77000 175.640
46.78000 174.243
46.79000 172.682
46.80000 171.218
46.81000 170.062
46.82000 168.929
46.83000 168.144
46.84000 165.079
46.85000 162.712
46.86000 163.606
46.87000 169.320
46.88000 175.078
46.89000 177.844
46.90000 177.713
46.91000 177.583
46.92000 176.168
46.93000 173.968
46.94000 171.678
46.95000 167.111
46.96000 161.558
46.97000 156.996
46.98000 164.547
46.99000 175.676
47.00000 185.643
47.01000 183.640
47.02000 179.835
47.03000 175.938
47.04000 171.621
47.05000 167.253
47.06000 163.120
47.07000 159.715
47.08000 156.361
47.09000 154.064
47.10000 162.044
47.11000 168.266
47.12000 171.192
47.13000 169.424
47.14000 167.622
47.15000 168.818
47.16000 172.802
47.17000 176.752
47.18000 174.043
47.19000 167.361
47.20000 161.055
47.21000 163.464
47.22000 169.524
47.23000 174.925
47.24000 172.709
47.25000 168.321
47.26000 164.413
47.27000 164.998
47.28000 166.246
47.29000 167.038
47.30000 165.812
47.31000 164.347
47.32000 163.413
47.33000 164.064
47.34000 164.820
47.35000 165.332
47.36000 162.208
47.37000 159.801
47.38000 159.010
47.39000 160.438
47.40000 161.879
47.41000 162.373
47.42000 162.021
47.43000 161.673
47.44000 162.385
47.45000 163.698
47.46000 164.929
47.47000 164.390
47.48000 163.134
47.49000 162.068
47.50000 163.084
47.51000 164.672
47.52000 166.079
47.53000 168.132
47.54000 170.010
47.55000 170.814
47.56000 167.036
47.57000 162.739
47.58000 159.623
47.59000 159.902
47.60000 160.393
47.61000 160.721
47.62000 161.976
47.63000 162.923
47.64000 162.953
47.65000 161.769
47.66000 160.580
47.67000 160.169
47.68000 160.428
47.69000 160.683
47.70000 161.927
47.71000 163.694
47.72000 165.356
47.73000 164.923
47.74000 163.672
47.75000 162.636
47.76000 163.835
47.77000 165.626
47.78000 167.204
47.79000 166.716
47.80000 165.984
47.81000 164.704
47.82000 161.172
47.83000 157.396
47.84000 155.500
47.85000 158.819
47.86000 162.444
47.87000 164.836
47.88000 158.664
47.89000 153.962
47.90000 153.436
47.91000 158.226
47.92000 163.024
47.93000 163.539
47.94000 160.515
47.95000 157.531
47.96000 154.866
47.97000 152.445
47.98000 150.162
47.99000 150.446
48.00000 151.697
48.01000 152.710
48.02000 151.366
48.03000 149.420
48.04000 147.715
48.05000 149.603
48.06000 151.739
48.07000 154.296
48.08000 158.520
48.09000 162.914
48.10000 164.456
48.11000 158.352
48.12000 151.829
48.13000 147.581
48.14000 156.069
48.15000 162.493
48.16000 166.725
48.17000 168.270
48.18000 169.797
48.19000 167.743
48.20000 162.841
48.21000 158.011
48.22000 156.474
48.23000 156.689
48.24000 156.942
48.25000 157.861
48.26000 159.023
48.27000 160.051
48.28000 159.814
48.29000 159.265
48.30000 158.788
48.31000 160.397
48.32000 162.059
48.33000 162.773
48.34000 159.874
48.35000 156.621
48.36000 154.606
48.37000 155.795
48.38000 157.147
48.39000 158.016
48.40000 161.462
48.41000 164.012
48.42000 161.644
48.43000 153.479
48.44000 145.336
48.45000 144.630
48.46000 149.617
48.47000 154.522
48.48000 157.897
48.49000 160.399
48.50000 162.665
48.51000 161.075
48.52000 158.129
48.53000 155.297
48.54000 153.496
48.55000 151.940
48.56000 150.593
48.57000 154.405
48.58000 158.322
48.59000 161.342
48.60000 161.061
48.61000 160.473
48.62000 159.407
48.63000 157.145
48.64000 154.826
48.65000 153.356
48.66000 154.175
48.67000 154.796
48.68000 155.754
48.69000 157.093
48.70000 158.419
48.71000 157.503
48.72000 154.934
48.73000 152.412
48.74000 151.148
48.75000 150.534
48.76000 150.131
48.77000 152.976
48.78000 156.924
48.79000 159.827
48.80000 153.785
48.81000 145.698
48.82000 138.743
48.83000 139.299
48.84000 140.711
48.85000 142.691
48.86000 146.687
48.87000 150.861
48.88000 153.074
48.89000 150.557
48.90000 147.830
48.91000 146.125
48.92000 154.164
48.93000 160.067
48.94000 162.144
48.95000 160.050
48.96000 157.968
48.97000 157.815
48.98000 159.033
48.99000 160.225
49.00000 156.454
49.01000 150.536
49.02000 144.969
49.03000 144.476
49.04000 145.646
49.05000 147.239
49.06000 152.282
49.07000 158.084
49.08000 163.042
49.09000 159.344
49.10000 155.196
49.11000 151.502
49.12000 149.368
49.13000 147.365
49.14000 147.081
49.15000 150.808
49.16000 154.699
49.17000 157.097
49.18000 153.929
49.19000 151.606
49.20000 149.351
49.21000 147.169
49.22000 145.011
49.23000 145.651
49.24000 148.207
49.25000 150.706
49.26000 149.668
49.27000 147.102
49.28000 144.736
49.29000 145.096
49.30000 146.317
49.31000 147.175
49.32000 145.193
49.33000 142.609
49.34000 140.416
49.35000 147.515
49.36000 154.528
49.37000 159.882
49.38000 159.760
49.39000 159.206
49.40000 157.977
49.41000 155.228
49.42000 152.422
49.43000 150.719
49.44000 148.898
49.45000 147.597
49.46000 147.773
49.47000 149.433
49.48000 151.072
49.49000 150.653
49.50000 148.877
49.51000 147.144
49.52000 145.587
49.53000 144.175
49.54000 142.627
49.55000 139.321
49.56000 135.479
49.57000 132.807
49.58000 138.856
49.59000 146.685
49.60000 153.286
49.61000 158.912
49.62000 163.505
49.63000 165.810
49.64000 160.817
49.65000 155.281
49.66000 150.480
49.67000 147.277
49.68000 144.129
49.69000 142.247
49.70000 151.507
49.71000 158.148
49.72000 159.330
49.73000 155.246
49.74000 151.172
49.75000 148.013
49.76000 145.436
49.77000 142.929
49.78000 147.076
49.79000 153.762
49.80000 159.976
49.81000 160.473
49.82000 159.285
49.83000 158.065
49.84000 156.616
49.85000 155.122
49.86000 153.870
49.87000 148.081
49.88000 142.802
49.89000 139.603
49.90000 142.807
49.91000 146.461
49.92000 147.954
49.93000 144.913
49.94000 141.727
49.95000 139.852
49.96000 142.226
49.97000 143.923
49.98000 146.077
49.99000 148.655
50.00000 151.195
50.01000 151.034
50.02000 149.215
50.03000 147.450
50.04000 147.880
50.05000 149.157
50.06000 150.455
50.07000 152.007
50.08000 153.630
50.09000 155.123
50.10000 155.732
50.11000 156.173
50.12000 156.539
50.13000 156.127
50.14000 155.709
50.15000 155.648
50.16000 156.651
50.17000 157.724
50.18000 158.637
50.19000 159.226
50.20000 159.806
50.21000 160.142
50.22000 157.623
50.23000 155.845
50.24000 154.711
50.25000 154.150
50.26000 153.618
50.27000 154.854
50.28000 157.139
50.29000 159.349
50.30000 157.950
50.31000 155.252
50.32000 152.800
50.33000 153.034
50.34000 154.005
50.35000 154.822
50.36000 154.637
50.37000 154.270
50.38000 153.967
50.39000 159.917
50.40000 165.400
50.41000 168.295
50.42000 163.770
50.43000 158.784
50.44000 155.491
50.45000 155.511
50.46000 155.618
50.47000 155.679
50.48000 152.298
50.49000 149.930
50.50000 148.103
50.51000 146.740
50.52000 145.444
50.53000 147.860
50.54000 152.396
50.55000 156.773
50.56000 157.217
50.57000 156.191
50.58000 155.262
50.59000 155.324
50.60000 155.649
50.61000 156.280
50.62000 158.833
50.63000 161.721
50.64000 164.087
50.65000 164.076
50.66000 163.858
50.67000 161.906
50.68000 155.154
50.69000 148.122
50.70000 144.223
50.71000 146.242
50.72000 148.401
50.73000 149.610
50.74000 155.178
50.75000 159.039
50.76000 159.438
50.77000 156.984
50.78000 154.561
50.79000 153.633
50.80000 153.530
50.81000 153.431
50.82000 156.813
50.83000 161.215
50.84000 165.149
50.85000 164.475
50.86000 162.627
50.87000 161.187
50.88000 162.196
50.89000 163.616
50.90000 164.770
50.91000 156.255
50.92000 148.497
50.93000 144.167
50.94000 148.997
50.95000 154.327
50.96000 158.338
50.97000 159.942
50.98000 161.495
50.99000 162.350
51.00000 157.046
51.01000 153.389
51.02000 151.833
51.03000 151.943
51.04000 152.034
51.05000 151.335
51.06000 150.215
51.07000 149.140
51.08000 149.744
51.09000 150.878
51.10000 151.802
51.11000 150.758
51.12000 149.229
51.13000 148.099
51.14000 149.270
51.15000 150.811
51.16000 152.053
51.17000 151.858
51.18000 151.585
51.19000 151.986
51.20000 154.128
51.21000 156.358
51.22000 155.907
51.23000 150.737
51.24000 145.479
51.25000 142.637
51.26000 141.628
51.27000 140.938
51.28000 140.082
51.29000 139.098
51.30000 138.126
51.31000 137.580
51.32000 137.255
51.33000 136.943
51.34000 141.580
51.35000 147.512
51.36000 152.514
51.37000 149.203
51.38000 143.924
51.39000 139.747
51.40000 141.690
51.41000 144.575
51.42000 146.883
51.43000 147.515
51.44000 147.901
51.45000 146.556
51.46000 140.893
51.47000 135.026
51.48000 133.528
51.49000 139.448
51.50000 145.490
51.51000 148.697
51.52000 148.445
51.53000 148.265
51.54000 146.945
51.55000 144.787
51.56000 142.588
51.57000 138.907
51.58000 134.492
51.59000 130.284
51.60000 128.877
51.61000 128.453
51.62000 128.965
51.63000 137.458
51.64000 147.770
51.65000 155.716
51.66000 151.047
51.67000 144.518
51.68000 139.336
51.69000 133.088
51.70000 127.985
51.71000 126.164
51.72000 132.246
51.73000 138.676
51.74000 142.251
51.75000 141.150
51.76000 139.981
51.77000 139.372
51.78000 146.459
51.79000 151.203
51.80000 149.282
51.81000 142.640
51.82000 136.171
51.83000 135.179
51.84000 136.812
51.85000 138.363
51.86000 141.343
51.87000 144.527
51.88000 147.246
51.89000 146.176
51.90000 144.275
51.91000 142.344
51.92000 140.260
51.93000 138.154
51.94000 136.497
51.95000 137.598
51.96000 138.663
51.97000 140.236
51.98000 142.988
51.99000 145.788
52.00000 146.860
52.01000 145.201
52.02000 143.508
52.03000 142.644
52.04000 149.793
52.05000 154.542
52.06000 153.321
52.07000 148.027
52.08000 142.689
52.09000 136.104
52.10000 128.940
52.11000 122.158
52.12000 125.607
52.13000 131.751
52.14000 137.143
52.15000 136.699
52.16000 135.021
52.17000 134.032
52.18000 136.439
52.19000 139.304
52.20000 141.540
52.21000 142.435
52.22000 143.065
52.23000 143.290
52.24000 142.605
52.25000 141.885
52.26000 139.835
52.27000 135.759
52.28000 131.661
52.29000 129.611
52.30000 137.642
52.31000 142.936
52.32000 142.321
52.33000 137.817
52.34000 133.492
52.35000 133.960
52.36000 136.568
52.37000 139.030
52.38000 139.679
52.39000 139.769
52.40000 139.551
52.41000 137.046
52.42000 134.077
52.43000 131.896
52.44000 133.453
52.45000 135.492
52.46000 137.070
52.47000 137.749
52.48000 138.235
52.49000 137.708
52.50000 134.986
52.51000 132.188
52.52000 132.932
52.53000 138.879
52.54000 144.872
52.55000 146.912
52.56000 145.150
52.57000 143.375
52.58000 140.485
52.59000 136.888
52.60000 133.490
52.61000 135.019
52.62000 138.674
52.63000 142.109
52.64000 141.689
52.65000 140.272
52.66000 139.470
52.67000 143.043
52.68000 147.472
52.69000 150.206
52.70000 145.201
52.71000 139.241
52.72000 134.673
52.73000 130.573
52.74000 127.361
52.75000 128.267
52.76000 137.792
52.77000 147.589
52.78000 151.493
52.79000 147.053
52.80000 142.553
52.81000 141.177
52.82000 142.684
52.83000 144.154
52.84000 142.962
52.85000 140.141
52.86000 137.486
52.87000 138.618
52.88000 141.329
52.89000 143.866
52.90000 139.570
52.91000 133.903
52.92000 129.772
52.93000 136.089
52.94000 144.370
52.95000 150.292
52.96000 145.832
52.97000 140.149
52.98000 135.833
52.99000 141.945
53.00000 147.289
53.01000 150.314
53.02000 148.652
53.03000 146.856
53.04000 144.805
53.05000 142.406
53.06000 140.006
53.07000 141.016
53.08000 145.047
53.09000 148.984
53.10000 147.137
53.11000 141.876
53.12000 136.837
53.13000 136.515
53.14000 138.091
53.15000 139.561
53.16000 140.073
53.17000 140.300
53.18000 140.546
53.19000 140.919
53.20000 141.314
53.21000 141.944
53.22000 143.571
53.23000 145.310
53.24000 146.618
53.25000 142.264
53.26000 138.585
53.27000 137.466
53.28000 141.345
53.29000 145.352
53.30000 146.205
53.31000 142.911
53.32000 139.601
53.33000 141.040
53.34000 146.518
53.35000 151.933
53.36000 153.967
53.37000 154.076
53.38000 154.178
53.39000 154.151
53.40000 154.074
53.41000 154.003
53.42000 155.552
53.43000 157.334
53.44000 158.812
53.45000 158.390
53.46000 157.637
53.47000 156.618
53.48000 154.506
53.49000 152.276
53.50000 150.616
53.51000 146.804
53.52000 143.739
53.53000 140.648
53.54000 137.507
53.55000 134.364
53.56000 133.248
53.57000 134.695
53.58000 136.149
53.59000 137.741
53.60000 139.440
53.61000 141.145
53.62000 143.167
53.63000 145.361
53.64000 147.343
53.65000 145.402
53.66000 141.990
53.67000 138.834
53.68000 142.982
53.69000 148.374
53.70000 152.966
53.71000 152.753
53.72000 151.739
53.73000 149.970
53.74000 145.232
53.75000 140.191
53.76000 136.473
53.77000 140.723
53.78000 144.350
53.79000 146.027
53.80000 144.161
53.81000 142.221
53.82000 142.478
53.83000 145.411
53.84000 148.345
53.85000 146.856
53.86000 141.896
53.87000 137.052
53.88000 137.150
53.89000 139.871
53.90000 142.415
53.91000 141.912
53.92000 140.305
53.93000 138.825
53.94000 135.517
53.95000 132.159
53.96000 129.675
53.97000 132.227
53.98000 135.585
53.99000 138.317
54.00000 138.680
54.01000 138.813
54.02000 138.910
54.03000 139.755
54.04000 140.435
54.05000 140.657
54.06000 140.074
54.07000 139.476
54.08000 138.706
54.09000 137.735
54.10000 136.765
54.11000 135.306
54.12000 133.486
54.13000 131.767
54.14000 133.928
54.15000 138.077
54.16000 141.848
54.17000 139.501
54.18000 135.015
54.19000 130.904
54.20000 133.629
54.21000 137.493
54.22000 140.396
54.23000 137.981
54.24000 134.751
54.25000 132.496
54.26000 133.804
54.27000 135.439
54.28000 136.620
54.29000 132.182
54.30000 128.574
54.31000 127.942
54.32000 132.349
54.33000 136.837
54.34000 139.272
54.35000 139.395
54.36000 139.516
54.37000 138.291
54.38000 136.099
54.39000 133.914
54.40000 131.960
54.41000 130.119
54.42000 128.523
54.43000 130.631
54.44000 133.989
54.45000 137.053
54.46000 139.713
54.47000 141.991
54.48000 143.682
54.49000 142.260
54.50000 140.381
54.51000 138.402
54.52000 136.074
54.53000 133.716
54.54000 132.031
54.55000 129.152
54.56000 126.916
54.57000 126.399
54.58000 128.692
54.59000 131.024
54.60000 132.832
54.61000 134.070
54.62000 135.303
54.63000 138.394
54.64000 142.752
54.65000 146.912
54.66000 144.766
54.67000 139.608
54.68000 134.804
54.69000 135.053
54.70000 136.949
54.71000 138.671
54.72000 138.469
54.73000 137.918
54.74000 136.582
54.75000 131.232
54.76000 125.318
54.77000 122.104
54.78000 128.083
54.79000 134.821
54.80000 139.584
54.81000 142.713
54.82000 145.039
54.83000 147.377
54.84000 149.732
54.85000 152.088
54.86000 150.758
54.87000 145.597
54.88000 140.463
54.89000 138.840
54.90000 139.597
54.91000 140.453
54.92000 144.168
54.93000 149.203
54.94000 153.604
54.95000 149.474
54.96000 142.660
54.97000 136.504
54.98000 138.003
54.99000 140.741
55.00000 143.097
55.01000 143.577
55.02000 143.804
55.03000 144.262
55.04000 145.479
55.05000 146.754
55.06000 147.646
55.07000 153.230
55.08000 157.582
55.09000 156.079
55.10000 145.682
55.11000 135.192
55.12000 130.946
55.13000 132.932
55.14000 134.906
55.15000 138.963
55.16000 144.308
55.17000 149.399
55.18000 147.707
55.19000 142.995
55.20000 138.851
55.21000 141.948
55.22000 147.242
55.23000 152.002
55.24000 151.106
55.25000 149.317
55.26000 148.567
55.27000 152.729
55.28000 157.524
55.29000 160.782
55.30000 159.169
55.31000 157.198
55.32000 155.835
55.33000 157.289
55.34000 158.454
55.35000 159.686
55.36000 161.018
55.37000 162.350
55.38000 162.547
55.39000 161.658
55.40000 160.775
55.41000 162.711
55.42000 166.366
55.43000 169.969
55.44000 172.252
55.45000 173.967
55.46000 175.905
55.47000 180.510
55.48000 185.896
55.49000 190.714
55.50000 192.601
55.51000 193.749
55.52000 195.925
55.53000 202.781
55.54000 210.214
55.55000 217.514
55.56000 224.410
55.57000 231.277
55.58000 235.966
55.59000 239.409
55.60000 241.955
55.61000 246.643
55.62000 254.354
55.63000 262.089
55.64000 273.465
55.65000 288.192
55.66000 302.789
55.67000 308.572
55.68000 308.969
55.69000 309.591
55.70000 315.347
55.71000 323.235
55.72000 331.345
55.73000 341.990
55.74000 353.351
55.75000 363.457
55.76000 383.704
55.77000 402.933
55.78000 420.400
55.79000 430.152
55.80000 438.999
55.81000 451.088
55.82000 472.755
55.83000 495.048
55.84000 510.086
55.85000 512.212
55.86000 513.521
55.87000 516.899
55.88000 523.091
55.89000 529.297
55.90000 533.729
55.91000 536.593
55.92000 539.426
55.93000 546.788
55.94000 556.595
55.95000 565.810
55.96000 562.531
55.97000 554.241
55.98000 546.671
55.99000 546.888
56.00000 549.226
56.01000 551.295
56.02000 536.517
56.03000 521.120
56.04000 508.949
56.05000 510.396
56.06000 513.367
56.07000 511.596
56.08000 496.306
56.09000 480.185
56.10000 469.446
56.11000 454.004
56.12000 442.484
56.13000 429.747
56.14000 415.415
56.15000 401.085
56.16000 391.605
56.17000 386.251
56.18000 380.961
56.19000 366.921
56.20000 348.382
56.21000 330.276
56.22000 320.705
56.23000 314.438
56.24000 307.840
56.25000 297.834
56.26000 286.933
56.27000 277.344
56.28000 269.450
56.29000 262.910
56.30000 255.790
56.31000 246.313
56.32000 236.584
56.33000 229.240
56.34000 228.457
56.35000 228.052
56.36000 227.785
56.37000 212.273
56.38000 200.591
56.39000 192.237
56.40000 188.079
56.41000 183.938
56.42000 180.954
56.43000 178.918
56.44000 176.909
56.45000 173.932
56.46000 170.521
56.47000 167.257
56.48000 166.703
56.49000 167.161
56.50000 167.472
56.51000 166.341
56.52000 164.845
56.53000 163.537
56.54000 155.146
56.55000 146.949
56.56000 140.697
56.57000 142.072
56.58000 144.222
56.59000 146.763
56.60000 150.347
56.61000 153.987
56.62000 156.349
56.63000 153.598
56.64000 151.506
56.65000 149.444
56.66000 147.420
56.67000 145.404
56.68000 145.921
56.69000 148.432
56.70000 150.905
56.71000 149.027
56.72000 144.973
56.73000 141.018
56.74000 138.771
56.75000 137.140
56.76000 135.732
56.77000 136.406
56.78000 137.587
56.79000 138.614
56.80000 139.239
56.81000 139.717
56.82000 140.178
56.83000 140.574
56.84000 140.963
56.85000 140.438
56.86000 137.568
56.87000 134.579
56.88000 132.665
56.89000 128.094
56.90000 124.729
56.91000 124.812
56.92000 128.922
56.93000 133.016
56.94000 132.530
56.95000 128.569
56.96000 124.675
56.97000 124.219
56.98000 125.475
56.99000 126.801
57.00000 129.242
57.01000 132.073
57.02000 134.513
57.03000 133.495
57.04000 131.663
57.05000 130.080
57.06000 129.071
57.07000 128.289
57.08000 128.494
57.09000 132.297
57.10000 136.430
57.11000 137.991
57.12000 133.181
57.13000 128.074
57.14000 124.847
57.15000 123.757
57.16000 122.992
57.17000 124.511
57.18000 128.594
57.19000 132.649
57.20000 131.858
57.21000 127.525
57.22000 123.275
57.23000 121.906
57.24000 121.956
57.25000 122.165
57.26000 124.777
57.27000 128.198
57.28000 131.231
57.29000 130.991
57.30000 130.010
57.31000 129.168
57.32000 124.237
57.33000 119.563
57.34000 116.580
57.35000 119.548
57.36000 123.034
57.37000 124.471
57.38000 121.007
57.39000 117.330
57.40000 115.040
57.41000 119.209
57.42000 122.278
57.43000 126.646
57.44000 132.414
57.45000 138.136
57.46000 137.633
57.47000 132.749
57.48000 127.967
57.49000 125.880
57.50000 125.108
57.51000 124.444
57.52000 125.315
57.53000 126.685
57.54000 127.851
57.55000 127.374
57.56000 126.539
57.57000 125.827
57.58000 126.084
57.59000 126.415
57.60000 126.309
57.61000 124.722
57.62000 123.013
57.63000 122.188
57.64000 123.405
57.65000 124.704
57.66000 125.501
57.67000 123.806
57.68000 122.569
57.69000 121.405
57.70000 120.316
57.71000 119.224
57.72000 117.806
57.73000 116.168
57.74000 114.568
57.75000 117.608
57.76000 122.562
57.77000 127.316
57.78000 129.409
57.79000 130.668
57.80000 131.850
57.81000 132.443
57.82000 132.913
57.83000 133.311
57.84000 130.557
57.85000 127.894
57.86000 125.480
57.87000 123.880
57.88000 122.343
57.89000 121.826
57.90000 123.588
57.91000 125.434
57.92000 126.551
57.93000 126.884
57.94000 127.115
57.95000 127.999
57.96000 129.531
57.97000 131.067
57.98000 133.006
57.99000 135.209
58.00000 137.355
58.01000 134.317
58.02000 129.223
58.03000 124.604
58.04000 126.018
58.05000 129.258
58.06000 131.934
58.07000 130.451
58.08000 128.128
58.09000 126.173
58.10000 124.404
58.11000 122.949
58.12000 121.981
58.13000 122.552
58.14000 123.237
58.15000 122.937
58.16000 120.518
58.17000 118.027
58.18000 116.544
58.19000 119.296
58.20000 121.272
58.21000 122.495
58.22000 122.997
58.23000 123.476
58.24000 122.109
58.25000 119.578
58.26000 117.117
58.27000 116.090
58.28000 115.698
58.29000 115.303
58.30000 114.875
58.31000 114.436
58.32000 114.174
58.33000 115.162
58.34000 116.392
58.35000 117.420
58.36000 116.609
58.37000 115.748
58.38000 114.806
58.39000 113.616
58.40000 112.409
58.41000 111.603
58.42000 111.631
58.43000 111.684
58.44000 111.716
58.45000 113.560
58.46000 114.868
58.47000 115.993
58.48000 116.950
58.49000 117.892
58.50000 117.780
58.51000 117.026
58.52000 116.295
58.53000 117.597
58.54000 119.629
58.55000 121.352
58.56000 119.578
58.57000 116.819
58.58000 114.460
58.59000 114.809
58.60000 115.664
58.61000 116.374
58.62000 120.482
58.63000 124.206
58.64000 127.332
58.65000 128.694
58.66000 129.942
58.67000 129.398
58.68000 125.253
58.69000 121.007
58.70000 118.558
58.71000 119.903
58.72000 120.860
58.73000 121.499
58.74000 121.858
58.75000 122.200
58.76000 121.550
58.77000 120.319
58.78000 119.129
58.79000 119.021
58.80000 119.328
58.81000 119.406
58.82000 117.011
58.83000 113.945
58.84000 111.762
58.85000 115.302
58.86000 119.870
58.87000 123.634
58.88000 122.082
58.89000 120.317
58.90000 119.106
58.91000 119.468
58.92000 119.926
58.93000 119.256
58.94000 116.395
58.95000 113.478
58.96000 111.824
58.97000 117.489
58.98000 121.446
58.99000 119.839
59.00000 113.514
59.01000 107.281
59.02000 105.853
59.03000 107.148
59.04000 108.396
59.05000 110.507
59.06000 112.806
59.07000 115.041
59.08000 116.610
59.09000 118.005
59.10000 119.251
59.11000 119.574
59.12000 119.738
59.13000 119.872
59.14000 118.531
59.15000 117.306
59.16000 116.564
59.17000 117.153
59.18000 117.818
59.19000 117.693
59.20000 116.090
59.21000 114.454
59.22000 113.541
59.23000 117.039
59.24000 119.464
59.25000 119.899
59.26000 118.711
59.27000 117.561
59.28000 118.224
59.29000 119.879
59.30000 121.470
59.31000 122.714
59.32000 123.757
59.33000 124.574
59.34000 123.188
59.35000 121.247
59.36000 119.721
59.37000 120.680
59.38000 122.049
59.39000 123.160
59.40000 115.713
59.41000 108.937
59.42000 105.021
59.43000 108.683
59.44000 112.752
59.45000 115.969
59.46000 117.648
59.47000 119.296
59.48000 120.199
59.49000 115.678
59.50000 112.568
59.51000 111.390
59.52000 111.731
59.53000 112.098
59.54000 113.584
59.55000 115.661
59.56000 117.652
59.57000 121.165
59.58000 124.955
59.59000 128.198
59.60000 126.375
59.61000 123.319
59.62000 120.112
59.63000 116.040
59.64000 111.831
59.65000 108.442
59.66000 108.259
59.67000 108.360
59.68000 108.841
59.69000 110.296
59.70000 111.800
59.71000 112.927
59.72000 113.398
59.73000 113.857
59.74000 114.104
59.75000 117.499
59.76000 119.815
59.77000 120.763
59.78000 120.676
59.79000 120.587
59.80000 120.405
59.81000 120.175
59.82000 119.956
59.83000 121.080
59.84000 122.559
59.85000 123.520
59.86000 119.907
59.87000 115.223
59.88000 111.148
59.89000 110.422
59.90000 110.206
59.91000 110.033
59.92000 109.529
59.93000 109.097
59.94000 109.628
59.95000 112.534
59.96000 115.551
59.97000 117.527
59.98000 117.751
59.99000 117.947
60.00000 118.051
60.01000 113.761
60.02000 110.868
60.03000 111.711
60.04000 115.274
60.05000 118.833
60.06000 122.271
60.07000 125.648
60.08000 128.866
60.09000 126.316
60.10000 122.161
60.11000 118.507
60.12000 119.067
60.13000 120.580
60.14000 121.372
60.15000 118.363
60.16000 114.800
60.17000 111.977
60.18000 110.563
60.19000 109.525
60.20000 109.920
60.21000 113.738
60.22000 117.704
60.23000 119.052
60.24000 116.152
60.25000 113.192
60.26000 111.659
60.27000 113.002
60.28000 113.907
60.29000 114.364
60.30000 114.509
60.31000 114.716
60.32000 116.862
60.33000 119.929
60.34000 122.840
60.35000 120.312
60.36000 116.351
60.37000 112.922
60.38000 113.756
60.39000 115.518
60.40000 116.223
60.41000 111.557
60.42000 106.141
60.43000 101.887
60.44000 105.602
60.45000 109.096
60.46000 111.326
60.47000 110.641
60.48000 109.840
60.49000 110.378
60.50000 113.013
60.51000 115.673
60.52000 117.025
60.53000 111.407
60.54000 107.679
60.55000 108.066
60.56000 111.234
60.57000 114.278
60.58000 113.793
60.59000 111.689
60.60000 109.699
60.61000 115.266
60.62000 122.557
60.63000 128.823
60.64000 127.214
60.65000 123.956
60.66000 121.085
60.67000 120.096
60.68000 119.359
60.69000 118.785
60.70000 117.331
60.71000 116.118
60.72000 115.948
60.73000 118.099
60.74000 120.334
60.75000 122.084
60.76000 123.099
60.77000 124.108
60.78000 122.581
60.79000 118.540
60.80000 114.542
60.81000 114.354
60.82000 116.652
60.83000 118.864
60.84000 118.854
60.85000 117.859
60.86000 116.921
60.87000 118.224
60.88000 120.036
60.89000 121.590
60.90000 121.249
60.91000 120.526
60.92000 119.984
60.93000 120.289
60.94000 120.703
60.95000 121.023
60.96000 118.216
60.97000 115.811
60.98000 113.818
60.99000 112.713
61.00000 111.638
61.01000 112.174
61.02000 115.055
61.03000 117.955
61.04000 119.192
61.05000 118.846
61.06000 118.522
61.07000 119.938
61.08000 122.448
61.09000 124.841
61.10000 124.389
61.11000 122.721
61.12000 121.155
61.13000 117.936
61.14000 114.562
61.15000 112.203
61.16000 116.982
61.17000 123.143
61.18000 127.560
61.19000 124.084
61.20000 119.644
61.21000 116.250
61.22000 121.112
61.23000 125.395
61.24000 127.516
61.25000 125.147
61.26000 122.640
61.27000 121.704
61.28000 122.970
61.29000 124.252
61.30000 124.632
61.31000 124.188
61.32000 123.734
61.33000 122.516
61.34000 120.835
61.35000 119.207
61.36000 118.784
61.37000 118.858
61.38000 118.927
61.39000 119.604
61.40000 120.374
61.41000 121.514
61.42000 125.143
61.43000 129.235
61.44000 132.317
61.45000 130.996
61.46000 129.162
61.47000 127.773
61.48000 131.455
61.49000 134.604
61.50000 139.604
61.51000 148.311
61.52000 157.123
61.53000 166.571
61.54000 176.878
61.55000 187.185
61.56000 197.455
61.57000 207.678
61.58000 217.895
61.59000 227.785
61.60000 237.484
61.61000 247.278
61.62000 259.060
61.63000 271.634
61.64000 283.349
61.65000 290.183
61.66000 295.169
61.67000 299.752
61.68000 301.733
61.69000 303.249
61.70000 303.219
61.71000 296.702
61.72000 289.464
61.73000 284.033
61.74000 280.896
61.75000 278.554
61.76000 273.591
61.77000 263.561
61.78000 253.402
61.79000 239.666
61.80000 221.272
61.81000 202.875
61.82000 190.129
61.83000 182.178
61.84000 174.182
61.85000 163.866
61.86000 152.240
61.87000 140.900
61.88000 135.104
61.89000 131.443
61.90000 128.047
61.91000 129.863
61.92000 132.727
61.93000 135.162
61.94000 134.943
61.95000 134.268
61.96000 133.588
61.97000 132.886
61.98000 132.181
61.99000 131.658
62.00000 134.440
62.01000 136.749
62.02000 138.210
62.03000 138.090
62.04000 137.933
62.05000 136.198
62.06000 132.485
62.07000 128.771
62.08000 129.260
62.09000 133.153
62.10000 136.948
62.11000 136.228
62.12000 133.048
62.13000 129.873
62.14000 126.806
62.15000 123.780
62.16000 120.984
62.17000 122.531
62.18000 124.899
62.19000 127.099
62.20000 128.294
62.21000 129.324
62.22000 130.073
62.23000 129.729
62.24000 129.275
62.25000 128.941
62.26000 129.667
62.27000 130.272
62.28000 130.344
62.29000 129.457
62.30000 128.549
62.31000 128.066
62.32000 128.094
62.33000 128.124
62.34000 126.692
62.35000 124.130
62.36000 121.654
62.37000 122.738
62.38000 125.695
62.39000 128.442
62.40000 127.626
62.41000 125.531
62.42000 123.604
62.43000 125.723
62.44000 128.494
62.45000 131.146
62.46000 133.120
62.47000 134.986
62.48000 136.173
62.49000 134.806
62.50000 133.195
62.51000 132.021
62.52000 128.803
62.53000 126.246
62.54000 125.187
62.55000 126.732
62.56000 128.323
62.57000 128.024
62.58000 125.533
62.59000 123.046
62.60000 122.555
62.61000 123.560
62.62000 124.523
62.63000 123.868
62.64000 122.392
62.65000 121.129
62.66000 123.256
62.67000 126.559
62.68000 129.583
62.69000 128.480
62.70000 126.640
62.71000 125.314
62.72000 126.808
62.73000 128.729
62.74000 129.933
62.75000 128.537
62.76000 126.905
62.77000 125.729
62.78000 131.941
62.79000 136.962
62.80000 137.716
62.81000 131.313
62.82000 124.797
62.83000 123.719
62.84000 128.704
62.85000 133.677
62.86000 133.684
62.87000 130.117
62.88000 126.625
62.89000 125.655
62.90000 125.922
62.91000 126.240
62.92000 127.312
62.93000 128.636
62.94000 129.843
62.95000 126.961
62.96000 123.592
62.97000 120.549
62.98000 119.225
62.99000 118.151
63.00000 118.011
63.01000 121.137
63.02000 124.545
63.03000 126.973
63.04000 123.733
63.05000 121.077
63.06000 121.735
63.07000 127.754
63.08000 133.846
63.09000 136.788
63.10000 136.354
63.11000 135.921
63.12000 133.338
63.13000 129.293
63.14000 125.396
63.15000 126.058
63.16000 128.878
63.17000 131.485
63.18000 131.083
63.19000 129.710
63.20000 128.465
63.21000 128.505
63.22000 128.787
63.23000 129.434
63.24000 131.928
63.25000 134.679
63.26000 137.114
63.27000 138.482
63.28000 139.763
63.29000 140.666
63.30000 141.009
63.31000 141.253
63.32000 140.034
63.33000 136.534
63.34000 133.008
63.35000 134.004
63.36000 139.656
63.37000 145.277
63.38000 143.739
63.39000 137.457
63.40000 131.528
63.41000 135.650
63.42000 144.367
63.43000 152.397
63.44000 151.319
63.45000 147.401
63.46000 143.866
63.47000 138.401
63.48000 133.246
63.49000 129.344
63.50000 131.543
63.51000 134.553
63.52000 136.958
63.53000 137.392
63.54000 137.674
63.55000 137.871
63.56000 131.774
63.57000 127.000
63.58000 125.547
63.59000 129.095
63.60000 132.693
63.61000 133.072
63.62000 130.274
63.63000 127.493
63.64000 127.726
63.65000 129.883
63.66000 131.933
63.67000 131.168
63.68000 129.161
63.69000 127.436
63.70000 129.247
63.71000 132.121
63.72000 134.702
63.73000 133.678
63.74000 132.148
63.75000 131.140
63.76000 132.567
63.77000 134.304
63.78000 134.983
63.79000 132.342
63.80000 129.460
63.81000 127.474
63.82000 130.195
63.83000 132.357
63.84000 133.319
63.85000 132.541
63.86000 131.748
63.87000 133.187
63.88000 136.743
63.89000 140.270
63.90000 143.797
63.91000 147.262
63.92000 150.505
63.93000 148.407
63.94000 144.032
63.95000 139.769
63.96000 136.834
63.97000 134.284
63.98000 132.007
63.99000 133.798
64.00000 136.042
64.01000 137.978
64.02000 138.524
64.03000 138.902
64.04000 139.133
64.05000 138.921
64.06000 138.679
64.07000 138.515
64.08000 140.424
64.09000 141.898
64.10000 143.400
64.11000 144.943
64.12000 146.485
64.13000 144.151
64.14000 138.286
64.15000 132.476
64.16000 137.997
64.17000 150.125
64.18000 161.619
64.19000 159.001
64.20000 150.572
64.21000 143.099
64.22000 146.365
64.23000 152.638
64.24000 158.210
64.25000 154.260
64.26000 149.301
64.27000 145.424
64.28000 146.248
64.29000 147.617
64.30000 148.033
64.31000 145.660
64.32000 143.108
64.33000 141.391
64.34000 149.981
64.35000 156.577
64.36000 157.681
64.37000 151.386
64.38000 145.057
64.39000 143.637
64.40000 146.515
64.41000 149.362
64.42000 151.530
64.43000 153.261
64.44000 154.972
64.45000 156.253
64.46000 157.363
64.47000 158.234
64.48000 156.561
64.49000 154.201
64.50000 152.116
64.51000 156.250
64.52000 160.777
64.53000 163.737
64.54000 160.139
64.55000 155.815
64.56000 153.926
64.57000 158.915
64.58000 164.320
64.59000 167.909
64.60000 161.614
64.61000 156.778
64.62000 155.262
64.63000 158.052
64.64000 160.858
64.65000 162.408
64.66000 162.900
64.67000 163.386
64.68000 166.201
64.69000 170.222
64.70000 173.987
64.71000 172.805
64.72000 169.723
64.73000 166.921
64.74000 166.957
64.75000 167.730
64.76000 168.410
64.77000 168.050
64.78000 167.588
64.79000 167.546
64.80000 169.199
64.81000 171.031
64.82000 173.110
64.83000 175.864
64.84000 178.656
64.85000 180.486
64.86000 180.855
64.87000 181.102
64.88000 182.149
64.89000 184.196
64.90000 186.246
64.91000 188.315
64.92000 190.399
64.93000 192.455
64.94000 190.357
64.95000 186.126
64.96000 182.273
64.97000 185.235
64.98000 190.723
64.99000 195.736
65.00000 196.170
65.01000 195.454
65.02000 194.829
65.03000 190.416
65.04000 186.105
65.05000 183.440
65.06000 187.167
65.07000 191.535
65.08000 195.495
65.09000 198.380
65.10000 201.209
65.11000 203.038
65.12000 200.619
65.13000 198.786
65.14000 199.404
65.15000 202.966
65.16000 206.531
65.17000 208.854
65.18000 210.210
65.19000 211.545
65.20000 208.125
65.21000 202.394
65.22000 197.406
65.23000 204.925
65.24000 216.923
65.25000 227.822
65.26000 228.643
65.27000 227.024
65.28000 225.620
65.29000 226.178
65.30000 226.917
65.31000 228.544
65.32000 233.494
65.33000 238.761
65.34000 243.394
65.35000 246.414
65.36000 249.355
65.37000 251.232
65.38000 262.994
65.39000 271.680
65.40000 272.444
65.41000 264.052
65.42000 255.688
65.43000 255.542
65.44000 261.568
65.45000 267.489
65.46000 273.789
65.47000 280.061
65.48000 286.166
65.49000 289.644
65.50000 292.214
65.51000 294.961
65.52000 299.247
65.53000 303.892
65.54000 307.899
65.55000 316.294
65.56000 323.977
65.57000 331.923
65.58000 340.817
65.59000 349.796
65.60000 358.284
65.61000 365.566
65.62000 372.793
65.63000 377.342
65.64000 423.136
65.65000 456.737
65.66000 490.967
65.67000 525.899
65.68000 560.986
65.69000 620.870
65.70000 698.699
65.71000 775.008
65.72000 876.473
65.73000 986.007
65.74000 1095.863
65.75000 1210.524
65.76000 1326.787
65.77000 1441.951
65.78000 1547.939
65.79000 1651.867
65.80000 1740.958
65.81000 1811.482
65.82000 1868.770
65.83000 1915.340
65.84000 1924.559
65.85000 1930.576
65.86000 1929.315
65.87000 1910.793
65.88000 1891.535
65.89000 1879.584
65.90000 1881.792
65.91000 1883.518
65.92000 1849.011
65.93000 1775.807
65.94000 1702.362
65.95000 1599.474
65.96000 1476.055
65.97000 1355.301
65.98000 1242.060
65.99000 1136.785
66.00000 1031.343
66.01000 923.551
66.02000 815.003
66.03000 710.773
66.04000 640.989
66.05000 578.650
66.06000 525.556
66.07000 484.870
66.08000 452.109
66.09000 424.441
66.10000 413.899
66.11000 404.746
66.12000 393.402
66.13000 377.040
66.14000 360.480
66.15000 350.353
66.16000 346.218
66.17000 343.309
66.18000 344.875
66.19000 351.030
66.20000 357.182
66.21000 362.990
66.22000 368.567
66.23000 374.010
66.24000 379.867
66.25000 385.648
66.26000 392.125
66.27000 407.790
66.28000 426.310
66.29000 445.162
66.30000 466.531
66.31000 488.424
66.32000 506.946
66.33000 537.097
66.34000 563.623
66.35000 584.985
66.36000 589.594
66.37000 592.918
66.38000 600.819
66.39000 618.842
66.40000 637.232
66.41000 648.312
66.42000 622.570
66.43000 603.995
66.44000 596.612
66.45000 600.247
66.46000 603.770
66.47000 597.313
66.48000 584.388
66.49000 571.800
66.50000 553.767
66.51000 534.293
66.52000 514.913
66.53000 496.713
66.54000 478.868
66.55000 461.094
66.56000 443.833
66.57000 426.675
66.58000 412.257
66.59000 398.453
66.60000 387.016
66.61000 376.940
66.62000 371.126
66.63000 365.620
66.64000 359.311
66.65000 351.284
66.66000 343.200
66.67000 338.404
66.68000 334.291
66.69000 331.385
66.70000 332.539
66.71000 337.531
66.72000 342.476
66.73000 343.933
66.74000 343.208
66.75000 342.504
66.76000 342.521
66.77000 342.828
66.78000 342.810
66.79000 338.951
66.80000 333.981
66.81000 330.814
66.82000 340.224
66.83000 352.054
66.84000 361.925
66.85000 351.545
66.86000 340.903
66.87000 334.528
66.88000 341.051
66.89000 348.455
66.90000 352.763
66.91000 350.688
66.92000 348.419
66.93000 347.094
66.94000 347.894
66.95000 348.467
66.96000 349.723
66.97000 351.600
66.98000 353.475
66.99000 355.201
67.00000 356.839
67.01000 358.425
67.02000 357.451
67.03000 355.534
67.04000 354.380
67.05000 361.782
67.06000 371.573
67.07000 379.709
67.08000 376.783
67.09000 371.812
67.10000 367.694
67.11000 380.035
67.12000 391.794
67.13000 399.329
67.14000 394.539
67.15000 388.959
67.16000 384.045
67.17000 380.456
67.18000 376.905
67.19000 374.864
67.20000 390.685
67.21000 401.801
67.22000 401.840
67.23000 392.207
67.24000 382.778
67.25000 385.149
67.26000 394.385
67.27000 403.310
67.28000 392.948
67.29000 375.964
67.30000 360.938
67.31000 366.719
67.32000 378.103
67.33000 388.292
67.34000 390.830
67.35000 392.009
67.36000 392.978
67.37000 397.342
67.38000 401.235
67.39000 404.758
67.40000 407.233
67.41000 409.646
67.42000 411.242
67.43000 411.267
67.44000 411.253
67.45000 411.245
67.46000 411.254
67.47000 411.259
67.48000 411.322
67.49000 411.432
67.50000 411.524
67.51000 410.718
67.52000 409.407
67.53000 408.145
67.54000 414.071
67.55000 422.225
67.56000 429.243
67.57000 424.774
67.58000 417.324
67.59000 411.006
67.60000 411.642
67.61000 413.466
67.62000 414.954
67.63000 421.043
67.64000 426.420
67.65000 431.105
67.66000 433.909
67.67000 436.607
67.68000 439.591
67.69000 443.104
67.70000 446.629
67.71000 448.586
67.72000 450.411
67.73000 451.672
67.74000 453.439
67.75000 455.613
67.76000 457.758
67.77000 458.534
67.78000 458.568
67.79000 458.601
67.80000 463.806
67.81000 470.468
67.82000 476.164
67.83000 472.568
67.84000 466.647
67.85000 461.393
67.86000 460.068
67.87000 459.387
67.88000 458.835
67.89000 471.617
67.90000 483.109
67.91000 489.279
67.92000 481.474
67.93000 472.932
67.94000 467.547
67.95000 467.819
67.96000 468.204
67.97000 468.414
67.98000 482.835
67.99000 492.737
68.00000 497.373
68.01000 497.913
68.02000 498.370
68.03000 495.403
68.04000 490.644
68.05000 486.086
68.06000 494.673
68.07000 507.059
68.08000 518.272
68.09000 518.765
68.10000 516.672
68.11000 515.099
68.12000 516.464
68.13000 518.291
68.14000 519.758
68.15000 511.012
68.16000 503.138
68.17000 499.201
68.18000 505.252
68.19000 511.793
68.20000 519.071
68.21000 527.623
68.22000 536.196
68.23000 540.789
68.24000 559.085
68.25000 571.528
68.26000 573.324
68.27000 567.146
68.28000 561.090
68.29000 559.494
68.30000 560.150
68.31000 560.776
68.32000 562.417
68.33000 564.267
68.34000 566.122
68.35000 568.013
68.36000 569.913
68.37000 573.360
68.38000 585.226
68.39000 598.361
68.40000 608.828
68.41000 604.888
68.42000 600.663
68.43000 604.921
68.44000 629.953
68.45000 655.934
68.46000 671.973
68.47000 671.430
68.48000 670.631
68.49000 670.211
68.50000 684.818
68.51000 694.708
68.52000 701.283
68.53000 705.467
68.54000 710.154
68.55000 731.673
68.56000 761.398
68.57000 789.687
68.58000 807.122
68.59000 819.919
68.60000 833.295
68.61000 851.496
68.62000 870.777
68.63000 893.352
68.64000 933.146
68.65000 975.424
68.66000 1008.840
68.67000 1057.588
68.68000 1097.782
68.69000 1137.873
68.70000 1177.719
68.71000 1217.554
68.72000 1261.231
68.73000 1311.087
68.74000 1361.026
68.75000 1386.777
68.76000 1434.851
68.77000 1467.244
68.78000 1500.607
68.79000 1534.646
68.80000 1569.258
68.81000 1621.395
68.82000 1681.781
68.83000 1739.056
68.84000 1800.831
68.85000 1859.119
68.86000 1924.855
68.87000 2049.763
68.88000 2187.418
68.89000 2350.808
68.90000 2643.571
68.91000 2954.200
68.92000 3197.637
68.93000 4316.472
68.94000 5267.153
68.95000 6604.363
68.96000 8824.435
68.97000 11078.996
68.98000 13755.914
68.99000 17088.201
69.00000 20428.012
69.01000 22116.234
69.02000 26958.693
69.03000 30192.445
69.04000 32757.766
69.05000 34875.172
69.06000 36967.508
69.07000 38358.383
69.08000 39430.461
69.09000 40443.715
69.10000 41089.488
69.11000 41577.969
69.12000 42097.879
69.13000 42856.461
69.14000 43664.527
69.15000 44438.531
69.16000 45047.805
69.17000 45635.316
69.18000 46091.738
69.19000 45416.750
69.20000 44811.141
69.21000 43626.148
69.22000 41163.223
69.23000 38654.352
69.24000 36079.496
69.25000 33405.914
69.26000 30731.408
69.27000 28471.943
69.28000 26619.744
69.29000 24774.512
69.30000 23543.002
69.31000 22708.012
69.32000 21886.791
69.33000 21420.029
69.34000 21108.832
69.35000 20815.787
69.36000 20320.773
69.37000 19812.717
69.38000 19242.826
69.39000 18223.834
69.40000 17115.264
69.41000 15885.147
69.42000 14089.326
69.43000 12222.071
69.44000 10784.377
69.45000 8850.616
69.46000 7291.477
69.47000 5907.442
69.48000 4896.360
69.49000 3897.568
69.50000 3102.443
69.51000 2601.045
69.52000 2102.063
69.53000 1770.065
69.54000 1595.445
69.55000 1421.563
69.56000 1303.319
69.57000 1219.744
69.58000 1137.461
69.59000 1085.891
69.60000 1047.339
69.61000 1011.172
69.62000 981.210
69.63000 955.544
69.64000 927.062
69.65000 879.010
69.66000 827.203
69.67000 783.379
69.68000 775.323
69.69000 771.580
69.70000 768.725
69.71000 747.220
69.72000 729.279
69.73000 712.853
69.74000 699.540
69.75000 686.322
69.76000 673.370
69.77000 660.791
69.78000 648.219
69.79000 636.375
69.80000 625.203
69.81000 613.898
69.82000 593.956
69.83000 568.823
69.84000 544.436
69.85000 536.467
69.86000 535.219
69.87000 534.052
69.88000 533.643
69.89000 533.462
69.90000 533.250
69.91000 532.829
69.92000 532.370
69.93000 531.014
69.94000 525.787
69.95000 520.114
69.96000 515.826
69.97000 509.028
69.98000 503.573
69.99000 498.702
70.00000 494.993
