20.00000 471.967
20.01000 473.317
20.02000 474.859
20.03000 476.967
20.04000 481.305
20.05000 485.869
20.06000 489.236
20.07000 478.241
20.08000 469.121
20.09000 463.063
20.10000 462.572
20.11000 462.198
20.12000 460.608
20.13000 457.538
20.14000 454.470
20.15000 456.431
20.16000 462.338
20.17000 468.139
20.18000 469.420
20.19000 468.302
20.20000 467.316
20.21000 468.609
20.22000 470.726
20.23000 472.676
20.24000 467.933
20.25000 462.224
20.26000 458.008
20.27000 462.394
20.28000 468.155
20.29000 472.751
20.30000 472.926
20.31000 472.673
20.32000 472.488
20.33000 470.706
20.34000 469.270
20.35000 467.966
20.36000 466.895
20.37000 465.828
20.38000 462.560
20.39000 456.714
20.40000 450.878
20.41000 450.874
20.42000 455.280
20.43000 459.591
20.44000 460.242
20.45000 459.019
20.46000 457.938
20.47000 459.163
20.48000 461.195
20.49000 463.058
20.50000 461.781
20.51000 459.984
20.52000 458.908
20.53000 461.825
20.54000 465.354
20.55000 469.097
20.56000 473.620
20.57000 478.216
20.58000 481.536
20.59000 469.620
20.60000 459.929
20.61000 454.574
20.62000 456.561
20.63000 458.668
20.64000 464.727
20.65000 475.238
20.66000 485.718
20.67000 483.308
20.68000 471.548
20.69000 460.086
20.70000 459.008
20.71000 463.068
20.72000 466.963
20.73000 468.360
20.74000 468.913
20.75000 469.417
20.76000 473.007
20.77000 476.813
20.78000 478.811
20.79000 471.202
20.80000 462.182
20.81000 455.401
20.82000 456.520
20.83000 458.329
20.84000 459.622
20.85000 463.855
20.86000 467.184
20.87000 468.342
20.88000 465.952
20.89000 463.512
20.90000 461.466
20.91000 459.848
20.92000 458.237
20.93000 456.477
20.94000 454.631
20.95000 452.741
20.96000 449.448
20.97000 445.485
20.98000 441.962
20.99000 444.721
21.00000 449.528
21.01000 453.893
21.02000 461.225
21.03000 468.275
21.04000 473.211
21.05000 467.342
21.06000 459.952
21.07000 454.636
21.08000 456.375
21.09000 458.697
21.10000 460.338
21.11000 463.551
21.12000 466.040
21.13000 467.250
21.14000 466.446
21.15000 465.617
21.16000 464.930
21.17000 464.391
21.18000 463.854
21.19000 466.916
21.20000 472.361
21.21000 477.678
21.22000 479.272
21.23000 479.150
21.24000 478.750
21.25000 474.611
21.26000 469.296
21.27000 464.494
21.28000 459.635
21.29000 455.351
21.30000 452.536
21.31000 456.937
21.32000 462.309
21.33000 465.517
21.34000 461.618
21.35000 457.164
21.36000 454.050
21.37000 460.460
21.38000 465.572
21.39000 466.788
21.40000 462.085
21.41000 457.321
21.42000 455.873
21.43000 457.736
21.44000 459.586
21.45000 454.669
21.46000 445.447
21.47000 436.620
21.48000 438.330
21.49000 444.733
21.50000 451.278
21.51000 459.642
21.52000 468.559
21.53000 476.574
21.54000 474.898
21.55000 471.709
21.56000 468.617
21.57000 465.979
21.58000 463.399
21.59000 461.970
21.60000 464.187
21.61000 466.674
21.62000 468.392
21.63000 459.664
21.64000 452.835
21.65000 450.872
21.66000 456.038
21.67000 461.265
21.68000 463.195
21.69000 461.962
21.70000 460.739
21.71000 463.866
21.72000 469.646
21.73000 475.491
21.74000 482.930
21.75000 491.053
21.76000 498.883
21.77000 503.168
21.78000 506.416
21.79000 509.320
21.80000 507.577
21.81000 505.267
21.82000 504.699
21.83000 512.063
21.84000 520.403
21.85000 525.648
21.86000 521.424
21.87000 516.542
21.88000 513.208
21.89000 524.855
21.90000 533.917
21.91000 537.257
21.92000 532.518
21.93000 527.726
21.94000 531.120
21.95000 542.051
21.96000 552.886
21.97000 558.969
21.98000 562.091
21.99000 565.303
22.00000 570.548
22.01000 576.638
22.02000 582.384
22.03000 584.219
22.04000 584.948
22.05000 585.597
22.06000 593.550
22.07000 601.644
22.08000 608.302
22.09000 608.664
22.10000 608.287
22.11000 605.145
22.12000 593.839
22.13000 581.999
22.14000 574.012
22.15000 577.430
22.16000 580.215
22.17000 578.300
22.18000 569.994
22.19000 561.650
22.20000 552.484
22.21000 542.588
22.22000 532.795
22.23000 530.925
22.24000 533.658
22.25000 536.370
22.26000 538.635
22.27000 540.720
22.28000 541.520
22.29000 528.404
22.30000 511.496
22.31000 496.539
22.32000 498.903
22.33000 503.644
22.34000 506.692
22.35000 502.589
22.36000 497.685
22.37000 496.086
22.38000 503.910
22.39000 512.314
22.40000 517.912
22.41000 489.971
22.42000 468.650
22.43000 457.540
22.44000 459.809
22.45000 462.137
22.46000 464.690
22.47000 467.433
22.48000 470.144
22.49000 468.641
22.50000 464.841
22.51000 461.154
22.52000 459.699
22.53000 459.109
22.54000 458.019
22.55000 451.791
22.56000 444.212
22.57000 437.545
22.58000 441.436
22.59000 446.356
22.60000 450.206
22.61000 449.700
22.62000 448.729
22.63000 447.369
22.64000 444.942
22.65000 442.453
22.66000 440.816
22.67000 440.961
22.68000 441.098
22.69000 439.132
22.70000 434.512
22.71000 429.891
22.72000 428.494
22.73000 429.735
22.74000 430.959
22.75000 432.382
22.76000 433.873
22.77000 435.159
22.78000 432.692
22.79000 428.821
22.80000 425.380
22.81000 426.137
22.82000 427.958
22.83000 429.550
22.84000 431.235
22.85000 432.692
22.86000 432.985
22.87000 428.710
22.88000 423.972
22.89000 419.826
22.90000 417.255
22.91000 414.768
22.92000 413.154
22.93000 422.254
22.94000 429.081
22.95000 432.499
22.96000 431.777
22.97000 431.040
22.98000 428.675
22.99000 425.027
23.00000 421.435
23.01000 422.266
23.02000 425.340
23.03000 428.434
23.04000 431.840
23.05000 435.359
23.06000 438.773
23.07000 441.208
23.08000 443.404
23.09000 445.313
23.10000 437.280
23.11000 429.077
23.12000 422.723
23.13000 423.361
23.14000 424.673
23.15000 426.625
23.16000 430.215
23.17000 433.888
23.18000 436.240
23.19000 425.568
23.20000 417.618
23.21000 416.742
23.22000 424.125
23.23000 431.488
23.24000 431.806
23.25000 426.781
23.26000 421.841
23.27000 418.689
23.28000 416.524
23.29000 414.607
23.30000 416.651
23.31000 420.078
23.32000 423.403
23.33000 425.828
23.34000 428.042
23.35000 429.954
23.36000 433.238
23.37000 436.205
23.38000 438.900
23.39000 440.609
23.40000 442.228
23.41000 438.611
23.42000 422.020
23.43000 404.821
23.44000 393.956
23.45000 411.456
23.46000 424.469
23.47000 431.947
23.48000 433.212
23.49000 434.503
23.50000 441.134
23.51000 451.665
23.52000 461.996
23.53000 454.303
23.54000 438.321
23.55000 423.078
23.56000 418.981
23.57000 418.638
23.58000 418.779
23.59000 423.017
23.60000 428.184
23.61000 432.620
23.62000 433.208
23.63000 433.229
23.64000 431.243
23.65000 422.200
23.66000 412.543
23.67000 406.870
23.68000 410.731
23.69000 415.007
23.70000 417.670
23.71000 425.112
23.72000 430.523
23.73000 433.465
23.74000 433.743
23.75000 434.008
23.76000 432.602
23.77000 430.021
23.78000 427.494
23.79000 428.688
23.80000 431.538
23.81000 433.719
23.82000 426.392
23.83000 415.974
23.84000 406.531
23.85000 404.953
23.86000 405.091
23.87000 405.209
23.88000 416.786
23.89000 427.883
23.90000 436.308
23.91000 435.665
23.92000 434.277
23.93000 433.101
23.94000 432.418
23.95000 431.755
23.96000 431.348
23.97000 423.639
23.98000 418.052
23.99000 421.737
24.00000 435.032
24.01000 448.225
24.02000 449.997
24.03000 444.020
24.04000 438.181
24.05000 439.665
24.06000 444.310
24.07000 448.662
24.08000 449.079
24.09000 448.263
24.10000 446.697
24.11000 439.357
24.12000 430.803
24.13000 423.555
24.14000 426.325
24.15000 429.773
24.16000 432.314
24.17000 431.882
24.18000 431.219
24.19000 427.239
24.20000 415.855
24.21000 404.196
24.22000 397.145
24.23000 406.377
24.24000 413.075
24.25000 415.135
24.26000 412.581
24.27000 410.054
24.28000 410.161
24.29000 411.989
24.30000 413.770
24.31000 419.029
24.32000 425.519
24.33000 431.270
24.34000 427.657
24.35000 421.210
24.36000 414.686
24.37000 407.597
24.38000 400.394
24.39000 394.331
24.40000 393.751
24.41000 393.853
24.42000 395.292
24.43000 400.954
24.44000 406.928
24.45000 409.886
24.46000 406.345
24.47000 402.585
24.48000 400.344
24.49000 408.043
24.50000 413.557
24.51000 412.233
24.52000 404.378
24.53000 396.701
24.54000 403.168
24.55000 418.557
24.56000 433.516
24.57000 430.885
24.58000 421.210
24.59000 411.867
24.60000 406.490
24.61000 402.273
24.62000 397.925
24.63000 392.664
24.64000 387.225
24.65000 382.679
24.66000 387.405
24.67000 392.272
24.68000 397.659
24.69000 404.631
24.70000 411.711
24.71000 414.945
24.72000 410.171
24.73000 405.149
24.74000 402.205
24.75000 398.843
24.76000 396.473
24.77000 395.165
24.78000 394.832
24.79000 394.589
24.80000 400.560
24.81000 410.310
24.82000 419.765
24.83000 411.110
24.84000 395.805
24.85000 381.867
24.86000 383.453
24.87000 389.413
24.88000 394.674
24.89000 395.208
24.90000 394.860
24.91000 394.571
24.92000 394.950
24.93000 395.328
24.94000 395.580
24.95000 395.460
24.96000 395.315
24.97000 395.905
24.98000 397.968
24.99000 400.073
25.00000 401.288
25.01000 401.647
25.02000 401.899
25.03000 406.029
25.04000 413.578
25.05000 420.940
25.06000 417.153
25.07000 406.821
25.08000 396.829
25.09000 395.471
25.10000 397.448
25.11000 399.401
25.12000 401.087
25.13000 402.701
25.14000 403.448
25.15000 398.582
25.16000 392.709
25.17000 387.870
25.18000 396.764
25.19000 405.342
25.20000 408.164
25.21000 394.625
25.22000 380.084
25.23000 373.596
25.24000 382.730
25.25000 392.263
25.26000 397.672
25.27000 394.940
25.28000 393.017
25.29000 393.447
25.30000 395.874
25.31000 398.188
25.32000 394.529
25.33000 387.487
25.34000 380.696
25.35000 383.079
25.36000 388.654
25.37000 393.176
25.38000 386.934
25.39000 377.871
25.40000 371.670
25.41000 383.245
25.42000 397.885
25.43000 409.857
25.44000 401.361
25.45000 392.621
25.46000 386.491
25.47000 387.522
25.48000 388.964
25.49000 388.084
25.50000 382.854
25.51000 377.524
25.52000 374.552
25.53000 383.641
25.54000 389.941
25.55000 389.475
25.56000 383.489
25.57000 377.659
25.58000 379.158
25.59000 384.663
25.60000 389.956
25.61000 388.307
25.62000 384.334
25.63000 381.100
25.64000 385.042
25.65000 390.798
25.66000 396.220
25.67000 399.652
25.68000 402.755
25.69000 405.273
25.70000 395.750
25.71000 386.994
25.72000 380.534
25.73000 380.159
25.74000 380.109
25.75000 381.773
25.76000 386.535
25.77000 391.360
25.78000 394.004
25.79000 387.557
25.80000 383.118
25.81000 381.390
25.82000 381.790
25.83000 382.265
25.84000 385.852
25.85000 391.082
25.86000 396.096
25.87000 392.919
25.88000 387.199
25.89000 382.128
25.90000 383.077
25.91000 385.491
25.92000 387.543
25.93000 387.518
25.94000 387.164
25.95000 386.879
25.96000 386.409
25.97000 386.012
25.98000 383.576
25.99000 375.917
26.00000 367.998
26.01000 364.329
26.02000 368.076
26.03000 371.957
26.04000 374.046
26.05000 370.373
26.06000 367.869
26.07000 367.844
26.08000 369.693
26.09000 371.563
26.10000 374.235
26.11000 377.315
26.12000 380.259
26.13000 383.340
26.14000 386.251
26.15000 388.634
26.16000 386.355
26.17000 382.982
26.18000 381.008
26.19000 386.714
26.20000 393.589
26.21000 399.081
26.22000 398.964
26.23000 398.457
26.24000 396.434
26.25000 390.666
26.26000 384.724
26.27000 380.396
26.28000 378.785
26.29000 377.217
26.30000 376.388
26.31000 383.899
26.32000 388.983
26.33000 390.572
26.34000 389.615
26.35000 388.620
26.36000 386.336
26.37000 383.419
26.38000 380.640
26.39000 390.922
26.40000 404.511
26.41000 416.062
26.42000 410.447
26.43000 400.953
26.44000 391.927
26.45000 385.365
26.46000 379.164
26.47000 374.251
26.48000 363.202
26.49000 353.891
26.50000 351.472
26.51000 365.496
26.52000 380.229
26.53000 385.992
26.54000 377.189
26.55000 368.182
26.56000 363.514
26.57000 374.258
26.58000 381.422
26.59000 376.932
26.60000 364.263
26.61000 351.999
26.62000 352.377
26.63000 358.757
26.64000 364.815
26.65000 371.044
26.66000 376.845
26.67000 381.585
26.68000 377.796
26.69000 372.152
26.70000 368.438
26.71000 374.523
26.72000 381.978
26.73000 387.832
26.74000 381.130
26.75000 374.945
26.76000 370.937
26.77000 371.948
26.78000 373.160
26.79000 371.774
26.80000 366.321
26.81000 360.820
26.82000 358.025
26.83000 370.711
26.84000 379.170
26.85000 382.678
26.86000 382.838
26.87000 382.890
26.88000 379.871
26.89000 375.444
26.90000 371.255
26.91000 366.998
26.92000 363.065
26.93000 359.757
26.94000 361.250
26.95000 363.747
26.96000 367.076
26.97000 374.464
26.98000 382.394
26.99000 388.569
27.00000 381.537
27.01000 375.121
27.02000 369.128
27.03000 364.072
27.04000 359.051
27.05000 357.811
27.06000 362.282
27.07000 366.810
27.08000 371.616
27.09000 376.697
27.10000 381.751
27.11000 384.308
27.12000 385.237
27.13000 385.946
27.14000 380.866
27.15000 373.223
27.16000 366.019
27.17000 364.942
27.18000 365.649
27.19000 365.943
27.20000 363.209
27.21000 359.865
27.22000 358.515
27.23000 366.535
27.24000 375.751
27.25000 382.864
27.26000 375.849
27.27000 369.469
27.28000 365.197
27.29000 365.454
27.30000 365.864
27.31000 367.852
27.32000 372.138
27.33000 376.443
27.34000 376.785
27.35000 373.356
27.36000 369.967
27.37000 369.739
27.38000 371.498
27.39000 373.161
27.40000 372.507
27.41000 370.862
27.42000 369.317
27.43000 370.477
27.44000 372.252
27.45000 373.841
27.46000 374.115
27.47000 374.134
27.48000 374.767
27.49000 378.176
27.50000 381.924
27.51000 384.790
27.52000 378.090
27.53000 372.284
27.54000 367.646
27.55000 365.430
27.56000 363.289
27.57000 363.253
27.58000 366.171
27.59000 369.109
27.60000 369.141
27.61000 366.518
27.62000 363.936
27.63000 364.193
27.64000 366.174
27.65000 367.836
27.66000 362.353
27.67000 353.920
27.68000 346.031
27.69000 355.567
27.70000 368.674
27.71000 379.395
27.72000 374.050
27.73000 365.713
27.74000 358.548
27.75000 356.491
27.76000 355.028
27.77000 353.920
27.78000 356.203
27.79000 358.168
27.80000 359.238
27.81000 358.517
27.82000 357.745
27.83000 359.012
27.84000 363.036
27.85000 367.072
27.86000 371.380
27.87000 375.921
27.88000 380.282
27.89000 374.030
27.90000 361.566
27.91000 349.510
27.92000 345.955
27.93000 345.790
27.94000 345.636
27.95000 356.251
27.96000 368.493
27.97000 377.821
27.98000 368.341
27.99000 355.496
28.00000 346.149
28.01000 351.489
28.02000 358.460
28.03000 363.691
28.04000 360.925
28.05000 358.384
28.06000 356.866
28.07000 357.325
28.08000 357.835
28.09000 360.347
28.10000 365.465
28.11000 370.590
28.12000 370.022
28.13000 364.657
28.14000 359.398
28.15000 359.705
28.16000 363.157
28.17000 366.372
28.18000 364.997
28.19000 361.855
28.20000 358.940
28.21000 359.644
28.22000 361.131
28.23000 362.197
28.24000 360.656
28.25000 358.668
28.26000 357.061
28.27000 357.001
28.28000 357.104
28.29000 357.181
28.30000 357.016
28.31000 356.877
28.32000 356.385
28.33000 355.234
28.34000 354.069
28.35000 354.293
28.36000 356.260
28.37000 358.230
28.38000 357.511
28.39000 354.616
28.40000 351.795
28.41000 352.399
28.42000 354.871
28.43000 356.959
28.44000 352.098
28.45000 344.654
28.46000 337.776
28.47000 335.389
28.48000 334.261
28.49000 333.518
28.50000 335.055
28.51000 336.968
28.52000 339.005
28.53000 341.523
28.54000 344.091
28.55000 345.979
28.56000 350.345
28.57000 353.824
28.58000 356.077
28.59000 356.119
28.60000 356.117
28.61000 353.814
28.62000 348.737
28.63000 343.665
28.64000 344.050
28.65000 348.682
28.66000 353.260
28.67000 355.542
28.68000 356.616
28.69000 357.725
28.70000 359.410
28.71000 361.302
28.72000 363.043
28.73000 362.348
28.74000 361.200
28.75000 359.180
28.76000 352.192
28.77000 344.418
28.78000 338.451
28.79000 339.277
28.80000 340.752
28.81000 341.827
28.82000 355.283
28.83000 366.117
28.84000 369.446
28.85000 359.720
28.86000 349.760
28.87000 345.049
28.88000 346.426
28.89000 347.808
28.90000 347.755
28.91000 346.629
28.92000 345.525
28.93000 345.284
28.94000 345.480
28.95000 345.744
28.96000 347.083
28.97000 348.795
28.98000 350.362
28.99000 348.668
29.00000 346.482
29.01000 344.662
29.02000 344.849
29.03000 345.341
29.04000 346.255
29.05000 348.705
29.06000 351.295
29.07000 353.160
29.08000 346.665
29.09000 341.393
29.10000 339.287
29.11000 342.497
29.12000 345.791
29.13000 345.718
29.14000 341.890
29.15000 338.073
29.16000 337.092
29.17000 338.161
29.18000 339.324
29.19000 343.722
29.20000 349.705
29.21000 355.026
29.22000 350.439
29.23000 342.536
29.24000 335.334
29.25000 330.702
29.26000 327.112
29.27000 325.014
29.28000 330.779
29.29000 337.685
29.30000 342.321
29.31000 339.018
29.32000 335.031
29.33000 332.190
29.34000 339.622
29.35000 345.624
29.36000 349.548
29.37000 350.111
29.38000 350.627
29.39000 347.845
29.40000 341.527
29.41000 335.237
29.42000 334.120
29.43000 336.597
29.44000 339.024
29.45000 339.912
29.46000 340.070
29.47000 340.378
29.48000 342.777
29.49000 345.851
29.50000 348.640
29.51000 342.341
29.52000 335.045
29.53000 329.576
29.54000 333.355
29.55000 338.421
29.56000 342.370
29.57000 342.550
29.58000 342.423
29.59000 342.333
29.60000 341.690
29.61000 341.186
29.62000 342.158
29.63000 345.436
29.64000 348.741
29.65000 352.917
29.66000 357.991
29.67000 363.036
29.68000 357.902
29.69000 346.057
29.70000 334.738
29.71000 338.341
29.72000 348.769
29.73000 358.874
29.74000 364.698
29.75000 369.189
29.76000 373.240
29.77000 370.504
29.78000 366.856
29.79000 363.007
29.80000 358.181
29.81000 353.226
29.82000 351.116
29.83000 358.265
29.84000 366.128
29.85000 371.609
29.86000 377.962
29.87000 382.781
29.88000 388.888
29.89000 396.935
29.90000 405.000
29.91000 405.794
29.92000 399.404
29.93000 393.056
29.94000 393.155
29.95000 397.382
29.96000 401.698
29.97000 408.328
29.98000 415.979
29.99000 422.765
30.00000 418.706
30.01000 411.384
30.02000 404.810
30.03000 401.061
30.04000 398.277
30.05000 397.940
30.06000 409.061
30.07000 421.640
30.08000 427.850
30.09000 414.050
30.10000 398.795
30.11000 388.286
30.12000 390.034
30.13000 391.654
30.14000 394.044
30.15000 397.550
30.16000 401.065
30.17000 399.893
30.18000 394.275
30.19000 388.701
30.20000 383.038
30.21000 377.421
30.22000 371.983
30.23000 370.859
30.24000 371.575
30.25000 372.295
30.26000 373.061
30.27000 373.839
30.28000 374.535
30.29000 366.822
30.30000 358.691
30.31000 352.368
30.32000 354.204
30.33000 357.032
30.34000 360.157
30.35000 364.183
30.36000 368.270
30.37000 371.052
30.38000 365.114
30.39000 360.479
30.40000 359.004
30.41000 361.949
30.42000 364.924
30.43000 366.989
30.44000 368.225
30.45000 369.449
30.46000 370.401
30.47000 371.173
30.48000 371.540
30.49000 362.879
30.50000 350.502
30.51000 339.595
30.52000 345.236
30.53000 355.512
30.54000 364.640
30.55000 358.042
30.56000 349.789
30.57000 343.268
30.58000 344.267
30.59000 346.138
30.60000 348.037
30.61000 350.012
30.62000 351.993
30.63000 353.325
30.64000 354.294
30.65000 355.007
30.66000 356.324
30.67000 358.455
30.68000 360.586
30.69000 359.065
30.70000 354.344
30.71000 349.673
30.72000 359.727
30.73000 377.951
30.74000 395.131
30.75000 390.674
30.76000 377.613
30.77000 365.481
30.78000 363.256
30.79000 363.708
30.80000 364.108
30.81000 372.545
30.82000 381.067
30.83000 388.929
30.84000 394.026
30.85000 398.818
30.86000 402.368
30.87000 402.410
30.88000 402.240
30.89000 402.127
30.90000 407.044
30.91000 410.773
30.92000 414.490
30.93000 418.194
30.94000 421.907
30.95000 431.030
30.96000 444.712
30.97000 458.227
30.98000 474.513
30.99000 491.905
31.00000 509.254
31.01000 525.760
31.02000 541.941
31.03000 557.818
31.04000 570.606
31.05000 582.589
31.06000 593.115
31.07000 628.025
31.08000 661.625
31.09000 698.665
31.10000 749.576
31.11000 801.948
31.12000 852.404
31.13000 897.634
31.14000 942.567
31.15000 972.026
31.16000 1053.652
31.17000 1114.539
31.18000 1169.619
31.19000 1217.444
31.20000 1265.280
31.21000 1325.304
31.22000 1395.209
31.23000 1464.143
31.24000 1520.260
31.25000 1568.028
31.26000 1615.763
31.27000 1662.916
31.28000 1709.852
31.29000 1757.112
31.30000 1807.489
31.31000 1858.649
31.32000 1903.325
31.33000 1940.584
31.34000 1971.430
31.35000 1996.843
31.36000 2001.146
31.37000 2003.333
31.38000 2001.387
31.39000 1988.550
31.40000 1975.136
31.41000 1966.457
31.42000 1903.880
31.43000 1857.316
31.44000 1801.690
31.45000 1735.170
31.46000 1668.637
31.47000 1604.809
31.48000 1543.091
31.49000 1482.340
31.50000 1418.122
31.51000 1354.139
31.52000 1290.161
31.53000 1226.286
31.54000 1162.448
31.55000 1098.205
31.56000 1030.246
31.57000 961.387
31.58000 901.615
31.59000 853.136
31.60000 813.345
31.61000 774.481
31.62000 739.093
31.63000 704.036
31.64000 668.752
31.65000 632.890
31.66000 597.000
31.67000 574.090
31.68000 544.708
31.69000 523.248
31.70000 506.296
31.71000 494.555
31.72000 482.816
31.73000 470.286
31.74000 457.162
31.75000 444.267
31.76000 435.400
31.77000 428.804
31.78000 422.076
31.79000 413.254
31.80000 403.709
31.81000 395.116
31.82000 394.855
31.83000 396.537
31.84000 397.987
31.85000 395.638
31.86000 393.158
31.87000 389.875
31.88000 383.693
31.89000 377.249
31.90000 370.151
31.91000 361.448
31.92000 352.671
31.93000 347.146
31.94000 353.080
31.95000 357.503
31.96000 361.322
31.97000 364.468
31.98000 367.576
31.99000 364.767
32.00000 357.675
32.01000 350.721
32.02000 350.168
32.03000 352.649
32.04000 354.652
32.05000 349.550
32.06000 342.077
32.07000 335.657
32.08000 338.030
32.09000 342.376
32.10000 346.101
32.11000 338.659
32.12000 331.007
32.13000 324.566
32.14000 322.340
32.15000 320.476
32.16000 319.907
32.17000 322.413
32.18000 325.049
32.19000 326.685
32.20000 319.107
32.21000 313.564
32.22000 314.738
32.23000 323.086
32.24000 331.382
32.25000 332.820
32.26000 329.475
32.27000 326.201
32.28000 323.286
32.29000 320.652
32.30000 318.250
32.31000 319.120
32.32000 321.043
32.33000 322.388
32.34000 319.122
32.35000 314.861
32.36000 311.231
32.37000 311.669
32.38000 312.511
32.39000 313.807
32.40000 316.633
32.41000 319.583
32.42000 321.803
32.43000 322.350
32.44000 322.832
32.45000 323.127
32.46000 320.415
32.47000 318.449
32.48000 318.140
32.49000 319.531
32.50000 320.906
32.51000 320.681
32.52000 319.380
32.53000 318.110
32.54000 319.070
32.55000 320.961
32.56000 322.308
32.57000 316.460
32.58000 308.375
32.59000 301.164
32.60000 300.612
32.61000 301.446
32.62000 302.151
32.63000 303.774
32.64000 305.234
32.65000 307.165
32.66000 310.622
32.67000 314.195
32.68000 315.316
32.69000 311.009
32.70000 306.506
32.71000 303.793
32.72000 310.639
32.73000 315.577
32.74000 320.161
32.75000 324.397
32.76000 328.630
32.77000 332.557
32.78000 336.285
32.79000 339.916
32.80000 344.840
32.81000 350.077
32.82000 356.636
32.83000 379.697
32.84000 407.708
32.85000 434.194
32.86000 449.553
32.87000 462.686
32.88000 473.721
32.89000 485.192
32.90000 494.796
32.91000 503.526
32.92000 509.524
32.93000 515.325
32.94000 520.301
32.95000 523.518
32.96000 526.677
32.97000 528.551
32.98000 531.192
32.99000 533.065
33.00000 531.950
33.01000 528.012
33.02000 523.978
33.03000 512.647
33.04000 496.755
33.05000 481.315
33.06000 460.977
33.07000 439.679
33.08000 419.189
33.09000 408.251
33.10000 400.079
33.11000 390.278
33.12000 369.115
33.13000 345.764
33.14000 326.280
33.15000 322.238
33.16000 320.436
33.17000 317.862
33.18000 312.950
33.19000 307.878
33.20000 303.577
33.21000 300.865
33.22000 298.201
33.23000 296.646
33.24000 291.325
33.25000 287.566
33.26000 285.593
33.27000 285.244
33.28000 284.872
33.29000 283.043
33.30000 280.334
33.31000 277.709
33.32000 280.907
33.33000 286.198
33.34000 290.887
33.35000 288.825
33.36000 284.878
33.37000 281.497
33.38000 281.900
33.39000 283.003
33.40000 283.917
33.41000 287.354
33.42000 290.433
33.43000 291.957
33.44000 288.940
33.45000 285.633
33.46000 283.087
33.47000 282.059
33.48000 281.072
33.49000 280.505
33.50000 286.393
33.51000 290.530
33.52000 291.216
33.53000 288.889
33.54000 286.636
33.55000 288.719
33.56000 293.325
33.57000 297.777
33.58000 293.535
33.59000 286.283
33.60000 279.965
33.61000 283.569
33.62000 289.845
33.63000 295.363
33.64000 296.028
33.65000 295.830
33.66000 295.667
33.67000 296.900
33.68000 298.040
33.69000 297.341
33.70000 291.464
33.71000 285.275
33.72000 280.496
33.73000 278.428
33.74000 276.428
33.75000 275.298
33.76000 276.369
33.77000 277.124
33.78000 280.764
33.79000 286.825
33.80000 292.728
33.81000 290.484
33.82000 283.666
33.83000 277.097
33.84000 276.034
33.85000 277.016
33.86000 278.871
33.87000 289.536
33.88000 302.489
33.89000 312.751
33.90000 306.473
33.91000 297.372
33.92000 289.943
33.93000 296.215
33.94000 302.522
33.95000 306.765
33.96000 305.393
33.97000 303.704
33.98000 299.793
33.99000 291.756
34.00000 283.628
34.01000 279.114
34.02000 281.379
34.03000 282.964
34.04000 286.784
34.05000 292.409
34.06000 297.939
34.07000 299.108
34.08000 297.915
34.09000 296.768
34.10000 298.756
34.11000 301.702
34.12000 304.437
34.13000 305.144
34.14000 305.345
34.15000 305.046
34.16000 301.801
34.17000 298.075
34.18000 295.056
34.19000 292.269
34.20000 290.018
34.21000 289.135
34.22000 291.845
34.23000 294.744
34.24000 297.000
34.25000 298.105
34.26000 299.187
34.27000 299.777
34.28000 310.272
34.29000 317.457
34.30000 315.537
34.31000 306.534
34.32000 297.668
34.33000 294.370
34.34000 293.984
34.35000 293.614
34.36000 295.758
34.37000 298.595
34.38000 301.011
34.39000 299.584
34.40000 297.229
34.41000 294.957
34.42000 293.155
34.43000 291.427
34.44000 290.039
34.45000 292.137
34.46000 294.107
34.47000 294.704
34.48000 291.823
34.49000 288.771
34.50000 288.471
34.51000 292.929
34.52000 297.471
34.53000 299.904
34.54000 294.886
34.55000 291.477
34.56000 292.152
34.57000 295.888
34.58000 299.463
34.59000 297.120
34.60000 291.790
34.61000 286.699
34.62000 286.399
34.63000 287.653
34.64000 288.520
34.65000 286.014
34.66000 282.723
34.67000 280.408
34.68000 283.400
34.69000 287.192
34.70000 290.214
34.71000 292.433
34.72000 294.166
34.73000 294.192
34.74000 290.042
34.75000 285.700
34.76000 281.948
34.77000 279.180
34.78000 276.427
34.79000 274.980
34.80000 286.492
34.81000 294.264
34.82000 295.950
34.83000 293.245
34.84000 290.382
34.85000 282.227
34.86000 271.492
34.87000 261.275
34.88000 260.946
34.89000 263.687
34.90000 266.073
34.91000 265.511
34.92000 264.290
34.93000 263.612
34.94000 265.776
34.95000 268.351
34.96000 270.385
34.97000 270.267
34.98000 270.024
34.99000 269.393
35.00000 267.841
35.01000 266.251
35.02000 264.346
35.03000 261.936
35.04000 259.519
35.05000 258.273
35.06000 263.035
35.07000 266.228
35.08000 267.482
35.09000 267.386
35.10000 267.323
35.11000 268.267
35.12000 269.684
35.13000 271.028
35.14000 276.603
35.15000 282.995
35.16000 288.067
35.17000 282.644
35.18000 274.961
35.19000 267.990
35.20000 264.602
35.21000 261.709
35.22000 259.441
35.23000 262.502
35.24000 265.293
35.25000 266.140
35.26000 262.547
35.27000 258.780
35.28000 257.986
35.29000 261.806
35.30000 265.680
35.31000 267.638
35.32000 267.581
35.33000 267.524
35.34000 265.567
35.35000 262.337
35.36000 259.294
35.37000 261.528
35.38000 266.160
35.39000 270.537
35.40000 269.366
35.41000 266.710
35.42000 264.328
35.43000 264.023
35.44000 264.149
35.45000 264.331
35.46000 264.785
35.47000 265.274
35.48000 265.654
35.49000 268.564
35.50000 271.032
35.51000 272.301
35.52000 270.928
35.53000 269.459
35.54000 265.558
35.55000 258.019
35.56000 250.444
35.57000 251.013
35.58000 259.573
35.59000 268.042
35.60000 268.388
35.61000 263.487
35.62000 258.768
35.63000 258.761
35.64000 260.823
35.65000 262.764
35.66000 264.111
35.67000 265.180
35.68000 266.439
35.69000 269.071
35.70000 271.978
35.71000 273.043
35.72000 265.539
35.73000 256.952
35.74000 250.340
35.75000 256.276
35.76000 261.692
35.77000 265.019
35.78000 263.898
35.79000 262.630
35.80000 262.141
35.81000 262.774
35.82000 263.417
35.83000 263.152
35.84000 262.031
35.85000 260.889
35.86000 258.118
35.87000 254.333
35.88000 250.777
35.89000 252.695
35.90000 256.931
35.91000 260.906
35.92000 259.053
35.93000 255.832
35.94000 253.063
35.95000 253.435
35.96000 254.411
35.97000 255.254
35.98000 255.503
35.99000 255.680
36.00000 255.816
36.01000 258.015
36.02000 259.858
36.03000 261.020
36.04000 260.784
36.05000 260.506
36.06000 259.880
36.07000 258.771
36.08000 257.659
36.09000 256.060
36.10000 254.022
36.11000 251.990
36.12000 250.331
36.13000 248.897
36.14000 247.650
36.15000 250.514
36.16000 255.062
36.17000 259.312
36.18000 259.116
36.19000 257.815
36.20000 256.353
36.21000 253.813
36.22000 251.075
36.23000 249.823
36.24000 254.989
36.25000 260.895
36.26000 265.358
36.27000 260.810
36.28000 256.793
36.29000 255.313
36.30000 258.870
36.31000 262.565
36.32000 263.193
36.33000 259.713
36.34000 256.214
36.35000 256.547
36.36000 260.208
36.37000 263.816
36.38000 264.341
36.39000 263.079
36.40000 261.740
36.41000 258.849
36.42000 255.343
36.43000 252.081
36.44000 251.709
36.45000 252.074
36.46000 252.055
36.47000 249.587
36.48000 246.684
36.49000 243.986
36.50000 242.141
36.51000 240.389
36.52000 239.077
36.53000 246.465
36.54000 252.636
36.55000 257.792
36.56000 261.001
36.57000 264.162
36.58000 261.389
36.59000 250.965
36.60000 240.521
36.61000 236.613
36.62000 238.170
36.63000 239.784
36.64000 244.218
36.65000 250.232
36.66000 256.117
36.67000 259.558
36.68000 262.066
36.69000 264.390
36.70000 259.819
36.71000 254.100
36.72000 250.048
36.73000 256.216
36.74000 264.121
36.75000 270.061
36.76000 268.126
36.77000 265.368
36.78000 263.323
36.79000 263.135
36.80000 263.070
36.81000 264.194
36.82000 267.520
36.83000 270.894
36.84000 271.692
36.85000 269.291
36.86000 266.885
36.87000 265.529
36.88000 265.020
36.89000 264.555
36.90000 266.060
36.91000 268.629
36.92000 271.153
36.93000 272.863
36.94000 274.274
36.95000 275.576
36.96000 279.501
36.97000 283.607
36.98000 285.681
36.99000 275.820
37.00000 264.009
37.01000 255.062
37.02000 257.177
37.03000 260.390
37.04000 262.748
37.05000 264.252
37.06000 265.380
37.07000 266.209
37.08000 266.505
37.09000 266.791
37.10000 266.238
37.11000 264.682
37.12000 263.128
37.13000 264.961
37.14000 269.395
37.15000 273.704
37.16000 272.948
37.17000 269.552
37.18000 266.423
37.19000 267.772
37.20000 270.713
37.21000 273.416
37.22000 268.951
37.23000 263.427
37.24000 258.384
37.25000 256.055
37.26000 254.151
37.27000 253.016
37.28000 254.743
37.29000 256.741
37.30000 258.192
37.31000 253.501
37.32000 249.664
37.33000 250.188
37.34000 258.230
37.35000 266.403
37.36000 263.963
37.37000 249.331
37.38000 234.727
37.39000 233.951
37.40000 243.430
37.41000 252.645
37.42000 252.194
37.43000 246.878
37.44000 241.954
37.45000 243.183
37.46000 246.526
37.47000 249.583
37.48000 244.346
37.49000 237.985
37.50000 233.537
37.51000 239.468
37.52000 246.958
37.53000 252.086
37.54000 248.733
37.55000 244.619
37.56000 241.663
37.57000 251.330
37.58000 259.166
37.59000 261.691
37.60000 255.386
37.61000 248.946
37.62000 249.166
37.63000 256.741
37.64000 264.292
37.65000 265.122
37.66000 261.155
37.67000 257.225
37.68000 254.582
37.69000 252.563
37.70000 250.693
37.71000 251.012
37.72000 252.058
37.73000 253.010
37.74000 252.377
37.75000 251.503
37.76000 250.845
37.77000 251.310
37.78000 251.936
37.79000 252.838
37.80000 254.695
37.81000 256.633
37.82000 258.011
37.83000 250.436
37.84000 244.382
37.85000 243.358
37.86000 250.403
37.87000 257.555
37.88000 259.138
37.89000 254.813
37.90000 250.507
37.91000 249.847
37.92000 251.695
37.93000 253.437
37.94000 251.981
37.95000 249.024
37.96000 246.233
37.97000 245.735
37.98000 245.971
37.99000 246.185
38.00000 247.420
38.01000 248.702
38.02000 249.597
38.03000 248.553
38.04000 247.243
38.05000 246.297
38.06000 246.567
38.07000 246.934
38.08000 247.193
38.09000 246.332
38.10000 245.646
38.11000 245.768
38.12000 247.139
38.13000 248.524
38.14000 247.567
38.15000 244.225
38.16000 240.902
38.17000 243.012
38.18000 248.675
38.19000 254.301
38.20000 258.919
38.21000 263.080
38.22000 267.056
38.23000 268.629
38.24000 269.459
38.25000 270.207
38.26000 269.381
38.27000 268.371
38.28000 268.740
38.29000 275.756
38.30000 283.647
38.31000 291.553
38.32000 299.505
38.33000 307.462
38.34000 312.991
38.35000 325.151
38.36000 334.495
38.37000 341.557
38.38000 345.215
38.39000 348.841
38.40000 359.337
38.41000 376.553
38.42000 393.650
38.43000 405.261
38.44000 413.212
38.45000 421.742
38.46000 445.089
38.47000 474.920
38.48000 503.361
38.49000 514.591
38.50000 520.689
38.51000 526.156
38.52000 554.999
38.53000 584.263
38.54000 612.522
38.55000 636.115
38.56000 659.121
38.57000 680.447
38.58000 696.537
38.59000 712.253
38.60000 723.047
38.61000 757.119
38.62000 783.238
38.63000 800.753
38.64000 805.894
38.65000 810.940
38.66000 822.837
38.67000 841.170
38.68000 859.352
38.69000 870.511
38.70000 877.184
38.71000 883.629
38.72000 884.711
38.73000 883.526
38.74000 881.516
38.75000 869.837
38.76000 855.377
38.77000 842.479
38.78000 819.320
38.79000 797.464
38.80000 775.346
38.81000 752.057
38.82000 728.628
38.83000 705.691
38.84000 684.232
38.85000 662.873
38.86000 648.378
38.87000 619.086
38.88000 596.905
38.89000 574.690
38.90000 552.427
38.91000 530.161
38.92000 504.334
38.93000 475.292
38.94000 446.529
38.95000 427.005
38.96000 413.307
38.97000 399.610
38.98000 385.932
38.99000 372.262
39.00000 358.223
39.01000 340.099
39.02000 320.840
39.03000 303.755
39.04000 303.364
39.05000 305.682
39.06000 305.620
39.07000 295.318
39.08000 283.841
39.09000 274.679
39.10000 272.229
39.11000 270.206
39.12000 268.849
39.13000 261.477
39.14000 255.884
39.15000 249.333
39.16000 241.500
39.17000 233.668
39.18000 230.843
39.19000 232.363
39.20000 233.867
39.21000 236.463
39.22000 239.615
39.23000 242.563
39.24000 241.348
39.25000 238.492
39.26000 236.098
39.27000 238.568
39.28000 242.340
39.29000 245.668
39.30000 242.574
39.31000 238.927
39.32000 236.727
39.33000 240.524
39.34000 244.976
39.35000 245.714
39.36000 236.049
39.37000 225.763
39.38000 218.954
39.39000 215.334
39.40000 212.720
39.41000 213.762
39.42000 219.503
39.43000 225.256
39.44000 227.422
39.45000 226.596
39.46000 225.781
39.47000 224.036
39.48000 221.830
39.49000 219.797
39.50000 221.038
39.51000 223.525
39.52000 225.465
39.53000 221.918
39.54000 216.956
39.55000 212.603
39.56000 214.312
39.57000 216.663
39.58000 219.265
39.59000 222.875
39.60000 226.589
39.61000 229.022
39.62000 227.989
39.63000 226.763
39.64000 225.962
39.65000 228.908
39.66000 231.131
39.67000 230.663
39.68000 226.863
39.69000 223.066
39.70000 222.973
39.71000 225.855
39.72000 228.696
39.73000 229.511
39.74000 229.243
39.75000 228.900
39.76000 227.231
39.77000 225.076
39.78000 223.159
39.79000 223.510
39.80000 224.426
39.81000 225.225
39.82000 222.065
39.83000 218.814
39.84000 216.239
39.85000 216.267
39.86000 216.554
39.87000 218.681
39.88000 225.616
39.89000 232.802
39.90000 237.436
39.91000 233.009
39.92000 229.646
39.93000 226.871
39.94000 224.796
39.95000 222.729
39.96000 222.202
39.97000 222.865
39.98000 223.517
39.99000 223.629
40.00000 223.464
40.01000 223.123
40.02000 219.861
40.03000 215.562
40.04000 212.126
40.05000 216.525
40.06000 222.801
40.07000 228.242
40.08000 230.657
40.09000 232.312
40.10000 232.263
40.11000 225.888
40.12000 218.919
40.13000 213.145
40.14000 210.381
40.15000 207.764
40.16000 206.099
40.17000 212.691
40.18000 217.583
40.19000 218.658
40.20000 215.362
40.21000 212.084
40.22000 213.316
40.23000 217.903
40.24000 222.407
40.25000 223.086
40.26000 221.889
40.27000 220.658
40.28000 218.907
40.29000 216.978
40.30000 215.308
40.31000 215.890
40.32000 216.991
40.33000 217.940
40.34000 217.143
40.35000 216.247
40.36000 216.072
40.37000 218.480
40.38000 221.118
40.39000 223.674
40.40000 226.028
40.41000 228.372
40.42000 229.843
40.43000 223.802
40.44000 219.356
40.45000 217.180
40.46000 217.504
40.47000 217.818
40.48000 216.418
40.49000 213.788
40.50000 211.211
40.51000 209.443
40.52000 208.119
40.53000 206.905
40.54000 207.303
40.55000 208.235
40.56000 208.934
40.57000 207.720
40.58000 206.080
40.59000 204.676
40.60000 202.370
40.61000 200.316
40.62000 200.101
40.63000 206.242
40.64000 212.921
40.65000 218.217
40.66000 220.262
40.67000 222.171
40.68000 223.351
40.69000 222.470
40.70000 221.818
40.71000 220.381
40.72000 218.114
40.73000 215.845
40.74000 213.231
40.75000 210.378
40.76000 207.588
40.77000 207.982
40.78000 209.790
40.79000 211.533
40.80000 212.405
40.81000 212.997
40.82000 212.897
40.83000 207.338
40.84000 200.610
40.85000 194.890
40.86000 197.382
40.87000 200.421
40.88000 202.825
40.89000 203.115
40.90000 203.236
40.91000 203.235
40.92000 202.957
40.93000 202.669
40.94000 202.493
40.95000 197.113
40.96000 193.226
40.97000 193.242
40.98000 197.221
40.99000 201.193
41.00000 204.381
41.01000 207.047
41.02000 209.649
41.03000 213.193
41.04000 216.988
41.05000 220.350
41.06000 218.073
41.07000 214.058
41.08000 210.788
41.09000 213.127
41.10000 216.622
41.11000 219.574
41.12000 213.285
41.13000 207.014
41.14000 202.586
41.15000 204.087
41.16000 206.036
41.17000 206.595
41.18000 204.104
41.19000 201.504
41.20000 199.944
41.21000 202.624
41.22000 204.556
41.23000 206.898
41.24000 209.639
41.25000 212.324
41.26000 210.265
41.27000 205.159
41.28000 200.190
41.29000 195.530
41.30000 191.220
41.31000 187.781
41.32000 195.074
41.33000 205.558
41.34000 214.066
41.35000 208.323
41.36000 199.755
41.37000 192.567
41.38000 201.680
41.39000 210.964
41.40000 217.928
41.41000 217.691
41.42000 216.939
41.43000 215.316
41.44000 211.849
41.45000 208.322
41.46000 206.238
41.47000 208.910
41.48000 210.824
41.49000 212.607
41.50000 214.265
41.51000 215.913
41.52000 216.746
41.53000 217.074
41.54000 217.394
41.55000 214.707
41.56000 210.955
41.57000 207.413
41.58000 206.324
41.59000 205.938
41.60000 205.462
41.61000 204.365
41.62000 203.151
41.63000 202.139
41.64000 206.901
41.65000 211.420
41.66000 214.055
41.67000 211.047
41.68000 207.661
41.69000 204.656
41.70000 202.434
41.71000 200.234
41.72000 198.955
41.73000 197.371
41.74000 196.257
41.75000 194.962
41.76000 193.504
41.77000 192.067
41.78000 192.031
41.79000 192.832
41.80000 193.608
41.81000 198.583
41.82000 204.905
41.83000 210.623
41.84000 209.677
41.85000 206.886
41.86000 204.049
41.87000 200.904
41.88000 197.703
41.89000 195.056
41.90000 196.196
41.91000 197.492
41.92000 198.698
41.93000 199.639
41.94000 200.564
41.95000 201.674
41.96000 203.149
41.97000 204.634
41.98000 205.484
41.99000 204.882
42.00000 204.457
42.01000 203.432
42.02000 201.889
42.03000 200.330
42.04000 197.853
42.05000 194.847
42.06000 191.945
42.07000 195.912
42.08000 202.194
42.09000 207.760
42.10000 205.815
42.11000 201.864
42.12000 198.155
42.13000 195.972
42.14000 194.058
42.15000 192.487
42.16000 193.222
42.17000 194.033
42.18000 195.281
42.19000 197.752
42.20000 200.295
42.21000 202.339
42.22000 203.431
42.23000 204.500
42.24000 205.101
42.25000 204.903
42.26000 204.767
42.27000 206.763
42.28000 210.531
42.29000 214.167
42.30000 211.264
42.31000 204.721
42.32000 198.420
42.33000 194.338
42.34000 191.296
42.35000 188.998
42.36000 194.127
42.37000 201.166
42.38000 207.127
42.39000 206.528
42.40000 204.822
42.41000 203.432
42.42000 202.166
42.43000 201.142
42.44000 199.964
42.45000 198.367
42.46000 196.746
42.47000 197.744
42.48000 203.560
42.49000 209.480
42.50000 212.753
42.51000 201.146
42.52000 193.137
42.53000 193.877
42.54000 201.619
42.55000 209.128
42.56000 206.295
42.57000 197.907
42.58000 189.854
42.59000 190.714
42.60000 194.574
42.61000 197.438
42.62000 190.859
42.63000 181.938
42.64000 175.858
42.65000 186.364
42.66000 199.559
42.67000 210.226
42.68000 207.081
42.69000 203.416
42.70000 200.759
42.71000 200.725
42.72000 200.828
42.73000 200.493
42.74000 199.380
42.75000 198.252
42.76000 197.640
42.77000 197.371
42.78000 197.197
42.79000 199.397
42.80000 203.428
42.81000 207.269
42.82000 203.570
42.83000 195.962
42.84000 188.680
42.85000 188.325
42.86000 190.279
42.87000 192.019
42.88000 191.835
42.89000 191.191
42.90000 191.249
42.91000 195.241
42.92000 199.843
42.93000 203.535
42.94000 199.688
42.95000 196.003
42.96000 193.661
42.97000 194.697
42.98000 195.897
42.99000 197.350
43.00000 199.238
43.01000 201.133
43.02000 202.143
43.03000 191.258
43.04000 183.870
43.05000 183.394
43.06000 188.046
43.07000 192.683
43.08000 196.771
43.09000 200.584
43.10000 204.221
43.11000 200.899
43.12000 195.607
43.13000 190.785
43.14000 190.005
43.15000 190.155
43.16000 190.453
43.17000 191.551
43.18000 192.767
43.19000 193.734
43.20000 198.151
43.21000 201.957
43.22000 203.306
43.23000 198.687
43.24000 193.802
43.25000 190.848
43.26000 191.087
43.27000 191.374
43.28000 191.525
43.29000 192.084
43.30000 192.468
43.31000 193.635
43.32000 195.361
43.33000 197.012
43.34000 196.197
43.35000 194.189
43.36000 192.280
43.37000 193.444
43.38000 195.457
43.39000 197.273
43.40000 197.466
43.41000 197.299
43.42000 196.655
43.43000 193.541
43.44000 190.075
43.45000 187.340
43.46000 189.408
43.47000 191.390
43.48000 192.272
43.49000 190.573
43.50000 188.768
43.51000 188.155
43.52000 189.445
43.53000 190.760
43.54000 191.434
43.55000 190.216
43.56000 189.376
43.57000 186.068
43.58000 181.058
43.59000 176.375
43.60000 181.453
43.61000 191.086
43.62000 200.214
43.63000 201.591
43.64000 200.587
43.65000 199.531
43.66000 198.069
43.67000 196.521
43.68000 195.508
43.69000 197.169
43.70000 199.194
43.71000 200.777
43.72000 199.622
43.73000 198.525
43.74000 197.749
43.75000 197.699
43.76000 197.677
43.77000 195.895
43.78000 191.407
43.79000 186.890
43.80000 184.617
43.81000 192.059
43.82000 196.971
43.83000 195.933
43.84000 190.944
43.85000 186.197
43.86000 188.087
43.87000 192.966
43.88000 197.574
43.89000 196.377
43.90000 193.642
43.91000 190.951
43.92000 188.580
43.93000 186.276
43.94000 184.622
43.95000 186.086
43.96000 187.957
43.97000 189.408
43.98000 191.805
43.99000 193.766
44.00000 194.251
44.01000 191.507
44.02000 188.651
44.03000 188.422
44.04000 192.088
44.05000 195.791
44.06000 196.196
44.07000 193.400
44.08000 190.643
44.09000 191.191
44.10000 193.857
44.11000 196.314
44.12000 193.523
44.13000 188.448
44.14000 183.674
44.15000 187.479
44.16000 193.280
44.17000 198.141
44.18000 196.253
44.19000 193.031
44.20000 190.810
44.21000 193.202
44.22000 196.170
44.23000 198.450
44.24000 196.023
44.25000 193.840
44.26000 191.693
44.27000 189.624
44.28000 187.558
44.29000 185.030
44.30000 181.842
44.31000 178.650
44.32000 179.174
44.33000 183.163
44.34000 187.151
44.35000 191.059
44.36000 194.917
44.37000 198.520
44.38000 196.165
44.39000 191.305
44.40000 186.751
44.41000 187.296
44.42000 189.120
44.43000 190.750
44.44000 191.053
44.45000 191.103
44.46000 191.640
44.47000 194.334
44.48000 197.286
44.49000 199.532
44.50000 198.319
44.51000 197.182
44.52000 197.924
44.53000 202.497
44.54000 207.183
44.55000 208.624
44.56000 205.600
44.57000 202.548
44.58000 204.107
44.59000 209.791
44.60000 215.358
44.61000 213.572
44.62000 207.405
44.63000 201.565
44.64000 202.786
44.65000 206.874
44.66000 210.689
44.67000 212.875
44.68000 214.450
44.69000 216.438
44.70000 221.160
44.71000 226.380
44.72000 230.419
44.73000 229.406
44.74000 227.819
44.75000 226.623
44.76000 234.193
44.77000 240.553
44.78000 243.594
44.79000 240.100
44.80000 236.432
44.81000 237.629
44.82000 245.277
44.83000 252.951
44.84000 259.538
44.85000 265.176
44.86000 270.755
44.87000 272.967
44.88000 273.245
44.89000 273.488
44.90000 273.008
44.91000 272.246
44.92000 271.537
44.93000 276.353
44.94000 282.027
44.95000 286.907
44.96000 286.775
44.97000 285.763
44.98000 284.812
44.99000 284.109
45.00000 283.432
45.01000 282.927
45.02000 280.411
45.03000 278.358
45.04000 279.924
45.05000 288.370
45.06000 296.980
45.07000 300.942
45.08000 298.967
45.09000 296.973
45.10000 291.052
45.11000 281.905
45.12000 272.921
45.13000 271.975
45.14000 275.489
45.15000 278.656
45.16000 275.331
45.17000 269.550
45.18000 264.198
45.19000 262.475
45.20000 261.762
45.21000 261.699
45.22000 265.569
45.23000 270.102
45.24000 273.291
45.25000 271.144
45.26000 268.447
45.27000 266.452
45.28000 270.780
45.29000 274.408
45.30000 273.881
45.31000 265.733
45.32000 257.422
45.33000 250.830
45.34000 246.350
45.35000 241.884
45.36000 240.567
45.37000 241.758
45.38000 242.792
45.39000 236.971
45.40000 227.479
45.41000 218.778
45.42000 223.924
45.43000 234.130
45.44000 243.537
45.45000 236.856
45.46000 227.314
45.47000 219.260
45.48000 219.868
45.49000 221.877
45.50000 223.065
45.51000 221.117
45.52000 218.860
45.53000 217.209
45.54000 216.845
45.55000 216.615
45.56000 216.166
45.57000 215.329
45.58000 214.485
45.59000 213.439
45.60000 212.154
45.61000 210.872
45.62000 209.208
45.63000 207.261
45.64000 205.303
45.65000 202.934
45.66000 200.352
45.67000 197.987
45.68000 199.175
45.69000 201.616
45.70000 203.857
45.71000 206.629
45.72000 209.213
45.73000 211.045
45.74000 208.675
45.75000 205.654
45.76000 203.236
45.77000 203.047
45.78000 203.065
45.79000 203.079
45.80000 199.623
45.81000 196.841
45.82000 194.794
45.83000 194.004
45.84000 193.234
45.85000 191.813
45.86000 189.648
45.87000 187.490
45.88000 187.189
45.89000 188.255
45.90000 189.256
45.91000 187.984
45.92000 185.578
45.93000 183.280
45.94000 182.640
45.95000 182.565
45.96000 182.496
45.97000 181.599
45.98000 180.633
45.99000 180.429
46.00000 184.312
46.01000 188.803
46.02000 192.054
46.03000 190.890
46.04000 189.336
46.05000 188.223
46.06000 181.685
46.07000 176.504
46.08000 171.643
46.09000 167.308
46.10000 162.980
46.11000 163.571
46.12000 169.540
46.13000 175.488
46.14000 180.157
46.15000 183.878
46.16000 187.484
46.17000 187.304
46.18000 185.301
46.19000 183.348
46.20000 182.113
46.21000 181.114
46.22000 180.206
46.23000 178.621
46.24000 177.088
46.25000 175.953
46.26000 176.873
46.27000 178.085
46.28000 179.136
46.29000 179.631
46.30000 180.079
46.31000 180.397
46.32000 183.416
46.33000 185.797
46.34000 184.590
46.35000 177.681
46.36000 170.699
46.37000 169.491
46.38000 174.346
46.39000 179.178
46.40000 181.753
46.41000 182.765
46.42000 183.647
46.43000 180.678
46.44000 175.915
46.45000 171.620
46.46000 173.708
46.47000 177.821
46.48000 181.543
46.49000 177.670
46.50000 172.839
46.51000 168.925
46.52000 169.563
46.53000 170.820
46.54000 171.985
46.55000 172.843
46.56000 173.676
46.57000 174.261
46.58000 174.884
46.59000 175.357
46.60000 175.835
46.61000 176.322
46.62000 176.810
46.63000 178.797
46.64000 182.298
46.65000 185.778
46.66000 180.684
46.67000 170.063
46.68000 159.722
46.69000 156.981
46.70000 157.654
46.71000 158.579
46.72000 162.765
46.73000 167.951
46.74000 172.619
46.75000 171.602
46.76000 169.690
46.77000 167.312
46.78000 162.707
46.79000 157.811
46.80000 155.155
46.81000 159.655
46.82000 164.691
46.83000 168.180
46.84000 170.813
46.85000 172.773
46.86000 173.421
46.87000 172.132
46.88000 170.825
46.89000 170.745
46.90000 171.852
46.91000 172.952
46.92000 170.538
46.93000 165.957
46.94000 161.682
46.95000 165.085
46.96000 171.819
46.97000 177.859
46.98000 175.420
46.99000 170.476
47.00000 166.048
47.01000 164.648
47.02000 163.946
47.03000 162.910
47.04000 160.340
47.05000 157.578
47.06000 156.353
47.07000 159.869
47.08000 163.719
47.09000 166.356
47.10000 167.810
47.11000 168.871
47.12000 168.004
47.13000 164.392
47.14000 160.760
47.15000 161.214
47.16000 165.469
47.17000 169.687
47.18000 168.930
47.19000 165.182
47.20000 161.590
47.21000 161.600
47.22000 163.121
47.23000 164.552
47.24000 164.958
47.25000 165.072
47.26000 165.172
47.27000 162.458
47.28000 159.637
47.29000 157.750
47.30000 160.005
47.31000 162.751
47.32000 165.796
47.33000 169.734
47.34000 173.732
47.35000 176.437
47.36000 170.598
47.37000 166.063
47.38000 164.110
47.39000 165.701
47.40000 167.314
47.41000 168.302
47.42000 168.732
47.43000 169.157
47.44000 169.061
47.45000 168.663
47.46000 168.222
47.47000 166.845
47.48000 165.090
47.49000 163.235
47.50000 160.278
47.51000 157.018
47.52000 154.130
47.53000 154.016
47.54000 154.355
47.55000 155.259
47.56000 158.579
47.57000 162.173
47.58000 164.861
47.59000 164.945
47.60000 164.867
47.61000 164.815
47.62000 163.063
47.63000 161.730
47.64000 160.920
47.65000 160.800
47.66000 160.683
47.67000 161.173
47.68000 162.184
47.69000 163.183
47.70000 161.593
47.71000 158.594
47.72000 155.778
47.73000 156.619
47.74000 158.888
47.75000 161.161
47.76000 163.467
47.77000 165.782
47.78000 167.821
47.79000 166.738
47.80000 165.334
47.81000 163.399
47.82000 159.281
47.83000 154.929
47.84000 151.178
47.85000 149.099
47.86000 147.118
47.87000 145.811
47.88000 152.378
47.89000 157.357
47.90000 161.434
47.91000 164.362
47.92000 167.279
47.93000 167.516
47.94000 165.539
47.95000 163.588
47.96000 162.797
47.97000 162.652
47.98000 162.473
47.99000 161.668
48.00000 160.627
48.01000 159.962
48.02000 163.018
48.03000 167.026
48.04000 170.535
48.05000 169.283
48.06000 167.523
48.07000 165.527
48.08000 162.596
48.09000 159.568
48.10000 156.253
48.11000 152.162
48.12000 148.030
48.13000 145.338
48.14000 152.411
48.15000 157.750
48.16000 158.617
48.17000 154.003
48.18000 149.382
48.19000 147.057
48.20000 146.558
48.21000 146.066
48.22000 149.774
48.23000 155.548
48.24000 161.097
48.25000 162.733
48.26000 162.944
48.27000 163.142
48.28000 163.213
48.29000 163.254
48.30000 163.289
48.31000 160.933
48.32000 158.592
48.33000 155.758
48.34000 151.038
48.35000 146.135
48.36000 143.964
48.37000 148.865
48.38000 154.129
48.39000 157.512
48.40000 159.946
48.41000 161.709
48.42000 163.111
48.43000 164.089
48.44000 165.058
48.45000 164.126
48.46000 161.739
48.47000 159.391
48.48000 157.924
48.49000 156.945
48.50000 155.940
48.51000 154.527
48.52000 152.970
48.53000 151.656
48.54000 152.528
48.55000 153.919
48.56000 155.123
48.57000 153.442
48.58000 151.634
48.59000 150.791
48.60000 153.503
48.61000 156.544
48.62000 158.200
48.63000 156.390
48.64000 154.415
48.65000 153.164
48.66000 153.388
48.67000 153.569
48.68000 154.206
48.69000 155.362
48.70000 156.498
48.71000 154.068
48.72000 149.007
48.73000 144.041
48.74000 147.144
48.75000 154.008
48.76000 160.241
48.77000 156.792
48.78000 150.055
48.79000 143.730
48.80000 140.916
48.81000 138.906
48.82000 137.178
48.83000 146.121
48.84000 155.028
48.85000 161.948
48.86000 161.818
48.87000 161.067
48.88000 158.546
48.89000 151.750
48.90000 144.765
48.91000 140.399
48.92000 140.133
48.93000 139.984
48.94000 141.378
48.95000 144.454
48.96000 147.538
48.97000 151.518
48.98000 156.135
48.99000 160.657
49.00000 157.490
49.01000 150.895
49.02000 144.785
49.03000 145.684
49.04000 148.882
49.05000 151.592
49.06000 150.323
49.07000 148.176
49.08000 146.342
49.09000 151.236
49.10000 156.163
49.11000 158.744
49.12000 153.298
49.13000 147.181
49.14000 145.351
49.15000 153.514
49.16000 162.086
49.17000 167.367
49.18000 158.587
49.19000 152.159
49.20000 147.849
49.21000 145.755
49.22000 143.670
49.23000 142.473
49.24000 141.885
49.25000 141.310
49.26000 142.342
49.27000 144.046
49.28000 145.639
49.29000 145.734
49.30000 145.355
49.31000 145.554
49.32000 150.254
49.33000 155.910
49.34000 160.710
49.35000 154.555
49.36000 148.146
49.37000 143.932
49.38000 146.972
49.39000 150.585
49.40000 153.242
49.41000 153.749
49.42000 154.175
49.43000 154.434
49.44000 150.579
49.45000 147.796
49.46000 146.587
49.47000 146.959
49.48000 147.324
49.49000 146.929
49.50000 146.033
49.51000 145.159
49.52000 148.509
49.53000 153.515
49.54000 158.155
49.55000 158.098
49.56000 156.608
49.57000 154.992
49.58000 152.444
49.59000 149.705
49.60000 147.395
49.61000 151.258
49.62000 155.152
49.63000 157.008
49.64000 152.369
49.65000 147.246
49.66000 143.666
49.67000 143.440
49.68000 143.331
49.69000 143.265
49.70000 154.330
49.71000 162.252
49.72000 162.482
49.73000 155.292
49.74000 148.153
49.75000 145.159
49.76000 144.804
49.77000 144.458
49.78000 146.313
49.79000 148.983
49.80000 151.468
49.81000 151.700
49.82000 151.268
49.83000 150.782
49.84000 149.914
49.85000 148.971
49.86000 148.181
49.87000 144.637
49.88000 141.407
49.89000 139.748
49.90000 142.925
49.91000 146.441
49.92000 150.033
49.93000 153.786
49.94000 157.543
49.95000 159.755
49.96000 154.824
49.97000 151.309
49.98000 149.492
49.99000 149.250
50.00000 149.013
50.01000 149.112
50.02000 149.416
50.03000 149.712
50.04000 151.187
50.05000 153.054
50.06000 154.892
50.07000 156.391
50.08000 157.795
50.09000 158.657
50.10000 155.823
50.11000 152.291
50.12000 149.355
50.13000 151.519
50.14000 153.810
50.15000 155.123
50.16000 153.529
50.17000 151.742
50.18000 152.118
50.19000 156.874
50.20000 161.757
50.21000 164.585
50.22000 154.269
50.23000 146.984
50.24000 145.446
50.25000 149.027
50.26000 152.559
50.27000 153.083
50.28000 151.827
50.29000 150.612
50.30000 153.893
50.31000 158.707
50.32000 163.437
50.33000 167.248
50.34000 170.807
50.35000 173.880
50.36000 173.771
50.37000 173.087
50.38000 172.521
50.39000 175.073
50.40000 177.465
50.41000 179.483
50.42000 180.428
50.43000 181.305
50.44000 182.453
50.45000 184.128
50.46000 185.818
50.47000 186.781
50.48000 178.884
50.49000 173.358
50.50000 173.419
50.51000 178.263
50.52000 183.094
50.53000 187.209
50.54000 190.914
50.55000 194.490
50.56000 194.779
50.57000 193.846
50.58000 193.184
50.59000 195.337
50.60000 198.234
50.61000 200.310
50.62000 197.240
50.63000 193.274
50.64000 190.024
50.65000 197.829
50.66000 205.202
50.67000 210.147
50.68000 208.366
50.69000 206.194
50.70000 201.907
50.71000 193.624
50.72000 185.248
50.73000 180.556
50.74000 188.742
50.75000 194.445
50.76000 199.350
50.77000 203.597
50.78000 207.699
50.79000 204.773
50.80000 197.970
50.81000 191.424
50.82000 191.670
50.83000 194.298
50.84000 195.687
50.85000 184.886
50.86000 170.977
50.87000 159.312
50.88000 161.147
50.89000 165.239
50.90000 168.567
50.91000 169.873
50.92000 170.770
50.93000 169.690
50.94000 163.327
50.95000 156.676
50.96000 153.068
50.97000 155.009
50.98000 157.067
50.99000 158.201
51.00000 165.524
51.01000 170.567
51.02000 171.572
51.03000 169.377
51.04000 167.203
51.05000 165.923
51.06000 165.119
51.07000 164.347
51.08000 161.529
51.09000 158.201
51.10000 154.994
51.11000 152.926
51.12000 151.138
51.13000 149.492
51.14000 148.665
51.15000 147.971
51.16000 147.410
51.17000 147.730
51.18000 148.060
51.19000 147.603
51.20000 145.116
51.21000 142.525
51.22000 139.966
51.23000 137.462
51.24000 134.960
51.25000 133.606
51.26000 135.385
51.27000 136.614
51.28000 139.581
51.29000 143.875
51.30000 148.099
51.31000 149.636
51.32000 149.791
51.33000 149.939
51.34000 148.071
51.35000 145.673
51.36000 143.917
51.37000 147.901
51.38000 153.243
51.39000 157.151
51.40000 153.106
51.41000 147.836
51.42000 143.619
51.43000 137.915
51.44000 133.192
51.45000 130.639
51.46000 133.499
51.47000 136.615
51.48000 138.898
51.49000 139.765
51.50000 140.609
51.51000 141.057
51.52000 148.314
51.53000 153.214
51.54000 151.016
51.55000 143.601
51.56000 136.398
51.57000 136.663
51.58000 140.632
51.59000 144.416
51.60000 145.039
51.61000 144.624
51.62000 144.240
51.63000 144.123
51.64000 144.067
51.65000 143.974
51.66000 143.685
51.67000 143.367
51.68000 143.114
51.69000 144.579
51.70000 145.880
51.71000 146.470
51.72000 145.351
51.73000 144.157
51.74000 144.424
51.75000 147.083
51.76000 149.777
51.77000 151.180
51.78000 146.910
51.79000 144.020
51.80000 140.670
51.81000 136.994
51.82000 133.355
51.83000 130.881
51.84000 128.966
51.85000 127.146
51.86000 130.717
51.87000 135.645
51.88000 139.791
51.89000 137.577
51.90000 133.968
51.91000 131.861
51.92000 137.462
51.93000 144.150
51.94000 149.415
51.95000 147.677
51.96000 145.819
51.97000 143.756
51.98000 141.216
51.99000 138.656
52.00000 136.968
52.01000 136.657
52.02000 136.363
52.03000 136.213
52.04000 131.238
52.05000 127.948
52.06000 130.405
52.07000 136.786
52.08000 143.054
52.09000 146.038
52.10000 147.504
52.11000 148.891
52.12000 146.686
52.13000 143.614
52.14000 140.809
52.15000 140.079
52.16000 139.788
52.17000 139.637
52.18000 140.177
52.19000 140.810
52.20000 141.303
52.21000 139.539
52.22000 137.991
52.23000 135.537
52.24000 131.048
52.25000 126.483
52.26000 124.658
52.27000 127.008
52.28000 129.402
52.29000 130.600
52.30000 128.698
52.31000 127.449
52.32000 128.017
52.33000 129.782
52.34000 131.457
52.35000 130.723
52.36000 128.912
52.37000 127.203
52.38000 126.860
52.39000 126.925
52.40000 127.126
52.41000 128.333
52.42000 129.743
52.43000 131.040
52.44000 131.793
52.45000 132.476
52.46000 133.004
52.47000 136.340
52.48000 139.152
52.49000 140.173
52.50000 137.310
52.51000 134.313
52.52000 134.402
52.53000 139.025
52.54000 143.688
52.55000 145.778
52.56000 145.396
52.57000 145.018
52.58000 145.005
52.59000 145.224
52.60000 145.335
52.61000 142.743
52.62000 138.986
52.63000 135.456
52.64000 132.501
52.65000 129.959
52.66000 127.719
52.67000 127.633
52.68000 127.968
52.69000 129.006
52.70000 133.251
52.71000 137.891
52.72000 141.448
52.73000 136.622
52.74000 132.348
52.75000 129.540
52.76000 129.802
52.77000 130.160
52.78000 130.339
52.79000 130.263
52.80000 130.185
52.81000 132.499
52.82000 137.020
52.83000 141.492
52.84000 142.583
52.85000 141.605
52.86000 140.585
52.87000 138.610
52.88000 136.237
52.89000 134.014
52.90000 135.821
52.91000 138.501
52.92000 140.972
52.93000 142.022
52.94000 142.804
52.95000 143.854
52.96000 146.080
52.97000 148.444
52.98000 150.240
52.99000 146.055
53.00000 142.457
53.01000 140.619
53.02000 142.342
53.03000 144.167
53.04000 145.927
53.05000 147.598
53.06000 149.268
53.07000 150.145
53.08000 150.318
53.09000 150.420
53.10000 146.240
53.11000 139.530
53.12000 133.090
53.13000 132.357
53.14000 133.920
53.15000 135.377
53.16000 140.073
53.17000 145.126
53.18000 149.479
53.19000 149.265
53.20000 148.225
53.21000 147.465
53.22000 147.889
53.23000 148.446
53.24000 148.865
53.25000 149.796
53.26000 150.549
53.27000 150.310
53.28000 148.135
53.29000 145.909
53.30000 144.321
53.31000 143.570
53.32000 142.824
53.33000 142.938
53.34000 143.783
53.35000 144.676
53.36000 148.130
53.37000 153.044
53.38000 157.618
53.39000 155.496
53.40000 150.772
53.41000 146.384
53.42000 148.535
53.43000 152.029
53.44000 154.422
53.45000 149.925
53.46000 144.233
53.47000 140.752
53.48000 146.296
53.49000 152.807
53.50000 157.656
53.51000 154.189
53.52000 151.115
53.53000 148.340
53.54000 146.131
53.55000 143.935
53.56000 142.694
53.57000 142.662
53.58000 142.633
53.59000 140.583
53.60000 136.886
53.61000 133.298
53.62000 134.911
53.63000 139.385
53.64000 143.629
53.65000 143.657
53.66000 142.103
53.67000 140.666
53.68000 137.489
53.69000 134.239
53.70000 131.997
53.71000 135.797
53.72000 140.603
53.73000 144.365
53.74000 144.017
53.75000 143.249
53.76000 142.683
53.77000 143.818
53.78000 144.768
53.79000 143.926
53.80000 139.825
53.81000 135.656
53.82000 134.354
53.83000 136.542
53.84000 138.735
53.85000 141.225
53.86000 143.938
53.87000 146.537
53.88000 144.293
53.89000 139.477
53.90000 134.771
53.91000 131.967
53.92000 129.852
53.93000 127.904
53.94000 128.989
53.95000 130.624
53.96000 131.938
53.97000 131.403
53.98000 130.572
53.99000 130.532
54.00000 133.490
54.01000 136.739
54.02000 139.110
54.03000 137.060
54.04000 135.307
54.05000 135.617
54.06000 139.549
54.07000 143.549
54.08000 143.311
54.09000 138.109
54.10000 132.913
54.11000 133.377
54.12000 138.114
54.13000 142.693
54.14000 141.130
54.15000 136.421
54.16000 131.956
54.17000 131.421
54.18000 132.262
54.19000 133.032
54.20000 137.442
54.21000 142.135
54.22000 145.807
54.23000 143.836
54.24000 141.000
54.25000 139.713
54.26000 144.093
54.27000 148.994
54.28000 152.535
54.29000 149.397
54.30000 146.749
54.31000 145.843
54.32000 147.884
54.33000 149.974
54.34000 147.585
54.35000 140.153
54.36000 132.741
54.37000 131.161
54.38000 133.831
54.39000 136.447
54.40000 137.121
54.41000 136.834
54.42000 136.393
54.43000 133.596
54.44000 130.004
54.45000 126.726
54.46000 125.338
54.47000 124.487
54.48000 124.045
54.49000 125.771
54.50000 127.816
54.51000 130.263
54.52000 134.124
54.53000 138.110
54.54000 140.958
54.55000 134.311
54.56000 128.921
54.57000 127.862
54.58000 133.879
54.59000 139.997
54.60000 141.781
54.61000 138.875
54.62000 135.979
54.63000 136.990
54.64000 140.722
54.65000 144.345
54.66000 144.534
54.67000 143.083
54.68000 141.692
54.69000 141.155
54.70000 140.896
54.71000 140.662
54.72000 139.938
54.73000 139.204
54.74000 138.635
54.75000 138.905
54.76000 139.294
54.77000 138.076
54.78000 131.394
54.79000 124.260
54.80000 119.217
54.81000 127.248
54.82000 133.749
54.83000 137.988
54.84000 138.666
54.85000 139.299
54.86000 138.331
54.87000 135.695
54.88000 133.074
54.89000 133.005
54.90000 134.653
54.91000 136.234
54.92000 135.854
54.93000 134.570
54.94000 133.374
54.95000 133.362
54.96000 133.723
54.97000 134.050
54.98000 137.076
54.99000 140.237
55.00000 142.575
55.01000 140.872
55.02000 138.624
55.03000 136.072
55.04000 132.521
55.05000 128.892
55.06000 126.356
55.07000 133.178
55.08000 138.596
55.09000 141.943
55.10000 142.143
55.11000 142.310
55.12000 143.652
55.13000 146.169
55.14000 148.669
55.15000 149.906
55.16000 150.310
55.17000 150.727
55.18000 151.501
55.19000 152.433
55.20000 153.130
55.21000 150.840
55.22000 147.642
55.23000 144.767
55.24000 147.345
55.25000 150.570
55.26000 153.264
55.27000 153.448
55.28000 153.309
55.29000 153.917
55.30000 156.895
55.31000 160.047
55.32000 162.225
55.33000 163.743
55.34000 164.867
55.35000 166.032
55.36000 167.255
55.37000 168.478
55.38000 169.584
55.39000 170.576
55.40000 171.562
55.41000 174.612
55.42000 178.896
55.43000 183.434
55.44000 194.203
55.45000 207.652
55.46000 220.177
55.47000 221.579
55.48000 219.724
55.49000 218.065
55.50000 224.259
55.51000 230.996
55.52000 237.121
55.53000 240.459
55.54000 243.454
55.55000 249.625
55.56000 265.511
55.57000 282.073
55.58000 293.380
55.59000 302.589
55.60000 309.428
55.61000 318.492
55.62000 330.697
55.63000 342.924
55.64000 353.328
55.65000 362.053
55.66000 370.701
55.67000 380.552
55.68000 390.934
55.69000 401.472
55.70000 415.568
55.71000 431.143
55.72000 446.264
55.73000 456.227
55.74000 464.731
55.75000 472.296
55.76000 484.735
55.77000 496.327
55.78000 506.704
55.79000 511.755
55.80000 516.181
55.81000 521.909
55.82000 531.481
55.83000 541.304
55.84000 547.930
55.85000 549.053
55.86000 549.772
55.87000 550.985
55.88000 552.870
55.89000 554.762
55.90000 560.972
55.91000 571.000
55.92000 580.924
55.93000 579.902
55.94000 572.600
55.95000 565.239
55.96000 556.614
55.97000 547.483
55.98000 538.611
55.99000 532.532
56.00000 527.214
56.01000 522.510
56.02000 507.868
56.03000 493.663
56.04000 480.892
56.05000 474.171
56.06000 468.127
56.07000 460.702
56.08000 449.340
56.09000 437.736
56.10000 430.005
56.11000 409.871
56.12000 394.731
56.13000 380.708
56.14000 368.149
56.15000 355.602
56.16000 346.342
56.17000 339.881
56.18000 333.495
56.19000 320.312
56.20000 303.687
56.21000 287.514
56.22000 280.222
56.23000 276.369
56.24000 271.975
56.25000 262.012
56.26000 250.587
56.27000 240.537
56.28000 231.081
56.29000 223.032
56.30000 215.024
56.31000 207.184
56.32000 199.361
56.33000 193.635
56.34000 193.676
56.35000 194.049
56.36000 194.295
56.37000 198.677
56.38000 201.974
56.39000 200.975
56.40000 194.560
56.41000 188.123
56.42000 180.173
56.43000 170.986
56.44000 161.922
56.45000 161.746
56.46000 166.313
56.47000 170.644
56.48000 170.652
56.49000 169.043
56.50000 167.034
56.51000 161.108
56.52000 154.189
56.53000 148.139
56.54000 150.445
56.55000 153.610
56.56000 155.645
56.57000 153.251
56.58000 150.407
56.59000 149.135
56.60000 152.040
56.61000 155.170
56.62000 157.202
56.63000 146.391
56.64000 138.278
56.65000 134.374
56.66000 135.578
56.67000 136.797
56.68000 138.934
56.69000 141.793
56.70000 144.609
56.71000 142.937
56.72000 139.014
56.73000 135.301
56.74000 135.170
56.75000 136.333
56.76000 137.193
56.77000 135.232
56.78000 132.582
56.79000 130.278
56.80000 132.598
56.81000 135.205
56.82000 136.808
56.83000 134.614
56.84000 132.055
56.85000 131.452
56.86000 135.871
56.87000 140.543
56.88000 143.535
56.89000 139.461
56.90000 136.398
56.91000 132.066
56.92000 126.252
56.93000 120.456
56.94000 119.099
56.95000 121.109
56.96000 123.083
56.97000 124.983
56.98000 126.782
56.99000 128.341
57.00000 126.056
57.01000 122.430
57.02000 119.366
57.03000 121.283
57.04000 124.373
57.05000 127.042
57.06000 123.784
57.07000 120.247
57.08000 117.874
57.09000 119.740
57.10000 121.995
57.11000 124.774
57.12000 128.850
57.13000 132.986
57.14000 135.600
57.15000 130.978
57.16000 127.545
57.17000 124.929
57.18000 123.231
57.19000 121.535
57.20000 120.077
57.21000 118.793
57.22000 117.534
57.23000 118.092
57.24000 119.494
57.25000 121.071
57.26000 125.301
57.27000 130.424
57.28000 134.719
57.29000 132.025
57.30000 127.747
57.31000 124.074
57.32000 116.171
57.33000 108.966
57.34000 104.631
57.35000 110.392
57.36000 117.029
57.37000 122.585
57.38000 125.553
57.39000 128.409
57.40000 130.188
57.41000 132.869
57.42000 134.811
57.43000 133.967
57.44000 130.119
57.45000 126.286
57.46000 124.683
57.47000 124.650
57.48000 124.617
57.49000 123.613
57.50000 122.204
57.51000 120.777
57.52000 119.104
57.53000 117.351
57.54000 115.812
57.55000 116.002
57.56000 116.569
57.57000 117.053
57.58000 118.246
57.59000 119.334
57.60000 121.290
57.61000 126.190
57.62000 131.331
57.63000 134.066
57.64000 131.235
57.65000 128.182
57.66000 126.307
57.67000 121.300
57.68000 117.685
57.69000 116.873
57.70000 118.965
57.71000 121.040
57.72000 121.147
57.73000 119.919
57.74000 118.720
57.75000 119.964
57.76000 122.230
57.77000 124.338
57.78000 124.321
57.79000 123.637
57.80000 123.325
57.81000 125.883
57.82000 129.044
57.83000 131.723
57.84000 132.756
57.85000 133.437
57.86000 133.144
57.87000 129.667
57.88000 125.942
57.89000 122.564
57.90000 119.963
57.91000 117.391
57.92000 115.836
57.93000 116.720
57.94000 117.368
57.95000 117.342
57.96000 116.646
57.97000 115.954
57.98000 115.692
57.99000 115.711
58.00000 115.729
58.01000 116.873
58.02000 118.441
58.03000 119.997
58.04000 121.397
58.05000 122.749
58.06000 124.158
58.07000 125.988
58.08000 127.904
58.09000 129.516
58.10000 125.120
58.11000 120.811
58.12000 117.740
58.13000 118.579
58.14000 119.705
58.15000 120.505
58.16000 120.601
58.17000 120.673
58.18000 120.716
58.19000 116.921
58.20000 114.209
58.21000 114.909
58.22000 118.865
58.23000 122.752
58.24000 121.114
58.25000 115.993
58.26000 111.014
58.27000 110.957
58.28000 112.909
58.29000 114.763
58.30000 115.440
58.31000 115.773
58.32000 116.435
58.33000 119.424
58.34000 122.864
58.35000 125.740
58.36000 124.107
58.37000 122.292
58.38000 120.799
58.39000 120.285
58.40000 119.840
58.41000 118.630
58.42000 115.830
58.43000 112.979
58.44000 111.308
58.45000 117.038
58.46000 121.109
58.47000 120.691
58.48000 116.155
58.49000 111.677
58.50000 111.172
58.51000 113.083
58.52000 114.936
58.53000 117.252
58.54000 119.627
58.55000 121.682
58.56000 120.103
58.57000 117.502
58.58000 114.846
58.59000 111.828
58.60000 108.741
58.61000 106.180
58.62000 112.371
58.63000 118.335
58.64000 123.867
58.65000 128.130
58.66000 132.310
58.67000 132.479
58.68000 124.589
58.69000 116.472
58.70000 111.790
58.71000 111.509
58.72000 111.330
58.73000 111.509
58.74000 112.001
58.75000 112.524
58.76000 114.840
58.77000 118.207
58.78000 121.463
58.79000 120.685
58.80000 118.428
58.81000 116.126
58.82000 113.342
58.83000 110.428
58.84000 108.231
58.85000 110.673
58.86000 113.949
58.87000 116.647
58.88000 117.758
58.89000 118.526
58.90000 118.831
58.91000 117.823
58.92000 116.734
58.93000 114.924
58.94000 111.714
58.95000 108.469
58.96000 106.627
58.97000 108.922
58.98000 110.532
58.99000 112.289
59.00000 114.170
59.01000 116.050
59.02000 117.882
59.03000 119.686
59.04000 121.425
59.05000 120.449
59.06000 118.544
59.07000 116.544
59.08000 113.561
59.09000 110.320
59.10000 107.926
59.11000 110.784
59.12000 114.549
59.13000 117.627
59.14000 116.436
59.15000 115.089
59.16000 113.701
59.17000 112.200
59.18000 110.693
59.19000 111.682
59.20000 117.348
59.21000 123.120
59.22000 126.340
59.23000 123.739
59.24000 121.927
59.25000 120.139
59.26000 118.371
59.27000 116.636
59.28000 116.446
59.29000 117.101
59.30000 117.731
59.31000 115.860
59.32000 113.233
59.33000 111.165
59.34000 114.533
59.35000 119.274
59.36000 123.373
59.37000 123.647
59.38000 123.288
59.39000 122.997
59.40000 125.127
59.41000 127.062
59.42000 126.855
59.43000 120.971
59.44000 114.783
59.45000 110.510
59.46000 109.699
59.47000 108.959
59.48000 108.553
59.49000 114.845
59.50000 119.176
59.51000 121.731
59.52000 122.892
59.53000 124.028
59.54000 124.137
59.55000 123.704
59.56000 123.289
59.57000 121.080
59.58000 118.416
59.59000 116.024
59.60000 116.148
59.61000 116.885
59.62000 117.290
59.63000 115.788
59.64000 113.984
59.65000 112.531
59.66000 113.043
59.67000 113.612
59.68000 114.265
59.69000 115.136
59.70000 116.017
59.71000 116.883
59.72000 117.721
59.73000 118.559
59.74000 119.010
59.75000 118.113
59.76000 117.497
59.77000 116.704
59.78000 115.778
59.79000 114.882
59.80000 115.107
59.81000 115.903
59.82000 116.664
59.83000 112.181
59.84000 106.316
59.85000 101.819
59.86000 109.402
59.87000 119.818
59.88000 128.594
59.89000 128.354
59.90000 126.742
59.91000 125.454
59.92000 124.938
59.93000 124.578
59.94000 123.166
59.95000 119.156
59.96000 115.024
59.97000 113.497
59.98000 116.353
59.99000 119.278
60.00000 120.824
60.01000 122.081
60.02000 122.935
60.03000 123.843
60.04000 124.791
60.05000 125.756
60.06000 127.320
60.07000 129.178
60.08000 130.948
60.09000 129.037
60.10000 126.122
60.11000 123.271
60.12000 120.962
60.13000 118.777
60.14000 116.949
60.15000 117.011
60.16000 117.348
60.17000 117.614
60.18000 116.416
60.19000 115.352
60.20000 116.023
60.21000 120.838
60.22000 125.832
60.23000 127.062
60.24000 122.180
60.25000 117.214
60.26000 114.640
60.27000 113.835
60.28000 113.295
60.29000 113.150
60.30000 113.283
60.31000 113.494
60.32000 116.180
60.33000 120.040
60.34000 123.705
60.35000 121.880
60.36000 118.555
60.37000 115.682
60.38000 116.449
60.39000 118.007
60.40000 119.140
60.41000 118.119
60.42000 116.797
60.43000 115.758
60.44000 113.901
60.45000 112.362
60.46000 111.824
60.47000 113.593
60.48000 115.455
60.49000 117.101
60.50000 118.409
60.51000 119.713
60.52000 120.376
60.53000 114.889
60.54000 111.228
60.55000 109.374
60.56000 108.741
60.57000 108.244
60.58000 111.624
60.59000 116.782
60.60000 121.662
60.61000 122.078
60.62000 121.178
60.63000 120.387
60.64000 120.424
60.65000 120.636
60.66000 120.495
60.67000 118.633
60.68000 116.542
60.69000 114.913
60.70000 116.390
60.71000 117.758
60.72000 118.015
60.73000 115.799
60.74000 113.493
60.75000 111.851
60.76000 111.209
60.77000 110.578
60.78000 113.149
60.79000 118.895
60.80000 124.574
60.81000 124.123
60.82000 119.675
60.83000 115.437
60.84000 116.686
60.85000 120.365
60.86000 123.832
60.87000 123.636
60.88000 122.443
60.89000 121.032
60.90000 118.017
60.91000 114.678
60.92000 112.280
60.93000 114.300
60.94000 116.884
60.95000 118.878
60.96000 122.128
60.97000 124.777
60.98000 124.932
60.99000 119.728
61.00000 114.345
61.01000 111.883
61.02000 113.676
61.03000 115.505
61.04000 116.837
61.05000 117.697
61.06000 118.557
61.07000 119.422
61.08000 120.290
61.09000 121.067
61.10000 119.625
61.11000 117.235
61.12000 114.990
61.13000 118.509
61.14000 123.250
61.15000 127.302
61.16000 126.519
61.17000 124.800
61.18000 123.015
61.19000 120.932
61.20000 118.813
61.21000 117.192
61.22000 120.467
61.23000 123.317
61.24000 124.459
61.25000 122.060
61.26000 119.552
61.27000 119.026
61.28000 121.281
61.29000 123.554
61.30000 123.557
61.31000 121.487
61.32000 119.453
61.33000 119.828
61.34000 121.664
61.35000 123.483
61.36000 124.916
61.37000 126.190
61.38000 127.382
61.39000 125.416
61.40000 122.824
61.41000 120.777
61.42000 122.392
61.43000 124.689
61.44000 126.349
61.45000 125.239
61.46000 123.807
61.47000 122.722
61.48000 127.474
61.49000 131.502
61.50000 138.898
61.51000 153.044
61.52000 167.379
61.53000 179.358
61.54000 188.152
61.55000 196.925
61.56000 209.961
61.57000 226.719
61.58000 243.377
61.59000 254.148
61.60000 261.473
61.61000 268.954
61.62000 279.686
61.63000 291.714
61.64000 302.919
61.65000 303.033
61.66000 300.419
61.67000 298.555
61.68000 301.541
61.69000 305.395
61.70000 308.558
61.71000 308.825
61.72000 308.770
61.73000 308.729
61.74000 295.469
61.75000 284.481
61.76000 272.613
61.77000 259.044
61.78000 245.431
61.79000 235.257
61.80000 229.559
61.81000 223.885
61.82000 210.750
61.83000 191.358
61.84000 172.145
61.85000 162.285
61.86000 157.707
61.87000 153.111
61.88000 148.179
61.89000 143.118
61.90000 138.422
61.91000 139.602
61.92000 142.048
61.93000 143.594
61.94000 139.577
61.95000 134.604
61.96000 130.821
61.97000 131.849
61.98000 133.386
61.99000 134.528
62.00000 130.827
62.01000 127.736
62.02000 126.541
62.03000 128.888
62.04000 131.316
62.05000 130.996
62.06000 127.232
62.07000 123.463
62.08000 121.891
62.09000 122.104
62.10000 122.364
62.11000 124.813
62.12000 128.454
62.13000 131.839
62.14000 130.587
62.15000 127.611
62.16000 124.861
62.17000 123.007
62.18000 121.547
62.19000 121.002
62.20000 125.896
62.21000 131.688
62.22000 135.540
62.23000 131.837
62.24000 127.374
62.25000 124.091
62.26000 129.405
62.27000 133.870
62.28000 136.651
62.29000 136.394
62.30000 136.075
62.31000 134.888
62.32000 132.655
62.33000 130.424
62.34000 128.591
62.35000 127.078
62.36000 125.556
62.37000 123.665
62.38000 121.580
62.39000 119.581
62.40000 119.040
62.41000 119.021
62.42000 119.005
62.43000 121.681
62.44000 124.655
62.45000 127.120
62.46000 126.674
62.47000 125.769
62.48000 124.628
62.49000 122.603
62.50000 120.494
62.51000 118.958
62.52000 125.813
62.53000 131.412
62.54000 134.555
62.55000 133.426
62.56000 132.220
62.57000 131.622
62.58000 131.730
62.59000 131.838
62.60000 129.601
62.61000 125.623
62.62000 121.677
62.63000 118.888
62.64000 116.685
62.65000 114.701
62.66000 116.173
62.67000 118.844
62.68000 121.290
62.69000 121.147
62.70000 120.481
62.71000 120.447
62.72000 123.868
62.73000 127.814
62.74000 130.455
62.75000 128.364
62.76000 125.843
62.77000 124.027
62.78000 124.031
62.79000 124.098
62.80000 122.877
62.81000 119.491
62.82000 116.072
62.83000 115.494
62.84000 118.084
62.85000 120.667
62.86000 124.772
62.87000 129.936
62.88000 134.969
62.89000 135.515
62.90000 133.862
62.91000 132.200
62.92000 130.409
62.93000 128.574
62.94000 126.903
62.95000 131.230
62.96000 136.261
62.97000 140.043
62.98000 137.254
62.99000 133.510
63.00000 130.676
63.01000 131.023
63.02000 131.645
63.03000 132.087
63.04000 132.813
63.05000 133.375
63.06000 133.803
63.07000 134.014
63.08000 134.222
63.09000 133.984
63.10000 133.267
63.11000 132.553
63.12000 131.475
63.13000 130.158
63.14000 128.859
63.15000 128.161
63.16000 127.746
63.17000 127.228
63.18000 125.254
63.19000 122.810
63.20000 120.594
63.21000 125.155
63.22000 130.476
63.23000 134.823
63.24000 134.245
63.25000 132.982
63.26000 131.942
63.27000 131.653
63.28000 131.425
63.29000 131.264
63.30000 129.768
63.31000 128.593
63.32000 128.710
63.33000 130.841
63.34000 132.997
63.35000 134.234
63.36000 134.525
63.37000 134.815
63.38000 133.938
63.39000 132.295
63.40000 130.712
63.41000 130.845
63.42000 131.763
63.43000 132.678
63.44000 133.554
63.45000 134.417
63.46000 135.196
63.47000 132.742
63.48000 129.992
63.49000 128.112
63.50000 130.462
63.51000 133.375
63.52000 135.400
63.53000 134.532
63.54000 133.442
63.55000 132.682
63.56000 134.477
63.57000 135.901
63.58000 136.232
63.59000 134.917
63.60000 133.585
63.61000 135.254
63.62000 139.886
63.63000 144.487
63.64000 143.620
63.65000 139.264
63.66000 135.042
63.67000 134.317
63.68000 135.136
63.69000 136.027
63.70000 137.820
63.71000 139.884
63.72000 141.737
63.73000 143.303
63.74000 144.622
63.75000 145.383
63.76000 143.524
63.77000 141.332
63.78000 139.051
63.79000 136.487
63.80000 133.902
63.81000 132.121
63.82000 141.601
63.83000 149.000
63.84000 151.637
63.85000 147.362
63.86000 143.030
63.87000 142.412
63.88000 145.317
63.89000 148.199
63.90000 147.894
63.91000 145.632
63.92000 143.491
63.93000 144.258
63.94000 146.264
63.95000 148.003
63.96000 146.569
63.97000 144.215
63.98000 142.112
63.99000 143.378
64.00000 145.048
64.01000 146.832
64.02000 149.132
64.03000 151.494
64.04000 152.800
64.05000 150.902
64.06000 148.785
64.07000 147.343
64.08000 146.593
64.09000 146.049
64.10000 147.900
64.11000 153.102
64.12000 158.323
64.13000 158.619
64.14000 154.427
64.15000 150.273
64.16000 151.482
64.17000 155.844
64.18000 159.984
64.19000 159.169
64.20000 156.315
64.21000 153.367
64.22000 149.366
64.23000 145.070
64.24000 141.254
64.25000 144.583
64.26000 148.620
64.27000 152.172
64.28000 153.619
64.29000 154.821
64.30000 155.490
64.31000 154.597
64.32000 153.603
64.33000 152.935
64.34000 154.362
64.35000 155.466
64.36000 155.932
64.37000 155.541
64.38000 155.145
64.39000 154.417
64.40000 153.399
64.41000 152.392
64.42000 151.719
64.43000 151.253
64.44000 150.886
64.45000 152.572
64.46000 155.074
64.47000 157.741
64.48000 162.169
64.49000 167.072
64.50000 171.404
64.51000 170.573
64.52000 169.060
64.53000 167.541
64.54000 165.992
64.55000 164.439
64.56000 163.262
64.57000 163.144
64.58000 163.090
64.59000 163.054
64.60000 166.362
64.61000 168.869
64.62000 169.429
64.63000 167.463
64.64000 165.488
64.65000 164.596
64.66000 164.617
64.67000 164.638
64.68000 165.318
64.69000 166.343
64.70000 167.301
64.71000 166.986
64.72000 166.181
64.73000 165.609
64.74000 167.397
64.75000 169.799
64.76000 171.910
64.77000 173.630
64.78000 175.052
64.79000 176.321
64.80000 176.975
64.81000 177.563
64.82000 177.806
64.83000 177.104
64.84000 176.349
64.85000 175.855
64.86000 184.970
64.87000 191.832
64.88000 195.596
64.89000 195.492
64.90000 195.368
64.91000 192.278
64.92000 186.785
64.93000 181.368
64.94000 184.373
64.95000 191.739
64.96000 198.764
64.97000 199.619
64.98000 198.189
64.99000 197.000
65.00000 198.147
65.01000 199.881
65.02000 201.396
65.03000 204.441
65.04000 207.263
65.05000 210.085
65.06000 212.906
65.07000 215.727
65.08000 219.549
65.09000 226.005
65.10000 232.602
65.11000 236.869
65.12000 230.260
65.13000 225.265
65.14000 221.089
65.15000 217.897
65.16000 214.728
65.17000 217.474
65.18000 224.834
65.19000 232.078
65.20000 241.085
65.21000 250.707
65.22000 259.761
65.23000 259.239
65.24000 255.288
65.25000 252.168
65.26000 256.675
65.27000 263.028
65.28000 268.543
65.29000 267.902
65.30000 266.529
65.31000 265.881
65.32000 267.946
65.33000 270.270
65.34000 274.166
65.35000 282.061
65.36000 290.155
65.37000 295.321
65.38000 304.306
65.39000 310.893
65.40000 316.288
65.41000 320.307
65.42000 324.321
65.43000 327.830
65.44000 330.959
65.45000 334.033
65.46000 336.788
65.47000 339.292
65.48000 341.870
65.49000 345.627
65.50000 349.790
65.51000 353.758
65.52000 356.014
65.53000 357.871
65.54000 359.472
65.55000 365.068
65.56000 370.327
65.57000 378.226
65.58000 395.662
65.59000 413.959
65.60000 432.175
65.61000 450.189
65.62000 468.194
65.63000 479.529
65.64000 516.091
65.65000 542.831
65.66000 590.187
65.67000 660.457
65.68000 730.808
65.69000 811.594
65.70000 899.932
65.71000 986.545
65.72000 1117.894
65.73000 1265.419
65.74000 1412.017
65.75000 1544.837
65.76000 1673.060
65.77000 1799.283
65.78000 1908.808
65.79000 2014.584
65.80000 2105.260
65.81000 2138.631
65.82000 2159.806
65.83000 2176.034
65.84000 2175.018
65.85000 2172.525
65.86000 2168.927
65.87000 2162.710
65.88000 2156.382
65.89000 2152.454
65.90000 2095.104
65.91000 2053.316
65.92000 1990.556
65.93000 1905.400
65.94000 1820.029
65.95000 1707.809
65.96000 1576.865
65.97000 1448.750
65.98000 1302.622
65.99000 1154.223
66.00000 1008.591
66.01000 901.709
66.02000 807.307
66.03000 716.938
66.04000 658.740
66.05000 607.495
66.06000 563.850
66.07000 529.438
66.08000 501.583
66.09000 475.683
66.10000 456.360
66.11000 437.570
66.12000 422.413
66.13000 415.579
66.14000 409.072
66.15000 405.092
66.16000 398.207
66.17000 393.256
66.18000 393.290
66.19000 398.438
66.20000 403.544
66.21000 404.361
66.22000 402.295
66.23000 400.278
66.24000 415.961
66.25000 438.679
66.26000 461.332
66.27000 483.116
66.28000 504.630
66.29000 526.776
66.30000 553.733
66.31000 581.690
66.32000 605.344
66.33000 617.117
66.34000 625.653
66.35000 636.203
66.36000 653.289
66.37000 670.876
66.38000 682.485
66.39000 680.869
66.40000 678.774
66.41000 677.513
66.42000 679.821
66.43000 681.489
66.44000 677.363
66.45000 667.534
66.46000 657.649
66.47000 642.680
66.48000 624.416
66.49000 606.629
66.50000 585.583
66.51000 564.153
66.52000 542.621
66.53000 519.808
66.54000 496.612
66.55000 474.094
66.56000 456.519
66.57000 439.932
66.58000 425.995
66.59000 411.350
66.60000 399.072
66.61000 388.832
66.62000 384.968
66.63000 381.567
66.64000 377.479
66.65000 371.926
66.66000 366.324
66.67000 363.001
66.68000 362.351
66.69000 361.906
66.70000 360.792
66.71000 359.047
66.72000 357.365
66.73000 360.486
66.74000 366.609
66.75000 372.558
66.76000 368.347
66.77000 360.245
66.78000 352.931
66.79000 354.940
66.80000 359.647
66.81000 364.457
66.82000 369.983
66.83000 375.646
66.84000 380.372
66.85000 379.850
66.86000 378.891
66.87000 377.491
66.88000 374.761
66.89000 371.939
66.90000 370.479
66.91000 371.825
66.92000 373.256
66.93000 374.092
66.94000 368.641
66.95000 364.780
66.96000 364.779
66.97000 368.284
66.98000 371.781
66.99000 374.767
67.00000 377.445
67.01000 380.040
67.02000 381.565
67.03000 382.592
67.04000 383.948
67.05000 388.987
67.06000 395.053
67.07000 399.681
67.08000 394.688
67.09000 387.916
67.10000 382.306
67.11000 387.168
67.12000 392.182
67.13000 395.475
67.14000 393.746
67.15000 391.695
67.16000 392.866
67.17000 400.454
67.18000 408.218
67.19000 412.679
67.20000 401.925
67.21000 394.354
67.22000 391.624
67.23000 393.120
67.24000 394.639
67.25000 397.507
67.26000 401.158
67.27000 404.686
67.28000 409.136
67.29000 413.677
67.30000 417.926
67.31000 419.075
67.32000 419.390
67.33000 418.709
67.34000 411.648
67.35000 403.453
67.36000 396.714
67.37000 407.797
67.38000 418.518
67.39000 425.067
67.40000 419.866
67.41000 413.957
67.42000 411.732
67.43000 416.589
67.44000 421.622
67.45000 424.466
67.46000 427.818
67.47000 430.151
67.48000 432.831
67.49000 435.803
67.50000 438.808
67.51000 443.530
67.52000 449.216
67.53000 454.695
67.54000 452.458
67.55000 447.579
67.56000 443.741
67.57000 450.416
67.58000 459.821
67.59000 467.081
67.60000 461.167
67.61000 453.006
67.62000 446.344
67.63000 446.335
67.64000 446.899
67.65000 449.936
67.66000 459.700
67.67000 469.844
67.68000 475.100
67.69000 471.285
67.70000 467.267
67.71000 465.036
67.72000 459.146
67.73000 455.080
67.74000 455.275
67.75000 458.913
67.76000 462.588
67.77000 467.939
67.78000 474.199
67.79000 480.214
67.80000 482.007
67.81000 482.225
67.82000 482.526
67.83000 483.637
67.84000 484.950
67.85000 486.081
67.86000 486.135
67.87000 486.014
67.88000 485.915
67.89000 484.290
67.90000 482.842
67.91000 482.722
67.92000 486.091
67.93000 489.643
67.94000 492.400
67.95000 493.732
67.96000 495.036
67.97000 495.747
67.98000 495.285
67.99000 494.986
68.00000 499.912
68.01000 508.902
68.02000 517.695
68.03000 518.438
68.04000 514.972
68.05000 511.652
68.06000 520.967
68.07000 533.862
68.08000 544.490
68.09000 534.394
68.10000 519.300
68.11000 508.233
68.12000 519.965
68.13000 535.279
68.14000 547.584
68.15000 557.229
68.16000 564.841
68.17000 570.186
68.18000 569.779
68.19000 569.090
68.20000 567.829
68.21000 565.580
68.22000 563.313
68.23000 562.098
68.24000 569.244
68.25000 574.120
68.26000 577.416
68.27000 579.530
68.28000 581.640
68.29000 583.614
68.30000 585.520
68.31000 587.339
68.32000 587.473
68.33000 587.058
68.34000 587.944
68.35000 600.170
68.36000 615.030
68.37000 628.891
68.38000 637.313
68.39000 644.915
68.40000 650.974
68.41000 659.826
68.42000 667.170
68.43000 672.682
68.44000 673.707
68.45000 674.528
68.46000 679.233
68.47000 690.416
68.48000 701.700
68.49000 707.632
68.50000 721.729
68.51000 731.263
68.52000 736.498
68.53000 738.632
68.54000 741.067
68.55000 753.600
68.56000 771.055
68.57000 787.667
68.58000 820.152
68.59000 855.107
68.60000 890.043
68.61000 924.823
68.62000 959.568
68.63000 995.571
68.64000 1038.150
68.65000 1081.678
68.66000 1116.082
68.67000 1185.349
68.68000 1243.357
68.69000 1295.930
68.70000 1335.647
68.71000 1374.821
68.72000 1421.401
68.73000 1479.894
68.74000 1538.547
68.75000 1568.792
68.76000 1645.310
68.77000 1696.898
68.78000 1753.381
68.79000 1813.267
68.80000 1873.063
68.81000 1930.088
68.82000 1985.809
68.83000 2038.660
68.84000 2139.233
68.85000 2246.090
68.86000 2363.503
68.87000 2564.778
68.88000 2784.119
68.89000 3056.608
68.90000 3596.278
68.91000 4172.846
68.92000 4624.697
68.93000 6422.362
68.94000 7945.931
68.95000 9895.650
68.96000 12818.735
68.97000 15779.845
68.98000 19086.939
68.99000 22930.896
69.00000 26781.020
69.01000 28727.195
69.02000 33870.563
69.03000 37304.027
69.04000 39898.922
69.05000 41931.898
69.06000 43934.102
69.07000 45075.371
69.08000 45825.359
69.09000 46534.203
69.10000 47283.934
69.11000 47984.113
69.12000 48695.453
69.13000 49491.551
69.14000 50305.219
69.15000 51046.004
69.16000 51434.313
69.17000 51776.055
69.18000 52041.543
69.19000 50273.680
69.20000 48744.008
69.21000 46821.301
69.22000 44031.684
69.23000 41210.902
69.24000 38448.699
69.25000 35774.145
69.26000 33100.473
69.27000 30823.646
69.28000 28936.240
69.29000 27056.232
69.30000 25827.844
69.31000 25020.465
69.32000 24227.258
69.33000 23798.961
69.34000 23530.813
69.35000 23278.305
69.36000 22504.799
69.37000 21654.725
69.38000 20715.775
69.39000 19131.309
69.40000 17418.086
69.41000 15680.720
69.42000 13830.983
69.43000 11967.057
69.44000 10531.925
69.45000 8581.167
69.46000 7007.456
69.47000 5618.466
69.48000 4622.914
69.49000 3640.326
69.50000 2891.531
69.51000 2479.906
69.52000 2071.036
69.53000 1793.711
69.54000 1640.368
69.55000 1487.496
69.56000 1370.229
69.57000 1275.148
69.58000 1181.920
69.59000 1132.735
69.60000 1102.217
69.61000 1073.588
69.62000 1026.447
69.63000 978.632
69.64000 933.287
69.65000 905.115
69.66000 880.238
69.67000 856.268
69.68000 836.364
69.69000 816.951
69.70000 802.140
69.71000 782.398
69.72000 766.581
69.73000 749.867
69.74000 731.310
69.75000 712.697
69.76000 697.999
69.77000 688.740
69.78000 679.520
69.79000 669.055
69.80000 657.473
69.81000 645.879
69.82000 633.525
69.83000 620.713
69.84000 607.933
69.85000 595.870
69.86000 584.099
69.87000 573.100
69.88000 564.013
69.89000 556.252
69.90000 549.202
69.91000 546.899
69.92000 545.471
69.93000 543.930
69.94000 541.896
69.95000 539.807
69.96000 538.227
69.97000 522.280
69.98000 509.058
69.99000 498.599
70.00000 493.630
