20.00000 468.568
20.01000 467.770
20.02000 466.859
20.03000 466.792
20.04000 470.048
20.05000 473.644
20.06000 476.296
20.07000 468.391
20.08000 461.825
20.09000 460.938
20.10000 470.380
20.11000 480.038
20.12000 482.358
20.13000 475.742
20.14000 469.118
20.15000 469.152
20.16000 474.423
20.17000 479.623
20.18000 481.805
20.19000 482.384
20.20000 482.990
20.21000 484.063
20.22000 485.305
20.23000 486.448
20.24000 477.395
20.25000 467.063
20.26000 459.361
20.27000 466.811
20.28000 476.683
20.29000 482.684
20.30000 474.003
20.31000 463.897
20.32000 456.520
20.33000 458.665
20.34000 460.689
20.35000 459.450
20.36000 452.486
20.37000 445.415
20.38000 444.956
20.39000 452.242
20.40000 459.521
20.41000 463.131
20.42000 463.943
20.43000 464.774
20.44000 466.333
20.45000 468.265
20.46000 469.962
20.47000 467.843
20.48000 464.390
20.49000 461.225
20.50000 456.811
20.51000 452.618
20.52000 450.216
20.53000 457.727
20.54000 466.759
20.55000 475.311
20.56000 482.115
20.57000 488.757
20.58000 493.556
20.59000 478.051
20.60000 465.425
20.61000 457.405
20.62000 457.186
20.63000 457.094
20.64000 458.482
20.65000 461.539
20.66000 464.587
20.67000 464.083
20.68000 461.001
20.69000 458.004
20.70000 457.996
20.71000 459.465
20.72000 461.056
20.73000 464.499
20.74000 468.567
20.75000 472.279
20.76000 465.833
20.77000 458.067
20.78000 451.095
20.79000 448.346
20.80000 446.217
20.81000 446.488
20.82000 455.225
20.83000 464.700
20.84000 471.473
20.85000 462.999
20.86000 456.023
20.87000 449.865
20.88000 445.043
20.89000 440.240
20.90000 440.073
20.91000 444.927
20.92000 449.763
20.93000 452.372
20.94000 453.399
20.95000 454.357
20.96000 453.113
20.97000 450.818
20.98000 449.337
20.99000 459.500
21.00000 473.457
21.01000 486.130
21.02000 482.428
21.03000 475.992
21.04000 469.510
21.05000 462.796
21.06000 456.050
21.07000 452.758
21.08000 461.221
21.09000 470.656
21.10000 477.326
21.11000 473.139
21.12000 469.627
21.13000 465.943
21.14000 461.991
21.15000 458.036
21.16000 458.277
21.17000 462.884
21.18000 467.466
21.19000 470.568
21.20000 472.636
21.21000 474.403
21.22000 467.423
21.23000 456.408
21.24000 446.869
21.25000 457.226
21.26000 473.842
21.27000 488.856
21.28000 481.732
21.29000 471.364
21.30000 463.137
21.31000 465.439
21.32000 469.159
21.33000 471.006
21.34000 466.704
21.35000 461.920
21.36000 458.576
21.37000 451.702
21.38000 446.409
21.39000 446.746
21.40000 455.637
21.41000 464.618
21.42000 462.728
21.43000 449.986
21.44000 437.325
21.45000 438.449
21.46000 448.471
21.47000 458.188
21.48000 459.768
21.49000 457.723
21.50000 456.123
21.51000 460.179
21.52000 465.952
21.53000 471.141
21.54000 462.501
21.55000 452.480
21.56000 446.212
21.57000 457.698
21.58000 471.470
21.59000 481.571
21.60000 480.042
21.61000 477.653
21.62000 476.003
21.63000 470.593
21.64000 466.429
21.65000 463.745
21.66000 463.229
21.67000 462.732
21.68000 465.371
21.69000 471.017
21.70000 476.621
21.71000 478.646
21.72000 478.410
21.73000 478.332
21.74000 482.113
21.75000 487.553
21.76000 493.078
21.77000 499.612
21.78000 506.443
21.79000 512.551
21.80000 518.493
21.81000 523.645
21.82000 526.685
21.83000 520.105
21.84000 512.342
21.85000 507.199
21.86000 510.072
21.87000 513.504
21.88000 515.847
21.89000 528.088
21.90000 537.475
21.91000 545.602
21.92000 551.951
21.93000 558.288
21.94000 564.428
21.95000 570.388
21.96000 576.296
21.97000 583.656
21.98000 591.743
21.99000 599.247
22.00000 593.481
22.01000 582.204
22.02000 572.143
22.03000 575.946
22.04000 583.668
22.05000 590.536
22.06000 586.051
22.07000 580.308
22.08000 575.126
22.09000 572.401
22.10000 569.965
22.11000 568.889
22.12000 571.832
22.13000 575.038
22.14000 577.201
22.15000 574.942
22.16000 573.168
22.17000 570.306
22.18000 565.967
22.19000 561.622
22.20000 560.153
22.21000 561.228
22.22000 562.291
22.23000 554.396
22.24000 541.516
22.25000 528.777
22.26000 519.038
22.27000 510.503
22.28000 502.544
22.29000 500.825
22.30000 500.807
22.31000 500.792
22.32000 497.719
22.33000 494.588
22.34000 490.143
22.35000 480.149
22.36000 469.535
22.37000 460.605
22.38000 456.476
22.39000 452.642
22.40000 450.089
22.41000 458.512
22.42000 464.957
22.43000 467.613
22.44000 465.305
22.45000 462.978
22.46000 461.703
22.47000 461.324
22.48000 460.949
22.49000 458.089
22.50000 453.922
22.51000 449.752
22.52000 445.526
22.53000 441.279
22.54000 437.731
22.55000 441.360
22.56000 446.876
22.57000 451.729
22.58000 458.323
22.59000 464.258
22.60000 468.489
22.61000 465.788
22.62000 462.347
22.63000 457.284
22.64000 447.758
22.65000 437.975
22.66000 431.540
22.67000 429.675
22.68000 428.379
22.69000 428.785
22.70000 431.337
22.71000 433.899
22.72000 437.312
22.73000 441.422
22.74000 445.477
22.75000 443.880
22.76000 439.312
22.77000 434.890
22.78000 433.147
22.79000 432.407
22.80000 432.055
22.81000 435.493
22.82000 439.891
22.83000 443.738
22.84000 444.957
22.85000 445.627
22.86000 445.688
22.87000 443.360
22.88000 440.790
22.89000 437.658
22.90000 433.034
22.91000 428.329
22.92000 425.275
22.93000 425.582
22.94000 425.858
22.95000 427.003
22.96000 429.204
22.97000 431.394
22.98000 429.734
22.99000 425.040
23.00000 420.418
23.01000 426.104
23.02000 436.906
23.03000 446.774
23.04000 440.610
23.05000 428.656
23.06000 418.123
23.07000 420.803
23.08000 426.710
23.09000 431.845
23.10000 430.627
23.11000 428.724
23.12000 427.359
23.13000 428.028
23.14000 428.893
23.15000 430.031
23.16000 431.868
23.17000 433.741
23.18000 434.940
23.19000 435.508
23.20000 435.914
23.21000 435.477
23.22000 434.057
23.23000 432.613
23.24000 426.251
23.25000 416.159
23.26000 406.239
23.27000 405.945
23.28000 410.416
23.29000 414.708
23.30000 416.132
23.31000 416.555
23.32000 416.837
23.33000 415.864
23.34000 414.595
23.35000 413.498
23.36000 420.025
23.37000 426.557
23.38000 432.651
23.39000 437.150
23.40000 441.502
23.41000 442.754
23.42000 436.323
23.43000 429.532
23.44000 425.241
23.45000 423.164
23.46000 421.684
23.47000 422.895
23.48000 427.126
23.49000 431.361
23.50000 435.917
23.51000 440.707
23.52000 445.407
23.53000 440.879
23.54000 432.130
23.55000 423.792
23.56000 421.664
23.57000 421.626
23.58000 421.675
23.59000 422.465
23.60000 423.423
23.61000 424.245
23.62000 423.853
23.63000 423.371
23.64000 421.809
23.65000 416.449
23.66000 410.760
23.67000 410.700
23.68000 424.113
23.69000 438.112
23.70000 446.831
23.71000 436.330
23.72000 428.567
23.73000 424.027
23.74000 422.963
23.75000 421.915
23.76000 422.780
23.77000 424.992
23.78000 427.158
23.79000 429.948
23.80000 432.914
23.81000 435.950
23.82000 439.968
23.83000 444.307
23.84000 447.354
23.85000 439.983
23.86000 430.338
23.87000 422.109
23.88000 425.176
23.89000 429.091
23.90000 431.880
23.91000 430.851
23.92000 429.509
23.93000 427.246
23.94000 422.855
23.95000 418.379
23.96000 415.632
23.97000 420.112
23.98000 423.386
23.99000 424.244
24.00000 422.599
24.01000 420.986
24.02000 422.911
24.03000 427.238
24.04000 431.464
24.05000 432.392
24.06000 431.830
24.07000 431.578
24.08000 435.497
24.09000 440.724
24.10000 444.644
24.11000 438.489
24.12000 430.217
24.13000 423.207
24.14000 424.852
24.15000 427.204
24.16000 430.209
24.17000 435.354
24.18000 440.665
24.19000 441.811
24.20000 433.659
24.21000 425.163
24.22000 420.024
24.23000 423.673
24.24000 426.337
24.25000 426.727
24.26000 424.854
24.27000 422.999
24.28000 422.868
24.29000 423.867
24.30000 424.839
24.31000 421.789
24.32000 417.175
24.33000 413.105
24.34000 415.938
24.35000 420.861
24.36000 425.005
24.37000 423.414
24.38000 420.664
24.39000 418.348
24.40000 415.955
24.41000 413.950
24.42000 412.606
24.43000 413.350
24.44000 414.248
24.45000 413.138
24.46000 407.699
24.47000 402.113
24.48000 398.786
24.49000 404.361
24.50000 408.366
24.51000 409.025
24.52000 406.488
24.53000 403.963
24.54000 402.273
24.55000 401.111
24.56000 399.981
24.57000 400.165
24.58000 400.874
24.59000 401.874
24.60000 406.345
24.61000 411.829
24.62000 416.418
24.63000 414.683
24.64000 411.720
24.65000 409.243
24.66000 410.146
24.67000 411.239
24.68000 413.120
24.69000 417.401
24.70000 421.849
24.71000 421.894
24.72000 412.778
24.73000 403.378
24.74000 397.867
24.75000 407.044
24.76000 413.580
24.77000 415.118
24.78000 412.069
24.79000 409.047
24.80000 407.871
24.81000 407.818
24.82000 407.767
24.83000 402.571
24.84000 395.630
24.85000 389.097
24.86000 387.207
24.87000 386.625
24.88000 385.703
24.89000 382.484
24.90000 378.837
24.91000 375.809
24.92000 378.601
24.93000 381.472
24.94000 386.237
24.95000 396.580
24.96000 407.286
24.97000 414.334
24.98000 414.031
24.99000 413.521
25.00000 413.226
25.01000 403.645
25.02000 396.904
25.03000 395.367
25.04000 398.419
25.05000 401.456
25.06000 403.533
25.07000 405.045
25.08000 406.508
25.09000 400.185
25.10000 391.275
25.11000 383.320
25.12000 385.640
25.13000 390.751
25.14000 395.389
25.15000 396.955
25.16000 397.969
25.17000 398.804
25.18000 399.644
25.19000 400.336
25.20000 399.914
25.21000 396.329
25.22000 392.550
25.23000 391.277
25.24000 394.866
25.25000 398.579
25.26000 400.685
25.27000 399.986
25.28000 399.489
25.29000 397.962
25.30000 395.562
25.31000 393.171
25.32000 391.236
25.33000 389.558
25.34000 387.940
25.35000 385.981
25.36000 384.015
25.37000 382.575
25.38000 386.518
25.39000 391.873
25.40000 396.396
25.41000 395.753
25.42000 394.219
25.43000 392.965
25.44000 388.974
25.45000 385.467
25.46000 382.921
25.47000 383.015
25.48000 383.260
25.49000 384.381
25.50000 387.144
25.51000 389.945
25.52000 391.507
25.53000 389.178
25.54000 387.563
25.55000 387.699
25.56000 389.264
25.57000 390.781
25.58000 389.990
25.59000 387.938
25.60000 385.965
25.61000 391.661
25.62000 399.680
25.63000 406.893
25.64000 406.260
25.65000 403.645
25.66000 400.297
25.67000 392.582
25.68000 384.146
25.69000 377.299
25.70000 380.245
25.71000 383.454
25.72000 385.151
25.73000 382.840
25.74000 380.314
25.75000 379.169
25.76000 380.522
25.77000 381.927
25.78000 382.696
25.79000 378.220
25.80000 375.137
25.81000 373.081
25.82000 371.831
25.83000 370.716
25.84000 375.282
25.85000 382.846
25.86000 390.097
25.87000 387.367
25.88000 381.463
25.89000 376.218
25.90000 377.079
25.91000 379.426
25.92000 381.598
25.93000 382.764
25.94000 383.771
25.95000 384.581
25.96000 388.835
25.97000 392.556
25.98000 392.884
25.99000 384.531
26.00000 375.744
26.01000 370.810
26.02000 372.596
26.03000 374.504
26.04000 375.531
26.05000 376.121
26.06000 376.512
26.07000 374.569
26.08000 370.861
26.09000 367.246
26.10000 367.182
26.11000 368.927
26.12000 370.594
26.13000 376.120
26.14000 382.507
26.15000 387.228
26.16000 377.241
26.17000 363.805
26.18000 354.335
26.19000 366.665
26.20000 382.314
26.21000 394.812
26.22000 382.607
26.23000 370.928
26.24000 363.992
26.25000 368.776
26.26000 374.106
26.27000 378.063
26.28000 379.708
26.29000 381.316
26.30000 382.165
26.31000 381.766
26.32000 381.511
26.33000 384.012
26.34000 388.521
26.35000 392.754
26.36000 387.575
26.37000 377.766
26.38000 368.423
26.39000 368.581
26.40000 371.682
26.41000 374.678
26.42000 376.792
26.43000 378.707
26.44000 379.894
26.45000 377.240
26.46000 374.025
26.47000 371.479
26.48000 368.686
26.49000 366.424
26.50000 367.093
26.51000 374.761
26.52000 382.730
26.53000 386.505
26.54000 383.471
26.55000 380.343
26.56000 378.722
26.57000 378.074
26.58000 377.642
26.59000 377.776
26.60000 378.308
26.61000 378.834
26.62000 379.177
26.63000 379.434
26.64000 379.678
26.65000 377.682
26.66000 375.170
26.67000 373.183
26.68000 375.409
26.69000 378.551
26.70000 380.837
26.71000 378.773
26.72000 376.102
26.73000 374.003
26.74000 376.433
26.75000 378.675
26.76000 379.775
26.77000 378.243
26.78000 376.606
26.79000 373.026
26.80000 366.402
26.81000 359.741
26.82000 356.357
26.83000 368.842
26.84000 377.125
26.85000 376.064
26.86000 368.683
26.87000 361.552
26.88000 361.581
26.89000 364.895
26.90000 368.029
26.91000 365.804
26.92000 362.219
26.93000 359.913
26.94000 367.446
26.95000 377.038
26.96000 385.183
26.97000 386.261
26.98000 386.394
26.99000 386.498
27.00000 377.205
27.01000 369.225
27.02000 366.199
27.03000 374.199
27.04000 382.604
27.05000 386.713
27.06000 384.333
27.07000 381.888
27.08000 377.207
27.09000 370.309
27.10000 363.477
27.11000 362.725
27.12000 365.937
27.13000 368.974
27.14000 367.377
27.15000 363.728
27.16000 360.289
27.17000 364.594
27.18000 370.676
27.19000 375.324
27.20000 369.436
27.21000 361.426
27.22000 356.952
27.23000 369.100
27.24000 383.370
27.25000 394.384
27.26000 383.410
27.27000 373.437
27.28000 367.579
27.29000 370.565
27.30000 373.850
27.31000 376.135
27.32000 376.966
27.33000 377.785
27.34000 377.249
27.35000 375.424
27.36000 373.592
27.37000 371.215
27.38000 368.496
27.39000 366.024
27.40000 369.569
27.41000 375.687
27.42000 381.431
27.43000 378.171
27.44000 372.806
27.45000 368.186
27.46000 368.808
27.47000 370.446
27.48000 371.377
27.49000 369.109
27.50000 366.451
27.51000 364.419
27.52000 374.692
27.53000 383.465
27.54000 389.202
27.55000 388.637
27.56000 387.877
27.57000 385.620
27.58000 381.259
27.59000 376.886
27.60000 373.234
27.61000 370.245
27.62000 367.309
27.63000 367.908
27.64000 370.653
27.65000 373.149
27.66000 370.050
27.67000 364.641
27.68000 359.582
27.69000 361.024
27.70000 363.992
27.71000 366.650
27.72000 367.215
27.73000 367.389
27.74000 367.913
27.75000 369.960
27.76000 372.184
27.77000 373.870
27.78000 364.805
27.79000 357.142
27.80000 352.687
27.81000 354.660
27.82000 356.813
27.83000 357.642
27.84000 356.682
27.85000 355.713
27.86000 355.327
27.87000 355.454
27.88000 355.592
27.89000 356.391
27.90000 357.578
27.91000 358.767
27.92000 360.010
27.93000 361.273
27.94000 362.451
27.95000 369.875
27.96000 378.122
27.97000 384.325
27.98000 377.339
27.99000 367.994
28.00000 360.076
28.01000 358.148
28.02000 356.886
28.03000 355.939
28.04000 360.394
28.05000 364.131
28.06000 367.382
28.07000 369.692
28.08000 371.979
28.09000 374.307
28.10000 376.688
28.11000 379.067
28.12000 376.571
28.13000 369.969
28.14000 363.478
28.15000 362.784
28.16000 365.365
28.17000 367.675
28.18000 364.753
28.19000 359.816
28.20000 355.236
28.21000 363.985
28.22000 375.004
28.23000 383.147
28.24000 373.487
28.25000 360.767
28.26000 351.818
28.27000 358.117
28.28000 366.029
28.29000 371.908
28.30000 376.678
28.31000 380.338
28.32000 381.442
28.33000 377.775
28.34000 374.000
28.35000 368.635
28.36000 361.280
28.37000 353.930
28.38000 353.204
28.39000 357.850
28.40000 362.457
28.41000 365.258
28.42000 367.075
28.43000 368.508
28.44000 362.996
28.45000 354.901
28.46000 347.422
28.47000 348.043
28.48000 350.431
28.49000 353.281
28.50000 358.884
28.51000 364.941
28.52000 369.713
28.53000 369.478
28.54000 368.738
28.55000 368.194
28.56000 351.409
28.57000 337.753
28.58000 329.037
28.59000 329.224
28.60000 329.593
28.61000 330.924
28.62000 333.416
28.63000 335.905
28.64000 338.755
28.65000 341.870
28.66000 344.920
28.67000 345.257
28.68000 344.167
28.69000 343.030
28.70000 341.108
28.71000 338.904
28.72000 336.877
28.73000 335.583
28.74000 334.585
28.75000 334.214
28.76000 337.416
28.77000 341.182
28.78000 345.034
28.79000 349.205
28.80000 353.406
28.81000 356.465
28.82000 353.364
28.83000 350.740
28.84000 348.360
28.85000 346.404
28.86000 344.455
28.87000 342.077
28.88000 339.202
28.89000 336.335
28.90000 342.223
28.91000 354.627
28.92000 366.681
28.93000 365.644
28.94000 357.959
28.95000 350.757
28.96000 351.259
28.97000 354.433
28.98000 357.339
28.99000 360.330
29.00000 363.009
29.01000 363.536
29.02000 352.279
29.03000 339.234
29.04000 329.644
29.05000 332.577
29.06000 336.648
29.07000 339.580
29.08000 344.003
29.09000 347.443
29.10000 350.614
29.11000 353.332
29.12000 356.042
29.13000 353.867
29.14000 346.243
29.15000 338.642
29.16000 334.805
29.17000 333.709
29.18000 332.735
29.19000 335.912
29.20000 341.124
29.21000 346.286
29.22000 350.703
29.23000 354.870
29.24000 358.668
29.25000 353.753
29.26000 347.660
29.27000 342.594
29.28000 342.936
29.29000 344.063
29.30000 344.964
29.31000 345.071
29.32000 345.109
29.33000 345.137
29.34000 348.997
29.35000 352.064
29.36000 351.089
29.37000 343.569
29.38000 335.959
29.39000 337.011
29.40000 347.346
29.41000 357.638
29.42000 359.955
29.43000 356.728
29.44000 353.504
29.45000 350.371
29.46000 347.281
29.47000 344.745
29.48000 350.020
29.49000 357.819
29.50000 364.892
29.51000 357.101
29.52000 347.383
29.53000 338.737
29.54000 335.514
29.55000 333.045
29.56000 332.915
29.57000 340.673
29.58000 349.074
29.59000 354.997
29.60000 359.480
29.61000 362.838
29.62000 362.514
29.63000 356.442
29.64000 350.302
29.65000 349.414
29.66000 353.933
29.67000 358.428
29.68000 360.416
29.69000 360.712
29.70000 361.000
29.71000 361.108
29.72000 361.132
29.73000 361.460
29.74000 365.818
29.75000 371.433
29.76000 376.500
29.77000 375.515
29.78000 373.541
29.79000 373.537
29.80000 383.126
29.81000 393.993
29.82000 401.197
29.83000 396.484
29.84000 390.852
29.85000 386.926
29.86000 394.717
29.87000 400.919
29.88000 405.919
29.89000 409.109
29.90000 412.281
29.91000 417.990
29.92000 426.207
29.93000 434.369
29.94000 433.518
29.95000 426.909
29.96000 420.363
29.97000 415.468
29.98000 411.303
29.99000 407.581
30.00000 409.423
30.01000 412.940
30.02000 416.096
30.03000 413.736
30.04000 410.702
30.05000 408.180
30.06000 408.055
30.07000 408.235
30.08000 408.094
30.09000 406.948
30.10000 405.729
30.11000 404.889
30.12000 414.804
30.13000 422.518
30.14000 419.689
30.15000 401.557
30.16000 383.300
30.17000 379.191
30.18000 388.503
30.19000 397.742
30.20000 403.626
30.21000 407.342
30.22000 410.598
30.23000 402.767
30.24000 390.208
30.25000 378.484
30.26000 376.685
30.27000 377.768
30.28000 378.734
30.29000 379.594
30.30000 380.325
30.31000 381.471
30.32000 384.489
30.33000 387.734
30.34000 390.524
30.35000 391.932
30.36000 393.246
30.37000 394.140
30.38000 383.653
30.39000 375.561
30.40000 372.544
30.41000 376.627
30.42000 380.756
30.43000 379.599
30.44000 373.625
30.45000 367.706
30.46000 370.266
30.47000 377.799
30.48000 384.691
30.49000 377.246
30.50000 363.899
30.51000 351.340
30.52000 347.640
30.53000 346.422
30.54000 345.340
30.55000 354.203
30.56000 363.490
30.57000 371.841
30.58000 376.124
30.59000 379.934
30.60000 381.529
30.61000 376.637
30.62000 371.327
30.63000 367.756
30.64000 371.944
30.65000 375.216
30.66000 375.002
30.67000 370.089
30.68000 365.159
30.69000 368.293
30.70000 378.490
30.71000 388.579
30.72000 388.617
30.73000 382.922
30.74000 377.256
30.75000 372.188
30.76000 367.358
30.77000 363.617
30.78000 371.508
30.79000 382.541
30.80000 392.288
30.81000 394.173
30.82000 394.590
30.83000 396.939
30.84000 407.371
30.85000 418.698
30.86000 427.620
30.87000 429.742
30.88000 431.453
30.89000 432.590
30.90000 442.534
30.91000 450.048
30.92000 452.610
30.93000 448.745
30.94000 444.877
30.95000 453.655
30.96000 473.087
30.97000 492.281
30.98000 513.688
30.99000 535.767
31.00000 558.386
31.01000 591.441
31.02000 628.502
31.03000 663.836
31.04000 681.650
31.05000 694.900
31.06000 706.540
31.07000 748.527
31.08000 789.089
31.09000 836.807
31.10000 913.376
31.11000 992.984
31.12000 1061.296
31.13000 1098.784
31.14000 1134.525
31.15000 1157.957
31.16000 1261.344
31.17000 1338.694
31.18000 1409.720
31.19000 1472.847
31.20000 1535.972
31.21000 1607.496
31.22000 1685.829
31.23000 1763.074
31.24000 1845.206
31.25000 1927.606
31.26000 2009.238
31.27000 2077.018
31.28000 2139.662
31.29000 2201.114
31.30000 2251.065
31.31000 2298.128
31.32000 2339.228
31.33000 2391.000
31.34000 2436.813
31.35000 2468.600
31.36000 2445.874
31.37000 2417.682
31.38000 2392.273
31.39000 2374.194
31.40000 2356.503
31.41000 2345.057
31.42000 2261.600
31.43000 2199.497
31.44000 2137.933
31.45000 2077.015
31.46000 2016.061
31.47000 1944.762
31.48000 1865.391
31.49000 1787.264
31.50000 1689.545
31.51000 1584.906
31.52000 1480.956
31.53000 1388.615
31.54000 1300.429
31.55000 1213.547
31.56000 1138.642
31.57000 1066.634
31.58000 1004.128
31.59000 946.121
31.60000 897.298
31.61000 847.725
31.62000 795.343
31.63000 742.693
31.64000 695.401
31.65000 661.739
31.66000 628.750
31.67000 607.692
31.68000 582.846
31.69000 564.721
31.70000 546.839
31.71000 529.239
31.72000 511.640
31.73000 494.093
31.74000 476.584
31.75000 459.383
31.76000 442.895
31.77000 427.317
31.78000 412.363
31.79000 407.270
31.80000 405.586
31.81000 403.233
31.82000 395.014
31.83000 385.427
31.84000 377.157
31.85000 380.131
31.86000 384.096
31.87000 384.969
31.88000 374.669
31.89000 363.358
31.90000 356.307
31.91000 359.723
31.92000 363.619
31.93000 366.072
31.94000 361.046
31.95000 357.324
31.96000 355.846
31.97000 356.861
31.98000 357.847
31.99000 353.933
32.00000 346.471
32.01000 339.155
32.02000 336.231
32.03000 335.483
32.04000 335.083
32.05000 339.852
32.06000 346.346
32.07000 351.444
32.08000 344.887
32.09000 335.714
32.10000 327.850
32.11000 328.177
32.12000 329.455
32.13000 330.259
32.14000 329.410
32.15000 328.420
32.16000 327.282
32.17000 325.796
32.18000 324.295
32.19000 323.363
32.20000 323.249
32.21000 323.176
32.22000 324.880
32.23000 328.483
32.24000 332.051
32.25000 331.162
32.26000 327.164
32.27000 323.252
32.28000 323.647
32.29000 325.977
32.30000 328.155
32.31000 328.188
32.32000 327.532
32.33000 326.487
32.34000 322.353
32.35000 317.551
32.36000 313.461
32.37000 319.644
32.38000 326.040
32.39000 330.138
32.40000 326.509
32.41000 322.252
32.42000 319.798
32.43000 321.475
32.44000 323.314
32.45000 324.440
32.46000 316.344
32.47000 310.473
32.48000 308.993
32.49000 312.015
32.50000 315.006
32.51000 314.692
32.52000 312.156
32.53000 309.680
32.54000 310.812
32.55000 313.468
32.56000 315.869
32.57000 314.908
32.58000 312.902
32.59000 311.070
32.60000 310.576
32.61000 310.359
32.62000 310.176
32.63000 308.172
32.64000 306.293
32.65000 304.514
32.66000 303.060
32.67000 301.632
32.68000 301.443
32.69000 303.996
32.70000 306.648
32.71000 308.246
32.72000 303.664
32.73000 300.359
32.74000 301.644
32.75000 307.449
32.76000 313.253
32.77000 319.078
32.78000 324.916
32.79000 330.601
32.80000 343.156
32.81000 358.007
32.82000 372.844
32.83000 387.499
32.84000 402.099
32.85000 417.283
32.86000 436.721
32.87000 457.011
32.88000 474.061
32.89000 487.269
32.90000 497.869
32.91000 507.603
32.92000 514.629
32.93000 521.458
32.94000 527.063
32.95000 530.050
32.96000 532.951
32.97000 534.672
32.98000 539.935
32.99000 543.678
33.00000 542.729
33.01000 537.343
33.02000 531.839
33.03000 517.371
33.04000 497.299
33.05000 477.799
33.06000 460.654
33.07000 445.317
33.08000 429.956
33.09000 414.301
33.10000 398.561
33.11000 383.190
33.12000 370.389
33.13000 358.084
33.14000 347.816
33.15000 337.025
33.16000 328.023
33.17000 319.982
33.18000 314.850
33.19000 309.916
33.20000 304.334
33.21000 297.414
33.22000 290.453
33.23000 286.388
33.24000 292.586
33.25000 296.993
33.26000 299.105
33.27000 299.132
33.28000 299.108
33.29000 295.764
33.30000 290.417
33.31000 285.236
33.32000 286.106
33.33000 289.280
33.34000 292.376
33.35000 294.582
33.36000 296.539
33.37000 298.087
33.38000 296.895
33.39000 295.195
33.40000 293.788
33.41000 290.944
33.42000 288.459
33.43000 287.219
33.44000 289.611
33.45000 292.236
33.46000 293.662
33.47000 292.699
33.48000 291.669
33.49000 291.078
33.50000 297.450
33.51000 301.926
33.52000 301.357
33.53000 296.384
33.54000 291.453
33.55000 289.041
33.56000 288.095
33.57000 287.180
33.58000 287.839
33.59000 289.050
33.60000 290.138
33.61000 289.912
33.62000 289.333
33.63000 289.594
33.64000 295.241
33.65000 301.844
33.66000 307.275
33.67000 299.041
33.68000 291.035
33.69000 285.246
33.70000 285.700
33.71000 286.530
33.72000 287.181
33.73000 287.487
33.74000 287.784
33.75000 287.951
33.76000 298.817
33.77000 306.386
33.78000 306.299
33.79000 299.784
33.80000 293.299
33.81000 288.397
33.82000 284.385
33.83000 280.518
33.84000 280.581
33.85000 282.054
33.86000 283.510
33.87000 284.789
33.88000 286.023
33.89000 286.879
33.90000 285.416
33.91000 283.558
33.92000 282.041
33.93000 280.766
33.94000 279.743
33.95000 280.090
33.96000 284.164
33.97000 288.447
33.98000 291.000
33.99000 290.343
34.00000 289.614
34.01000 289.209
34.02000 294.135
34.03000 297.536
34.04000 296.007
34.05000 290.493
34.06000 285.114
34.07000 285.834
34.08000 289.859
34.09000 293.727
34.10000 296.500
34.11000 298.718
34.12000 301.183
34.13000 306.031
34.14000 311.476
34.15000 315.697
34.16000 312.704
34.17000 308.530
34.18000 305.149
34.19000 298.985
34.20000 293.741
34.21000 290.473
34.22000 292.398
34.23000 294.597
34.24000 295.111
34.25000 292.604
34.26000 290.037
34.27000 288.637
34.28000 289.182
34.29000 289.563
34.30000 290.978
34.31000 293.196
34.32000 295.433
34.33000 298.418
34.34000 301.796
34.35000 305.031
34.36000 304.332
34.37000 302.369
34.38000 300.792
34.39000 302.753
34.40000 305.567
34.41000 308.142
34.42000 309.365
34.43000 310.376
34.44000 311.188
34.45000 306.499
34.46000 302.274
34.47000 299.894
34.48000 302.191
34.49000 304.717
34.50000 303.938
34.51000 297.444
34.52000 290.850
34.53000 287.317
34.54000 301.863
34.55000 311.737
34.56000 308.345
34.57000 295.017
34.58000 282.041
34.59000 282.110
34.60000 288.766
34.61000 295.121
34.62000 293.452
34.63000 289.332
34.64000 285.703
34.65000 286.361
34.66000 288.015
34.67000 288.620
34.68000 283.518
34.69000 277.556
34.70000 272.804
34.71000 270.591
34.72000 268.989
34.73000 268.581
34.74000 271.094
34.75000 273.741
34.76000 277.041
34.77000 281.432
34.78000 285.839
34.79000 288.157
34.80000 291.611
34.81000 293.924
34.82000 291.814
34.83000 286.512
34.84000 281.220
34.85000 276.250
34.86000 271.438
34.87000 266.858
34.88000 268.551
34.89000 272.050
34.90000 275.508
34.91000 278.621
34.92000 281.658
34.93000 283.597
34.94000 279.791
34.95000 275.156
34.96000 271.492
34.97000 266.245
34.98000 261.924
34.99000 260.290
35.00000 265.017
35.01000 270.012
35.02000 271.265
35.03000 266.495
35.04000 261.644
35.05000 259.143
35.06000 258.924
35.07000 258.801
35.08000 261.791
35.09000 266.946
35.10000 271.935
35.11000 271.850
35.12000 269.377
35.13000 267.031
35.14000 268.492
35.15000 270.968
35.16000 273.065
35.17000 272.157
35.18000 270.602
35.19000 269.133
35.20000 268.099
35.21000 267.125
35.22000 266.362
35.23000 267.599
35.24000 268.717
35.25000 268.656
35.26000 265.901
35.27000 263.040
35.28000 262.076
35.29000 264.057
35.30000 266.071
35.31000 267.090
35.32000 265.464
35.33000 264.382
35.34000 264.044
35.35000 264.204
35.36000 264.387
35.37000 265.226
35.38000 266.362
35.39000 267.436
35.40000 266.049
35.41000 264.076
35.42000 262.198
35.43000 261.044
35.44000 260.040
35.45000 259.474
35.46000 261.021
35.47000 262.847
35.48000 264.266
35.49000 267.211
35.50000 269.645
35.51000 271.387
35.52000 271.598
35.53000 271.754
35.54000 269.340
35.55000 263.079
35.56000 256.781
35.57000 255.475
35.58000 259.069
35.59000 262.602
35.60000 260.839
35.61000 255.655
35.62000 250.697
35.63000 251.575
35.64000 255.014
35.65000 258.253
35.66000 262.671
35.67000 267.035
35.68000 270.932
35.69000 271.438
35.70000 271.267
35.71000 270.673
35.72000 268.110
35.73000 265.299
35.74000 263.134
35.75000 264.482
35.76000 265.750
35.77000 265.390
35.78000 261.564
35.79000 257.624
35.80000 253.887
35.81000 250.444
35.82000 247.003
35.83000 246.511
35.84000 248.796
35.85000 251.106
35.86000 255.361
35.87000 260.828
35.88000 266.051
35.89000 265.492
35.90000 262.482
35.91000 259.658
35.92000 259.138
35.93000 259.271
35.94000 259.412
35.95000 259.618
35.96000 259.837
35.97000 259.911
35.98000 259.335
35.99000 258.681
36.00000 258.182
36.01000 253.218
36.02000 249.067
36.03000 247.619
36.04000 251.729
36.05000 256.007
36.06000 258.758
36.07000 259.389
36.08000 260.006
36.09000 259.249
36.10000 257.248
36.11000 255.283
36.12000 255.618
36.13000 257.337
36.14000 258.976
36.15000 258.853
36.16000 258.008
36.17000 257.219
36.18000 254.842
36.19000 252.284
36.20000 250.583
36.21000 254.590
36.22000 259.650
36.23000 262.622
36.24000 256.579
36.25000 249.499
36.26000 244.148
36.27000 243.771
36.28000 243.723
36.29000 243.602
36.30000 243.333
36.31000 243.061
36.32000 243.778
36.33000 245.820
36.34000 247.868
36.35000 251.612
36.36000 256.822
36.37000 261.930
36.38000 261.162
36.39000 256.987
36.40000 253.072
36.41000 254.493
36.42000 258.023
36.43000 261.308
36.44000 260.544
36.45000 258.872
36.46000 258.083
36.47000 262.936
36.48000 268.789
36.49000 271.614
36.50000 261.851
36.51000 250.707
36.52000 242.365
36.53000 249.312
36.54000 255.448
36.55000 258.441
36.56000 255.408
36.57000 252.227
36.58000 252.214
36.59000 256.287
36.60000 260.371
36.61000 260.045
36.62000 256.037
36.63000 252.036
36.64000 248.387
36.65000 244.934
36.66000 242.000
36.67000 248.937
36.68000 259.642
36.69000 269.564
36.70000 271.065
36.71000 270.454
36.72000 269.616
36.73000 267.389
36.74000 264.926
36.75000 262.132
36.76000 258.017
36.77000 253.764
36.78000 250.612
36.79000 250.548
36.80000 250.633
36.81000 250.476
36.82000 249.870
36.83000 249.254
36.84000 255.180
36.85000 269.225
36.86000 283.271
36.87000 284.082
36.88000 274.274
36.89000 264.632
36.90000 262.519
36.91000 264.473
36.92000 266.472
36.93000 269.267
36.94000 272.355
36.95000 275.205
36.96000 265.885
36.97000 254.810
36.98000 246.025
36.99000 250.697
37.00000 257.566
37.01000 263.734
37.02000 267.197
37.03000 270.391
37.04000 272.735
37.05000 267.928
37.06000 263.923
37.07000 263.759
37.08000 270.455
37.09000 277.287
37.10000 278.995
37.11000 274.585
37.12000 270.173
37.13000 267.816
37.14000 267.058
37.15000 266.267
37.16000 264.166
37.17000 261.382
37.18000 258.694
37.19000 257.605
37.20000 257.085
37.21000 256.607
37.22000 259.761
37.23000 263.356
37.24000 266.028
37.25000 263.491
37.26000 260.139
37.27000 257.662
37.28000 258.443
37.29000 259.532
37.30000 260.322
37.31000 253.911
37.32000 248.711
37.33000 248.068
37.34000 255.282
37.35000 262.633
37.36000 265.620
37.37000 263.595
37.38000 261.570
37.39000 258.187
37.40000 253.824
37.41000 249.590
37.42000 250.102
37.43000 253.004
37.44000 255.733
37.45000 255.745
37.46000 254.823
37.47000 253.980
37.48000 257.628
37.49000 261.794
37.50000 264.047
37.51000 255.930
37.52000 246.255
37.53000 239.432
37.54000 242.850
37.55000 247.186
37.56000 250.301
37.57000 254.608
37.58000 257.945
37.59000 257.106
37.60000 249.319
37.61000 241.427
37.62000 237.156
37.63000 236.883
37.64000 236.613
37.65000 240.740
37.66000 247.962
37.67000 254.916
37.68000 252.955
37.69000 246.662
37.70000 240.825
37.71000 241.711
37.72000 244.826
37.73000 247.662
37.74000 250.652
37.75000 253.328
37.76000 254.807
37.77000 250.051
37.78000 244.397
37.79000 240.488
37.80000 242.623
37.81000 245.271
37.82000 247.153
37.83000 250.033
37.84000 252.257
37.85000 251.135
37.86000 244.641
37.87000 238.077
37.88000 234.551
37.89000 234.248
37.90000 233.947
37.91000 239.087
37.92000 247.898
37.93000 256.336
37.94000 253.455
37.95000 245.261
37.96000 237.301
37.97000 232.573
37.98000 228.879
37.99000 225.534
38.00000 232.268
38.01000 240.111
38.02000 247.152
38.03000 250.173
38.04000 252.642
38.05000 254.000
38.06000 251.646
38.07000 248.994
38.08000 247.130
38.09000 246.169
38.10000 245.467
38.11000 249.597
38.12000 261.205
38.13000 272.898
38.14000 276.221
38.15000 271.016
38.16000 265.840
38.17000 264.343
38.18000 265.291
38.19000 266.192
38.20000 265.792
38.21000 264.803
38.22000 264.163
38.23000 268.086
38.24000 273.419
38.25000 278.226
38.26000 282.120
38.27000 285.372
38.28000 289.905
38.29000 300.617
38.30000 312.142
38.31000 320.484
38.32000 318.560
38.33000 315.855
38.34000 313.976
38.35000 334.378
38.36000 350.354
38.37000 362.039
38.38000 367.324
38.39000 372.547
38.40000 381.634
38.41000 394.499
38.42000 407.275
38.43000 428.184
38.44000 453.923
38.45000 479.340
38.46000 496.504
38.47000 510.056
38.48000 523.135
38.49000 530.348
38.50000 535.812
38.51000 540.711
38.52000 576.104
38.53000 612.328
38.54000 645.064
38.55000 661.609
38.56000 676.117
38.57000 692.267
38.58000 713.532
38.59000 735.164
38.60000 750.023
38.61000 763.821
38.62000 774.141
38.63000 783.100
38.64000 790.101
38.65000 797.086
38.66000 805.870
38.67000 816.343
38.68000 826.730
38.69000 834.729
38.70000 841.125
38.71000 847.086
38.72000 842.722
38.73000 833.995
38.74000 825.541
38.75000 820.279
38.76000 815.936
38.77000 812.062
38.78000 781.889
38.79000 751.262
38.80000 721.905
38.81000 698.215
38.82000 675.206
38.83000 655.547
38.84000 645.955
38.85000 637.044
38.86000 630.995
38.87000 593.582
38.88000 564.974
38.89000 540.029
38.90000 520.161
38.91000 500.325
38.92000 480.499
38.93000 460.681
38.94000 441.053
38.95000 422.615
38.96000 405.255
38.97000 387.760
38.98000 367.279
38.99000 345.580
39.00000 325.035
39.01000 317.308
39.02000 313.139
39.03000 309.440
39.04000 296.385
39.05000 283.587
39.06000 273.072
39.07000 272.378
39.08000 272.811
39.09000 271.186
39.10000 263.592
39.11000 255.620
39.12000 250.275
39.13000 257.978
39.14000 263.957
39.15000 263.501
39.16000 254.456
39.17000 245.377
39.18000 243.879
39.19000 248.959
39.20000 253.983
39.21000 251.112
39.22000 243.849
39.23000 236.992
39.24000 238.400
39.25000 243.067
39.26000 247.115
39.27000 244.641
39.28000 240.423
39.29000 236.701
39.30000 232.727
39.31000 229.261
39.32000 227.784
39.33000 234.547
39.34000 242.211
39.35000 245.179
39.36000 234.990
39.37000 224.017
39.38000 216.753
39.39000 222.668
39.40000 227.272
39.41000 231.636
39.42000 235.690
39.43000 239.736
39.44000 240.392
39.45000 238.218
39.46000 236.071
39.47000 236.982
39.48000 239.533
39.49000 241.823
39.50000 239.200
39.51000 234.707
39.52000 230.237
39.53000 226.007
39.54000 221.838
39.55000 218.181
39.56000 223.679
39.57000 229.733
39.58000 233.827
39.59000 230.090
39.60000 225.539
39.61000 222.987
39.62000 225.840
39.63000 228.995
39.64000 231.057
39.65000 232.341
39.66000 233.271
39.67000 231.192
39.68000 225.390
39.69000 219.595
39.70000 220.079
39.71000 225.603
39.72000 231.047
39.73000 233.065
39.74000 233.233
39.75000 233.433
39.76000 234.198
39.77000 235.170
39.78000 235.918
39.79000 234.522
39.80000 232.593
39.81000 230.912
39.82000 221.256
39.83000 211.891
39.84000 206.394
39.85000 215.785
39.86000 226.649
39.87000 234.907
39.88000 236.358
39.89000 237.454
39.90000 238.161
39.91000 226.941
39.92000 218.576
39.93000 215.482
39.94000 218.667
39.95000 221.845
39.96000 220.833
39.97000 216.582
39.98000 212.399
39.99000 211.878
40.00000 213.215
40.01000 214.597
40.02000 216.699
40.03000 219.058
40.04000 220.932
40.05000 218.412
40.06000 214.839
40.07000 211.741
40.08000 219.055
40.09000 226.663
40.10000 232.679
40.11000 232.782
40.12000 232.330
40.13000 231.444
40.14000 229.467
40.15000 227.436
40.16000 226.145
40.17000 230.135
40.18000 233.101
40.19000 232.977
40.20000 229.317
40.21000 225.654
40.22000 222.329
40.23000 219.254
40.24000 216.235
40.25000 216.954
40.26000 219.460
40.27000 221.633
40.28000 218.611
40.29000 213.810
40.30000 209.412
40.31000 208.506
40.32000 208.406
40.33000 208.319
40.34000 210.836
40.35000 213.299
40.36000 216.196
40.37000 220.652
40.38000 225.248
40.39000 227.068
40.40000 222.132
40.41000 216.892
40.42000 213.604
40.43000 208.836
40.44000 205.375
40.45000 205.842
40.46000 210.631
40.47000 215.416
40.48000 219.097
40.49000 221.986
40.50000 224.818
40.51000 221.889
40.52000 216.386
40.53000 211.213
40.54000 210.899
40.55000 212.191
40.56000 213.185
40.57000 211.713
40.58000 209.693
40.59000 207.964
40.60000 211.794
40.61000 215.697
40.62000 218.005
40.63000 214.803
40.64000 211.135
40.65000 208.188
40.66000 206.938
40.67000 205.757
40.68000 205.028
40.69000 206.134
40.70000 206.947
40.71000 209.558
40.72000 214.071
40.73000 218.559
40.74000 219.883
40.75000 219.020
40.76000 218.177
40.77000 217.908
40.78000 217.907
40.79000 217.619
40.80000 213.372
40.81000 207.862
40.82000 203.317
40.83000 206.395
40.84000 211.104
40.85000 215.108
40.86000 214.984
40.87000 214.405
40.88000 213.758
40.89000 212.886
40.90000 211.995
40.91000 210.850
40.92000 209.127
40.93000 207.381
40.94000 206.317
40.95000 210.866
40.96000 214.162
40.97000 214.655
40.98000 212.303
40.99000 209.971
41.00000 209.630
41.01000 210.614
41.02000 211.575
41.03000 214.994
41.04000 219.323
41.05000 223.021
41.06000 218.496
41.07000 211.437
41.08000 205.260
41.09000 205.738
41.10000 207.587
41.11000 209.148
41.12000 201.047
41.13000 193.216
41.14000 188.318
41.15000 192.854
41.16000 198.104
41.17000 200.936
41.18000 198.467
41.19000 195.809
41.20000 194.214
41.21000 198.789
41.22000 202.081
41.23000 202.842
41.24000 201.137
41.25000 199.424
41.26000 197.073
41.27000 194.311
41.28000 191.624
41.29000 193.203
41.30000 196.480
41.31000 199.558
41.32000 200.188
41.33000 200.089
41.34000 200.262
41.35000 202.401
41.36000 204.930
41.37000 207.052
41.38000 204.400
41.39000 201.695
41.40000 200.418
41.41000 203.576
41.42000 207.051
41.43000 209.455
41.44000 209.592
41.45000 209.656
41.46000 209.694
41.47000 213.292
41.48000 215.854
41.49000 217.302
41.50000 217.708
41.51000 218.053
41.52000 213.890
41.53000 206.934
41.54000 200.181
41.55000 201.495
41.56000 205.968
41.57000 210.077
41.58000 209.941
41.59000 208.586
41.60000 206.973
41.61000 203.573
41.62000 199.834
41.63000 196.718
41.64000 198.248
41.65000 199.976
41.66000 200.810
41.67000 198.964
41.68000 196.937
41.69000 196.374
41.70000 198.804
41.71000 201.322
41.72000 202.786
41.73000 201.235
41.74000 200.134
41.75000 201.759
41.76000 205.837
41.77000 209.803
41.78000 206.655
41.79000 199.257
41.80000 192.093
41.81000 194.193
41.82000 199.744
41.83000 204.639
41.84000 202.277
41.85000 197.906
41.86000 194.916
41.87000 201.061
41.88000 208.879
41.89000 215.344
41.90000 206.665
41.91000 198.081
41.92000 192.179
41.93000 194.039
41.94000 196.389
41.95000 197.638
41.96000 196.716
41.97000 195.735
41.98000 195.173
41.99000 189.558
42.00000 185.626
42.01000 187.205
42.02000 193.549
42.03000 199.850
42.04000 203.757
42.05000 206.284
42.06000 208.724
42.07000 203.987
42.08000 196.865
42.09000 190.590
42.10000 193.192
42.11000 198.164
42.12000 202.778
42.13000 205.121
42.14000 207.065
42.15000 208.661
42.16000 202.273
42.17000 196.315
42.18000 192.793
42.19000 196.071
42.20000 199.752
42.21000 202.752
42.22000 204.456
42.23000 206.128
42.24000 207.068
42.25000 202.619
42.26000 199.522
42.27000 198.947
42.28000 200.469
42.29000 201.949
42.30000 201.326
42.31000 199.534
42.32000 197.809
42.33000 195.398
42.34000 192.891
42.35000 191.165
42.36000 197.225
42.37000 205.289
42.38000 211.978
42.39000 210.307
42.40000 207.225
42.41000 204.713
42.42000 202.078
42.43000 199.914
42.44000 197.564
42.45000 194.712
42.46000 191.832
42.47000 190.989
42.48000 193.892
42.49000 196.876
42.50000 198.527
42.51000 196.244
42.52000 194.676
42.53000 197.880
42.54000 204.904
42.55000 211.799
42.56000 212.996
42.57000 211.133
42.58000 209.344
42.59000 204.367
42.60000 198.619
42.61000 193.334
42.62000 192.445
42.63000 192.646
42.64000 193.083
42.65000 194.904
42.66000 196.949
42.67000 198.602
42.68000 198.921
42.69000 199.074
42.70000 200.673
42.71000 206.037
42.72000 211.596
42.73000 213.891
42.74000 210.392
42.75000 206.780
42.76000 204.818
42.77000 197.883
42.78000 193.141
42.79000 192.902
42.80000 196.132
42.81000 199.274
42.82000 198.865
42.83000 196.615
42.84000 194.462
42.85000 200.806
42.86000 209.520
42.87000 217.297
42.88000 216.605
42.89000 213.889
42.90000 210.812
42.91000 205.708
42.92000 200.288
42.93000 195.942
42.94000 196.770
42.95000 197.833
42.96000 198.870
42.97000 199.841
42.98000 200.809
42.99000 200.321
43.00000 197.335
43.01000 194.307
43.02000 192.692
43.03000 191.287
43.04000 190.348
43.05000 192.871
43.06000 197.964
43.07000 202.965
43.08000 204.652
43.09000 204.681
43.10000 204.709
43.11000 202.257
43.12000 199.194
43.13000 196.640
43.14000 198.465
43.15000 201.299
43.16000 203.797
43.17000 204.484
43.18000 204.901
43.19000 205.232
43.20000 200.552
43.21000 196.423
43.22000 195.035
43.23000 200.304
43.24000 205.872
43.25000 207.700
43.26000 203.346
43.27000 198.898
43.28000 196.571
43.29000 199.728
43.30000 201.843
43.31000 200.318
43.32000 196.192
43.33000 192.201
43.34000 192.643
43.35000 195.228
43.36000 197.686
43.37000 200.032
43.38000 202.167
43.39000 203.639
43.40000 199.662
43.41000 194.476
43.42000 189.619
43.43000 186.463
43.44000 183.550
43.45000 181.253
43.46000 186.153
43.47000 190.568
43.48000 192.987
43.49000 190.720
43.50000 188.260
43.51000 187.777
43.52000 190.449
43.53000 193.162
43.54000 194.554
43.55000 196.507
43.56000 197.789
43.57000 195.350
43.58000 190.348
43.59000 185.512
43.60000 185.624
43.61000 188.046
43.62000 190.341
43.63000 190.565
43.64000 190.165
43.65000 189.862
43.66000 190.328
43.67000 190.959
43.68000 191.036
43.69000 188.356
43.70000 185.299
43.71000 182.909
43.72000 190.135
43.73000 196.515
43.74000 199.489
43.75000 194.752
43.76000 189.720
43.77000 186.106
43.78000 184.673
43.79000 183.264
43.80000 182.556
43.81000 186.024
43.82000 188.311
43.83000 187.537
43.84000 184.731
43.85000 182.088
43.86000 183.882
43.87000 187.677
43.88000 191.261
43.89000 186.781
43.90000 180.398
43.91000 175.305
43.92000 179.903
43.93000 186.491
43.94000 193.214
43.95000 200.579
43.96000 208.028
43.97000 213.803
43.98000 208.848
43.99000 204.270
44.00000 199.218
44.01000 193.128
44.02000 187.001
44.03000 182.991
44.04000 182.121
44.05000 181.280
44.06000 183.248
44.07000 187.945
44.08000 192.609
44.09000 194.515
44.10000 194.654
44.11000 194.747
44.12000 193.650
44.13000 192.036
44.14000 190.517
44.15000 191.374
44.16000 192.800
44.17000 194.112
44.18000 194.601
44.19000 194.927
44.20000 194.943
44.21000 193.534
44.22000 191.947
44.23000 190.727
44.24000 191.587
44.25000 192.383
44.26000 194.386
44.27000 198.934
44.28000 203.565
44.29000 205.546
44.30000 203.740
44.31000 201.905
44.32000 200.530
44.33000 199.585
44.34000 198.645
44.35000 198.110
44.36000 197.826
44.37000 197.575
44.38000 198.095
44.39000 198.939
44.40000 199.730
44.41000 197.845
44.42000 195.432
44.43000 193.252
44.44000 192.676
44.45000 192.404
44.46000 192.420
44.47000 193.710
44.48000 195.153
44.49000 196.252
44.50000 202.218
44.51000 207.170
44.52000 211.564
44.53000 214.823
44.54000 218.048
44.55000 218.157
44.56000 213.974
44.57000 209.766
44.58000 208.414
44.59000 209.620
44.60000 210.892
44.61000 216.254
44.62000 224.052
44.63000 231.510
44.64000 231.586
44.65000 228.668
44.66000 225.943
44.67000 225.275
44.68000 225.183
44.69000 226.142
44.70000 234.022
44.71000 243.166
44.72000 250.181
44.73000 248.093
44.74000 244.969
44.75000 242.614
44.76000 249.599
44.77000 255.529
44.78000 258.312
44.79000 254.901
44.80000 251.324
44.81000 249.323
44.82000 249.411
44.83000 249.509
44.84000 254.489
44.85000 263.658
44.86000 272.720
44.87000 275.889
44.88000 275.669
44.89000 275.602
44.90000 278.594
44.91000 282.786
44.92000 286.683
44.93000 290.808
44.94000 294.586
44.95000 297.754
44.96000 297.064
44.97000 295.699
44.98000 295.168
44.99000 298.074
45.00000 301.352
45.01000 303.800
45.02000 304.605
45.03000 305.156
45.04000 305.619
45.05000 305.914
45.06000 306.205
45.07000 304.556
45.08000 300.430
45.09000 296.300
45.10000 292.682
45.11000 289.498
45.12000 286.397
45.13000 287.335
45.14000 290.514
45.15000 293.216
45.16000 286.994
45.17000 277.394
45.18000 268.506
45.19000 275.685
45.20000 285.845
45.21000 293.747
45.22000 287.973
45.23000 279.896
45.24000 271.968
45.25000 264.628
45.26000 257.349
45.27000 251.966
45.28000 255.369
45.29000 258.383
45.30000 258.830
45.31000 254.566
45.32000 250.201
45.33000 245.622
45.34000 240.780
45.35000 235.946
45.36000 235.724
45.37000 239.168
45.38000 242.607
45.39000 245.862
45.40000 249.017
45.41000 251.956
45.42000 251.094
45.43000 248.843
45.44000 246.769
45.45000 240.822
45.46000 234.640
45.47000 228.751
45.48000 224.566
45.49000 220.656
45.50000 217.492
45.51000 217.181
45.52000 217.150
45.53000 217.128
45.54000 219.132
45.55000 220.759
45.56000 221.772
45.57000 221.699
45.58000 221.604
45.59000 220.169
45.60000 217.149
45.61000 214.133
45.62000 212.133
45.63000 210.921
45.64000 209.719
45.65000 208.896
45.66000 208.270
45.67000 207.725
45.68000 208.511
45.69000 209.767
45.70000 210.919
45.71000 208.799
45.72000 206.215
45.73000 203.264
45.74000 198.272
45.75000 192.964
45.76000 189.240
45.77000 191.363
45.78000 194.031
45.79000 195.963
45.80000 196.067
45.81000 196.079
45.82000 194.883
45.83000 191.622
45.84000 188.327
45.85000 186.655
45.86000 186.832
45.87000 187.010
45.88000 184.426
45.89000 179.834
45.90000 175.394
45.91000 176.333
45.92000 179.957
45.93000 183.276
45.94000 181.904
45.95000 178.935
45.96000 176.222
45.97000 179.305
45.98000 183.224
45.99000 186.489
46.00000 186.251
46.01000 185.491
46.02000 183.887
46.03000 179.274
46.04000 174.395
46.05000 170.898
46.06000 168.619
46.07000 166.920
46.08000 168.796
46.09000 176.567
46.10000 184.424
46.11000 184.789
46.12000 176.961
46.13000 169.161
46.14000 169.410
46.15000 175.337
46.16000 181.008
46.17000 178.375
46.18000 171.740
46.19000 165.680
46.20000 167.960
46.21000 172.982
46.22000 177.547
46.23000 176.550
46.24000 174.582
46.25000 172.611
46.26000 170.633
46.27000 168.654
46.28000 168.418
46.29000 174.166
46.30000 180.415
46.31000 184.845
46.32000 180.609
46.33000 177.116
46.34000 173.460
46.35000 169.543
46.36000 165.622
46.37000 165.280
46.38000 168.696
46.39000 172.095
46.40000 174.748
46.41000 176.863
46.42000 178.863
46.43000 177.440
46.44000 174.425
46.45000 171.537
46.46000 170.403
46.47000 169.826
46.48000 169.303
46.49000 169.048
46.50000 168.873
46.51000 169.736
46.52000 175.750
46.53000 182.466
46.54000 185.881
46.55000 178.365
46.56000 169.982
46.57000 164.106
46.58000 172.653
46.59000 179.534
46.60000 182.467
46.61000 179.346
46.62000 176.160
46.63000 174.106
46.64000 173.193
46.65000 172.285
46.66000 175.635
46.67000 181.719
46.68000 187.527
46.69000 185.828
46.70000 180.756
46.71000 176.110
46.72000 176.962
46.73000 179.499
46.74000 181.782
46.75000 179.747
46.76000 177.187
46.77000 175.285
46.78000 176.520
46.79000 178.163
46.80000 179.251
46.81000 178.567
46.82000 177.749
46.83000 177.183
46.84000 174.006
46.85000 171.547
46.86000 169.642
46.87000 168.559
46.88000 167.483
46.89000 167.951
46.90000 169.913
46.91000 171.861
46.92000 172.748
46.93000 172.955
46.94000 173.235
46.95000 175.386
46.96000 178.349
46.97000 180.604
46.98000 174.233
46.99000 165.311
47.00000 157.322
47.01000 161.850
47.02000 167.953
47.03000 172.815
47.04000 171.969
47.05000 170.413
47.06000 168.945
47.07000 167.745
47.08000 166.565
47.09000 165.756
47.10000 168.099
47.11000 169.928
47.12000 169.385
47.13000 165.462
47.14000 161.513
47.15000 159.347
47.16000 158.838
47.17000 158.333
47.18000 159.443
47.19000 161.507
47.20000 163.411
47.21000 161.611
47.22000 158.257
47.23000 155.407
47.24000 158.363
47.25000 162.974
47.26000 167.082
47.27000 170.456
47.28000 173.268
47.29000 174.315
47.30000 167.551
47.31000 159.860
47.32000 155.355
47.33000 160.342
47.34000 165.961
47.35000 169.762
47.36000 160.561
47.37000 153.423
47.38000 148.780
47.39000 147.561
47.40000 146.364
47.41000 147.789
47.42000 151.557
47.43000 155.286
47.44000 156.893
47.45000 157.232
47.46000 157.708
47.47000 161.135
47.48000 165.756
47.49000 169.972
47.50000 169.753
47.51000 168.314
47.52000 167.039
47.53000 166.169
47.54000 165.480
47.55000 164.312
47.56000 161.097
47.57000 157.651
47.58000 155.621
47.59000 157.661
47.60000 159.956
47.61000 161.490
47.62000 158.408
47.63000 156.033
47.64000 155.014
47.65000 155.787
47.66000 156.570
47.67000 158.805
47.68000 162.286
47.69000 165.728
47.70000 164.804
47.71000 161.459
47.72000 158.272
47.73000 158.233
47.74000 159.425
47.75000 160.459
47.76000 159.846
47.77000 158.798
47.78000 157.874
47.79000 159.405
47.80000 161.094
47.81000 162.855
47.82000 164.912
47.83000 167.001
47.84000 167.816
47.85000 165.094
47.86000 162.165
47.87000 160.232
47.88000 159.682
47.89000 159.300
47.90000 159.829
47.91000 161.518
47.92000 163.205
47.93000 162.276
47.94000 159.186
47.95000 156.136
47.96000 156.325
47.97000 158.253
47.98000 160.125
47.99000 160.958
48.00000 161.399
48.01000 161.720
48.02000 160.851
48.03000 159.678
48.04000 158.651
48.05000 156.992
48.06000 155.479
48.07000 153.745
48.08000 151.136
48.09000 148.437
48.10000 147.504
48.11000 151.305
48.12000 155.365
48.13000 158.010
48.14000 157.279
48.15000 156.690
48.16000 156.538
48.17000 156.921
48.18000 157.313
48.19000 160.384
48.20000 165.585
48.21000 170.709
48.22000 170.070
48.23000 166.465
48.24000 163.038
48.25000 162.720
48.26000 163.535
48.27000 164.137
48.28000 162.737
48.29000 160.842
48.30000 159.193
48.31000 156.508
48.32000 154.073
48.33000 153.090
48.34000 157.643
48.35000 162.738
48.36000 165.609
48.37000 162.722
48.38000 159.541
48.39000 157.496
48.40000 163.133
48.41000 167.351
48.42000 168.800
48.43000 166.983
48.44000 165.154
48.45000 161.776
48.46000 157.213
48.47000 152.726
48.48000 152.355
48.49000 154.048
48.50000 155.583
48.51000 154.527
48.52000 152.559
48.53000 151.109
48.54000 154.302
48.55000 158.597
48.56000 162.313
48.57000 162.092
48.58000 161.387
48.59000 160.225
48.60000 157.383
48.61000 154.385
48.62000 152.561
48.63000 153.669
48.64000 154.917
48.65000 155.708
48.66000 149.581
48.67000 145.052
48.68000 142.847
48.69000 143.275
48.70000 143.723
48.71000 147.196
48.72000 152.900
48.73000 158.498
48.74000 159.615
48.75000 158.542
48.76000 157.464
48.77000 156.323
48.78000 155.159
48.79000 154.147
48.80000 154.434
48.81000 155.018
48.82000 155.520
48.83000 155.183
48.84000 154.792
48.85000 155.162
48.86000 158.233
48.87000 161.542
48.88000 163.027
48.89000 160.109
48.90000 156.997
48.91000 155.052
48.92000 155.509
48.93000 155.864
48.94000 157.262
48.95000 159.799
48.96000 162.328
48.97000 163.752
48.98000 164.391
48.99000 165.017
49.00000 161.455
49.01000 156.097
49.02000 151.040
49.03000 150.341
49.04000 151.070
49.05000 151.944
49.06000 154.001
49.07000 156.319
49.08000 158.300
49.09000 158.705
49.10000 158.859
49.11000 158.710
49.12000 157.524
49.13000 156.251
49.14000 153.971
49.15000 149.345
49.16000 144.623
49.17000 141.714
49.18000 144.318
49.19000 146.237
49.20000 147.886
49.21000 149.253
49.22000 150.601
49.23000 149.758
49.24000 147.415
49.25000 145.124
49.26000 146.072
49.27000 148.420
49.28000 150.671
49.29000 151.614
49.30000 152.143
49.31000 152.376
49.32000 150.302
49.33000 147.739
49.34000 145.563
49.35000 148.859
49.36000 152.246
49.37000 154.407
49.38000 152.519
49.39000 150.313
49.40000 149.502
49.41000 151.837
49.42000 154.290
49.43000 155.779
49.44000 156.579
49.45000 157.144
49.46000 159.512
49.47000 163.691
49.48000 167.802
49.49000 165.282
49.50000 158.386
49.51000 151.661
49.52000 149.269
49.53000 148.837
49.54000 148.568
49.55000 150.381
49.56000 152.831
49.57000 154.765
49.58000 152.856
49.59000 150.163
49.60000 147.892
49.61000 147.041
49.62000 146.484
49.63000 147.313
49.64000 152.556
49.65000 158.128
49.66000 160.909
49.67000 157.621
49.68000 154.122
49.69000 152.031
49.70000 157.145
49.71000 160.819
49.72000 161.788
49.73000 160.147
49.74000 158.495
49.75000 155.997
49.76000 152.960
49.77000 150.005
49.78000 149.763
49.79000 150.649
49.80000 151.375
49.81000 150.155
49.82000 148.363
49.83000 146.773
49.84000 146.630
49.85000 146.771
49.86000 146.889
49.87000 147.671
49.88000 148.389
49.89000 148.664
49.90000 147.576
49.91000 146.392
49.92000 146.176
49.93000 147.991
49.94000 149.870
49.95000 150.976
49.96000 152.694
49.97000 153.911
49.98000 157.108
49.99000 162.142
50.00000 167.077
50.01000 164.967
50.02000 158.532
50.03000 152.288
50.04000 152.480
50.05000 155.213
50.06000 157.622
50.07000 156.319
50.08000 153.961
50.09000 151.912
50.10000 151.982
50.11000 152.451
50.12000 152.841
50.13000 152.579
50.14000 152.298
50.15000 152.764
50.16000 155.452
50.17000 158.286
50.18000 161.482
50.19000 165.410
50.20000 169.360
50.21000 171.647
50.22000 165.625
50.23000 161.371
50.24000 162.620
50.25000 168.767
50.26000 174.780
50.27000 172.405
50.28000 165.064
50.29000 157.959
50.30000 158.848
50.31000 162.735
50.32000 166.059
50.33000 163.243
50.34000 158.744
50.35000 155.608
50.36000 161.393
50.37000 168.797
50.38000 174.909
50.39000 181.589
50.40000 187.145
50.41000 191.416
50.42000 192.006
50.43000 192.366
50.44000 194.313
50.45000 199.364
50.46000 204.497
50.47000 207.421
50.48000 207.363
50.49000 207.309
50.50000 204.849
50.51000 200.328
50.52000 195.883
50.53000 195.563
50.54000 197.601
50.55000 199.568
50.56000 203.777
50.57000 208.561
50.58000 212.564
50.59000 208.471
50.60000 202.238
50.61000 197.315
50.62000 200.617
50.63000 205.351
50.64000 209.229
50.65000 204.764
50.66000 200.368
50.67000 198.824
50.68000 205.177
50.69000 211.990
50.70000 217.090
50.71000 218.954
50.72000 220.741
50.73000 221.742
50.74000 204.915
50.75000 193.231
50.76000 190.371
50.77000 194.780
50.78000 199.077
50.79000 198.035
50.80000 194.048
50.81000 190.211
50.82000 185.652
50.83000 181.120
50.84000 177.163
50.85000 178.857
50.86000 181.992
50.87000 184.844
50.88000 185.994
50.89000 186.860
50.90000 187.564
50.91000 179.079
50.92000 171.386
50.93000 165.884
50.94000 166.234
50.95000 166.904
50.96000 166.628
50.97000 164.629
50.98000 162.593
50.99000 161.472
51.00000 155.005
51.01000 150.562
51.02000 152.658
51.03000 159.936
51.04000 167.071
51.05000 168.028
51.06000 165.697
51.07000 163.461
51.08000 159.176
51.09000 154.478
51.10000 150.243
51.11000 150.358
51.12000 151.542
51.13000 152.355
51.14000 151.023
51.15000 149.348
51.16000 147.997
51.17000 146.114
51.18000 144.542
51.19000 142.429
51.20000 138.918
51.21000 135.336
51.22000 136.799
51.23000 147.140
51.24000 157.647
51.25000 163.327
51.26000 160.548
51.27000 158.632
51.28000 155.885
51.29000 152.504
51.30000 149.184
51.31000 148.232
51.32000 148.497
51.33000 148.750
51.34000 150.311
51.35000 152.190
51.36000 153.886
51.37000 153.957
51.38000 153.642
51.39000 152.718
51.40000 148.416
51.41000 143.594
51.42000 139.736
51.43000 140.709
51.44000 141.858
51.45000 142.949
51.46000 143.896
51.47000 144.836
51.48000 143.845
51.49000 139.576
51.50000 135.252
51.51000 132.957
51.52000 134.299
51.53000 135.220
51.54000 137.319
51.55000 140.283
51.56000 143.233
51.57000 145.662
51.58000 147.833
51.59000 149.902
51.60000 149.460
51.61000 148.262
51.62000 147.373
51.63000 149.116
51.64000 151.460
51.65000 152.795
51.66000 148.747
51.67000 143.906
51.68000 140.064
51.69000 143.539
51.70000 146.851
51.71000 149.747
51.72000 151.637
51.73000 153.483
51.74000 153.357
51.75000 149.998
51.76000 146.593
51.77000 144.820
51.78000 138.449
51.79000 134.150
51.80000 131.068
51.81000 128.848
51.82000 126.738
51.83000 128.165
51.84000 131.288
51.85000 134.254
51.86000 133.963
51.87000 132.709
51.88000 131.809
51.89000 133.783
51.90000 136.389
51.91000 138.645
51.92000 139.115
51.93000 139.332
51.94000 139.503
51.95000 140.111
51.96000 140.628
51.97000 141.351
51.98000 142.555
51.99000 143.778
52.00000 143.045
52.01000 139.221
52.02000 135.359
52.03000 133.386
52.04000 141.809
52.05000 147.405
52.06000 146.143
52.07000 140.200
52.08000 134.475
52.09000 135.111
52.10000 138.690
52.11000 142.078
52.12000 137.214
52.13000 130.342
52.14000 125.147
52.15000 132.981
52.16000 143.568
52.17000 151.799
52.18000 148.414
52.19000 143.460
52.20000 139.594
52.21000 138.425
52.22000 137.662
52.23000 137.585
52.24000 139.047
52.25000 140.567
52.26000 140.751
52.27000 138.899
52.28000 137.026
52.29000 136.089
52.30000 139.860
52.31000 142.329
52.32000 140.484
52.33000 135.799
52.34000 131.388
52.35000 134.335
52.36000 140.568
52.37000 146.448
52.38000 145.321
52.39000 142.333
52.40000 139.550
52.41000 138.290
52.42000 137.340
52.43000 136.545
52.44000 136.480
52.45000 136.510
52.46000 136.533
52.47000 134.683
52.48000 133.105
52.49000 133.127
52.50000 136.619
52.51000 140.232
52.52000 141.545
52.53000 139.482
52.54000 137.390
52.55000 135.807
52.56000 134.715
52.57000 133.660
52.58000 135.598
52.59000 139.435
52.60000 143.067
52.61000 141.628
52.62000 138.001
52.63000 134.593
52.64000 137.415
52.65000 141.662
52.66000 144.919
52.67000 141.145
52.68000 135.996
52.69000 132.173
52.70000 134.409
52.71000 137.392
52.72000 139.679
52.73000 137.698
52.74000 135.898
52.75000 135.498
52.76000 138.027
52.77000 140.649
52.78000 138.752
52.79000 130.458
52.80000 122.118
52.81000 120.085
52.82000 123.875
52.83000 127.655
52.84000 130.767
52.85000 133.471
52.86000 136.199
52.87000 139.481
52.88000 142.994
52.89000 146.284
52.90000 144.064
52.91000 140.626
52.92000 138.031
52.93000 141.166
52.94000 145.378
52.95000 148.641
52.96000 147.728
52.97000 146.323
52.98000 145.256
52.99000 145.669
53.00000 146.070
53.01000 145.064
53.02000 141.214
53.03000 137.283
53.04000 134.851
53.05000 134.463
53.06000 134.087
53.07000 136.030
53.08000 140.025
53.09000 143.986
53.10000 145.835
53.11000 146.436
53.12000 146.960
53.13000 145.843
53.14000 144.067
53.15000 142.411
53.16000 142.595
53.17000 143.218
53.18000 143.868
53.19000 144.696
53.20000 145.556
53.21000 146.624
53.22000 148.571
53.23000 150.617
53.24000 152.156
53.25000 150.617
53.26000 149.264
53.27000 149.398
53.28000 152.433
53.29000 155.543
53.30000 157.211
53.31000 156.984
53.32000 156.749
53.33000 156.290
53.34000 155.641
53.35000 155.007
53.36000 155.128
53.37000 155.680
53.38000 156.091
53.39000 153.725
53.40000 150.279
53.41000 147.078
53.42000 146.089
53.43000 145.723
53.44000 145.457
53.45000 145.819
53.46000 146.290
53.47000 146.728
53.48000 147.031
53.49000 147.319
53.50000 147.534
53.51000 148.003
53.52000 148.380
53.53000 147.808
53.54000 145.450
53.55000 143.049
53.56000 142.648
53.57000 144.774
53.58000 146.906
53.59000 148.754
53.60000 150.362
53.61000 151.888
53.62000 149.493
53.63000 144.942
53.64000 140.617
53.65000 140.468
53.66000 141.885
53.67000 143.195
53.68000 139.917
53.69000 135.925
53.70000 132.161
53.71000 129.769
53.72000 127.605
53.73000 127.224
53.74000 133.859
53.75000 141.209
53.76000 146.629
53.77000 146.966
53.78000 147.013
53.79000 147.326
53.80000 148.120
53.81000 148.925
53.82000 149.137
53.83000 148.629
53.84000 148.119
53.85000 145.526
53.86000 141.307
53.87000 137.171
53.88000 136.535
53.89000 137.757
53.90000 138.779
53.91000 136.350
53.92000 132.670
53.93000 129.282
53.94000 135.944
53.95000 144.104
53.96000 149.924
53.97000 142.270
53.98000 132.460
53.99000 125.969
54.00000 132.060
54.01000 139.370
54.02000 144.706
54.03000 139.071
54.04000 134.300
54.05000 131.782
54.06000 133.218
54.07000 134.727
54.08000 135.109
54.09000 134.168
54.10000 133.229
54.11000 134.415
54.12000 137.200
54.13000 139.932
54.14000 140.616
54.15000 140.251
54.16000 139.888
54.17000 139.548
54.18000 139.216
54.19000 138.912
54.20000 135.648
54.21000 132.119
54.22000 129.832
54.23000 134.411
54.24000 140.043
54.25000 143.491
54.26000 138.955
54.27000 133.684
54.28000 129.877
54.29000 130.816
54.30000 131.708
54.31000 132.752
54.32000 134.053
54.33000 135.359
54.34000 135.908
54.35000 135.606
54.36000 135.304
54.37000 135.559
54.38000 136.216
54.39000 136.820
54.40000 135.559
54.41000 133.375
54.42000 131.325
54.43000 131.310
54.44000 131.981
54.45000 132.594
54.46000 133.282
54.47000 133.908
54.48000 134.110
54.49000 132.064
54.50000 129.688
54.51000 129.056
54.52000 134.573
54.53000 140.627
54.54000 144.954
54.55000 144.507
54.56000 144.006
54.57000 142.318
54.58000 138.691
54.59000 135.036
54.60000 134.168
54.61000 136.317
54.62000 138.459
54.63000 139.498
54.64000 139.756
54.65000 139.984
54.66000 139.274
54.67000 138.115
54.68000 137.296
54.69000 141.332
54.70000 146.951
54.71000 152.052
54.72000 145.665
54.73000 137.802
54.74000 131.946
54.75000 136.344
54.76000 142.184
54.77000 146.588
54.78000 146.103
54.79000 145.214
54.80000 144.586
54.81000 141.551
54.82000 139.172
54.83000 137.737
54.84000 137.788
54.85000 137.857
54.86000 137.530
54.87000 136.791
54.88000 136.055
54.89000 137.113
54.90000 139.362
54.91000 141.580
54.92000 142.858
54.93000 143.704
54.94000 144.328
54.95000 141.974
54.96000 138.683
54.97000 135.709
54.98000 135.785
54.99000 136.416
55.00000 137.310
55.01000 139.491
55.02000 141.845
55.03000 144.061
55.04000 145.827
55.05000 147.557
55.06000 148.767
55.07000 146.066
55.08000 143.916
55.09000 143.171
55.10000 144.561
55.11000 145.974
55.12000 146.171
55.13000 145.156
55.14000 144.147
55.15000 145.854
55.16000 149.292
55.17000 152.644
55.18000 153.686
55.19000 153.699
55.20000 153.572
55.21000 151.651
55.22000 149.185
55.23000 146.968
55.24000 148.331
55.25000 150.161
55.26000 152.823
55.27000 159.424
55.28000 166.531
55.29000 172.228
55.30000 173.456
55.31000 174.353
55.32000 174.973
55.33000 170.324
55.34000 166.694
55.35000 165.829
55.36000 169.015
55.37000 172.236
55.38000 176.465
55.39000 181.659
55.40000 186.813
55.41000 192.010
55.42000 197.146
55.43000 202.214
55.44000 205.614
55.45000 208.297
55.46000 211.286
55.47000 217.963
55.48000 225.720
55.49000 232.657
55.50000 243.044
55.51000 252.686
55.52000 261.112
55.53000 263.998
55.54000 266.203
55.55000 271.655
55.56000 287.036
55.57000 303.109
55.58000 314.082
55.59000 324.760
55.60000 332.739
55.61000 340.323
55.62000 347.350
55.63000 354.373
55.64000 364.175
55.65000 376.533
55.66000 388.782
55.67000 404.734
55.68000 422.594
55.69000 440.158
55.70000 451.015
55.71000 459.085
55.72000 467.303
55.73000 477.202
55.74000 487.575
55.75000 496.802
55.76000 516.061
55.77000 534.412
55.78000 549.814
55.79000 552.292
55.80000 553.252
55.81000 556.137
55.82000 564.707
55.83000 573.648
55.84000 579.680
55.85000 576.890
55.86000 574.628
55.87000 574.297
55.88000 576.593
55.89000 578.900
55.90000 577.682
55.91000 573.345
55.92000 569.053
55.93000 562.817
55.94000 555.599
55.95000 548.215
55.96000 537.328
55.97000 525.036
55.98000 513.167
55.99000 505.865
56.00000 499.809
56.01000 494.452
56.02000 481.782
56.03000 469.692
56.04000 457.912
56.05000 447.440
56.06000 437.114
56.07000 425.892
56.08000 412.116
56.09000 398.182
56.10000 388.900
56.11000 376.954
56.12000 368.061
56.13000 357.753
56.14000 345.591
56.15000 333.427
56.16000 324.996
56.17000 319.739
56.18000 314.546
56.19000 305.162
56.20000 293.690
56.21000 282.356
56.22000 273.748
56.23000 266.195
56.24000 258.802
56.25000 253.047
56.26000 247.721
56.27000 243.037
56.28000 228.222
56.29000 213.964
56.30000 201.887
56.31000 198.683
56.32000 196.425
56.33000 195.319
56.34000 197.381
56.35000 199.627
56.36000 201.104
56.37000 192.650
56.38000 186.256
56.39000 182.077
56.40000 180.692
56.41000 179.316
56.42000 177.603
56.43000 175.615
56.44000 173.654
56.45000 168.067
56.46000 160.700
56.47000 153.760
56.48000 154.642
56.49000 158.449
56.50000 161.578
56.51000 158.078
56.52000 152.899
56.53000 148.369
56.54000 139.865
56.55000 132.014
56.56000 126.347
56.57000 129.245
56.58000 133.013
56.59000 135.733
56.60000 135.669
56.61000 135.455
56.62000 135.316
56.63000 134.909
56.64000 134.607
56.65000 134.478
56.66000 134.558
56.67000 134.639
56.68000 134.938
56.69000 135.409
56.70000 135.873
56.71000 134.349
56.72000 131.852
56.73000 129.434
56.74000 128.384
56.75000 127.829
56.76000 127.223
56.77000 126.152
56.78000 124.967
56.79000 123.936
56.80000 120.976
56.81000 118.188
56.82000 116.169
56.83000 117.056
56.84000 118.223
56.85000 119.944
56.86000 123.088
56.87000 126.303
56.88000 128.363
56.89000 129.260
56.90000 129.898
56.91000 128.335
56.92000 124.200
56.93000 120.087
56.94000 121.251
56.95000 126.418
56.96000 131.497
56.97000 133.026
56.98000 132.751
56.99000 132.349
57.00000 129.890
57.01000 126.715
57.02000 123.805
57.03000 123.246
57.04000 123.240
57.05000 123.236
57.06000 125.451
57.07000 127.620
57.08000 128.761
57.09000 126.155
57.10000 123.206
57.11000 121.091
57.12000 121.046
57.13000 121.098
57.14000 121.131
57.15000 127.118
57.16000 131.525
57.17000 134.410
57.18000 135.586
57.19000 136.744
57.20000 135.151
57.21000 131.549
57.22000 128.014
57.23000 125.536
57.24000 123.650
57.25000 121.706
57.26000 118.880
57.27000 115.758
57.28000 113.222
57.29000 115.649
57.30000 119.200
57.31000 122.249
57.32000 124.416
57.33000 126.139
57.34000 127.450
57.35000 127.311
57.36000 127.047
57.37000 126.498
57.38000 125.270
57.39000 124.012
57.40000 123.229
57.41000 120.624
57.42000 118.728
57.43000 118.740
57.44000 120.810
57.45000 122.882
57.46000 125.316
57.47000 128.004
57.48000 130.635
57.49000 129.973
57.50000 127.831
57.51000 125.911
57.52000 127.137
57.53000 129.385
57.54000 131.191
57.55000 129.425
57.56000 126.880
57.57000 124.708
57.58000 124.874
57.59000 125.288
57.60000 125.703
57.61000 126.117
57.62000 126.531
57.63000 126.544
57.64000 125.632
57.65000 124.683
57.66000 124.100
57.67000 123.842
57.68000 123.659
57.69000 122.067
57.70000 119.016
57.71000 116.015
57.72000 118.530
57.73000 124.788
57.74000 130.900
57.75000 131.742
57.76000 130.228
57.77000 128.776
57.78000 128.156
57.79000 127.796
57.80000 127.354
57.81000 126.278
57.82000 125.069
57.83000 124.044
57.84000 123.092
57.85000 122.302
57.86000 121.805
57.87000 122.265
57.88000 122.800
57.89000 123.060
57.90000 122.709
57.91000 122.336
57.92000 122.110
57.93000 122.696
57.94000 123.120
57.95000 121.563
57.96000 118.038
57.97000 114.555
57.98000 115.010
57.99000 118.041
58.00000 120.994
58.01000 119.162
58.02000 115.387
58.03000 111.852
58.04000 111.362
58.05000 111.793
58.06000 112.924
58.07000 119.214
58.08000 126.547
58.09000 132.720
58.10000 125.516
58.11000 118.077
58.12000 113.541
58.13000 118.173
58.14000 123.479
58.15000 127.074
58.16000 126.985
58.17000 126.771
58.18000 126.643
58.19000 121.909
58.20000 118.527
58.21000 118.732
58.22000 122.361
58.23000 125.924
58.24000 124.323
58.25000 119.463
58.26000 114.739
58.27000 115.801
58.28000 119.169
58.29000 122.168
58.30000 120.741
58.31000 118.021
58.32000 115.875
58.33000 117.777
58.34000 120.465
58.35000 122.712
58.36000 124.278
58.37000 125.508
58.38000 126.272
58.39000 125.615
58.40000 124.859
58.41000 123.720
58.42000 121.784
58.43000 119.823
58.44000 118.674
58.45000 116.772
58.46000 115.428
58.47000 113.503
58.48000 111.044
58.49000 108.659
58.50000 111.275
58.51000 116.932
58.52000 122.418
58.53000 124.051
58.54000 124.086
58.55000 124.030
58.56000 122.936
58.57000 121.550
58.58000 120.050
58.59000 117.778
58.60000 115.363
58.61000 113.359
58.62000 113.832
58.63000 114.462
58.64000 114.990
58.65000 115.217
58.66000 115.425
58.67000 116.680
58.68000 120.040
58.69000 123.459
58.70000 125.432
58.71000 120.513
58.72000 117.044
58.73000 117.127
58.74000 120.342
58.75000 123.521
58.76000 124.530
58.77000 124.265
58.78000 124.009
58.79000 122.998
58.80000 121.759
58.81000 120.423
58.82000 118.048
58.83000 115.392
58.84000 113.144
58.85000 113.540
58.86000 114.410
58.87000 115.128
58.88000 114.533
58.89000 113.923
58.90000 113.382
58.91000 113.034
58.92000 112.698
58.93000 112.441
58.94000 112.337
58.95000 112.237
58.96000 112.181
58.97000 112.009
58.98000 111.889
58.99000 111.377
59.00000 110.533
59.01000 109.743
59.02000 111.820
59.03000 115.520
59.04000 119.089
59.05000 119.931
59.06000 119.734
59.07000 119.404
59.08000 117.722
59.09000 115.686
59.10000 113.829
59.11000 113.085
59.12000 112.533
59.13000 112.081
59.14000 113.217
59.15000 114.286
59.16000 116.681
59.17000 122.717
59.18000 128.961
59.19000 130.877
59.20000 124.688
59.21000 118.314
59.22000 114.758
59.23000 115.626
59.24000 116.233
59.25000 115.870
59.26000 114.714
59.27000 113.589
59.28000 113.884
59.29000 114.955
59.30000 115.985
59.31000 121.107
59.32000 127.337
59.33000 132.775
59.34000 130.505
59.35000 126.289
59.36000 122.317
59.37000 119.803
59.38000 117.530
59.39000 115.686
59.40000 117.099
59.41000 118.520
59.42000 120.054
59.43000 121.887
59.44000 123.736
59.45000 123.500
59.46000 119.496
59.47000 115.415
59.48000 113.179
59.49000 120.293
59.50000 125.183
59.51000 125.407
59.52000 121.967
59.53000 118.602
59.54000 118.412
59.55000 119.896
59.56000 121.319
59.57000 117.747
59.58000 112.732
59.59000 108.499
59.60000 111.513
59.61000 116.290
59.62000 119.420
59.63000 113.129
59.64000 105.342
59.65000 99.072
59.66000 107.507
59.67000 115.497
59.68000 119.971
59.69000 115.447
59.70000 110.474
59.71000 107.953
59.72000 109.712
59.73000 111.549
59.74000 112.538
59.75000 113.209
59.76000 113.669
59.77000 114.509
59.78000 115.634
59.79000 116.676
59.80000 114.573
59.81000 110.867
59.82000 107.326
59.83000 108.215
59.84000 110.474
59.85000 112.642
59.86000 113.999
59.87000 115.166
59.88000 115.855
59.89000 113.914
59.90000 111.572
59.91000 109.702
59.92000 110.791
59.93000 111.889
59.94000 112.769
59.95000 113.112
59.96000 113.431
59.97000 112.857
59.98000 110.783
59.99000 108.685
60.00000 107.577
60.01000 115.026
60.02000 120.065
60.03000 121.108
60.04000 119.240
60.05000 117.381
60.06000 115.805
60.07000 114.367
60.08000 112.998
60.09000 115.112
60.10000 118.152
60.11000 120.560
60.12000 117.637
60.13000 113.510
60.14000 110.157
60.15000 110.890
60.16000 112.219
60.17000 113.272
60.18000 114.753
60.19000 115.974
60.20000 118.029
60.21000 122.073
60.22000 126.202
60.23000 127.241
60.24000 123.261
60.25000 119.211
60.26000 117.113
60.27000 114.485
60.28000 112.724
60.29000 112.463
60.30000 113.254
60.31000 114.069
60.32000 115.613
60.33000 117.504
60.34000 119.298
60.35000 121.025
60.36000 122.598
60.37000 123.789
60.38000 121.905
60.39000 119.353
60.40000 117.100
60.41000 116.363
60.42000 115.838
60.43000 115.425
60.44000 114.820
60.45000 114.323
60.46000 113.135
60.47000 110.354
60.48000 107.509
60.49000 108.657
60.50000 116.054
60.51000 123.527
60.52000 127.323
60.53000 124.062
60.54000 121.873
60.55000 119.320
60.56000 116.521
60.57000 113.875
60.58000 115.608
60.59000 119.349
60.60000 122.888
60.61000 121.391
60.62000 118.567
60.63000 116.044
60.64000 115.833
60.65000 116.105
60.66000 116.052
60.67000 114.406
60.68000 112.547
60.69000 111.099
60.70000 109.015
60.71000 107.317
60.72000 106.267
60.73000 106.661
60.74000 107.109
60.75000 107.978
60.76000 109.484
60.77000 110.996
60.78000 112.907
60.79000 115.214
60.80000 117.509
60.81000 118.653
60.82000 119.047
60.83000 119.438
60.84000 119.741
60.85000 120.006
60.86000 120.255
60.87000 116.677
60.88000 112.344
60.89000 108.860
60.90000 111.610
60.91000 115.617
60.92000 119.012
60.93000 119.536
60.94000 119.694
60.95000 119.815
60.96000 121.459
60.97000 122.850
60.98000 124.046
60.99000 124.822
61.00000 125.585
61.01000 126.185
61.02000 126.550
61.03000 126.912
61.04000 124.020
61.05000 118.031
61.06000 112.116
61.07000 112.037
61.08000 115.627
61.09000 119.043
61.10000 118.248
61.11000 115.652
61.12000 113.215
61.13000 112.808
61.14000 112.976
61.15000 113.151
61.16000 113.372
61.17000 113.602
61.18000 113.942
61.19000 114.774
61.20000 115.666
61.21000 116.348
61.22000 121.600
61.23000 125.991
61.24000 127.577
61.25000 123.342
61.26000 118.928
61.27000 117.304
61.28000 119.593
61.29000 121.909
61.30000 122.790
61.31000 122.360
61.32000 121.933
61.33000 121.706
61.34000 121.601
61.35000 121.526
61.36000 122.115
61.37000 122.977
61.38000 123.784
61.39000 127.320
61.40000 131.229
61.41000 134.078
61.42000 129.787
61.43000 124.167
61.44000 120.497
61.45000 125.320
61.46000 131.133
61.47000 135.536
61.48000 137.983
61.49000 139.805
61.50000 142.721
61.51000 147.829
61.52000 152.998
61.53000 164.018
61.54000 182.943
61.55000 201.902
61.56000 221.380
61.57000 241.285
61.58000 260.986
61.59000 268.673
61.60000 269.330
61.61000 270.427
61.62000 280.699
61.63000 294.629
61.64000 307.606
61.65000 314.643
61.66000 319.553
61.67000 324.097
61.68000 326.284
61.69000 328.048
61.70000 329.314
61.71000 328.487
61.72000 327.428
61.73000 326.633
61.74000 311.090
61.75000 298.246
61.76000 284.883
61.77000 270.516
61.78000 256.123
61.79000 241.054
61.80000 225.104
61.81000 209.166
61.82000 196.077
61.83000 185.424
61.84000 174.804
61.85000 165.865
61.86000 157.875
61.87000 150.157
61.88000 147.700
61.89000 147.269
61.90000 146.869
61.91000 144.209
61.92000 141.281
61.93000 138.384
61.94000 135.686
61.95000 133.023
61.96000 130.424
61.97000 128.091
61.98000 125.785
61.99000 124.072
62.00000 124.933
62.01000 125.717
62.02000 126.443
62.03000 127.063
62.04000 127.680
62.05000 128.198
62.06000 128.591
62.07000 128.983
62.08000 128.378
62.09000 126.969
62.10000 125.596
62.11000 125.924
62.12000 127.180
62.13000 128.374
62.14000 128.450
62.15000 128.111
62.16000 127.797
62.17000 127.573
62.18000 127.392
62.19000 127.181
62.20000 126.796
62.21000 126.382
62.22000 125.002
62.23000 119.857
62.24000 114.333
62.25000 110.270
62.26000 115.975
62.27000 120.792
62.28000 124.694
62.29000 126.947
62.30000 129.166
62.31000 130.853
62.32000 131.897
62.33000 132.938
62.34000 134.003
62.35000 135.081
62.36000 136.063
62.37000 133.055
62.38000 127.948
62.39000 123.253
62.40000 125.565
62.41000 130.392
62.42000 134.831
62.43000 134.297
62.44000 132.741
62.45000 131.936
62.46000 135.415
62.47000 139.571
62.48000 141.682
62.49000 136.105
62.50000 129.793
62.51000 125.197
62.52000 129.480
62.53000 133.117
62.54000 134.833
62.55000 133.207
62.56000 131.521
62.57000 129.706
62.58000 127.744
62.59000 125.787
62.60000 128.211
62.61000 133.898
62.62000 139.470
62.63000 140.704
62.64000 139.736
62.65000 138.820
62.66000 138.729
62.67000 138.924
62.68000 139.102
62.69000 139.554
62.70000 140.013
62.71000 139.971
62.72000 137.190
62.73000 133.994
62.74000 131.496
62.75000 131.527
62.76000 131.789
62.77000 131.978
62.78000 132.301
62.79000 132.553
62.80000 131.857
62.81000 129.568
62.82000 127.255
62.83000 126.024
62.84000 125.999
62.85000 125.976
62.86000 128.410
62.87000 132.592
62.88000 136.636
62.89000 135.994
62.90000 133.056
62.91000 130.331
62.92000 130.811
62.93000 132.363
62.94000 133.777
62.95000 131.586
62.96000 128.925
62.97000 126.783
62.98000 127.368
62.99000 128.350
63.00000 128.998
63.01000 128.478
63.02000 127.857
63.03000 127.414
63.04000 126.532
63.05000 125.845
63.06000 125.589
63.07000 126.031
63.08000 126.482
63.09000 128.923
63.10000 133.494
63.11000 138.046
63.12000 138.480
63.13000 136.061
63.14000 133.696
63.15000 133.039
63.16000 133.189
63.17000 133.270
63.18000 132.363
63.19000 131.137
63.20000 130.026
63.21000 129.536
63.22000 129.222
63.23000 129.153
63.24000 130.319
63.25000 131.657
63.26000 132.814
63.27000 133.362
63.28000 133.862
63.29000 134.213
63.30000 132.607
63.31000 131.331
63.32000 131.657
63.33000 134.486
63.34000 137.344
63.35000 135.831
63.36000 129.819
63.37000 123.841
63.38000 124.356
63.39000 129.188
63.40000 133.945
63.41000 136.613
63.42000 138.324
63.43000 139.799
63.44000 138.136
63.45000 135.495
63.46000 133.112
63.47000 134.607
63.48000 136.631
63.49000 137.457
63.50000 132.453
63.51000 126.674
63.52000 123.025
63.53000 126.312
63.54000 130.133
63.55000 132.797
63.56000 129.698
63.57000 127.202
63.58000 126.939
63.59000 130.038
63.60000 133.170
63.61000 134.633
63.62000 134.445
63.63000 134.259
63.64000 134.595
63.65000 135.262
63.66000 135.862
63.67000 134.752
63.68000 132.886
63.69000 131.252
63.70000 132.528
63.71000 134.680
63.72000 136.613
63.73000 133.897
63.74000 130.705
63.75000 128.608
63.76000 131.640
63.77000 135.324
63.78000 137.208
63.79000 133.439
63.80000 129.258
63.81000 126.378
63.82000 133.658
63.83000 139.379
63.84000 142.347
63.85000 141.321
63.86000 140.261
63.87000 140.044
63.88000 140.626
63.89000 141.203
63.90000 145.192
63.91000 151.212
63.92000 157.038
63.93000 158.202
63.94000 157.378
63.95000 156.381
63.96000 153.330
63.97000 149.682
63.98000 146.424
63.99000 146.353
64.00000 146.826
64.01000 146.962
64.02000 145.574
64.03000 144.000
64.04000 143.335
64.05000 145.427
64.06000 147.708
64.07000 149.261
64.08000 142.013
64.09000 136.398
64.10000 135.856
64.11000 142.406
64.12000 149.002
64.13000 150.051
64.14000 146.047
64.15000 142.080
64.16000 141.755
64.17000 143.597
64.18000 145.341
64.19000 144.923
64.20000 143.616
64.21000 142.418
64.22000 142.453
64.23000 142.833
64.24000 143.171
64.25000 149.339
64.26000 155.625
64.27000 160.252
64.28000 157.670
64.29000 154.251
64.30000 151.953
64.31000 152.933
64.32000 154.125
64.33000 154.926
64.34000 154.806
64.35000 154.698
64.36000 153.637
64.37000 151.293
64.38000 148.943
64.39000 147.421
64.40000 146.624
64.41000 145.836
64.42000 148.858
64.43000 153.984
64.44000 158.971
64.45000 161.074
64.46000 162.031
64.47000 162.992
64.48000 163.988
64.49000 164.994
64.50000 165.883
64.51000 162.716
64.52000 159.358
64.53000 156.537
64.54000 155.967
64.55000 155.647
64.56000 155.562
64.57000 156.141
64.58000 156.761
64.59000 157.173
64.60000 156.523
64.61000 156.023
64.62000 157.655
64.63000 162.053
64.64000 166.461
64.65000 169.828
64.66000 172.320
64.67000 174.781
64.68000 172.343
64.69000 167.278
64.70000 162.663
64.71000 166.727
64.72000 174.123
64.73000 180.894
64.74000 181.330
64.75000 180.115
64.76000 179.048
64.77000 178.685
64.78000 178.475
64.79000 179.092
64.80000 183.036
64.81000 187.330
64.82000 190.224
64.83000 189.296
64.84000 188.152
64.85000 187.402
64.86000 179.658
64.87000 173.847
64.88000 172.673
64.89000 177.290
64.90000 181.919
64.91000 184.577
64.92000 185.639
64.93000 186.685
64.94000 187.857
64.95000 189.062
64.96000 190.580
64.97000 197.733
64.98000 206.974
64.99000 215.440
65.00000 216.421
65.01000 215.524
65.02000 214.740
65.03000 214.977
65.04000 215.324
65.05000 216.702
65.06000 222.086
65.07000 227.871
65.08000 231.988
65.09000 231.707
65.10000 231.194
65.11000 230.862
65.12000 233.756
65.13000 235.920
65.14000 237.953
65.15000 239.827
65.16000 241.704
65.17000 244.216
65.18000 247.222
65.19000 250.182
65.20000 256.899
65.21000 265.317
65.22000 273.256
65.23000 273.131
65.24000 270.120
65.25000 268.392
65.26000 278.453
65.27000 291.366
65.28000 302.574
65.29000 303.220
65.30000 302.352
65.31000 303.375
65.32000 311.483
65.33000 320.266
65.34000 325.423
65.35000 321.357
65.36000 316.835
65.37000 313.949
65.38000 315.896
65.39000 317.376
65.40000 318.461
65.41000 319.090
65.42000 319.761
65.43000 328.858
65.44000 344.285
65.45000 359.442
65.46000 365.695
65.47000 367.380
65.48000 368.968
65.49000 369.025
65.50000 368.554
65.51000 369.073
65.52000 378.251
65.53000 389.447
65.54000 399.105
65.55000 413.195
65.56000 425.716
65.57000 436.610
65.58000 441.632
65.59000 446.121
65.60000 452.295
65.61000 462.606
65.62000 473.107
65.63000 479.717
65.64000 537.032
65.65000 579.076
65.66000 622.067
65.67000 666.111
65.68000 710.382
65.69000 790.571
65.70000 896.753
65.71000 1000.862
65.72000 1131.828
65.73000 1270.567
65.74000 1408.604
65.75000 1536.186
65.76000 1660.281
65.77000 1781.154
65.78000 1875.123
65.79000 1963.053
65.80000 2038.430
65.81000 2092.423
65.82000 2135.406
65.83000 2172.332
65.84000 2188.154
65.85000 2202.166
65.86000 2215.638
65.87000 2227.827
65.88000 2239.961
65.89000 2247.492
65.90000 2186.954
65.91000 2142.728
65.92000 2083.810
65.93000 2009.200
65.94000 1934.267
65.95000 1818.255
65.96000 1673.597
65.97000 1532.065
65.98000 1373.235
65.99000 1212.972
66.00000 1056.598
66.01000 954.704
66.02000 870.356
66.03000 787.045
66.04000 712.003
66.05000 638.749
66.06000 576.359
66.07000 531.012
66.08000 494.873
66.09000 464.382
66.10000 452.884
66.11000 442.927
66.12000 432.918
66.13000 422.789
66.14000 412.655
66.15000 406.457
66.16000 399.121
66.17000 393.863
66.18000 387.138
66.19000 378.909
66.20000 370.831
66.21000 378.794
66.22000 397.540
66.23000 415.839
66.24000 429.839
66.25000 441.354
66.26000 453.814
66.27000 478.758
66.28000 507.583
66.29000 535.610
66.30000 557.569
66.31000 578.265
66.32000 595.774
66.33000 610.083
66.34000 621.704
66.35000 632.966
66.36000 643.066
66.37000 653.076
66.38000 662.262
66.39000 669.625
66.40000 676.922
66.41000 681.318
66.42000 686.864
66.43000 690.818
66.44000 688.988
66.45000 681.463
66.46000 673.846
66.47000 658.006
66.48000 636.838
66.49000 616.221
66.50000 596.392
66.51000 577.821
66.52000 558.961
66.53000 536.492
66.54000 512.940
66.55000 490.478
66.56000 475.950
66.57000 463.009
66.58000 452.136
66.59000 431.736
66.60000 413.733
66.61000 398.572
66.62000 392.309
66.63000 386.690
66.64000 380.007
66.65000 371.051
66.66000 362.020
66.67000 356.662
66.68000 368.183
66.69000 376.430
66.70000 377.379
66.71000 371.427
66.72000 365.531
66.73000 363.879
66.74000 364.878
66.75000 365.849
66.76000 369.846
66.77000 374.864
66.78000 379.687
66.79000 382.216
66.80000 384.082
66.81000 384.618
66.82000 375.881
66.83000 365.360
66.84000 356.582
66.85000 360.971
66.86000 365.933
66.87000 370.356
66.88000 373.146
66.89000 375.825
66.90000 377.095
66.91000 375.459
66.92000 373.735
66.93000 372.728
66.94000 361.530
66.95000 353.610
66.96000 353.610
66.97000 360.802
66.98000 367.979
66.99000 374.208
67.00000 379.865
67.01000 385.347
67.02000 388.912
67.03000 391.541
67.04000 393.691
67.05000 390.468
67.06000 385.744
67.07000 382.375
67.08000 388.059
67.09000 395.418
67.10000 401.514
67.11000 399.009
67.12000 396.121
67.13000 393.824
67.14000 393.250
67.15000 392.787
67.16000 393.566
67.17000 396.816
67.18000 400.134
67.19000 402.040
67.20000 404.093
67.21000 405.527
67.22000 405.467
67.23000 404.103
67.24000 402.834
67.25000 407.109
67.26000 414.608
67.27000 421.856
67.28000 417.431
67.29000 408.894
67.30000 400.575
67.31000 394.581
67.32000 389.212
67.33000 385.326
67.34000 390.940
67.35000 398.243
67.36000 404.248
67.37000 407.357
67.38000 409.650
67.39000 412.230
67.40000 415.622
67.41000 419.062
67.42000 422.499
67.43000 425.932
67.44000 429.364
67.45000 431.303
67.46000 426.927
67.47000 423.878
67.48000 426.178
67.49000 432.972
67.50000 439.605
67.51000 438.034
67.52000 431.859
67.53000 425.908
67.54000 429.113
67.55000 435.419
67.56000 441.271
67.57000 442.540
67.58000 442.619
67.59000 442.512
67.60000 441.261
67.61000 439.816
67.62000 438.636
67.63000 438.200
67.64000 437.908
67.65000 440.238
67.66000 449.703
67.67000 459.570
67.68000 466.107
67.69000 466.464
67.70000 466.683
67.71000 466.804
67.72000 478.751
67.73000 487.010
67.74000 488.638
67.75000 484.906
67.76000 481.171
67.77000 477.253
67.78000 473.237
67.79000 469.378
67.80000 468.738
67.81000 469.253
67.82000 471.076
67.83000 485.464
67.84000 502.997
67.85000 517.158
67.86000 511.437
67.87000 502.460
67.88000 495.189
67.89000 496.719
67.90000 498.680
67.91000 496.799
67.92000 484.823
67.93000 472.315
67.94000 469.428
67.95000 483.772
67.96000 498.460
67.97000 506.472
67.98000 507.382
67.99000 508.007
68.00000 511.198
68.01000 516.383
68.02000 521.498
68.03000 523.752
68.04000 524.510
68.05000 525.235
68.06000 522.334
68.07000 518.421
68.08000 515.516
68.09000 521.823
68.10000 530.352
68.11000 538.630
68.12000 545.484
68.13000 552.115
68.14000 557.443
68.15000 556.071
68.16000 554.443
68.17000 555.343
68.18000 562.652
68.19000 570.276
68.20000 574.635
68.21000 573.352
68.22000 571.969
68.23000 571.229
68.24000 579.722
68.25000 585.517
68.26000 589.606
68.27000 592.417
68.28000 595.209
68.29000 597.304
68.30000 599.047
68.31000 600.711
68.32000 604.718
68.33000 609.191
68.34000 613.793
68.35000 619.519
68.36000 625.507
68.37000 631.360
68.38000 636.484
68.39000 641.498
68.40000 645.495
68.41000 641.052
68.42000 636.856
68.43000 637.841
68.44000 651.519
68.45000 665.776
68.46000 679.116
68.47000 690.926
68.48000 702.713
68.49000 708.909
68.50000 714.228
68.51000 717.885
68.52000 729.507
68.53000 746.874
68.54000 764.135
68.55000 777.811
68.56000 789.739
68.57000 801.092
68.58000 829.857
68.59000 861.842
68.60000 893.849
68.61000 926.039
68.62000 958.271
68.63000 991.981
68.64000 1033.424
68.65000 1075.983
68.66000 1109.622
68.67000 1178.552
68.68000 1236.319
68.69000 1289.245
68.70000 1330.720
68.71000 1371.711
68.72000 1415.570
68.73000 1464.045
68.74000 1512.581
68.75000 1537.609
68.76000 1610.415
68.77000 1659.450
68.78000 1706.792
68.79000 1752.956
68.80000 1799.556
68.81000 1859.473
68.82000 1925.658
68.83000 1988.433
68.84000 2086.315
68.85000 2186.955
68.86000 2297.951
68.87000 2491.212
68.88000 2702.196
68.89000 2949.667
68.90000 3380.564
68.91000 3836.793
68.92000 4194.335
68.93000 5818.891
68.94000 7199.024
68.95000 9020.536
68.96000 11850.195
68.97000 14719.238
68.98000 18009.430
68.99000 21953.115
69.00000 25904.303
69.01000 27901.566
69.02000 33286.418
69.03000 36881.379
69.04000 39629.102
69.05000 41809.094
69.06000 43960.488
69.07000 45311.652
69.08000 46299.137
69.09000 47232.438
69.10000 47953.055
69.11000 48554.328
69.12000 49185.602
69.13000 50044.688
69.14000 50951.008
69.15000 51789.934
69.16000 52302.926
69.17000 52772.859
69.18000 53137.941
69.19000 51720.023
69.20000 50483.906
69.21000 48754.063
69.22000 45935.203
69.23000 43077.195
69.24000 40257.520
69.25000 37495.199
69.26000 34733.465
69.27000 32302.756
69.28000 30196.893
69.29000 28099.197
69.30000 26720.965
69.31000 25807.570
69.32000 24909.656
69.33000 24410.238
69.34000 24085.711
69.35000 23780.115
69.36000 23139.367
69.37000 22461.570
69.38000 21690.664
69.39000 20243.475
69.40000 18661.395
69.41000 17002.066
69.42000 14983.202
69.43000 12918.938
69.44000 11329.556
69.45000 9287.691
69.46000 7645.458
69.47000 6177.937
69.48000 5082.532
69.49000 3999.390
69.50000 3158.488
69.51000 2666.940
69.52000 2178.255
69.53000 1856.523
69.54000 1692.136
69.55000 1528.292
69.56000 1405.472
69.57000 1308.214
69.58000 1212.708
69.59000 1158.878
69.60000 1122.711
69.61000 1088.782
69.62000 1045.955
69.63000 1004.597
69.64000 965.659
69.65000 943.551
69.66000 924.670
69.67000 903.651
69.68000 873.053
69.69000 841.300
69.70000 817.074
69.71000 784.478
69.72000 758.349
69.73000 736.381
69.74000 722.968
69.75000 709.813
69.76000 695.767
69.77000 680.482
69.78000 665.194
69.79000 652.037
69.80000 640.819
69.81000 629.578
69.82000 616.820
69.83000 603.152
69.84000 589.918
69.85000 586.267
69.86000 586.538
69.87000 586.791
69.88000 573.565
69.89000 558.160
69.90000 543.993
69.91000 538.069
69.92000 533.664
69.93000 530.481
69.94000 532.570
69.95000 535.266
69.96000 537.304
69.97000 525.982
69.98000 516.436
69.99000 506.773
70.00000 496.878
