20.00000 480.650
20.01000 483.143
20.02000 485.992
20.03000 487.913
20.04000 486.180
20.05000 484.074
20.06000 482.521
20.07000 481.332
20.08000 480.426
20.09000 477.734
20.10000 471.795
20.11000 465.787
20.12000 468.379
20.13000 481.443
20.14000 494.509
20.15000 494.805
20.16000 485.058
20.17000 475.505
20.18000 474.278
20.19000 477.470
20.20000 480.656
20.21000 483.754
20.22000 486.818
20.23000 489.640
20.24000 484.891
20.25000 478.985
20.26000 473.610
20.27000 471.298
20.28000 469.475
20.29000 467.646
20.30000 465.791
20.31000 463.934
20.32000 462.578
20.33000 464.806
20.34000 466.663
20.35000 469.109
20.36000 472.591
20.37000 476.092
20.38000 479.156
20.39000 481.708
20.40000 484.253
20.41000 480.100
20.42000 470.911
20.43000 461.919
20.44000 460.523
20.45000 463.019
20.46000 465.357
20.47000 465.149
20.48000 464.052
20.49000 463.045
20.50000 462.450
20.51000 462.006
20.52000 461.524
20.53000 460.824
20.54000 460.092
20.55000 460.050
20.56000 462.531
20.57000 465.245
20.58000 467.205
20.59000 459.536
20.60000 453.305
20.61000 451.957
20.62000 458.877
20.63000 465.932
20.64000 473.587
20.65000 481.917
20.66000 490.219
20.67000 487.937
20.68000 477.981
20.69000 468.314
20.70000 468.737
20.71000 474.153
20.72000 478.892
20.73000 473.349
20.74000 464.335
20.75000 456.111
20.76000 451.841
20.77000 448.852
20.78000 447.344
20.79000 453.711
20.80000 461.235
20.81000 466.515
20.82000 463.879
20.83000 460.552
20.84000 458.173
20.85000 459.888
20.86000 461.334
20.87000 462.327
20.88000 462.580
20.89000 462.822
20.90000 465.716
20.91000 471.480
20.92000 477.221
20.93000 477.378
20.94000 473.630
20.95000 469.757
20.96000 461.901
20.97000 452.142
20.98000 443.485
20.99000 450.591
21.00000 462.834
21.01000 473.951
21.02000 470.752
21.03000 465.158
21.04000 460.462
21.05000 460.350
21.06000 460.883
21.07000 461.182
21.08000 460.682
21.09000 460.116
21.10000 459.716
21.11000 461.550
21.12000 463.011
21.13000 460.217
21.14000 450.720
21.15000 441.140
21.16000 437.353
21.17000 439.590
21.18000 441.816
21.19000 451.722
21.20000 466.670
21.21000 481.064
21.22000 479.400
21.23000 470.328
21.24000 461.746
21.25000 459.757
21.26000 459.843
21.27000 459.921
21.28000 460.717
21.29000 461.550
21.30000 463.132
21.31000 468.391
21.32000 474.145
21.33000 477.685
21.34000 473.955
21.35000 469.655
21.36000 466.651
21.37000 465.035
21.38000 463.854
21.39000 461.676
21.40000 457.986
21.41000 454.280
21.42000 453.863
21.43000 456.732
21.44000 459.582
21.45000 455.849
21.46000 447.913
21.47000 440.432
21.48000 445.096
21.49000 455.169
21.50000 464.913
21.51000 470.468
21.52000 474.751
21.53000 478.602
21.54000 472.803
21.55000 466.011
21.56000 459.645
21.57000 455.295
21.58000 451.203
21.59000 450.325
21.60000 459.630
21.61000 469.688
21.62000 476.637
21.63000 476.238
21.64000 475.750
21.65000 473.886
21.66000 470.007
21.67000 466.110
21.68000 464.072
21.69000 463.815
21.70000 463.560
21.71000 460.794
21.72000 456.514
21.73000 452.715
21.74000 460.771
21.75000 473.926
21.76000 485.673
21.77000 480.468
21.78000 470.297
21.79000 461.201
21.80000 463.109
21.81000 466.643
21.82000 470.437
21.83000 475.411
21.84000 480.530
21.85000 484.318
21.86000 484.034
21.87000 483.466
21.88000 483.079
21.89000 484.656
21.90000 485.881
21.91000 488.656
21.92000 493.618
21.93000 498.594
21.94000 501.584
21.95000 502.744
21.96000 503.894
21.97000 499.004
21.98000 490.592
21.99000 482.718
22.00000 487.048
22.01000 496.448
22.02000 504.940
22.03000 503.087
22.04000 498.311
22.05000 494.062
22.06000 489.622
22.07000 485.736
22.08000 483.250
22.09000 486.902
22.10000 491.274
22.11000 496.543
22.12000 504.462
22.13000 512.555
22.14000 518.014
22.15000 499.137
22.16000 484.576
22.17000 476.134
22.18000 476.013
22.19000 475.945
22.20000 480.345
22.21000 488.699
22.22000 496.967
22.23000 492.501
22.24000 480.799
22.25000 469.460
22.26000 465.791
22.27000 465.198
22.28000 464.365
22.29000 460.939
22.30000 456.806
22.31000 453.150
22.32000 451.109
22.33000 449.596
22.34000 449.803
22.35000 457.275
22.36000 465.561
22.37000 472.725
22.38000 476.695
22.39000 480.469
22.40000 482.982
22.41000 468.430
22.42000 457.333
22.43000 451.721
22.44000 453.295
22.45000 454.900
22.46000 456.157
22.47000 457.118
22.48000 458.069
22.49000 449.234
22.50000 435.195
22.51000 422.138
22.52000 428.381
22.53000 442.101
22.54000 454.766
22.55000 456.602
22.56000 455.591
22.57000 454.702
22.58000 446.818
22.59000 438.992
22.60000 433.880
22.61000 439.818
22.62000 446.934
22.63000 450.305
22.64000 443.369
22.65000 435.839
22.66000 430.886
22.67000 446.842
22.68000 458.948
22.69000 462.295
22.70000 454.594
22.71000 446.872
22.72000 445.122
22.73000 448.261
22.74000 451.357
22.75000 448.384
22.76000 442.257
22.77000 436.236
22.78000 432.153
22.79000 428.795
22.80000 426.610
22.81000 435.882
22.82000 448.058
22.83000 458.706
22.84000 452.542
22.85000 444.867
22.86000 437.774
22.87000 432.958
22.88000 428.374
22.89000 427.997
22.90000 438.801
22.91000 450.208
22.92000 457.614
22.93000 454.814
22.94000 452.608
22.95000 449.659
22.96000 445.806
22.97000 441.965
22.98000 441.966
22.99000 444.994
23.00000 447.976
23.01000 447.780
23.02000 445.959
23.03000 443.542
23.04000 430.907
23.05000 414.581
23.06000 400.367
23.07000 405.792
23.08000 416.012
23.09000 424.896
23.10000 431.030
23.11000 435.889
23.12000 439.986
23.13000 441.202
23.14000 442.140
23.15000 439.466
23.16000 427.521
23.17000 415.110
23.18000 407.160
23.19000 419.454
23.20000 428.682
23.21000 436.234
23.22000 441.830
23.23000 447.394
23.24000 446.722
23.25000 441.319
23.26000 436.009
23.27000 431.905
23.28000 428.534
23.29000 425.473
23.30000 427.393
23.31000 431.051
23.32000 434.325
23.33000 434.208
23.34000 433.292
23.35000 432.501
23.36000 438.879
23.37000 445.227
23.38000 450.330
23.39000 450.897
23.40000 451.049
23.41000 448.965
23.42000 441.341
23.43000 433.457
23.44000 428.476
23.45000 437.647
23.46000 444.457
23.47000 445.510
23.48000 440.097
23.49000 434.682
23.50000 429.583
23.51000 424.716
23.52000 419.942
23.53000 426.539
23.54000 438.302
23.55000 449.247
23.56000 447.824
23.57000 442.238
23.58000 437.282
23.59000 437.654
23.60000 439.233
23.61000 440.589
23.62000 443.501
23.63000 446.156
23.64000 449.619
23.65000 455.925
23.66000 462.477
23.67000 464.202
23.68000 454.372
23.69000 444.041
23.70000 437.605
23.71000 443.397
23.72000 447.695
23.73000 450.122
23.74000 450.532
23.75000 450.937
23.76000 450.761
23.77000 450.178
23.78000 449.607
23.79000 451.656
23.80000 454.823
23.81000 458.089
23.82000 462.771
23.83000 467.912
23.84000 473.460
23.85000 482.295
23.86000 491.846
23.87000 499.995
23.88000 486.689
23.89000 472.958
23.90000 465.922
23.91000 481.608
23.92000 499.163
23.93000 510.373
23.94000 506.914
23.95000 502.866
23.96000 500.381
23.97000 501.541
23.98000 502.403
23.99000 502.037
24.00000 500.399
24.01000 498.767
24.02000 497.984
24.03000 497.776
24.04000 497.573
24.05000 498.294
24.06000 499.390
24.07000 500.353
24.08000 499.525
24.09000 498.135
24.10000 497.257
24.11000 500.325
24.12000 504.221
24.13000 507.524
24.14000 496.619
24.15000 485.884
24.16000 477.007
24.17000 474.209
24.18000 471.884
24.19000 467.969
24.20000 460.503
24.21000 452.905
24.22000 448.310
24.23000 459.086
24.24000 466.877
24.25000 467.661
24.26000 461.472
24.27000 455.288
24.28000 449.515
24.29000 444.010
24.30000 438.646
24.31000 441.240
24.32000 447.087
24.33000 452.106
24.34000 446.638
24.35000 437.994
24.36000 430.044
24.37000 427.203
24.38000 425.394
24.39000 423.872
24.40000 418.839
24.41000 414.265
24.42000 410.963
24.43000 411.679
24.44000 412.690
24.45000 413.874
24.46000 415.430
24.47000 416.998
24.48000 417.933
24.49000 423.630
24.50000 427.695
24.51000 424.657
24.52000 414.836
24.53000 405.157
24.54000 406.796
24.55000 415.573
24.56000 424.106
24.57000 426.827
24.58000 427.044
24.59000 427.146
24.60000 425.861
24.61000 424.171
24.62000 422.679
24.63000 422.583
24.64000 422.758
24.65000 422.904
24.66000 414.106
24.67000 405.890
24.68000 399.423
24.69000 398.289
24.70000 397.525
24.71000 397.686
24.72000 399.771
24.73000 401.916
24.74000 403.173
24.75000 406.220
24.76000 408.374
24.77000 410.703
24.78000 413.192
24.79000 415.594
24.80000 412.066
24.81000 404.929
24.82000 398.008
24.83000 395.646
24.84000 395.197
24.85000 394.890
24.86000 396.192
24.87000 397.947
24.88000 399.294
24.89000 397.874
24.90000 395.938
24.91000 394.330
24.92000 399.461
24.93000 404.353
24.94000 410.201
24.95000 418.861
24.96000 427.704
24.97000 430.357
24.98000 420.571
24.99000 410.434
25.00000 404.586
25.01000 406.699
25.02000 408.206
25.03000 405.785
25.04000 399.900
25.05000 394.168
25.06000 397.562
25.07000 406.312
25.08000 414.774
25.09000 409.246
25.10000 398.744
25.11000 389.411
25.12000 392.667
25.13000 399.345
25.14000 405.354
25.15000 407.024
25.16000 407.916
25.17000 408.651
25.18000 403.702
25.19000 399.108
25.20000 398.087
25.21000 407.219
25.22000 416.972
25.23000 420.023
25.24000 410.070
25.25000 399.785
25.26000 393.949
25.27000 398.674
25.28000 401.989
25.29000 401.654
25.30000 398.223
25.31000 394.889
25.32000 396.674
25.33000 401.358
25.34000 405.875
25.35000 403.900
25.36000 399.684
25.37000 395.698
25.38000 394.066
25.39000 393.050
25.40000 393.219
25.41000 400.743
25.42000 409.537
25.43000 416.728
25.44000 404.196
25.45000 392.216
25.46000 384.218
25.47000 387.151
25.48000 390.711
25.49000 392.980
25.50000 392.830
25.51000 392.624
25.52000 392.509
25.53000 397.282
25.54000 400.591
25.55000 401.652
25.56000 400.880
25.57000 400.082
25.58000 398.111
25.59000 395.498
25.60000 392.986
25.61000 394.515
25.62000 397.362
25.63000 400.008
25.64000 400.712
25.65000 400.925
25.66000 401.258
25.67000 402.307
25.68000 403.476
25.69000 404.424
25.70000 398.824
25.71000 393.719
25.72000 391.238
25.73000 395.711
25.74000 400.556
25.75000 403.049
25.76000 401.291
25.77000 399.445
25.78000 398.433
25.79000 386.387
25.80000 378.098
25.81000 373.506
25.82000 371.818
25.83000 370.134
25.84000 368.645
25.85000 367.259
25.86000 365.931
25.87000 366.519
25.88000 367.713
25.89000 368.811
25.90000 369.031
25.91000 369.036
25.92000 369.988
25.93000 376.351
25.94000 383.575
25.95000 389.390
25.96000 393.745
25.97000 397.165
25.98000 397.510
25.99000 389.985
26.00000 382.067
26.01000 378.859
26.02000 383.868
26.03000 389.025
26.04000 391.801
26.05000 393.511
26.06000 394.678
26.07000 395.949
26.08000 397.299
26.09000 398.728
26.10000 403.126
26.11000 409.038
26.12000 414.687
26.13000 406.569
26.14000 394.565
26.15000 383.243
26.16000 377.930
26.17000 374.027
26.18000 372.142
26.19000 381.347
26.20000 392.241
26.21000 400.941
26.22000 395.093
26.23000 389.297
26.24000 384.349
26.25000 381.494
26.26000 378.737
26.27000 377.183
26.28000 377.655
26.29000 378.159
26.30000 378.425
26.31000 395.814
26.32000 407.533
26.33000 402.940
26.34000 386.467
26.35000 370.488
26.36000 371.475
26.37000 380.807
26.38000 389.695
26.39000 393.293
26.40000 394.980
26.41000 396.292
26.42000 394.446
26.43000 391.886
26.44000 389.112
26.45000 385.202
26.46000 381.126
26.47000 377.898
26.48000 374.343
26.49000 371.463
26.50000 371.277
26.51000 377.522
26.52000 384.043
26.53000 383.928
26.54000 373.037
26.55000 361.996
26.56000 356.273
26.57000 365.953
26.58000 372.445
26.59000 373.333
26.60000 370.289
26.61000 367.425
26.62000 370.184
26.63000 375.614
26.64000 380.769
26.65000 375.433
26.66000 367.370
26.67000 360.575
26.68000 363.962
26.69000 369.564
26.70000 375.140
26.71000 380.580
26.72000 386.001
26.73000 390.259
26.74000 388.915
26.75000 387.473
26.76000 388.898
26.77000 396.931
26.78000 405.227
26.79000 407.275
26.80000 399.539
26.81000 391.685
26.82000 387.694
26.83000 387.015
26.84000 386.545
26.85000 384.458
26.86000 381.278
26.87000 378.059
26.88000 373.689
26.89000 368.791
26.90000 364.158
26.91000 374.027
26.92000 387.269
26.93000 398.838
26.94000 397.555
26.95000 393.580
26.96000 390.501
26.97000 391.797
26.98000 393.676
26.99000 395.140
27.00000 388.210
27.01000 382.174
27.02000 378.571
27.03000 380.386
27.04000 382.399
27.05000 384.545
27.06000 386.892
27.07000 389.240
27.08000 386.021
27.09000 377.282
27.10000 368.582
27.11000 363.384
27.12000 360.471
27.13000 357.894
27.14000 364.155
27.15000 374.329
27.16000 383.919
27.17000 385.097
27.18000 383.852
27.19000 382.396
27.20000 379.395
27.21000 376.083
27.22000 373.203
27.23000 372.354
27.24000 371.764
27.25000 371.309
27.26000 375.598
27.27000 379.271
27.28000 381.527
27.29000 380.735
27.30000 379.841
27.31000 378.629
27.32000 376.957
27.33000 375.281
27.34000 371.430
27.35000 365.510
27.36000 359.718
27.37000 363.945
27.38000 374.471
27.39000 384.621
27.40000 385.630
27.41000 382.732
27.42000 380.010
27.43000 373.824
27.44000 367.263
27.45000 361.958
27.46000 365.486
27.47000 370.725
27.48000 374.811
27.49000 373.675
27.50000 371.902
27.51000 370.546
27.52000 377.271
27.53000 383.015
27.54000 388.012
27.55000 391.460
27.56000 394.860
27.57000 394.716
27.58000 389.599
27.59000 384.450
27.60000 379.616
27.61000 375.073
27.62000 370.652
27.63000 374.523
27.64000 383.425
27.65000 391.784
27.66000 387.954
27.67000 379.089
27.68000 370.798
27.69000 369.869
27.70000 370.904
27.71000 372.221
27.72000 375.436
27.73000 379.004
27.74000 382.409
27.75000 385.102
27.76000 387.712
27.77000 389.690
27.78000 376.736
27.79000 365.806
27.80000 358.733
27.81000 359.389
27.82000 360.261
27.83000 363.251
27.84000 369.104
27.85000 374.970
27.86000 374.695
27.87000 369.031
27.88000 363.446
27.89000 362.588
27.90000 364.496
27.91000 366.247
27.92000 364.725
27.93000 361.899
27.94000 359.266
27.95000 363.586
27.96000 369.198
27.97000 373.842
27.98000 372.240
27.99000 369.519
28.00000 368.372
28.01000 373.830
28.02000 380.021
28.03000 384.667
28.04000 376.366
28.05000 369.264
28.06000 364.029
28.07000 362.403
28.08000 360.868
28.09000 358.863
28.10000 356.246
28.11000 353.629
28.12000 356.612
28.13000 364.310
28.14000 371.847
28.15000 371.044
28.16000 365.530
28.17000 360.287
28.18000 360.309
28.19000 362.359
28.20000 364.261
28.21000 371.493
28.22000 379.264
28.23000 385.025
28.24000 378.352
28.25000 369.542
28.26000 363.730
28.27000 370.046
28.28000 377.646
28.29000 383.293
28.30000 369.589
28.31000 358.076
28.32000 351.215
28.33000 353.042
28.34000 355.066
28.35000 358.697
28.36000 364.341
28.37000 369.983
28.38000 367.325
28.39000 357.951
28.40000 348.736
28.41000 346.904
28.42000 349.096
28.43000 351.264
28.44000 352.993
28.45000 354.559
28.46000 356.006
28.47000 360.047
28.48000 364.259
28.49000 368.116
28.50000 369.867
28.51000 371.272
28.52000 371.871
28.53000 369.332
28.54000 366.477
28.55000 364.376
28.56000 357.438
28.57000 351.870
28.58000 348.693
28.59000 349.825
28.60000 351.044
28.61000 353.300
28.62000 356.808
28.63000 360.310
28.64000 359.451
28.65000 355.198
28.66000 351.083
28.67000 352.721
28.68000 357.387
28.69000 361.737
28.70000 360.750
28.71000 357.847
28.72000 355.177
28.73000 354.796
28.74000 354.951
28.75000 355.683
28.76000 359.698
28.77000 364.233
28.78000 367.681
28.79000 367.042
28.80000 366.012
28.81000 365.262
28.82000 364.855
28.83000 364.555
28.84000 364.610
28.85000 365.285
28.86000 365.970
28.87000 366.690
28.88000 367.448
28.89000 368.204
28.90000 367.099
28.91000 364.608
28.92000 362.077
28.93000 358.031
28.94000 353.217
28.95000 349.074
28.96000 355.612
28.97000 365.853
28.98000 375.230
28.99000 372.155
29.00000 366.829
29.01000 362.305
29.02000 362.172
29.03000 362.704
29.04000 363.772
29.05000 366.780
29.06000 369.963
29.07000 372.257
29.08000 364.401
29.09000 358.023
29.10000 354.165
29.11000 354.535
29.12000 354.973
29.13000 360.173
29.14000 370.686
29.15000 381.166
29.16000 378.530
29.17000 366.479
29.18000 354.592
29.19000 348.320
29.20000 344.801
29.21000 341.466
29.22000 340.884
29.23000 341.223
29.24000 341.532
29.25000 351.077
29.26000 361.378
29.27000 370.207
29.28000 371.293
29.29000 371.253
29.30000 370.225
29.31000 365.743
29.32000 360.964
29.33000 357.558
29.34000 357.068
29.35000 356.789
29.36000 355.544
29.37000 352.734
29.38000 349.902
29.39000 348.778
29.40000 349.485
29.41000 350.189
29.42000 354.765
29.43000 361.971
29.44000 369.086
29.45000 373.377
29.46000 376.329
29.47000 378.932
29.48000 376.609
29.49000 372.696
29.50000 369.147
29.51000 364.199
29.52000 359.567
29.53000 355.388
29.54000 353.510
29.55000 351.951
29.56000 351.219
29.57000 353.276
29.58000 355.560
29.59000 357.169
29.60000 356.619
29.61000 356.136
29.62000 353.687
29.63000 348.168
29.64000 342.613
29.65000 341.005
29.66000 343.461
29.67000 345.903
29.68000 346.281
29.69000 345.281
29.70000 344.417
29.71000 347.433
29.72000 352.222
29.73000 356.627
29.74000 355.937
29.75000 353.658
29.76000 351.602
29.77000 355.613
29.78000 360.249
29.79000 364.910
29.80000 369.692
29.81000 374.490
29.82000 376.730
29.83000 370.647
29.84000 363.923
29.85000 359.236
29.86000 367.070
29.87000 373.327
29.88000 378.712
29.89000 382.783
29.90000 386.841
29.91000 386.093
29.92000 380.598
29.93000 375.139
29.94000 374.270
29.95000 376.352
29.96000 378.336
29.97000 377.750
29.98000 376.029
29.99000 374.790
30.00000 379.594
30.01000 386.217
30.02000 392.164
30.03000 382.862
30.04000 372.048
30.05000 362.283
30.06000 357.436
30.07000 353.215
30.08000 349.020
30.09000 344.908
30.10000 340.801
30.11000 337.972
30.12000 350.022
30.13000 359.442
30.14000 365.664
30.15000 367.243
30.16000 368.783
30.17000 370.610
30.18000 372.709
30.19000 374.791
30.20000 371.432
30.21000 364.780
30.22000 358.318
30.23000 356.431
30.24000 356.494
30.25000 357.477
30.26000 369.388
30.27000 384.472
30.28000 397.943
30.29000 388.868
30.30000 377.171
30.31000 367.542
30.32000 367.240
30.33000 368.072
30.34000 369.016
30.35000 370.296
30.36000 371.600
30.37000 372.487
30.38000 375.300
30.39000 377.446
30.40000 375.219
30.41000 366.877
30.42000 358.495
30.43000 352.574
30.44000 348.897
30.45000 345.254
30.46000 346.619
30.47000 350.926
30.48000 355.355
30.49000 362.513
30.50000 370.794
30.51000 378.289
30.52000 376.932
30.53000 373.095
30.54000 369.687
30.55000 368.310
30.56000 367.443
30.57000 367.116
30.58000 369.141
30.59000 371.438
30.60000 371.946
30.61000 367.218
30.62000 362.152
30.63000 358.746
30.64000 376.264
30.65000 389.714
30.66000 393.414
30.67000 383.976
30.68000 374.475
30.69000 371.444
30.70000 374.081
30.71000 376.690
30.72000 376.279
30.73000 374.154
30.74000 372.185
30.75000 373.442
30.76000 375.981
30.77000 378.822
30.78000 384.885
30.79000 391.817
30.80000 397.941
30.81000 394.848
30.82000 390.758
30.83000 388.233
30.84000 392.252
30.85000 396.995
30.86000 399.624
30.87000 396.280
30.88000 392.575
30.89000 390.114
30.90000 395.782
30.91000 400.123
30.92000 404.493
30.93000 408.903
30.94000 413.312
30.95000 417.647
30.96000 421.919
30.97000 426.139
30.98000 434.113
30.99000 443.947
31.00000 453.554
31.01000 458.804
31.02000 462.380
31.03000 466.536
31.04000 476.569
31.05000 488.133
31.06000 498.291
31.07000 504.057
31.08000 508.366
31.09000 515.883
31.10000 536.332
31.11000 558.144
31.12000 575.897
31.13000 582.579
31.14000 588.632
31.15000 592.601
31.16000 616.437
31.17000 634.294
31.18000 651.569
31.19000 668.117
31.20000 684.665
31.21000 702.377
31.22000 721.031
31.23000 739.427
31.24000 763.585
31.25000 790.106
31.26000 816.233
31.27000 835.242
31.28000 851.611
31.29000 867.946
31.30000 883.946
31.31000 899.861
31.32000 913.760
31.33000 923.267
31.34000 930.786
31.35000 938.556
31.36000 947.298
31.37000 956.138
31.38000 962.281
31.39000 961.320
31.40000 959.983
31.41000 959.118
31.42000 941.177
31.43000 927.803
31.44000 911.442
31.45000 891.491
31.46000 871.543
31.47000 854.475
31.48000 839.655
31.49000 825.066
31.50000 811.254
31.51000 798.265
31.52000 784.918
31.53000 765.521
31.54000 743.958
31.55000 723.685
31.56000 715.270
31.57000 709.723
31.58000 704.908
31.59000 671.242
31.60000 638.679
31.61000 609.956
31.62000 595.623
31.63000 582.660
31.64000 570.362
31.65000 559.754
31.66000 549.228
31.67000 542.510
31.68000 515.052
31.69000 494.808
31.70000 481.226
31.71000 475.347
31.72000 469.467
31.73000 461.147
31.74000 450.993
31.75000 441.018
31.76000 436.015
31.77000 433.614
31.78000 431.352
31.79000 431.293
31.80000 431.995
31.81000 431.318
31.82000 418.563
31.83000 402.993
31.84000 389.560
31.85000 394.048
31.86000 400.154
31.87000 404.083
31.88000 400.146
31.89000 395.497
31.90000 393.246
31.91000 396.883
31.92000 400.792
31.93000 403.252
31.94000 392.902
31.95000 385.268
31.96000 380.592
31.97000 379.204
31.98000 377.840
31.99000 379.858
32.00000 384.324
32.01000 388.703
32.02000 384.543
32.03000 376.518
32.04000 368.731
32.05000 364.490
32.06000 361.432
32.07000 358.953
32.08000 361.307
32.09000 364.746
32.10000 367.695
32.11000 359.688
32.12000 351.585
32.13000 344.777
32.14000 342.480
32.15000 340.569
32.16000 339.134
32.17000 338.828
32.18000 338.569
32.19000 338.409
32.20000 350.401
32.21000 359.150
32.22000 360.477
32.23000 353.877
32.24000 347.290
32.25000 342.785
32.26000 339.731
32.27000 336.743
32.28000 337.883
32.29000 340.847
32.30000 343.853
32.31000 347.443
32.32000 351.220
32.33000 354.028
32.34000 349.104
32.35000 342.508
32.36000 336.890
32.37000 344.551
32.38000 352.540
32.39000 356.385
32.40000 346.298
32.41000 335.080
32.42000 328.289
32.43000 331.639
32.44000 335.389
32.45000 337.682
32.46000 336.742
32.47000 336.042
32.48000 333.259
32.49000 328.340
32.50000 323.409
32.51000 317.209
32.52000 310.155
32.53000 303.269
32.54000 308.329
32.55000 318.378
32.56000 327.667
32.57000 326.915
32.58000 323.040
32.59000 320.060
32.60000 323.892
32.61000 329.142
32.62000 333.584
32.63000 328.913
32.64000 323.992
32.65000 319.361
32.66000 315.672
32.67000 312.056
32.68000 311.064
32.69000 315.880
32.70000 320.906
32.71000 323.935
32.72000 326.332
32.73000 328.034
32.74000 329.779
32.75000 331.568
32.76000 333.321
32.77000 331.892
32.78000 328.399
32.79000 324.998
32.80000 336.299
32.81000 353.243
32.82000 370.439
32.83000 390.799
32.84000 412.108
32.85000 432.645
32.86000 447.552
32.87000 461.332
32.88000 472.912
32.89000 478.820
32.90000 483.143
32.91000 488.393
32.92000 496.543
32.93000 504.903
32.94000 517.864
32.95000 540.656
32.96000 563.775
32.97000 577.491
32.98000 571.736
32.99000 567.551
33.00000 560.132
33.01000 549.655
33.02000 539.213
33.03000 531.395
33.04000 525.216
33.05000 519.214
33.06000 504.796
33.07000 487.701
33.08000 470.362
33.09000 450.128
33.10000 429.057
33.11000 408.428
33.12000 390.889
33.13000 373.944
33.14000 359.805
33.15000 358.851
33.16000 359.384
33.17000 357.583
33.18000 348.727
33.19000 339.389
33.20000 330.620
33.21000 323.023
33.22000 315.463
33.23000 311.047
33.24000 309.498
33.25000 308.421
33.26000 305.310
33.27000 300.352
33.28000 295.488
33.29000 296.834
33.30000 301.925
33.31000 306.857
33.32000 306.573
33.33000 304.277
33.34000 301.878
33.35000 298.324
33.36000 294.448
33.37000 290.622
33.38000 287.128
33.39000 283.695
33.40000 280.851
33.41000 283.131
33.42000 285.502
33.43000 288.135
33.44000 291.529
33.45000 294.972
33.46000 297.733
33.47000 299.133
33.48000 300.497
33.49000 301.280
33.50000 293.603
33.51000 288.209
33.52000 287.154
33.53000 289.890
33.54000 292.610
33.55000 294.404
33.56000 295.659
33.57000 296.871
33.58000 296.114
33.59000 294.663
33.60000 293.584
33.61000 296.466
33.62000 300.415
33.63000 303.020
33.64000 297.013
33.65000 289.474
33.66000 283.275
33.67000 280.841
33.68000 279.182
33.69000 277.741
33.70000 276.917
33.71000 276.129
33.72000 275.923
33.73000 276.835
33.74000 277.774
33.75000 278.304
33.76000 286.542
33.77000 292.281
33.78000 293.022
33.79000 289.566
33.80000 286.273
33.81000 291.361
33.82000 301.153
33.83000 310.590
33.84000 303.652
33.85000 291.241
33.86000 280.174
33.87000 282.682
33.88000 288.715
33.89000 295.015
33.90000 302.952
33.91000 311.170
33.92000 317.877
33.93000 311.100
33.94000 304.398
33.95000 300.461
33.96000 304.047
33.97000 308.056
33.98000 310.929
33.99000 311.690
34.00000 312.405
34.01000 312.801
34.02000 314.215
34.03000 315.188
34.04000 313.848
34.05000 310.640
34.06000 307.483
34.07000 306.659
34.08000 307.099
34.09000 307.522
34.10000 307.495
34.11000 307.314
34.12000 307.167
34.13000 307.349
34.14000 307.612
34.15000 308.689
34.16000 314.557
34.17000 321.210
34.18000 326.598
34.19000 322.306
34.20000 318.024
34.21000 314.195
34.22000 311.556
34.23000 308.979
34.24000 309.368
34.25000 315.069
34.26000 320.876
34.27000 324.044
34.28000 323.800
34.29000 323.612
34.30000 319.538
34.31000 312.439
34.32000 305.501
34.33000 305.104
34.34000 308.129
34.35000 311.026
34.36000 316.351
34.37000 322.126
34.38000 326.933
34.39000 322.885
34.40000 316.701
34.41000 310.813
34.42000 306.599
34.43000 302.649
34.44000 299.475
34.45000 307.011
34.46000 313.942
34.47000 319.266
34.48000 320.511
34.49000 321.555
34.50000 318.689
34.51000 309.061
34.52000 299.314
34.53000 294.092
34.54000 298.751
34.55000 301.932
34.56000 303.745
34.57000 304.533
34.58000 305.130
34.59000 298.649
34.60000 288.595
34.61000 278.994
34.62000 276.342
34.63000 276.102
34.64000 276.262
34.65000 279.898
34.66000 284.341
34.67000 288.322
34.68000 289.780
34.69000 290.859
34.70000 291.718
34.71000 291.767
34.72000 291.747
34.73000 289.691
34.74000 282.644
34.75000 275.370
34.76000 271.644
34.77000 273.838
34.78000 276.125
34.79000 277.326
34.80000 281.889
34.81000 284.966
34.82000 285.233
34.83000 283.473
34.84000 281.711
34.85000 279.859
34.86000 277.963
34.87000 276.159
34.88000 277.105
34.89000 278.829
34.90000 280.161
34.91000 278.239
34.92000 275.589
34.93000 273.290
34.94000 272.830
34.95000 272.635
34.96000 272.481
34.97000 275.996
34.98000 279.071
34.99000 280.158
35.00000 276.545
35.01000 272.733
35.02000 270.195
35.03000 269.707
35.04000 269.247
35.05000 269.009
35.06000 271.842
35.07000 273.741
35.08000 274.401
35.09000 274.202
35.10000 274.005
35.11000 273.911
35.12000 273.864
35.13000 273.820
35.14000 271.148
35.15000 267.906
35.16000 265.144
35.17000 266.200
35.18000 268.079
35.19000 269.209
35.20000 266.575
35.21000 263.421
35.22000 260.949
35.23000 258.403
35.24000 256.363
35.25000 256.784
35.26000 262.826
35.27000 269.087
35.28000 271.930
35.29000 269.466
35.30000 266.941
35.31000 265.665
35.32000 264.926
35.33000 264.435
35.34000 264.387
35.35000 264.635
35.36000 264.956
35.37000 267.297
35.38000 270.556
35.39000 273.637
35.40000 271.435
35.41000 267.909
35.42000 264.532
35.43000 262.284
35.44000 260.270
35.45000 258.852
35.46000 260.319
35.47000 262.167
35.48000 263.603
35.49000 265.855
35.50000 267.696
35.51000 269.668
35.52000 271.928
35.53000 274.198
35.54000 275.586
35.55000 275.654
35.56000 275.709
35.57000 275.111
35.58000 273.873
35.59000 272.581
35.60000 266.522
35.61000 257.384
35.62000 248.650
35.63000 250.340
35.64000 256.606
35.65000 262.506
35.66000 263.671
35.67000 263.440
35.68000 263.529
35.69000 265.933
35.70000 268.799
35.71000 270.309
35.72000 265.507
35.73000 259.907
35.74000 255.595
35.75000 261.110
35.76000 266.037
35.77000 268.273
35.78000 264.777
35.79000 261.093
35.80000 257.744
35.81000 254.879
35.82000 252.018
35.83000 250.582
35.84000 250.488
35.85000 250.446
35.86000 254.288
35.87000 260.551
35.88000 266.492
35.89000 264.787
35.90000 259.842
35.91000 255.202
35.92000 255.221
35.93000 256.463
35.94000 258.143
35.95000 262.868
35.96000 268.178
35.97000 271.952
35.98000 268.842
35.99000 264.901
36.00000 261.895
36.01000 249.293
36.02000 238.850
36.03000 234.895
36.04000 244.281
36.05000 254.069
36.06000 258.517
36.07000 255.542
36.08000 252.519
36.09000 250.443
36.10000 249.225
36.11000 248.085
36.12000 252.126
36.13000 259.280
36.14000 266.194
36.15000 267.818
36.16000 267.277
36.17000 266.771
36.18000 270.000
36.19000 273.873
36.20000 276.720
36.21000 272.728
36.22000 267.476
36.23000 262.536
36.24000 258.948
36.25000 255.515
36.26000 252.920
36.27000 253.160
36.28000 253.489
36.29000 254.223
36.30000 255.761
36.31000 257.320
36.32000 257.686
36.33000 256.455
36.34000 255.216
36.35000 252.773
36.36000 249.288
36.37000 245.908
36.38000 248.530
36.39000 254.633
36.40000 260.580
36.41000 263.321
36.42000 264.795
36.43000 266.167
36.44000 261.895
36.45000 256.665
36.46000 252.177
36.47000 252.422
36.48000 253.506
36.49000 254.560
36.50000 255.486
36.51000 256.399
36.52000 257.082
36.53000 260.710
36.54000 263.679
36.55000 264.834
36.56000 262.513
36.57000 260.106
36.58000 255.549
36.59000 248.219
36.60000 240.886
36.61000 239.872
36.62000 244.134
36.63000 248.376
36.64000 251.584
36.65000 254.214
36.66000 256.978
36.67000 262.325
36.68000 268.657
36.69000 274.525
36.70000 272.303
36.71000 268.419
36.72000 265.043
36.73000 264.781
36.74000 265.050
36.75000 265.308
36.76000 265.523
36.77000 265.734
36.78000 265.891
36.79000 271.247
36.80000 275.633
36.81000 274.889
36.82000 264.652
36.83000 254.205
36.84000 251.748
36.85000 259.209
36.86000 266.686
36.87000 268.090
36.88000 264.617
36.89000 261.189
36.90000 259.831
36.91000 259.591
36.92000 259.423
36.93000 260.542
36.94000 262.135
36.95000 263.605
36.96000 266.465
36.97000 269.340
36.98000 272.001
36.99000 273.404
37.00000 274.602
37.01000 274.061
37.02000 266.802
37.03000 258.876
37.04000 253.060
37.05000 263.860
37.06000 272.878
37.07000 277.178
37.08000 273.050
37.09000 268.755
37.10000 265.830
37.11000 264.540
37.12000 263.257
37.13000 260.530
37.14000 256.706
37.15000 252.997
37.16000 253.951
37.17000 257.336
37.18000 260.557
37.19000 261.029
37.20000 260.523
37.21000 260.058
37.22000 258.666
37.23000 257.225
37.24000 255.692
37.25000 253.634
37.26000 251.495
37.27000 248.505
37.28000 242.345
37.29000 235.886
37.30000 231.195
37.31000 240.091
37.32000 247.442
37.33000 252.379
37.34000 253.157
37.35000 253.862
37.36000 251.620
37.37000 245.993
37.38000 240.377
37.39000 239.598
37.40000 242.409
37.41000 245.152
37.42000 245.436
37.43000 244.481
37.44000 243.720
37.45000 245.992
37.46000 249.307
37.47000 252.339
37.48000 256.977
37.49000 261.429
37.50000 263.527
37.51000 252.856
37.52000 240.268
37.53000 231.911
37.54000 238.748
37.55000 246.948
37.56000 252.840
37.57000 259.704
37.58000 264.990
37.59000 265.225
37.60000 257.060
37.61000 248.765
37.62000 244.378
37.63000 244.306
37.64000 244.236
37.65000 244.373
37.66000 244.656
37.67000 244.985
37.68000 246.866
37.69000 249.501
37.70000 251.754
37.71000 248.391
37.72000 243.165
37.73000 238.408
37.74000 236.202
37.75000 234.752
37.76000 234.151
37.77000 237.969
37.78000 242.423
37.79000 246.424
37.80000 248.859
37.81000 251.160
37.82000 252.796
37.83000 255.931
37.84000 258.366
37.85000 259.018
37.86000 256.811
37.87000 254.566
37.88000 251.204
37.89000 246.659
37.90000 242.135
37.91000 241.710
37.92000 244.100
37.93000 246.469
37.94000 248.235
37.95000 249.717
37.96000 251.014
37.97000 249.751
37.98000 247.668
37.99000 245.782
38.00000 253.908
38.01000 262.964
38.02000 270.342
38.03000 269.307
38.04000 267.114
38.05000 264.207
38.06000 258.911
38.07000 253.423
38.08000 249.565
38.09000 255.458
38.10000 260.208
38.11000 262.472
38.12000 260.889
38.13000 259.262
38.14000 258.813
38.15000 259.564
38.16000 260.311
38.17000 259.436
38.18000 257.504
38.19000 255.755
38.20000 259.069
38.21000 264.677
38.22000 270.149
38.23000 273.828
38.24000 276.952
38.25000 279.768
38.26000 273.895
38.27000 267.164
38.28000 261.529
38.29000 261.177
38.30000 261.520
38.31000 263.065
38.32000 268.490
38.33000 274.209
38.34000 278.184
38.35000 278.007
38.36000 277.762
38.37000 281.004
38.38000 289.448
38.39000 297.942
38.40000 301.946
38.41000 301.560
38.42000 301.176
38.43000 309.848
38.44000 324.127
38.45000 338.182
38.46000 346.515
38.47000 352.344
38.48000 358.679
38.49000 371.289
38.50000 385.769
38.51000 398.752
38.52000 414.119
38.53000 427.960
38.54000 441.081
38.55000 450.857
38.56000 460.211
38.57000 473.253
38.58000 497.774
38.59000 523.118
38.60000 540.526
38.61000 531.343
38.62000 523.805
38.63000 531.085
38.64000 559.674
38.65000 588.427
38.66000 601.123
38.67000 598.740
38.68000 596.376
38.69000 600.933
38.70000 609.631
38.71000 617.941
38.72000 617.103
38.73000 612.400
38.74000 607.872
38.75000 605.405
38.76000 603.529
38.77000 601.857
38.78000 594.528
38.79000 587.211
38.80000 577.226
38.81000 555.323
38.82000 531.988
38.83000 508.387
38.84000 483.989
38.85000 459.536
38.86000 442.941
38.87000 423.915
38.88000 409.668
38.89000 398.595
38.90000 391.918
38.91000 385.269
38.92000 376.724
38.93000 366.468
38.94000 356.311
38.95000 346.281
38.96000 336.532
38.97000 326.733
38.98000 315.856
38.99000 304.538
39.00000 293.636
39.01000 287.348
39.02000 282.339
39.03000 277.896
39.04000 280.065
39.05000 282.996
39.06000 283.544
39.07000 273.832
39.08000 262.945
39.09000 254.692
39.10000 254.083
39.11000 253.959
39.12000 253.876
39.13000 253.694
39.14000 253.558
39.15000 254.610
39.16000 257.249
39.17000 259.885
39.18000 253.999
39.19000 240.720
39.20000 227.587
39.21000 228.407
39.22000 237.088
39.23000 245.449
39.24000 247.312
39.25000 246.613
39.26000 245.795
39.27000 243.721
39.28000 241.311
39.29000 239.186
39.30000 240.418
39.31000 241.993
39.32000 243.048
39.33000 241.950
39.34000 240.616
39.35000 240.022
39.36000 241.499
39.37000 243.100
39.38000 244.160
39.39000 250.012
39.40000 254.419
39.41000 254.971
39.42000 250.568
39.43000 246.148
39.44000 242.747
39.45000 240.198
39.46000 237.680
39.47000 237.120
39.48000 237.639
39.49000 238.131
39.50000 238.117
39.51000 237.911
39.52000 237.728
39.53000 237.787
39.54000 237.909
39.55000 238.016
39.56000 238.072
39.57000 238.114
39.58000 238.121
39.59000 237.990
39.60000 237.846
39.61000 238.024
39.62000 239.077
39.63000 240.179
39.64000 240.900
39.65000 237.541
39.66000 235.009
39.67000 233.837
39.68000 234.348
39.69000 234.859
39.70000 233.551
39.71000 230.783
39.72000 228.055
39.73000 225.718
39.74000 223.653
39.75000 221.760
39.76000 222.926
39.77000 225.215
39.78000 227.072
39.79000 224.802
39.80000 221.505
39.81000 218.631
39.82000 219.216
39.83000 220.198
39.84000 222.009
39.85000 227.016
39.86000 232.340
39.87000 234.919
39.88000 230.332
39.89000 225.371
39.90000 222.172
39.91000 221.695
39.92000 221.386
39.93000 222.384
39.94000 224.939
39.95000 227.485
39.96000 227.291
39.97000 224.978
39.98000 222.702
39.99000 219.898
40.00000 216.917
40.01000 214.094
40.02000 213.915
40.03000 214.674
40.04000 215.286
40.05000 214.561
40.06000 213.517
40.07000 212.611
40.08000 220.644
40.09000 228.668
40.10000 235.072
40.11000 235.459
40.12000 235.280
40.13000 235.253
40.14000 235.607
40.15000 235.980
40.16000 236.217
40.17000 221.013
40.18000 209.773
40.19000 205.676
40.20000 209.757
40.21000 213.844
40.22000 217.332
40.23000 220.374
40.24000 223.361
40.25000 219.864
40.26000 213.347
40.27000 207.557
40.28000 213.088
40.29000 222.498
40.30000 230.597
40.31000 227.353
40.32000 221.489
40.33000 216.438
40.34000 220.126
40.35000 224.358
40.36000 228.584
40.37000 232.785
40.38000 236.983
40.39000 237.214
40.40000 227.783
40.41000 217.915
40.42000 211.725
40.43000 215.064
40.44000 217.581
40.45000 218.882
40.46000 218.844
40.47000 218.800
40.48000 217.793
40.49000 216.096
40.50000 214.433
40.51000 216.714
40.52000 220.749
40.53000 224.459
40.54000 223.428
40.55000 220.829
40.56000 218.709
40.57000 220.555
40.58000 223.282
40.59000 225.616
40.60000 215.805
40.61000 206.060
40.62000 199.279
40.63000 202.737
40.64000 207.061
40.65000 210.196
40.66000 210.534
40.67000 210.756
40.68000 210.893
40.69000 210.918
40.70000 210.935
40.71000 212.723
40.72000 216.385
40.73000 219.993
40.74000 216.880
40.75000 209.124
40.76000 201.539
40.77000 202.342
40.78000 206.875
40.79000 211.144
40.80000 211.761
40.81000 211.212
40.82000 210.728
40.83000 210.756
40.84000 210.894
40.85000 211.012
40.86000 211.566
40.87000 212.083
40.88000 213.177
40.89000 216.199
40.90000 219.375
40.91000 220.372
40.92000 216.419
40.93000 212.276
40.94000 209.751
40.95000 208.780
40.96000 208.098
40.97000 208.071
40.98000 208.708
40.99000 209.328
41.00000 208.254
41.01000 206.053
41.02000 203.905
41.03000 206.671
41.04000 211.437
41.05000 215.857
41.06000 215.777
41.07000 214.311
41.08000 213.297
41.09000 215.697
41.10000 218.801
41.11000 221.422
41.12000 218.957
41.13000 216.338
41.14000 213.645
41.15000 210.717
41.16000 207.771
41.17000 206.581
41.18000 209.244
41.19000 212.043
41.20000 213.723
41.21000 203.782
41.22000 196.641
41.23000 196.879
41.24000 204.309
41.25000 211.665
41.26000 212.742
41.27000 209.786
41.28000 206.908
41.29000 209.311
41.30000 213.794
41.31000 217.791
41.32000 215.803
41.33000 212.035
41.34000 208.714
41.35000 208.612
41.36000 209.148
41.37000 209.597
41.38000 208.700
41.39000 207.813
41.40000 207.394
41.41000 208.428
41.42000 209.566
41.43000 209.464
41.44000 206.736
41.45000 203.924
41.46000 202.262
41.47000 204.665
41.48000 206.384
41.49000 205.426
41.50000 201.962
41.51000 198.517
41.52000 196.430
41.53000 195.184
41.54000 193.973
41.55000 199.918
41.56000 208.422
41.57000 216.108
41.58000 214.251
41.59000 209.657
41.60000 205.618
41.61000 205.412
41.62000 205.936
41.63000 206.373
41.64000 210.187
41.65000 213.681
41.66000 215.240
41.67000 210.999
41.68000 206.369
41.69000 201.672
41.70000 196.837
41.71000 191.997
41.72000 189.183
41.73000 196.621
41.74000 201.890
41.75000 205.843
41.76000 208.611
41.77000 211.304
41.78000 209.213
41.79000 204.263
41.80000 199.470
41.81000 201.459
41.82000 205.950
41.83000 210.275
41.84000 212.753
41.85000 214.721
41.86000 215.619
41.87000 209.438
41.88000 201.960
41.89000 195.776
41.90000 202.256
41.91000 208.792
41.92000 212.280
41.93000 206.949
41.94000 201.062
41.95000 198.918
41.96000 204.166
41.97000 209.613
41.98000 212.729
41.99000 214.236
42.00000 215.281
42.01000 214.720
42.02000 212.771
42.03000 210.854
42.04000 210.775
42.05000 211.756
42.06000 212.703
42.07000 210.579
42.08000 207.441
42.09000 204.789
42.10000 207.239
42.11000 211.050
42.12000 214.277
42.13000 213.800
42.14000 212.671
42.15000 211.745
42.16000 217.935
42.17000 223.653
42.18000 226.785
42.19000 222.694
42.20000 218.175
42.21000 215.677
42.22000 217.029
42.23000 218.475
42.24000 219.289
42.25000 223.743
42.26000 226.832
42.27000 223.836
42.28000 215.780
42.29000 207.841
42.30000 205.700
42.31000 206.784
42.32000 207.828
42.33000 210.805
42.34000 214.289
42.35000 217.140
42.36000 213.681
42.37000 208.600
42.38000 204.716
42.39000 208.125
42.40000 212.765
42.41000 216.545
42.42000 216.414
42.43000 215.975
42.44000 214.515
42.45000 210.296
42.46000 205.925
42.47000 204.062
42.48000 206.812
42.49000 209.662
42.50000 211.238
42.51000 210.463
42.52000 209.917
42.53000 207.124
42.54000 202.533
42.55000 198.018
42.56000 196.921
42.57000 197.659
42.58000 198.368
42.59000 198.821
42.60000 199.157
42.61000 199.543
42.62000 200.410
42.63000 201.397
42.64000 203.180
42.65000 209.615
42.66000 216.804
42.67000 222.614
42.68000 218.448
42.69000 214.259
42.70000 211.364
42.71000 211.839
42.72000 212.489
42.73000 212.459
42.74000 211.221
42.75000 209.959
42.76000 209.274
42.77000 206.948
42.78000 205.343
42.79000 201.791
42.80000 196.738
42.81000 191.910
42.82000 196.028
42.83000 204.784
42.84000 213.165
42.85000 208.097
42.86000 198.941
42.87000 191.014
42.88000 194.200
42.89000 200.041
42.90000 204.720
42.91000 202.882
42.92000 200.031
42.93000 197.744
42.94000 196.666
42.95000 195.885
42.96000 195.574
42.97000 196.444
42.98000 197.371
42.99000 198.706
43.00000 200.741
43.01000 202.788
43.02000 203.880
43.03000 201.940
43.04000 200.605
43.05000 197.296
43.06000 192.520
43.07000 187.772
43.08000 184.002
43.09000 180.721
43.10000 177.590
43.11000 182.786
43.12000 190.250
43.13000 196.831
43.14000 195.803
43.15000 193.024
43.16000 191.496
43.17000 196.700
43.18000 202.908
43.19000 207.845
43.20000 206.305
43.21000 204.600
43.22000 204.005
43.23000 206.106
43.24000 208.327
43.25000 208.772
43.26000 206.282
43.27000 203.749
43.28000 202.423
43.29000 201.789
43.30000 201.347
43.31000 198.888
43.32000 194.988
43.33000 191.219
43.34000 191.727
43.35000 194.302
43.36000 196.750
43.37000 195.693
43.38000 193.646
43.39000 191.827
43.40000 191.881
43.41000 192.350
43.42000 193.544
43.43000 198.493
43.44000 203.978
43.45000 208.304
43.46000 199.437
43.47000 191.433
43.48000 187.009
43.49000 190.979
43.50000 195.298
43.51000 196.273
43.52000 191.919
43.53000 187.497
43.54000 185.227
43.55000 183.306
43.56000 182.040
43.57000 183.870
43.58000 187.833
43.59000 191.834
43.60000 197.007
43.61000 202.727
43.62000 208.148
43.63000 197.994
43.64000 184.076
43.65000 171.901
43.66000 173.433
43.67000 177.889
43.68000 182.211
43.69000 185.867
43.70000 189.433
43.71000 192.221
43.72000 192.573
43.73000 192.699
43.74000 192.306
43.75000 190.740
43.76000 189.128
43.77000 189.948
43.78000 194.506
43.79000 199.106
43.80000 201.420
43.81000 197.883
43.82000 195.526
43.83000 193.785
43.84000 192.454
43.85000 191.207
43.86000 192.270
43.87000 194.374
43.88000 196.361
43.89000 192.361
43.90000 187.004
43.91000 182.431
43.92000 183.756
43.93000 186.293
43.94000 188.837
43.95000 191.419
43.96000 194.006
43.97000 196.011
43.98000 198.218
43.99000 199.983
44.00000 201.336
44.01000 201.787
44.02000 202.207
44.03000 202.510
44.04000 202.641
44.05000 202.770
44.06000 204.107
44.07000 206.617
44.08000 209.065
44.09000 206.278
44.10000 200.139
44.11000 194.079
44.12000 190.022
44.13000 186.836
44.14000 183.839
44.15000 184.540
44.16000 186.182
44.17000 187.756
44.18000 188.844
44.19000 189.837
44.20000 191.261
44.21000 194.676
44.22000 198.341
44.23000 201.156
44.24000 202.256
44.25000 203.029
44.26000 200.779
44.27000 192.144
44.28000 183.303
44.29000 180.941
44.30000 187.839
44.31000 194.806
44.32000 200.218
44.33000 204.178
44.34000 208.077
44.35000 207.522
44.36000 204.215
44.37000 201.049
44.38000 201.174
44.39000 202.681
44.40000 204.093
44.41000 201.035
44.42000 197.088
44.43000 194.303
44.44000 199.513
44.45000 206.242
44.46000 211.583
44.47000 210.761
44.48000 209.204
44.49000 208.019
44.50000 202.601
44.51000 198.115
44.52000 195.825
44.53000 198.013
44.54000 200.332
44.55000 200.783
44.56000 198.661
44.57000 196.524
44.58000 201.378
44.59000 212.488
44.60000 223.412
44.61000 222.549
44.62000 214.664
44.63000 207.041
44.64000 205.078
44.65000 205.412
44.66000 205.724
44.67000 204.812
44.68000 203.679
44.69000 203.549
44.70000 210.029
44.71000 217.717
44.72000 223.617
44.73000 221.876
44.74000 219.265
44.75000 217.297
44.76000 216.365
44.77000 215.687
44.78000 213.774
44.79000 209.432
44.80000 205.025
44.81000 203.287
44.82000 205.088
44.83000 206.905
44.84000 210.138
44.85000 214.582
44.86000 218.955
44.87000 219.366
44.88000 217.499
44.89000 215.672
44.90000 214.662
44.91000 213.971
44.92000 213.329
44.93000 213.707
44.94000 214.294
44.95000 215.019
44.96000 216.614
44.97000 218.362
44.98000 219.300
44.99000 216.898
45.00000 214.135
45.01000 212.071
45.02000 216.730
45.03000 220.671
45.04000 223.262
45.05000 223.292
45.06000 223.261
45.07000 221.348
45.08000 217.034
45.09000 212.716
45.10000 213.577
45.11000 218.715
45.12000 223.678
45.13000 220.041
45.14000 211.633
45.15000 203.646
45.16000 203.550
45.17000 206.439
45.18000 209.114
45.19000 210.059
45.20000 210.508
45.21000 211.403
45.22000 214.997
45.23000 219.044
45.24000 222.836
45.25000 225.610
45.26000 228.279
45.27000 230.252
45.28000 221.454
45.29000 214.169
45.30000 207.268
45.31000 201.072
45.32000 194.890
45.33000 191.995
45.34000 193.141
45.35000 194.294
45.36000 196.355
45.37000 199.126
45.38000 201.904
45.39000 205.032
45.40000 208.347
45.41000 211.431
45.42000 210.458
45.43000 208.003
45.44000 205.740
45.45000 204.148
45.46000 202.871
45.47000 201.169
45.48000 196.998
45.49000 192.427
45.50000 189.014
45.51000 190.030
45.52000 191.480
45.53000 192.541
45.54000 193.593
45.55000 194.405
45.56000 195.439
45.57000 196.866
45.58000 198.301
45.59000 200.570
45.60000 203.826
45.61000 207.076
45.62000 204.014
45.63000 196.152
45.64000 188.378
45.65000 184.080
45.66000 181.577
45.67000 179.193
45.68000 178.744
45.69000 178.977
45.70000 179.191
45.71000 180.635
45.72000 182.184
45.73000 183.206
45.74000 181.286
45.75000 178.911
45.76000 176.406
45.77000 173.425
45.78000 170.399
45.79000 168.207
45.80000 177.677
45.81000 185.379
45.82000 187.553
45.83000 180.281
45.84000 172.849
45.85000 168.302
45.86000 167.036
45.87000 165.778
45.88000 168.610
45.89000 174.422
45.90000 180.071
45.91000 179.881
45.92000 176.778
45.93000 173.944
45.94000 175.265
45.95000 178.002
45.96000 180.502
45.97000 184.409
45.98000 188.165
45.99000 190.536
46.00000 185.475
46.01000 179.310
46.02000 175.308
46.03000 179.006
46.04000 183.385
46.05000 186.524
46.06000 184.375
46.07000 182.553
46.08000 180.475
46.09000 177.978
46.10000 175.474
46.11000 174.791
46.12000 176.098
46.13000 177.401
46.14000 178.170
46.15000 178.555
46.16000 178.883
46.17000 177.322
46.18000 174.853
46.19000 172.474
46.20000 171.409
46.21000 170.776
46.22000 170.201
46.23000 171.205
46.24000 172.400
46.25000 173.070
46.26000 171.024
46.27000 168.592
46.28000 167.332
46.29000 170.095
46.30000 173.195
46.31000 175.393
46.32000 173.103
46.33000 171.221
46.34000 169.885
46.35000 169.416
46.36000 168.958
46.37000 169.520
46.38000 171.153
46.39000 172.778
46.40000 176.099
46.41000 180.533
46.42000 184.730
46.43000 181.940
46.44000 175.898
46.45000 170.321
46.46000 171.109
46.47000 173.917
46.48000 176.456
46.49000 181.116
46.50000 185.616
46.51000 188.534
46.52000 183.605
46.53000 177.608
46.54000 173.054
46.55000 173.280
46.56000 173.885
46.57000 174.308
46.58000 176.279
46.59000 177.814
46.60000 177.389
46.61000 173.960
46.62000 170.498
46.63000 172.113
46.64000 178.850
46.65000 185.545
46.66000 185.512
46.67000 181.087
46.68000 176.897
46.69000 179.097
46.70000 184.168
46.71000 188.724
46.72000 186.637
46.73000 182.515
46.74000 178.805
46.75000 174.350
46.76000 170.312
46.77000 166.926
46.78000 166.656
46.79000 166.791
46.80000 167.049
46.81000 167.699
46.82000 168.377
46.83000 168.847
46.84000 170.605
46.85000 171.961
46.86000 171.490
46.87000 168.317
46.88000 165.120
46.89000 166.522
46.90000 172.376
46.91000 178.187
46.92000 180.419
46.93000 180.366
46.94000 180.200
46.95000 177.220
46.96000 173.018
46.97000 169.210
46.98000 170.215
46.99000 172.643
47.00000 174.817
47.01000 175.664
47.02000 176.176
47.03000 175.768
47.04000 171.129
47.05000 165.963
47.06000 161.801
47.07000 160.735
47.08000 159.887
47.09000 159.306
47.10000 160.968
47.11000 162.267
47.12000 164.477
47.13000 167.986
47.14000 171.504
47.15000 172.783
47.16000 171.981
47.17000 171.186
47.18000 170.850
47.19000 170.796
47.20000 170.638
47.21000 168.036
47.22000 164.411
47.23000 161.039
47.24000 160.601
47.25000 160.998
47.26000 161.353
47.27000 159.662
47.28000 157.856
47.29000 156.969
47.30000 160.147
47.31000 163.809
47.32000 166.172
47.33000 164.667
47.34000 162.904
47.35000 161.711
47.36000 161.661
47.37000 161.649
47.38000 160.344
47.39000 157.267
47.40000 154.180
47.41000 153.611
47.42000 155.291
47.43000 156.954
47.44000 154.808
47.45000 150.493
47.46000 146.587
47.47000 151.477
47.48000 159.926
47.49000 167.317
47.50000 163.118
47.51000 155.731
47.52000 149.187
47.53000 156.558
47.54000 165.127
47.55000 171.831
47.56000 170.589
47.57000 168.446
47.58000 166.912
47.59000 167.129
47.60000 167.455
47.61000 167.673
47.62000 172.657
47.63000 176.443
47.64000 176.054
47.65000 170.142
47.66000 164.206
47.67000 159.329
47.68000 155.360
47.69000 151.437
47.70000 152.358
47.71000 155.967
47.72000 159.459
47.73000 160.593
47.74000 160.807
47.75000 161.093
47.76000 162.128
47.77000 163.362
47.78000 164.449
47.79000 168.348
47.80000 172.131
47.81000 174.195
47.82000 169.200
47.83000 163.443
47.84000 158.951
47.85000 157.967
47.86000 157.189
47.87000 156.676
47.88000 158.795
47.89000 160.403
47.90000 161.570
47.91000 162.176
47.92000 162.776
47.93000 161.651
47.94000 159.102
47.95000 156.587
47.96000 157.521
47.97000 160.286
47.98000 162.963
47.99000 163.992
48.00000 164.399
48.01000 164.923
48.02000 166.605
48.03000 168.583
48.04000 170.315
48.05000 166.764
48.06000 162.958
48.07000 159.640
48.08000 158.254
48.09000 157.067
48.10000 157.073
48.11000 160.278
48.12000 163.660
48.13000 165.862
48.14000 165.058
48.15000 164.421
48.16000 164.897
48.17000 166.737
48.18000 168.566
48.19000 166.104
48.20000 160.229
48.21000 154.440
48.22000 155.730
48.23000 160.648
48.24000 165.227
48.25000 163.906
48.26000 160.434
48.27000 157.132
48.28000 155.434
48.29000 154.131
48.30000 152.997
48.31000 152.567
48.32000 152.296
48.33000 152.891
48.34000 156.791
48.35000 161.013
48.36000 163.076
48.37000 159.548
48.38000 155.733
48.39000 153.282
48.40000 154.516
48.41000 155.467
48.42000 157.637
48.43000 161.245
48.44000 164.835
48.45000 163.661
48.46000 158.841
48.47000 154.100
48.48000 151.504
48.49000 150.063
48.50000 149.087
48.51000 155.719
48.52000 165.026
48.53000 173.238
48.54000 171.620
48.55000 167.668
48.56000 164.248
48.57000 165.227
48.58000 166.636
48.59000 167.302
48.60000 165.229
48.61000 162.901
48.62000 160.540
48.63000 158.094
48.64000 155.644
48.65000 154.091
48.66000 156.857
48.67000 158.916
48.68000 159.862
48.69000 159.547
48.70000 159.249
48.71000 162.243
48.72000 167.665
48.73000 172.986
48.74000 170.399
48.75000 164.109
48.76000 158.237
48.77000 158.763
48.78000 161.462
48.79000 163.907
48.80000 164.182
48.81000 163.960
48.82000 163.769
48.83000 159.049
48.84000 154.487
48.85000 150.628
48.86000 149.265
48.87000 148.121
48.88000 148.047
48.89000 150.558
48.90000 153.182
48.91000 154.823
48.92000 153.238
48.93000 152.060
48.94000 155.097
48.95000 162.729
48.96000 170.315
48.97000 171.145
48.98000 167.174
48.99000 163.285
49.00000 163.839
49.01000 166.424
49.02000 168.652
49.03000 165.733
49.04000 161.127
49.05000 156.549
49.06000 152.194
49.07000 147.889
49.08000 144.210
49.09000 144.355
49.10000 144.934
49.11000 146.981
49.12000 154.056
49.13000 161.550
49.14000 165.047
49.15000 159.223
49.16000 153.018
49.17000 149.195
49.18000 151.861
49.19000 153.833
49.20000 156.564
49.21000 160.091
49.22000 163.546
49.23000 158.548
49.24000 147.764
49.25000 137.225
49.26000 141.587
49.27000 152.389
49.28000 162.555
49.29000 164.075
49.30000 162.859
49.31000 161.550
49.32000 159.512
49.33000 157.320
49.34000 155.459
49.35000 155.010
49.36000 154.794
49.37000 154.967
49.38000 156.423
49.39000 157.980
49.40000 157.608
49.41000 152.890
49.42000 148.009
49.43000 145.046
49.44000 150.952
49.45000 155.234
49.46000 157.583
49.47000 157.986
49.48000 158.377
49.49000 157.458
49.50000 155.676
49.51000 153.938
49.52000 153.406
49.53000 153.414
49.54000 153.437
49.55000 153.660
49.56000 153.944
49.57000 153.821
49.58000 150.668
49.59000 146.898
49.60000 143.718
49.61000 145.103
49.62000 146.754
49.63000 148.724
49.64000 151.715
49.65000 154.781
49.66000 156.326
49.67000 154.561
49.68000 152.681
49.69000 151.557
49.70000 152.451
49.71000 153.099
49.72000 153.264
49.73000 152.964
49.74000 152.671
49.75000 152.999
49.76000 153.722
49.77000 154.425
49.78000 154.931
49.79000 155.331
49.80000 155.842
49.81000 157.699
49.82000 159.954
49.83000 161.425
49.84000 157.311
49.85000 152.100
49.86000 147.736
49.87000 148.647
49.88000 149.948
49.89000 150.806
49.90000 150.304
49.91000 149.706
49.92000 150.221
49.93000 153.073
49.94000 155.999
49.95000 157.722
49.96000 147.384
49.97000 140.029
49.98000 137.730
49.99000 140.114
50.00000 142.502
50.01000 145.118
50.02000 147.875
50.03000 150.550
50.04000 150.522
50.05000 149.424
50.06000 148.525
50.07000 149.904
50.08000 151.930
50.09000 153.855
50.10000 155.091
50.11000 156.196
50.12000 157.116
50.13000 154.453
50.14000 151.898
50.15000 149.685
50.16000 148.485
50.17000 147.352
50.18000 149.145
50.19000 156.871
50.20000 164.768
50.21000 169.343
50.22000 157.146
50.23000 148.525
50.24000 144.066
50.25000 143.314
50.26000 142.618
50.27000 145.420
50.28000 150.294
50.29000 155.011
50.30000 157.160
50.31000 158.212
50.32000 159.409
50.33000 162.188
50.34000 165.401
50.35000 168.122
50.36000 167.621
50.37000 166.537
50.38000 165.642
50.39000 159.081
50.40000 153.151
50.41000 148.444
50.42000 147.247
50.43000 146.268
50.44000 146.989
50.45000 151.038
50.46000 155.174
50.47000 157.531
50.48000 155.521
50.49000 154.107
50.50000 153.612
50.51000 153.904
50.52000 154.247
50.53000 157.342
50.54000 162.010
50.55000 166.514
50.56000 170.435
50.57000 173.913
50.58000 176.682
50.59000 172.119
50.60000 165.617
50.61000 160.248
50.62000 161.982
50.63000 164.954
50.64000 167.389
50.65000 169.418
50.66000 171.045
50.67000 171.240
50.68000 167.467
50.69000 163.463
50.70000 161.627
50.71000 163.884
50.72000 166.239
50.73000 167.558
50.74000 163.186
50.75000 160.150
50.76000 160.031
50.77000 162.315
50.78000 164.514
50.79000 162.597
50.80000 158.411
50.81000 154.383
50.82000 158.662
50.83000 165.606
50.84000 171.435
50.85000 166.280
50.86000 158.326
50.87000 152.162
50.88000 156.778
50.89000 163.197
50.90000 168.416
50.91000 170.843
50.92000 172.590
50.93000 171.688
50.94000 163.702
50.95000 155.331
50.96000 151.791
50.97000 157.063
50.98000 162.521
50.99000 165.525
51.00000 159.379
51.01000 155.136
51.02000 152.737
51.03000 151.800
51.04000 150.907
51.05000 151.935
51.06000 153.985
51.07000 155.952
51.08000 156.538
51.09000 156.617
51.10000 156.483
51.11000 154.345
51.12000 151.715
51.13000 149.459
51.14000 149.370
51.15000 149.628
51.16000 149.836
51.17000 149.806
51.18000 149.763
51.19000 149.905
51.20000 150.523
51.21000 151.166
51.22000 150.108
51.23000 146.058
51.24000 141.951
51.25000 139.731
51.26000 146.290
51.27000 150.771
51.28000 151.078
51.29000 148.200
51.30000 145.359
51.31000 143.948
51.32000 143.272
51.33000 142.626
51.34000 145.462
51.35000 149.240
51.36000 152.716
51.37000 153.502
51.38000 153.652
51.39000 153.317
51.40000 150.293
51.41000 146.856
51.42000 144.106
51.43000 145.618
51.44000 147.160
51.45000 148.900
51.46000 151.131
51.47000 153.386
51.48000 153.419
51.49000 149.680
51.50000 145.878
51.51000 143.860
51.52000 145.657
51.53000 146.855
51.54000 143.262
51.55000 136.147
51.56000 129.280
51.57000 131.120
51.58000 137.281
51.59000 143.153
51.60000 145.958
51.61000 147.595
51.62000 148.977
51.63000 148.188
51.64000 146.903
51.65000 145.759
51.66000 145.365
51.67000 145.081
51.68000 144.855
51.69000 144.818
51.70000 144.801
51.71000 145.701
51.72000 148.809
51.73000 152.013
51.74000 151.222
51.75000 143.886
51.76000 136.455
51.77000 132.586
51.78000 136.078
51.79000 138.437
51.80000 140.231
51.81000 141.627
51.82000 142.954
51.83000 142.066
51.84000 140.119
51.85000 138.268
51.86000 141.950
51.87000 147.022
51.88000 151.415
51.89000 150.291
51.90000 147.954
51.91000 145.897
51.92000 145.265
51.93000 144.836
51.94000 144.498
51.95000 142.503
51.96000 140.796
51.97000 139.977
51.98000 141.225
51.99000 142.557
52.00000 142.484
52.01000 140.190
52.02000 137.869
52.03000 136.684
52.04000 138.654
52.05000 139.951
52.06000 138.381
52.07000 134.854
52.08000 131.444
52.09000 131.479
52.10000 133.106
52.11000 134.647
52.12000 137.949
52.13000 141.499
52.14000 143.945
52.15000 137.817
52.16000 129.878
52.17000 124.625
52.18000 132.619
52.19000 142.403
52.20000 150.038
52.21000 144.837
52.22000 139.887
52.23000 138.048
52.24000 143.194
52.25000 148.603
52.26000 150.155
52.27000 145.832
52.28000 141.446
52.29000 139.252
52.30000 140.033
52.31000 140.552
52.32000 140.793
52.33000 140.853
52.34000 140.861
52.35000 139.487
52.36000 137.496
52.37000 135.618
52.38000 136.662
52.39000 138.435
52.40000 140.163
52.41000 141.558
52.42000 142.886
52.43000 143.805
52.44000 142.790
52.45000 141.525
52.46000 140.547
52.47000 140.192
52.48000 139.946
52.49000 139.915
52.50000 140.347
52.51000 140.795
52.52000 140.249
52.53000 138.241
52.54000 136.221
52.55000 138.657
52.56000 145.376
52.57000 152.006
52.58000 151.339
52.59000 146.043
52.60000 140.941
52.61000 140.658
52.62000 142.453
52.63000 144.140
52.64000 141.806
52.65000 138.597
52.66000 135.988
52.67000 137.642
52.68000 140.129
52.69000 141.852
52.70000 140.081
52.71000 137.879
52.72000 136.192
52.73000 142.102
52.74000 147.189
52.75000 148.126
52.76000 140.375
52.77000 132.351
52.78000 128.235
52.79000 129.650
52.80000 131.105
52.81000 133.258
52.82000 136.052
52.83000 138.797
52.84000 138.087
52.85000 135.262
52.86000 132.541
52.87000 132.168
52.88000 132.774
52.89000 133.341
52.90000 136.140
52.91000 139.260
52.92000 141.975
52.93000 141.933
52.94000 141.372
52.95000 140.378
52.96000 137.474
52.97000 134.344
52.98000 131.968
52.99000 135.514
53.00000 138.607
53.01000 141.269
53.02000 143.063
53.03000 144.832
53.04000 144.245
53.05000 140.445
53.06000 136.627
53.07000 135.864
53.08000 137.808
53.09000 139.725
53.10000 139.998
53.11000 139.301
53.12000 138.659
53.13000 139.184
53.14000 140.179
53.15000 141.106
53.16000 142.568
53.17000 144.025
53.18000 144.604
53.19000 139.464
53.20000 133.291
53.21000 129.439
53.22000 135.419
53.23000 142.503
53.24000 147.832
53.25000 150.348
53.26000 152.180
53.27000 153.404
53.28000 153.444
53.29000 153.452
53.30000 150.582
53.31000 143.932
53.32000 137.270
53.33000 135.486
53.34000 137.861
53.35000 140.259
53.36000 143.893
53.37000 148.232
53.38000 152.219
53.39000 149.252
53.40000 143.584
53.41000 138.320
53.42000 136.769
53.43000 136.253
53.44000 136.028
53.45000 137.629
53.46000 139.546
53.47000 141.312
53.48000 142.463
53.49000 143.548
53.50000 144.357
53.51000 142.954
53.52000 141.763
53.53000 139.748
53.54000 136.183
53.55000 132.581
53.56000 130.116
53.57000 129.087
53.58000 128.065
53.59000 130.018
53.60000 134.400
53.61000 138.748
53.62000 141.513
53.63000 143.409
53.64000 145.118
53.65000 143.397
53.66000 140.391
53.67000 137.610
53.68000 138.766
53.69000 140.703
53.70000 142.052
53.71000 139.870
53.72000 137.100
53.73000 135.432
53.74000 138.096
53.75000 141.201
53.76000 143.492
53.77000 140.501
53.78000 137.963
53.79000 138.265
53.80000 143.734
53.81000 149.311
53.82000 150.425
53.83000 146.105
53.84000 141.780
53.85000 140.810
53.86000 142.482
53.87000 144.123
53.88000 144.419
53.89000 144.002
53.90000 143.472
53.91000 141.001
53.92000 137.828
53.93000 134.905
53.94000 137.016
53.95000 140.006
53.96000 142.296
53.97000 140.549
53.98000 138.157
53.99000 136.661
54.00000 138.563
54.01000 140.794
54.02000 142.423
54.03000 140.633
54.04000 139.119
54.05000 138.322
54.06000 138.780
54.07000 139.262
54.08000 136.732
54.09000 130.675
54.10000 124.629
54.11000 127.126
54.12000 136.067
54.13000 144.815
54.14000 146.203
54.15000 143.820
54.16000 141.323
54.17000 136.988
54.18000 132.010
54.19000 127.447
54.20000 128.675
54.21000 130.986
54.22000 133.304
54.23000 135.658
54.24000 138.018
54.25000 139.752
54.26000 139.200
54.27000 138.437
54.28000 137.886
54.29000 140.346
54.30000 142.341
54.31000 144.177
54.32000 145.743
54.33000 147.305
54.34000 145.286
54.35000 139.234
54.36000 133.199
54.37000 131.278
54.38000 132.365
54.39000 133.476
54.40000 135.481
54.41000 137.926
54.42000 140.299
54.43000 141.572
54.44000 142.472
54.45000 143.294
54.46000 141.672
54.47000 139.740
54.48000 137.696
54.49000 135.048
54.50000 132.312
54.51000 130.408
54.52000 131.438
54.53000 132.723
54.54000 133.641
54.55000 133.685
54.56000 133.690
54.57000 134.791
54.58000 137.685
54.59000 140.604
54.60000 141.108
54.61000 139.000
54.62000 136.899
54.63000 136.163
54.64000 136.388
54.65000 136.578
54.66000 135.636
54.67000 134.153
54.68000 132.768
54.69000 132.768
54.70000 133.219
54.71000 133.629
54.72000 132.048
54.73000 130.267
54.74000 129.125
54.75000 131.248
54.76000 133.829
54.77000 136.364
54.78000 138.738
54.79000 141.099
54.80000 142.768
54.81000 141.574
54.82000 140.579
54.83000 139.512
54.84000 138.334
54.85000 137.153
54.86000 135.469
54.87000 133.262
54.88000 131.065
54.89000 133.037
54.90000 137.787
54.91000 142.325
54.92000 140.747
54.93000 136.348
54.94000 132.351
54.95000 133.769
54.96000 136.891
54.97000 139.711
54.98000 142.935
54.99000 145.844
55.00000 147.704
55.01000 144.403
55.02000 140.407
55.03000 138.581
55.04000 143.877
55.05000 149.730
55.06000 153.821
55.07000 145.629
55.08000 139.094
55.09000 134.247
55.10000 131.966
55.11000 129.711
55.12000 130.779
55.13000 135.164
55.14000 139.520
55.15000 145.858
55.16000 153.385
55.17000 160.567
55.18000 158.589
55.19000 152.532
55.20000 146.701
55.21000 143.766
55.22000 141.710
55.23000 139.862
55.24000 138.320
55.25000 137.025
55.26000 136.603
55.27000 140.314
55.28000 144.558
55.29000 147.575
55.30000 146.707
55.31000 145.552
55.32000 144.754
55.33000 152.152
55.34000 157.925
55.35000 159.787
55.36000 155.923
55.37000 152.010
55.38000 153.081
55.39000 158.928
55.40000 164.730
55.41000 163.212
55.42000 157.167
55.43000 151.364
55.44000 151.506
55.45000 154.205
55.46000 157.170
55.47000 163.332
55.48000 170.431
55.49000 176.779
55.50000 171.053
55.51000 164.008
55.52000 159.905
55.53000 169.192
55.54000 180.126
55.55000 187.981
55.56000 186.418
55.57000 184.199
55.58000 182.684
55.59000 193.277
55.60000 201.482
55.61000 204.976
55.62000 201.818
55.63000 198.615
55.64000 200.433
55.65000 206.871
55.66000 213.252
55.67000 213.131
55.68000 209.123
55.69000 205.391
55.70000 207.934
55.71000 213.083
55.72000 218.594
55.73000 228.243
55.74000 239.060
55.75000 248.682
55.76000 250.569
55.77000 250.948
55.78000 251.119
55.79000 250.379
55.80000 249.532
55.81000 248.680
55.82000 247.816
55.83000 246.950
55.84000 246.366
55.85000 253.691
55.86000 259.309
55.87000 263.703
55.88000 266.432
55.89000 269.155
55.90000 274.184
55.91000 281.253
55.92000 288.249
55.93000 287.576
55.94000 282.501
55.95000 277.781
55.96000 280.530
55.97000 286.275
55.98000 291.065
55.99000 285.521
56.00000 277.161
56.01000 269.765
56.02000 269.125
56.03000 269.624
56.04000 269.358
56.05000 265.860
56.06000 262.000
56.07000 258.549
56.08000 256.266
56.09000 254.054
56.10000 252.580
56.11000 243.233
56.12000 236.164
56.13000 230.587
56.14000 226.965
56.15000 223.353
56.16000 221.190
56.17000 220.259
56.18000 219.339
56.19000 218.942
56.20000 218.846
56.21000 218.810
56.22000 219.975
56.23000 221.606
56.24000 222.195
56.25000 212.089
56.26000 199.172
56.27000 187.810
56.28000 189.867
56.29000 193.636
56.30000 195.343
56.31000 188.658
56.32000 181.079
56.33000 176.371
56.34000 179.564
56.35000 183.213
56.36000 185.613
56.37000 181.255
56.38000 177.930
56.39000 176.102
56.40000 176.160
56.41000 176.220
56.42000 174.674
56.43000 171.813
56.44000 168.991
56.45000 164.026
56.46000 158.055
56.47000 152.260
56.48000 149.698
56.49000 148.346
56.50000 147.029
56.51000 146.061
56.52000 145.182
56.53000 144.413
56.54000 145.669
56.55000 147.034
56.56000 147.753
56.57000 145.939
56.58000 143.868
56.59000 142.549
56.60000 143.226
56.61000 144.011
56.62000 144.521
56.63000 143.041
56.64000 141.926
56.65000 140.545
56.66000 138.840
56.67000 137.137
56.68000 136.198
56.69000 135.861
56.70000 135.529
56.71000 137.576
56.72000 140.780
56.73000 143.792
56.74000 143.504
56.75000 142.025
56.76000 140.438
56.77000 137.842
56.78000 134.999
56.79000 132.528
56.80000 133.184
56.81000 134.168
56.82000 135.285
56.83000 136.906
56.84000 138.575
56.85000 139.810
56.86000 139.929
56.87000 139.993
56.88000 140.033
56.89000 128.373
56.90000 119.722
56.91000 119.458
56.92000 128.987
56.93000 138.498
56.94000 141.187
56.95000 138.701
56.96000 136.258
56.97000 134.213
56.98000 132.432
56.99000 130.584
57.00000 127.637
57.01000 124.308
57.02000 121.339
57.03000 121.556
57.04000 122.522
57.05000 123.357
57.06000 129.822
57.07000 136.043
57.08000 140.339
57.09000 137.616
57.10000 134.251
57.11000 131.530
57.12000 130.410
57.13000 129.365
57.14000 128.704
57.15000 126.621
57.16000 125.095
57.17000 124.128
57.18000 123.789
57.19000 123.457
57.20000 124.029
57.21000 125.264
57.22000 126.475
57.23000 125.783
57.24000 124.212
57.25000 122.607
57.26000 120.473
57.27000 118.162
57.28000 116.532
57.29000 120.659
57.30000 126.090
57.31000 130.753
57.32000 128.072
57.33000 124.897
57.34000 122.346
57.35000 121.994
57.36000 121.832
57.37000 122.838
57.38000 126.639
57.39000 130.561
57.40000 133.003
57.41000 130.934
57.42000 129.397
57.43000 130.035
57.44000 133.019
57.45000 135.988
57.46000 136.733
57.47000 135.913
57.48000 135.110
57.49000 133.616
57.50000 131.865
57.51000 130.104
57.52000 128.208
57.53000 126.267
57.54000 124.706
57.55000 126.211
57.56000 128.384
57.57000 130.238
57.58000 128.219
57.59000 126.062
57.60000 124.450
57.61000 124.683
57.62000 125.068
57.63000 125.786
57.64000 127.273
57.65000 128.791
57.66000 129.723
57.67000 128.902
57.68000 128.298
57.69000 129.005
57.70000 131.068
57.71000 133.114
57.72000 133.212
57.73000 131.987
57.74000 130.791
57.75000 128.681
57.76000 126.258
57.77000 124.100
57.78000 125.500
57.79000 128.016
57.80000 130.201
57.81000 129.840
57.82000 128.944
57.83000 128.185
57.84000 124.645
57.85000 121.366
57.86000 118.995
57.87000 119.592
57.88000 120.420
57.89000 120.670
57.90000 119.631
57.91000 118.543
57.92000 117.886
57.93000 121.125
57.94000 123.461
57.95000 125.260
57.96000 126.523
57.97000 127.767
57.98000 127.192
57.99000 125.428
58.00000 123.708
58.01000 121.493
58.02000 119.170
58.03000 116.948
58.04000 116.008
58.05000 115.456
58.06000 115.208
58.07000 117.196
58.08000 119.635
58.09000 121.689
58.10000 120.047
58.11000 118.283
58.12000 117.292
58.13000 118.743
58.14000 120.373
58.15000 121.734
58.16000 122.516
58.17000 123.279
58.18000 123.733
58.19000 121.438
58.20000 119.795
58.21000 119.524
58.22000 120.561
58.23000 121.586
58.24000 121.583
58.25000 120.932
58.26000 120.298
58.27000 122.756
58.28000 126.352
58.29000 129.689
58.30000 129.913
58.31000 129.227
58.32000 128.004
58.33000 122.981
58.34000 117.220
58.35000 112.404
58.36000 112.092
58.37000 112.291
58.38000 113.642
58.39000 118.501
58.40000 123.604
58.41000 126.312
58.42000 124.039
58.43000 121.611
58.44000 120.187
58.45000 121.393
58.46000 122.255
58.47000 122.216
58.48000 121.351
58.49000 120.505
58.50000 120.965
58.51000 122.220
58.52000 123.437
58.53000 123.791
58.54000 123.788
58.55000 123.706
58.56000 122.723
58.57000 121.485
58.58000 120.274
58.59000 119.237
58.60000 118.233
58.61000 117.400
58.62000 123.311
58.63000 128.849
58.64000 131.416
58.65000 125.239
58.66000 118.492
58.67000 115.413
58.68000 119.705
58.69000 124.206
58.70000 126.802
58.71000 121.864
58.72000 118.379
58.73000 117.921
58.74000 120.130
58.75000 122.318
58.76000 123.266
58.77000 123.486
58.78000 123.699
58.79000 123.936
58.80000 124.168
58.81000 124.308
58.82000 123.454
58.83000 122.329
58.84000 121.239
58.85000 120.370
58.86000 119.540
58.87000 118.857
58.88000 117.398
58.89000 116.127
58.90000 115.086
58.91000 114.703
58.92000 114.359
58.93000 114.637
58.94000 116.120
58.95000 117.634
58.96000 118.492
58.97000 117.740
58.98000 117.215
58.99000 118.479
59.00000 121.259
59.01000 123.942
59.02000 121.476
59.03000 116.092
59.04000 110.901
59.05000 117.686
59.06000 128.418
59.07000 137.776
59.08000 133.085
59.09000 124.713
59.10000 117.429
59.11000 116.896
59.12000 117.528
59.13000 118.044
59.14000 114.765
59.15000 111.750
59.16000 110.059
59.17000 112.006
59.18000 114.161
59.19000 115.734
59.20000 116.219
59.21000 116.678
59.22000 116.934
59.23000 116.596
59.24000 116.370
59.25000 120.012
59.26000 126.810
59.27000 133.390
59.28000 129.772
59.29000 120.579
59.30000 111.741
59.31000 113.118
59.32000 117.980
59.33000 122.516
59.34000 123.895
59.35000 124.475
59.36000 125.068
59.37000 125.729
59.38000 126.402
59.39000 126.948
59.40000 123.894
59.41000 121.108
59.42000 118.815
59.43000 117.831
59.44000 116.917
59.45000 118.585
59.46000 124.919
59.47000 131.349
59.48000 134.873
59.49000 119.824
59.50000 109.478
59.51000 108.119
59.52000 113.816
59.53000 119.422
59.54000 121.199
59.55000 120.955
59.56000 120.722
59.57000 119.065
59.58000 117.039
59.59000 115.139
59.60000 114.400
59.61000 113.945
59.62000 113.874
59.63000 116.005
59.64000 118.485
59.65000 120.482
59.66000 121.046
59.67000 121.392
59.68000 121.614
59.69000 121.519
59.70000 121.408
59.71000 120.861
59.72000 119.554
59.73000 118.234
59.74000 117.523
59.75000 117.680
59.76000 117.789
59.77000 118.158
59.78000 118.723
59.79000 119.245
59.80000 118.132
59.81000 116.186
59.82000 114.326
59.83000 116.198
59.84000 119.146
59.85000 121.749
59.86000 121.316
59.87000 120.172
59.88000 118.720
59.89000 115.578
59.90000 112.179
59.91000 109.465
59.92000 113.277
59.93000 116.837
59.94000 119.287
59.95000 118.996
59.96000 118.577
59.97000 117.667
59.98000 115.929
59.99000 114.178
60.00000 113.254
60.01000 115.090
60.02000 116.333
60.03000 116.730
60.04000 116.511
60.05000 116.315
60.06000 116.928
60.07000 117.939
60.08000 118.902
60.09000 115.928
60.10000 111.949
60.11000 108.541
60.12000 109.948
60.13000 112.441
60.14000 114.452
60.15000 113.916
60.16000 113.007
60.17000 112.288
60.18000 115.963
60.19000 119.224
60.20000 121.518
60.21000 121.507
60.22000 121.396
60.23000 120.216
60.24000 117.298
60.25000 114.356
60.26000 112.831
60.27000 113.232
60.28000 113.514
60.29000 115.353
60.30000 118.284
60.31000 121.077
60.32000 119.565
60.33000 116.008
60.34000 112.631
60.35000 112.473
60.36000 113.288
60.37000 114.373
60.38000 117.620
60.39000 121.337
60.40000 123.893
60.41000 120.555
60.42000 116.394
60.43000 113.126
60.44000 116.169
60.45000 119.018
60.46000 120.640
60.47000 119.437
60.48000 118.121
60.49000 116.995
60.50000 116.165
60.51000 115.339
60.52000 114.920
60.53000 115.026
60.54000 115.096
60.55000 114.923
60.56000 114.586
60.57000 114.392
60.58000 118.290
60.59000 124.064
60.60000 129.525
60.61000 126.685
60.62000 121.688
60.63000 117.241
60.64000 117.017
60.65000 117.678
60.66000 118.503
60.67000 120.133
60.68000 121.870
60.69000 123.223
60.70000 126.490
60.71000 129.210
60.72000 129.772
60.73000 125.531
60.74000 121.114
60.75000 119.091
60.76000 120.684
60.77000 122.313
60.78000 123.080
60.79000 122.992
60.80000 122.904
60.81000 122.762
60.82000 122.585
60.83000 122.366
60.84000 121.061
60.85000 119.274
60.86000 117.590
60.87000 115.150
60.88000 112.707
60.89000 110.970
60.90000 114.415
60.91000 118.904
60.92000 123.156
60.93000 126.298
60.94000 129.297
60.95000 131.612
60.96000 124.073
60.97000 117.527
60.98000 114.589
60.99000 119.403
61.00000 124.478
61.01000 128.474
61.02000 130.902
61.03000 133.316
61.04000 132.110
61.05000 127.461
61.06000 122.844
61.07000 120.687
61.08000 120.076
61.09000 119.594
61.10000 122.207
61.11000 126.144
61.12000 129.841
61.13000 130.401
61.14000 130.078
61.15000 129.117
61.16000 123.668
61.17000 117.349
61.18000 112.933
61.19000 117.120
61.20000 122.358
61.21000 126.363
61.22000 127.352
61.23000 127.968
61.24000 127.106
61.25000 123.177
61.26000 119.154
61.27000 118.194
61.28000 121.530
61.29000 124.894
61.30000 125.798
61.31000 124.454
61.32000 123.117
61.33000 122.321
61.34000 121.853
61.35000 121.386
61.36000 120.932
61.37000 120.483
61.38000 120.063
61.39000 117.753
61.40000 115.172
61.41000 113.521
61.42000 118.128
61.43000 123.900
61.44000 129.001
61.45000 131.181
61.46000 133.020
61.47000 134.414
61.48000 143.167
61.49000 150.412
61.50000 154.247
61.51000 151.250
61.52000 148.061
61.53000 154.168
61.54000 172.838
61.55000 191.565
61.56000 205.527
61.57000 215.286
61.58000 225.050
61.59000 235.154
61.60000 245.456
61.61000 255.711
61.62000 264.964
61.63000 273.819
61.64000 282.068
61.65000 288.642
61.66000 294.180
61.67000 299.095
61.68000 299.997
61.69000 300.180
61.70000 300.689
61.71000 302.560
61.72000 304.582
61.73000 306.100
61.74000 297.220
61.75000 289.787
61.76000 279.823
61.77000 264.963
61.78000 249.979
61.79000 236.574
61.80000 225.225
61.81000 213.896
61.82000 203.400
61.83000 193.634
61.84000 183.871
61.85000 174.313
61.86000 164.870
61.87000 155.728
61.88000 152.424
61.89000 151.369
61.90000 150.389
61.91000 145.703
61.92000 140.609
61.93000 135.712
61.94000 132.040
61.95000 128.579
61.96000 125.656
61.97000 124.915
61.98000 124.405
61.99000 124.026
62.00000 127.442
62.01000 130.265
62.02000 130.675
62.03000 126.577
62.04000 122.376
62.05000 121.330
62.06000 124.236
62.07000 127.151
62.08000 131.016
62.09000 135.638
62.10000 140.121
62.11000 138.181
62.12000 132.742
62.13000 127.362
62.14000 123.068
62.15000 119.177
62.16000 115.584
62.17000 118.559
62.18000 122.713
62.19000 126.896
62.20000 131.248
62.21000 135.629
62.22000 138.759
62.23000 137.015
62.24000 134.781
62.25000 133.137
62.26000 132.511
62.27000 132.068
62.28000 131.369
62.29000 130.209
62.30000 129.039
62.31000 129.411
62.32000 131.643
62.33000 133.873
62.34000 134.483
62.35000 133.827
62.36000 133.123
62.37000 130.407
62.38000 126.632
62.39000 123.184
62.40000 125.289
62.41000 129.388
62.42000 133.158
62.43000 128.036
62.44000 121.532
62.45000 116.627
62.46000 120.844
62.47000 126.503
62.48000 130.955
62.49000 130.867
62.50000 130.344
62.51000 129.963
62.52000 126.132
62.53000 123.051
62.54000 122.029
62.55000 124.587
62.56000 127.210
62.57000 129.447
62.58000 131.236
62.59000 133.020
62.60000 132.885
62.61000 131.316
62.62000 129.806
62.63000 130.543
62.64000 132.422
62.65000 134.188
62.66000 134.169
62.67000 133.532
62.68000 132.948
62.69000 128.968
62.70000 124.720
62.71000 121.739
62.72000 125.694
62.73000 130.701
62.74000 134.382
62.75000 133.259
62.76000 131.700
62.77000 130.577
62.78000 128.222
62.79000 126.374
62.80000 125.642
62.81000 126.784
62.82000 127.955
62.83000 130.632
62.84000 134.988
62.85000 139.330
62.86000 140.149
62.87000 138.428
62.88000 136.718
62.89000 135.398
62.90000 134.270
62.91000 133.248
62.92000 133.809
62.93000 134.899
62.94000 135.892
62.95000 132.203
62.96000 128.001
62.97000 125.438
62.98000 131.502
62.99000 138.820
63.00000 143.154
63.01000 137.056
63.02000 130.060
63.03000 125.073
63.04000 128.161
63.05000 130.779
63.06000 133.658
63.07000 136.962
63.08000 140.271
63.09000 140.695
63.10000 138.029
63.11000 135.373
63.12000 132.875
63.13000 130.512
63.14000 128.251
63.15000 129.192
63.16000 131.647
63.17000 133.970
63.18000 134.439
63.19000 134.308
63.20000 134.189
63.21000 138.841
63.22000 143.859
63.23000 147.371
63.24000 143.273
63.25000 138.115
63.26000 134.817
63.27000 137.790
63.28000 141.275
63.29000 143.731
63.30000 141.809
63.31000 140.220
63.32000 139.658
63.33000 140.699
63.34000 141.760
63.35000 142.998
63.36000 144.421
63.37000 145.835
63.38000 145.355
63.39000 143.620
63.40000 141.906
63.41000 140.802
63.42000 139.977
63.43000 139.073
63.44000 137.130
63.45000 134.862
63.46000 132.816
63.47000 133.945
63.48000 135.520
63.49000 136.441
63.50000 134.184
63.51000 131.504
63.52000 130.961
63.53000 137.374
63.54000 144.324
63.55000 149.167
63.56000 139.637
63.57000 132.051
63.58000 127.764
63.59000 128.443
63.60000 129.172
63.61000 132.894
63.62000 139.574
63.63000 146.209
63.64000 147.358
63.65000 144.977
63.66000 142.660
63.67000 142.032
63.68000 142.149
63.69000 142.335
63.70000 143.400
63.71000 144.728
63.72000 145.921
63.73000 147.852
63.74000 149.671
63.75000 151.226
63.76000 151.549
63.77000 151.714
63.78000 151.343
63.79000 149.283
63.80000 147.100
63.81000 145.597
63.82000 140.159
63.83000 135.978
63.84000 135.659
63.85000 140.946
63.86000 146.278
63.87000 148.645
63.88000 148.199
63.89000 147.757
63.90000 145.691
63.91000 142.661
63.92000 139.863
63.93000 142.657
63.94000 147.836
63.95000 152.591
63.96000 152.325
63.97000 150.602
63.98000 149.063
63.99000 150.336
64.00000 151.917
64.01000 153.604
64.02000 155.766
64.03000 157.987
64.04000 158.422
64.05000 153.444
64.06000 148.095
64.07000 144.455
64.08000 149.232
64.09000 152.992
64.10000 153.752
64.11000 150.315
64.12000 146.850
64.13000 146.341
64.14000 148.523
64.15000 150.685
64.16000 149.020
64.17000 145.118
64.18000 141.485
64.19000 143.837
64.20000 148.652
64.21000 153.111
64.22000 153.554
64.23000 152.872
64.24000 152.267
64.25000 153.349
64.26000 154.560
64.27000 154.680
64.28000 150.065
64.29000 144.901
64.30000 141.970
64.31000 145.574
64.32000 149.599
64.33000 152.306
64.34000 155.492
64.35000 157.868
64.36000 157.833
64.37000 154.548
64.38000 151.249
64.39000 150.074
64.40000 150.762
64.41000 151.442
64.42000 155.108
64.43000 160.395
64.44000 165.418
64.45000 164.992
64.46000 162.399
64.47000 160.168
64.48000 161.791
64.49000 164.454
64.50000 166.807
64.51000 161.912
64.52000 156.569
64.53000 152.457
64.54000 153.493
64.55000 155.099
64.56000 157.841
64.57000 163.793
64.58000 169.939
64.59000 174.021
64.60000 168.833
64.61000 164.826
64.62000 163.604
64.63000 165.996
64.64000 168.403
64.65000 170.966
64.66000 173.661
64.67000 176.323
64.68000 174.815
64.69000 171.057
64.70000 167.648
64.71000 170.965
64.72000 176.863
64.73000 181.752
64.74000 176.403
64.75000 168.388
64.76000 161.347
64.77000 164.381
64.78000 168.472
64.79000 172.113
64.80000 173.939
64.81000 175.575
64.82000 176.846
64.83000 177.121
64.84000 177.341
64.85000 177.484
64.86000 183.586
64.87000 188.172
64.88000 188.651
64.89000 184.001
64.90000 179.340
64.91000 176.393
64.92000 174.834
64.93000 173.297
64.94000 176.519
64.95000 182.165
64.96000 187.555
64.97000 188.365
64.98000 187.475
64.99000 186.704
65.00000 187.079
65.01000 187.741
65.02000 188.319
65.03000 191.738
65.04000 195.064
65.05000 198.154
65.06000 200.327
65.07000 202.409
65.08000 203.101
65.09000 200.131
65.10000 196.967
65.11000 194.920
65.12000 193.872
65.13000 193.121
65.14000 194.685
65.15000 199.030
65.16000 203.373
65.17000 205.470
65.18000 205.816
65.19000 206.156
65.20000 206.233
65.21000 206.175
65.22000 206.152
65.23000 206.725
65.24000 207.511
65.25000 208.810
65.26000 214.810
65.27000 221.948
65.28000 228.144
65.29000 228.889
65.30000 228.793
65.31000 229.803
65.32000 234.962
65.33000 240.515
65.34000 244.733
65.35000 245.554
65.36000 246.206
65.37000 246.622
65.38000 244.281
65.39000 242.542
65.40000 244.376
65.41000 250.341
65.42000 256.304
65.43000 260.757
65.44000 264.076
65.45000 267.336
65.46000 270.918
65.47000 274.535
65.48000 277.842
65.49000 276.253
65.50000 272.972
65.51000 271.035
65.52000 280.854
65.53000 293.413
65.54000 304.248
65.55000 305.023
65.56000 304.391
65.57000 307.390
65.58000 323.510
65.59000 340.817
65.60000 356.695
65.61000 369.064
65.62000 381.273
65.63000 388.958
65.64000 406.139
65.65000 418.678
65.66000 448.612
65.67000 497.881
65.68000 547.269
65.69000 613.645
65.70000 692.313
65.71000 769.445
65.72000 874.881
65.73000 989.720
65.74000 1105.709
65.75000 1238.803
65.76000 1377.604
65.77000 1511.379
65.78000 1603.187
65.79000 1685.574
65.80000 1756.199
65.81000 1833.413
65.82000 1899.427
65.83000 1952.991
65.84000 1963.162
65.85000 1969.614
65.86000 1976.188
65.87000 1983.055
65.88000 1989.933
65.89000 1994.202
65.90000 1977.122
65.91000 1964.624
65.92000 1934.567
65.93000 1885.758
65.94000 1836.552
65.95000 1737.023
65.96000 1602.402
65.97000 1470.690
65.98000 1327.964
65.99000 1186.002
66.00000 1045.870
66.01000 931.364
66.02000 825.111
66.03000 723.223
66.04000 656.144
66.05000 596.589
66.06000 545.866
66.07000 510.630
66.08000 482.810
66.09000 458.156
66.10000 444.145
66.11000 430.998
66.12000 417.884
66.13000 404.842
66.14000 391.803
66.15000 383.829
66.16000 372.555
66.17000 364.460
66.18000 363.317
66.19000 369.305
66.20000 375.321
66.21000 384.325
66.22000 395.337
66.23000 406.087
66.24000 415.730
66.25000 424.470
66.26000 433.448
66.27000 445.563
66.28000 458.653
66.29000 473.194
66.30000 498.794
66.31000 526.695
66.32000 550.300
66.33000 562.333
66.34000 571.121
66.35000 580.676
66.36000 592.722
66.37000 604.958
66.38000 617.320
66.39000 629.956
66.40000 642.603
66.41000 650.222
66.42000 640.116
66.43000 632.801
66.44000 633.251
66.45000 641.346
66.46000 649.263
66.47000 641.257
66.48000 622.932
66.49000 605.084
66.50000 588.979
66.51000 574.358
66.52000 558.998
66.53000 534.401
66.54000 507.033
66.55000 480.421
66.56000 459.311
66.57000 439.303
66.58000 422.490
66.59000 407.844
66.60000 395.870
66.61000 385.785
66.62000 381.614
66.63000 377.871
66.64000 374.166
66.65000 370.545
66.66000 366.927
66.67000 364.780
66.68000 366.421
66.69000 367.604
66.70000 365.939
66.71000 361.581
66.72000 357.297
66.73000 358.604
66.74000 363.407
66.75000 368.072
66.76000 367.844
66.77000 365.650
66.78000 363.672
66.79000 364.248
66.80000 365.563
66.81000 366.920
66.82000 368.564
66.83000 370.264
66.84000 371.682
66.85000 369.061
66.86000 366.481
66.87000 363.319
66.88000 358.396
66.89000 353.352
66.90000 351.367
66.91000 355.689
66.92000 360.202
66.93000 362.837
66.94000 361.564
66.95000 360.650
66.96000 360.959
66.97000 362.378
66.98000 363.835
66.99000 367.807
67.00000 373.293
67.01000 378.610
67.02000 377.701
67.03000 374.421
67.04000 371.514
67.05000 372.775
67.06000 375.201
67.07000 377.657
67.08000 380.320
67.09000 383.022
67.10000 385.260
67.11000 396.982
67.12000 407.563
67.13000 412.080
67.14000 398.897
67.15000 384.579
67.16000 377.061
67.17000 383.083
67.18000 389.479
67.19000 393.153
67.20000 398.776
67.21000 402.713
67.22000 403.433
67.23000 401.345
67.24000 399.255
67.25000 397.037
67.26000 394.743
67.27000 392.527
67.28000 395.043
67.29000 399.185
67.30000 403.481
67.31000 409.411
67.32000 415.780
67.33000 420.794
67.34000 417.119
67.35000 411.901
67.36000 407.609
67.37000 407.612
67.38000 408.004
67.39000 410.822
67.40000 420.476
67.41000 430.542
67.42000 435.958
67.43000 432.436
67.44000 428.691
67.45000 426.575
67.46000 424.537
67.47000 423.119
67.48000 421.271
67.49000 419.062
67.50000 416.984
67.51000 421.660
67.52000 430.127
67.53000 438.286
67.54000 434.005
67.55000 425.507
67.56000 417.870
67.57000 418.934
67.58000 422.256
67.59000 425.931
67.60000 431.774
67.61000 437.988
67.62000 443.060
67.63000 447.647
67.64000 451.357
67.65000 451.817
67.66000 443.432
67.67000 434.549
67.68000 432.469
67.69000 443.013
67.70000 453.840
67.71000 459.852
67.72000 457.494
67.73000 455.858
67.74000 458.074
67.75000 463.402
67.76000 468.743
67.77000 474.724
67.78000 481.050
67.79000 487.129
67.80000 483.022
67.81000 475.653
67.82000 468.594
67.83000 464.509
67.84000 461.169
67.85000 459.865
67.86000 470.572
67.87000 483.245
67.88000 493.509
67.89000 493.686
67.90000 493.010
67.91000 494.981
67.92000 503.905
67.93000 513.196
67.94000 515.431
67.95000 505.029
67.96000 494.374
67.97000 488.562
67.98000 509.524
67.99000 523.900
68.00000 523.815
68.01000 512.486
68.02000 501.516
68.03000 505.252
68.04000 516.677
68.05000 527.622
68.06000 526.595
68.07000 521.652
68.08000 516.803
68.09000 512.809
68.10000 509.022
68.11000 506.921
68.12000 514.371
68.13000 523.322
68.14000 530.513
68.15000 534.488
68.16000 537.463
68.17000 541.869
68.18000 549.905
68.19000 558.120
68.20000 561.576
68.21000 556.805
68.22000 551.890
68.23000 549.256
68.24000 568.301
68.25000 581.280
68.26000 587.268
68.27000 588.020
68.28000 588.924
68.29000 595.402
68.30000 604.694
68.31000 613.567
68.32000 617.918
68.33000 620.513
68.34000 622.616
68.35000 620.430
68.36000 617.247
68.37000 616.098
68.38000 626.009
68.39000 637.585
68.40000 646.811
68.41000 650.183
68.42000 652.478
68.43000 659.130
68.44000 676.453
68.45000 694.262
68.46000 702.736
68.47000 695.638
68.48000 688.299
68.49000 684.441
68.50000 698.179
68.51000 707.545
68.52000 723.621
68.53000 744.539
68.54000 765.060
68.55000 772.277
68.56000 773.009
68.57000 773.706
68.58000 794.606
68.59000 820.173
68.60000 847.044
68.61000 884.776
68.62000 924.937
68.63000 963.332
68.64000 992.492
68.65000 1020.318
68.66000 1042.313
68.67000 1101.406
68.68000 1151.397
68.69000 1201.121
68.70000 1250.210
68.71000 1299.272
68.72000 1338.921
68.73000 1363.424
68.74000 1387.725
68.75000 1400.255
68.76000 1463.504
68.77000 1506.151
68.78000 1553.278
68.79000 1603.518
68.80000 1653.464
68.81000 1694.423
68.82000 1731.151
68.83000 1765.988
68.84000 1853.565
68.85000 1949.925
68.86000 2049.609
68.87000 2175.700
68.88000 2307.479
68.89000 2461.902
68.90000 2730.160
68.91000 3014.139
68.92000 3236.691
68.93000 4316.930
68.94000 5235.623
68.95000 6543.378
68.96000 8739.784
68.97000 10970.906
68.98000 13702.732
68.99000 17211.498
69.00000 20729.186
69.01000 22507.320
69.02000 27766.010
69.03000 31277.932
69.04000 34085.961
69.05000 36422.320
69.06000 38729.891
69.07000 40232.023
69.08000 41368.105
69.09000 42441.855
69.10000 43192.379
69.11000 43789.648
69.12000 44403.699
69.13000 45145.160
69.14000 45913.031
69.15000 46651.160
69.16000 47245.434
69.17000 47820.699
69.18000 48267.609
69.19000 47859.289
69.20000 47482.566
69.21000 46490.492
69.22000 44141.152
69.23000 41743.016
69.24000 39087.629
69.25000 36047.359
69.26000 33003.395
69.27000 30456.291
69.28000 28396.734
69.29000 26344.943
69.30000 24977.332
69.31000 24051.764
69.32000 23140.912
69.33000 22609.002
69.34000 22243.398
69.35000 21899.121
69.36000 21475.736
69.37000 21066.813
69.38000 20579.162
69.39000 19519.709
69.40000 18346.205
69.41000 17048.678
69.42000 15173.919
69.43000 13226.271
69.44000 11726.677
69.45000 9571.150
69.46000 7827.335
69.47000 6301.443
69.48000 5239.706
69.49000 4193.264
69.50000 3361.224
69.51000 2838.391
69.52000 2318.101
69.53000 1953.671
69.54000 1736.154
69.55000 1519.707
69.56000 1383.991
69.57000 1298.579
69.58000 1213.902
69.59000 1146.696
69.60000 1086.893
69.61000 1030.792
69.62000 991.697
69.63000 960.548
69.64000 929.184
69.65000 896.317
69.66000 863.161
69.67000 833.302
69.68000 818.212
69.69000 804.904
69.70000 794.750
69.71000 772.102
69.72000 753.591
69.73000 735.769
69.74000 719.366
69.75000 703.006
69.76000 688.652
69.77000 677.087
69.78000 665.544
69.79000 655.947
69.80000 648.119
69.81000 640.262
69.82000 630.531
69.83000 619.674
69.84000 608.715
69.85000 595.520
69.86000 581.409
69.87000 568.224
69.88000 565.215
69.89000 565.055
69.90000 563.396
69.91000 551.752
69.92000 538.267
69.93000 527.187
69.94000 526.486
69.95000 526.980
69.96000 527.353
69.97000 515.546
69.98000 505.679
69.99000 497.784
70.00000 493.807
