20.00000 475.443
20.01000 473.964
20.02000 472.273
20.03000 470.610
20.04000 469.053
20.05000 467.507
20.06000 466.366
20.07000 467.363
20.08000 468.224
20.09000 467.848
20.10000 465.219
20.11000 462.544
20.12000 462.830
20.13000 466.723
20.14000 470.617
20.15000 467.542
20.16000 459.001
20.17000 450.613
20.18000 448.763
20.19000 450.383
20.20000 452.096
20.21000 455.406
20.22000 459.296
20.23000 462.877
20.24000 469.367
20.25000 475.810
20.26000 480.561
20.27000 475.560
20.28000 469.000
20.29000 463.112
20.30000 459.772
20.31000 456.679
20.32000 454.421
20.33000 464.500
20.34000 472.750
20.35000 476.046
20.36000 470.646
20.37000 465.084
20.38000 465.231
20.39000 472.066
20.40000 478.893
20.41000 475.828
20.42000 465.303
20.43000 455.034
20.44000 454.611
20.45000 459.235
20.46000 463.684
20.47000 465.322
20.48000 465.977
20.49000 466.578
20.50000 469.584
20.51000 472.768
20.52000 474.986
20.53000 471.863
20.54000 467.921
20.55000 465.575
20.56000 469.069
20.57000 473.099
20.58000 476.011
20.59000 469.197
20.60000 463.620
20.61000 462.128
20.62000 467.555
20.63000 473.094
20.64000 478.135
20.65000 482.613
20.66000 487.075
20.67000 486.663
20.68000 482.712
20.69000 478.781
20.70000 475.545
20.71000 472.652
20.72000 469.645
20.73000 464.908
20.74000 459.586
20.75000 454.730
20.76000 455.184
20.77000 456.657
20.78000 458.284
20.79000 460.725
20.80000 463.286
20.81000 464.223
20.82000 459.427
20.83000 454.131
20.84000 450.346
20.85000 457.274
20.86000 462.920
20.87000 464.420
20.88000 459.149
20.89000 453.781
20.90000 450.444
20.91000 449.306
20.92000 448.173
20.93000 451.173
20.94000 457.033
20.95000 462.618
20.96000 459.502
20.97000 452.231
20.98000 445.561
20.99000 447.475
21.00000 452.187
21.01000 456.466
21.02000 460.215
21.03000 463.424
21.04000 466.482
21.05000 468.769
21.06000 470.947
21.07000 472.068
21.08000 469.592
21.09000 466.818
21.10000 464.857
21.11000 456.479
21.12000 449.919
21.13000 448.946
21.14000 456.775
21.15000 464.713
21.16000 464.540
21.17000 455.933
21.18000 447.371
21.19000 445.843
21.20000 449.064
21.21000 452.305
21.22000 456.152
21.23000 460.279
21.24000 464.336
21.25000 467.456
21.26000 470.282
21.27000 472.835
21.28000 464.914
21.29000 456.006
21.30000 450.012
21.31000 458.343
21.32000 468.601
21.33000 474.637
21.34000 466.803
21.35000 457.885
21.36000 451.651
21.37000 450.943
21.38000 450.563
21.39000 452.180
21.40000 456.831
21.41000 461.514
21.42000 464.243
21.43000 465.022
21.44000 465.796
21.45000 464.965
21.46000 463.107
21.47000 461.420
21.48000 464.254
21.49000 469.102
21.50000 473.750
21.51000 475.837
21.52000 477.147
21.53000 478.325
21.54000 477.234
21.55000 475.875
21.56000 474.002
21.57000 469.694
21.58000 465.072
21.59000 461.162
21.60000 459.511
21.61000 458.027
21.62000 457.002
21.63000 452.857
21.64000 449.661
21.65000 447.040
21.66000 445.264
21.67000 443.495
21.68000 443.004
21.69000 443.738
21.70000 444.467
21.71000 450.342
21.72000 459.318
21.73000 467.810
21.74000 464.397
21.75000 455.864
21.76000 448.132
21.77000 450.040
21.78000 454.773
21.79000 459.006
21.80000 461.950
21.81000 464.298
21.82000 465.705
21.83000 462.831
21.84000 459.430
21.85000 458.189
21.86000 463.554
21.87000 469.378
21.88000 473.355
21.89000 478.450
21.90000 482.288
21.91000 483.149
21.92000 479.808
21.93000 476.436
21.94000 468.004
21.95000 454.915
21.96000 441.942
21.97000 444.300
21.98000 455.787
21.99000 467.244
22.00000 478.023
22.01000 488.521
22.02000 498.419
22.03000 501.478
22.04000 502.604
22.05000 503.606
22.06000 504.875
22.07000 506.020
22.08000 504.176
22.09000 489.222
22.10000 472.729
22.11000 459.777
22.12000 457.278
22.13000 455.464
22.14000 454.241
22.15000 466.134
22.16000 475.262
22.17000 479.052
22.18000 475.583
22.19000 472.069
22.20000 465.310
22.21000 455.680
22.22000 446.149
22.23000 449.168
22.24000 459.349
22.25000 469.098
22.26000 469.754
22.27000 466.763
22.28000 463.919
22.29000 462.678
22.30000 461.874
22.31000 461.162
22.32000 456.658
22.33000 452.174
22.34000 449.573
22.35000 454.920
22.36000 461.158
22.37000 466.582
22.38000 469.685
22.39000 472.645
22.40000 474.616
22.41000 459.722
22.42000 448.375
22.43000 445.258
22.44000 452.922
22.45000 460.620
22.46000 460.641
22.47000 454.128
22.48000 447.693
22.49000 445.610
22.50000 445.989
22.51000 446.570
22.52000 451.108
22.53000 457.179
22.54000 462.630
22.55000 461.715
22.56000 459.127
22.57000 456.851
22.58000 454.371
22.59000 452.207
22.60000 450.177
22.61000 448.692
22.62000 447.265
22.63000 446.320
22.64000 446.700
22.65000 447.156
22.66000 447.456
22.67000 449.838
22.68000 451.628
22.69000 452.914
22.70000 453.566
22.71000 454.217
22.72000 455.812
22.73000 458.180
22.74000 460.516
22.75000 456.623
22.76000 449.515
22.77000 442.688
22.78000 441.000
22.79000 441.233
22.80000 441.300
22.81000 439.740
22.82000 437.768
22.83000 436.044
22.84000 448.343
22.85000 460.878
22.86000 468.395
22.87000 456.232
22.88000 442.072
22.89000 433.154
22.90000 438.173
22.91000 443.944
22.92000 447.690
22.93000 438.675
22.94000 431.879
22.95000 427.692
22.96000 426.672
22.97000 425.670
22.98000 427.787
22.99000 432.362
23.00000 436.867
23.01000 440.685
23.02000 444.035
23.03000 447.352
23.04000 450.101
23.05000 452.645
23.06000 454.602
23.07000 451.098
23.08000 446.261
23.09000 442.056
23.10000 438.484
23.11000 435.523
23.12000 432.396
23.13000 428.638
23.14000 424.820
23.15000 423.775
23.16000 429.851
23.17000 436.284
23.18000 440.405
23.19000 442.584
23.20000 444.145
23.21000 442.170
23.22000 436.064
23.23000 429.957
23.24000 424.902
23.25000 420.644
23.26000 416.460
23.27000 423.962
23.28000 436.986
23.29000 449.628
23.30000 456.116
23.31000 460.458
23.32000 463.668
23.33000 456.850
23.34000 447.671
23.35000 439.741
23.36000 439.815
23.37000 440.917
23.38000 442.971
23.39000 448.497
23.40000 454.341
23.41000 457.617
23.42000 454.530
23.43000 451.145
23.44000 449.007
23.45000 442.432
23.46000 437.617
23.47000 437.549
23.48000 442.812
23.49000 448.043
23.50000 447.062
23.51000 441.543
23.52000 436.129
23.53000 438.810
23.54000 445.240
23.55000 451.394
23.56000 453.361
23.57000 453.919
23.58000 454.595
23.59000 456.261
23.60000 458.153
23.61000 459.777
23.62000 460.632
23.63000 461.260
23.64000 460.004
23.65000 452.122
23.66000 443.664
23.67000 436.326
23.68000 431.671
23.69000 427.132
23.70000 424.305
23.71000 438.047
23.72000 448.117
23.73000 454.290
23.74000 456.259
23.75000 458.214
23.76000 458.632
23.77000 457.968
23.78000 457.319
23.79000 466.789
23.80000 480.515
23.81000 493.222
23.82000 491.437
23.83000 484.942
23.84000 479.566
23.85000 483.226
23.86000 488.858
23.87000 493.663
23.88000 490.998
23.89000 487.873
23.90000 484.902
23.91000 482.450
23.92000 480.040
23.93000 479.556
23.94000 483.522
23.95000 487.666
23.96000 490.211
23.97000 486.586
23.98000 483.936
23.99000 486.543
24.00000 494.600
24.01000 502.570
24.02000 500.933
24.03000 492.778
24.04000 484.812
24.05000 478.053
24.06000 472.113
24.07000 467.120
24.08000 474.830
24.09000 486.526
24.10000 496.045
24.11000 488.785
24.12000 478.000
24.13000 468.861
24.14000 462.839
24.15000 458.143
24.16000 456.276
24.17000 463.668
24.18000 471.781
24.19000 476.120
24.20000 472.034
24.21000 467.636
24.22000 464.977
24.23000 469.132
24.24000 472.142
24.25000 465.611
24.26000 449.587
24.27000 433.682
24.28000 428.897
24.29000 431.385
24.30000 433.811
24.31000 430.353
24.32000 424.560
24.33000 419.595
24.34000 425.111
24.35000 433.800
24.36000 441.236
24.37000 439.438
24.38000 435.772
24.39000 432.687
24.40000 425.889
24.41000 419.821
24.42000 416.004
24.43000 419.304
24.44000 423.126
24.45000 423.795
24.46000 417.669
24.47000 411.311
24.48000 407.525
24.49000 417.202
24.50000 424.139
24.51000 424.897
24.52000 419.752
24.53000 414.600
24.54000 408.905
24.55000 402.865
24.56000 396.995
24.57000 404.069
24.58000 416.075
24.59000 426.563
24.60000 418.866
24.61000 405.859
24.62000 395.017
24.63000 399.451
24.64000 406.855
24.65000 413.044
24.66000 421.327
24.67000 428.419
24.68000 434.432
24.69000 437.155
24.70000 439.651
24.71000 436.014
24.72000 419.612
24.73000 402.814
24.74000 392.966
24.75000 408.631
24.76000 419.791
24.77000 425.859
24.78000 427.254
24.79000 428.624
24.80000 428.253
24.81000 426.823
24.82000 425.437
24.83000 421.301
24.84000 416.303
24.85000 411.742
24.86000 412.139
24.87000 413.932
24.88000 415.024
24.89000 411.376
24.90000 406.842
24.91000 403.078
24.92000 399.558
24.93000 396.672
24.94000 394.530
24.95000 394.577
24.96000 394.766
24.97000 396.545
24.98000 401.517
24.99000 406.579
25.00000 409.499
25.01000 411.221
25.02000 412.415
25.03000 406.804
25.04000 395.191
25.05000 383.747
25.06000 382.432
25.07000 387.064
25.08000 391.543
25.09000 395.154
25.10000 398.235
25.11000 401.541
25.12000 407.259
25.13000 413.633
25.14000 418.582
25.15000 414.306
25.16000 408.373
25.17000 403.485
25.18000 403.194
25.19000 403.377
25.20000 403.781
25.21000 404.818
25.22000 405.893
25.23000 405.786
25.24000 403.385
25.25000 400.925
25.26000 399.529
25.27000 391.645
25.28000 386.151
25.29000 389.669
25.30000 400.831
25.31000 411.734
25.32000 409.020
25.33000 398.591
25.34000 388.534
25.35000 383.709
25.36000 381.071
25.37000 378.876
25.38000 381.219
25.39000 384.752
25.40000 388.492
25.41000 393.521
25.42000 398.773
25.43000 403.069
25.44000 404.918
25.45000 406.220
25.46000 408.602
25.47000 413.946
25.48000 419.460
25.49000 422.392
25.50000 420.488
25.51000 418.473
25.52000 417.349
25.53000 410.964
25.54000 406.534
25.55000 402.013
25.56000 397.419
25.57000 392.863
25.58000 390.135
25.59000 388.406
25.60000 386.743
25.61000 389.159
25.62000 392.847
25.63000 396.529
25.64000 400.140
25.65000 403.732
25.66000 407.526
25.67000 412.516
25.68000 417.703
25.69000 421.913
25.70000 413.470
25.71000 405.543
25.72000 399.679
25.73000 399.280
25.74000 399.174
25.75000 397.970
25.76000 394.783
25.77000 391.554
25.78000 389.785
25.79000 383.499
25.80000 379.193
25.81000 381.806
25.82000 389.852
25.83000 397.722
25.84000 398.221
25.85000 394.830
25.86000 391.580
25.87000 392.441
25.88000 394.626
25.89000 396.358
25.90000 393.888
25.91000 390.395
25.92000 387.301
25.93000 386.488
25.94000 386.036
25.95000 385.673
25.96000 385.739
25.97000 385.826
25.98000 384.986
25.99000 381.776
26.00000 378.447
26.01000 376.321
26.02000 376.296
26.03000 376.309
26.04000 376.316
26.05000 382.067
26.06000 385.977
26.07000 384.139
26.08000 377.956
26.09000 372.030
26.10000 375.840
26.11000 384.609
26.12000 392.990
26.13000 389.324
26.14000 382.019
26.15000 375.279
26.16000 373.531
26.17000 372.954
26.18000 372.297
26.19000 371.199
26.20000 370.034
26.21000 369.104
26.22000 366.357
26.23000 364.004
26.24000 367.230
26.25000 384.245
26.26000 401.902
26.27000 408.415
26.28000 396.171
26.29000 383.628
26.30000 377.001
26.31000 392.727
26.32000 403.357
26.33000 403.745
26.34000 396.673
26.35000 389.657
26.36000 384.563
26.37000 380.415
26.38000 376.463
26.39000 375.003
26.40000 374.425
26.41000 374.234
26.42000 377.294
26.43000 381.089
26.44000 384.728
26.45000 387.544
26.46000 390.240
26.47000 392.375
26.48000 387.033
26.49000 382.219
26.50000 380.864
26.51000 387.767
26.52000 395.027
26.53000 399.750
26.54000 400.355
26.55000 400.902
26.56000 401.186
26.57000 399.189
26.58000 397.802
26.59000 391.140
26.60000 380.778
26.61000 370.646
26.62000 367.693
26.63000 368.150
26.64000 368.585
26.65000 368.819
26.66000 368.976
26.67000 369.266
26.68000 370.618
26.69000 372.202
26.70000 373.255
26.71000 371.615
26.72000 369.598
26.73000 368.015
26.74000 375.673
26.75000 382.407
26.76000 387.422
26.77000 388.475
26.78000 389.369
26.79000 386.510
26.80000 377.769
26.81000 368.958
26.82000 364.482
26.83000 369.620
26.84000 372.990
26.85000 368.212
26.86000 357.921
26.87000 348.281
26.88000 357.234
26.89000 374.714
26.90000 391.250
26.91000 391.896
26.92000 387.922
26.93000 383.108
26.94000 371.843
26.95000 359.227
26.96000 349.847
26.97000 356.264
26.98000 364.793
26.99000 371.434
27.00000 377.441
27.01000 382.186
27.02000 385.406
27.03000 385.231
27.04000 384.932
27.05000 383.913
27.06000 381.807
27.07000 379.690
27.08000 379.510
27.09000 381.251
27.10000 382.930
27.11000 378.882
27.12000 371.098
27.13000 363.605
27.14000 363.750
27.15000 367.276
27.16000 370.601
27.17000 376.676
27.18000 383.000
27.19000 388.060
27.20000 383.842
27.21000 377.756
27.22000 372.449
27.23000 370.807
27.24000 369.633
27.25000 368.727
27.26000 376.722
27.27000 383.575
27.28000 386.242
27.29000 379.914
27.30000 373.283
27.31000 366.673
27.32000 360.093
27.33000 353.513
27.34000 352.835
27.35000 357.772
27.36000 362.697
27.37000 366.630
27.38000 369.939
27.39000 373.140
27.40000 373.720
27.41000 373.180
27.42000 372.672
27.43000 377.490
27.44000 383.297
27.45000 387.743
27.46000 382.620
27.47000 375.643
27.48000 369.467
27.49000 366.914
27.50000 364.803
27.51000 363.189
27.52000 369.522
27.53000 374.950
27.54000 377.100
27.55000 372.446
27.56000 367.583
27.57000 365.474
27.58000 367.228
27.59000 369.009
27.60000 373.102
27.61000 379.306
27.62000 385.456
27.63000 387.918
27.64000 388.143
27.65000 388.251
27.66000 385.729
27.67000 382.122
27.68000 378.748
27.69000 374.611
27.70000 370.659
27.71000 368.189
27.72000 375.691
27.73000 385.051
27.74000 392.501
27.75000 391.634
27.76000 389.797
27.77000 388.406
27.78000 378.126
27.79000 369.604
27.80000 364.208
27.81000 365.077
27.82000 366.120
27.83000 365.231
27.84000 361.729
27.85000 358.215
27.86000 357.238
27.87000 358.489
27.88000 359.748
27.89000 361.514
27.90000 363.577
27.91000 365.630
27.92000 367.489
27.93000 369.271
27.94000 370.930
27.95000 365.771
27.96000 359.431
27.97000 355.312
27.98000 365.519
27.99000 378.289
28.00000 386.599
28.01000 376.192
28.02000 363.706
28.03000 354.336
28.04000 363.562
28.05000 371.655
28.06000 374.935
28.07000 368.907
28.08000 362.644
28.09000 361.108
28.10000 365.726
28.11000 370.365
28.12000 369.905
28.13000 365.145
28.14000 360.453
28.15000 359.283
28.16000 360.101
28.17000 360.967
28.18000 362.764
28.19000 364.920
28.20000 366.920
28.21000 366.727
28.22000 366.038
28.23000 364.664
28.24000 359.047
28.25000 352.703
28.26000 348.828
28.27000 354.944
28.28000 362.118
28.29000 367.448
28.30000 368.354
28.31000 368.861
28.32000 367.205
28.33000 361.508
28.34000 355.718
28.35000 351.951
28.36000 350.719
28.37000 349.496
28.38000 353.689
28.39000 362.255
28.40000 370.626
28.41000 369.962
28.42000 364.372
28.43000 359.145
28.44000 360.477
28.45000 364.249
28.46000 367.734
28.47000 366.598
28.48000 364.534
28.49000 362.584
28.50000 361.307
28.51000 360.142
28.52000 359.200
28.53000 359.130
28.54000 359.147
28.55000 359.160
28.56000 364.084
28.57000 368.096
28.58000 371.307
28.59000 373.077
28.60000 374.817
28.61000 371.795
28.62000 363.031
28.63000 354.272
28.64000 357.401
28.65000 369.770
28.66000 381.884
28.67000 383.422
28.68000 379.395
28.69000 375.146
28.70000 367.141
28.71000 357.786
28.72000 349.182
28.73000 361.728
28.74000 377.525
28.75000 390.026
28.76000 383.735
28.77000 374.472
28.78000 367.920
28.79000 371.563
28.80000 376.182
28.81000 379.545
28.82000 379.558
28.83000 379.441
28.84000 376.396
28.85000 368.262
28.86000 360.036
28.87000 357.110
28.88000 360.333
28.89000 363.556
28.90000 363.451
28.91000 360.857
28.92000 358.413
28.93000 361.581
28.94000 367.599
28.95000 373.215
28.96000 372.441
28.97000 369.451
28.98000 366.713
28.99000 372.398
29.00000 379.208
29.01000 383.761
29.02000 375.954
29.03000 366.273
29.04000 358.286
29.05000 356.441
29.06000 355.155
29.07000 354.228
29.08000 348.712
29.09000 344.323
29.10000 347.255
29.11000 362.472
29.12000 377.883
29.13000 382.169
29.14000 374.047
29.15000 365.946
29.16000 362.404
29.17000 362.176
29.18000 362.121
29.19000 367.953
29.20000 376.671
29.21000 384.593
29.22000 380.615
29.23000 372.652
29.24000 365.397
29.25000 359.451
29.26000 354.445
29.27000 351.327
29.28000 358.150
29.29000 366.418
29.30000 372.056
29.31000 368.496
29.32000 364.145
29.33000 361.043
29.34000 356.229
29.35000 352.503
29.36000 351.866
29.37000 356.232
29.38000 360.667
29.39000 364.245
29.40000 366.906
29.41000 369.555
29.42000 363.301
29.43000 350.951
29.44000 339.106
29.45000 342.881
29.46000 354.052
29.47000 364.748
29.48000 368.764
29.49000 370.622
29.50000 372.307
29.51000 370.180
29.52000 367.574
29.53000 365.212
29.54000 364.079
29.55000 363.117
29.56000 362.592
29.57000 363.539
29.58000 364.607
29.59000 365.359
29.60000 373.530
29.61000 379.949
29.62000 380.465
29.63000 371.762
29.64000 362.951
29.65000 357.827
29.66000 356.500
29.67000 355.180
29.68000 352.906
29.69000 350.026
29.70000 347.408
29.71000 352.204
29.72000 360.391
29.73000 368.223
29.74000 371.345
29.75000 373.000
29.76000 374.492
29.77000 362.267
29.78000 349.012
29.79000 338.863
29.80000 343.835
29.81000 350.820
29.82000 356.350
29.83000 357.145
29.84000 357.576
29.85000 357.876
29.86000 365.036
29.87000 370.629
29.88000 374.045
29.89000 374.185
29.90000 374.292
29.91000 370.240
29.92000 362.077
29.93000 353.969
29.94000 356.776
29.95000 366.531
29.96000 375.930
29.97000 376.024
29.98000 372.009
29.99000 368.187
30.00000 366.793
30.01000 366.129
30.02000 365.532
30.03000 371.542
30.04000 377.960
30.05000 383.453
30.06000 384.617
30.07000 385.230
30.08000 385.033
30.09000 382.293
30.10000 379.369
30.11000 377.354
30.12000 379.443
30.13000 381.115
30.14000 381.209
30.15000 379.014
30.16000 376.800
30.17000 375.515
30.18000 375.112
30.19000 374.713
30.20000 373.625
30.21000 372.131
30.22000 370.544
30.23000 366.710
30.24000 361.917
30.25000 357.368
30.26000 355.712
30.27000 354.896
30.28000 354.167
30.29000 366.396
30.30000 379.226
30.31000 388.142
30.32000 379.400
30.33000 368.512
30.34000 358.806
30.35000 352.681
30.36000 346.802
30.37000 342.799
30.38000 347.295
30.39000 350.848
30.40000 351.300
30.41000 347.417
30.42000 343.508
30.43000 345.871
30.44000 353.950
30.45000 361.955
30.46000 363.768
30.47000 361.875
30.48000 360.207
30.49000 363.552
30.50000 368.961
30.51000 373.672
30.52000 370.535
30.53000 365.200
30.54000 360.461
30.55000 368.658
30.56000 377.849
30.57000 384.499
30.58000 380.115
30.59000 374.452
30.60000 367.434
30.61000 356.455
30.62000 345.221
30.63000 337.666
30.64000 361.101
30.65000 379.156
30.66000 386.552
30.67000 379.588
30.68000 372.552
30.69000 370.730
30.70000 373.477
30.71000 376.194
30.72000 378.282
30.73000 379.963
30.74000 381.498
30.75000 379.993
30.76000 377.279
30.77000 375.260
30.78000 380.650
30.79000 388.041
30.80000 394.571
30.81000 389.570
30.82000 383.477
30.83000 379.693
30.84000 385.572
30.85000 392.519
30.86000 397.492
30.87000 396.886
30.88000 395.942
30.89000 395.315
30.90000 390.097
30.91000 386.155
30.92000 388.718
30.93000 399.724
30.94000 410.757
30.95000 417.539
30.96000 420.739
30.97000 423.900
30.98000 426.850
30.99000 429.611
31.00000 432.420
31.01000 436.154
31.02000 440.244
31.03000 444.931
31.04000 455.687
31.05000 468.022
31.06000 478.858
31.07000 487.577
31.08000 494.761
31.09000 502.148
31.10000 510.358
31.11000 518.654
31.12000 529.116
31.13000 545.486
31.14000 562.191
31.15000 573.143
31.16000 593.067
31.17000 607.867
31.18000 623.766
31.19000 641.038
31.20000 658.292
31.21000 667.255
31.22000 669.496
31.23000 671.706
31.24000 686.790
31.25000 708.248
31.26000 729.232
31.27000 741.683
31.28000 750.971
31.29000 761.383
31.30000 782.632
31.31000 806.602
31.32000 827.534
31.33000 831.077
31.34000 831.663
31.35000 832.170
31.36000 832.372
31.37000 832.544
31.38000 835.197
31.39000 844.388
31.40000 853.924
31.41000 860.095
31.42000 850.739
31.43000 843.667
31.44000 836.880
31.45000 830.435
31.46000 823.961
31.47000 809.685
31.48000 789.320
31.49000 769.274
31.50000 752.993
31.51000 739.132
31.52000 725.432
31.53000 714.452
31.54000 704.445
31.55000 693.078
31.56000 669.218
31.57000 642.335
31.58000 618.999
31.59000 597.904
31.60000 580.230
31.61000 566.135
31.62000 565.450
31.63000 566.042
31.64000 561.681
31.65000 544.715
31.66000 527.126
31.67000 515.898
31.68000 498.528
31.69000 485.811
31.70000 478.351
31.71000 476.969
31.72000 475.566
31.73000 468.392
31.74000 456.882
31.75000 445.573
31.76000 439.204
31.77000 435.469
31.78000 431.817
31.79000 429.503
31.80000 427.651
31.81000 425.045
31.82000 415.841
31.83000 405.099
31.84000 395.833
31.85000 399.345
31.86000 403.964
31.87000 408.265
31.88000 411.422
31.89000 414.476
31.90000 414.611
31.91000 407.578
31.92000 400.216
31.93000 395.581
31.94000 402.819
31.95000 408.190
31.96000 405.020
31.97000 392.354
31.98000 379.722
31.99000 373.581
32.00000 372.137
32.01000 370.721
32.02000 367.928
32.03000 364.590
32.04000 361.655
32.05000 364.713
32.06000 369.769
32.07000 373.980
32.08000 371.127
32.09000 366.687
32.10000 362.880
32.11000 361.960
32.12000 361.536
32.13000 360.531
32.14000 357.506
32.15000 354.308
32.16000 352.812
32.17000 355.355
32.18000 358.071
32.19000 359.756
32.20000 354.845
32.21000 351.246
32.22000 349.634
32.23000 350.143
32.24000 350.666
32.25000 353.011
32.26000 356.626
32.27000 360.162
32.28000 365.159
32.29000 370.615
32.30000 375.186
32.31000 367.346
32.32000 355.510
32.33000 344.389
32.34000 338.976
32.35000 334.797
32.36000 331.238
32.37000 331.925
32.38000 332.997
32.39000 332.821
32.40000 328.446
32.41000 323.731
32.42000 322.588
32.43000 329.630
32.44000 336.993
32.45000 341.497
32.46000 340.746
32.47000 340.166
32.48000 340.599
32.49000 342.073
32.50000 343.472
32.51000 337.014
32.52000 325.275
32.53000 313.814
32.54000 318.625
32.55000 330.321
32.56000 341.179
32.57000 340.950
32.58000 337.275
32.59000 334.324
32.60000 336.896
32.61000 340.617
32.62000 343.766
32.63000 335.732
32.64000 327.766
32.65000 321.428
32.66000 320.371
32.67000 319.720
32.68000 320.315
32.69000 323.665
32.70000 327.115
32.71000 329.194
32.72000 320.812
32.73000 314.774
32.74000 314.863
32.75000 320.984
32.76000 327.064
32.77000 329.422
32.78000 329.368
32.79000 329.316
32.80000 337.414
32.81000 348.554
32.82000 359.380
32.83000 366.278
32.84000 371.999
32.85000 379.697
32.86000 401.809
32.87000 426.806
32.88000 447.811
32.89000 466.692
32.90000 482.199
32.91000 498.612
32.92000 517.862
32.93000 537.319
32.94000 551.489
32.95000 554.367
32.96000 556.870
32.97000 558.355
32.98000 567.336
32.99000 573.733
33.00000 573.905
33.01000 568.192
33.02000 562.363
33.03000 547.638
33.04000 527.353
33.05000 507.645
33.06000 492.164
33.07000 479.163
33.08000 465.743
33.09000 447.355
33.10000 427.530
33.11000 408.596
33.12000 395.882
33.13000 384.366
33.14000 374.756
33.15000 365.319
33.16000 357.509
33.17000 350.063
33.18000 343.718
33.19000 337.449
33.20000 329.442
33.21000 317.850
33.22000 306.149
33.23000 299.316
33.24000 298.631
33.25000 298.181
33.26000 302.535
33.27000 311.253
33.28000 319.804
33.29000 317.390
33.30000 308.365
33.31000 299.619
33.32000 294.477
33.33000 291.009
33.34000 288.025
33.35000 290.445
33.36000 294.374
33.37000 297.488
33.38000 295.145
33.39000 291.793
33.40000 289.016
33.41000 293.175
33.42000 297.270
33.43000 299.854
33.44000 298.026
33.45000 295.915
33.46000 294.139
33.47000 293.031
33.48000 291.941
33.49000 291.315
33.50000 292.515
33.51000 293.358
33.52000 291.493
33.53000 287.263
33.54000 283.118
33.55000 283.880
33.56000 287.497
33.57000 290.992
33.58000 293.957
33.59000 296.555
33.60000 298.811
33.61000 297.440
33.62000 295.092
33.63000 293.050
33.64000 292.965
33.65000 293.227
33.66000 293.444
33.67000 296.027
33.68000 298.364
33.69000 299.542
33.70000 297.453
33.71000 295.167
33.72000 293.328
33.73000 292.346
33.74000 291.385
33.75000 290.843
33.76000 293.848
33.77000 295.947
33.78000 298.012
33.79000 300.048
33.80000 302.030
33.81000 301.246
33.82000 298.910
33.83000 296.659
33.84000 294.602
33.85000 292.738
33.86000 290.558
33.87000 285.196
33.88000 279.008
33.89000 274.879
33.90000 283.406
33.91000 294.094
33.92000 302.817
33.93000 303.456
33.94000 303.286
33.95000 301.692
33.96000 296.230
33.97000 290.549
33.98000 288.268
33.99000 292.296
34.00000 296.466
34.01000 298.781
34.02000 302.275
34.03000 304.678
34.04000 302.699
34.05000 297.176
34.06000 291.793
34.07000 292.728
34.08000 297.086
34.09000 301.273
34.10000 304.341
34.11000 306.826
34.12000 308.942
34.13000 307.518
34.14000 305.207
34.15000 303.062
34.16000 301.888
34.17000 300.874
34.18000 300.052
34.19000 301.710
34.20000 303.261
34.21000 304.238
34.22000 303.704
34.23000 303.090
34.24000 302.001
34.25000 300.060
34.26000 298.102
34.27000 297.034
34.28000 298.222
34.29000 299.046
34.30000 301.280
34.31000 304.609
34.32000 307.878
34.33000 308.656
34.34000 308.131
34.35000 307.628
34.36000 305.245
34.37000 302.395
34.38000 299.619
34.39000 297.516
34.40000 295.576
34.41000 294.239
34.42000 296.321
34.43000 298.941
34.44000 301.047
34.45000 301.904
34.46000 302.502
34.47000 302.948
34.48000 303.007
34.49000 303.047
34.50000 302.140
34.51000 299.593
34.52000 297.018
34.53000 295.638
34.54000 295.932
34.55000 296.117
34.56000 292.829
34.57000 286.939
34.58000 281.202
34.59000 281.085
34.60000 283.806
34.61000 286.405
34.62000 288.350
34.63000 289.949
34.64000 291.509
34.65000 292.734
34.66000 293.881
34.67000 294.451
34.68000 291.882
34.69000 288.840
34.70000 286.415
34.71000 282.484
34.72000 279.203
34.73000 276.059
34.74000 273.250
34.75000 270.456
34.76000 271.779
34.77000 279.970
34.78000 288.266
34.79000 292.628
34.80000 282.360
34.81000 275.420
34.82000 273.082
34.83000 274.063
34.84000 274.995
34.85000 274.260
34.86000 272.713
34.87000 271.240
34.88000 278.854
34.89000 288.701
34.90000 297.124
34.91000 293.712
34.92000 287.650
34.93000 282.745
34.94000 283.888
34.95000 285.903
34.96000 287.496
34.97000 275.737
34.98000 265.379
34.99000 259.605
35.00000 264.676
35.01000 270.207
35.02000 272.530
35.03000 269.692
35.04000 266.785
35.05000 265.285
35.06000 263.411
35.07000 262.174
35.08000 264.193
35.09000 268.475
35.10000 272.578
35.11000 271.197
35.12000 267.234
35.13000 263.475
35.14000 270.673
35.15000 280.553
35.16000 289.059
35.17000 286.648
35.18000 281.884
35.19000 277.298
35.20000 273.607
35.21000 270.041
35.22000 267.245
35.23000 264.594
35.24000 262.484
35.25000 261.770
35.26000 264.247
35.27000 266.848
35.28000 271.449
35.29000 279.156
35.30000 286.898
35.31000 290.812
35.32000 270.547
35.33000 257.087
35.34000 254.105
35.35000 258.146
35.36000 262.112
35.37000 263.984
35.38000 264.905
35.39000 265.775
35.40000 264.825
35.41000 263.435
35.42000 263.201
35.43000 271.747
35.44000 282.115
35.45000 289.191
35.46000 280.347
35.47000 269.399
35.48000 260.894
35.49000 256.216
35.50000 252.728
35.51000 251.993
35.52000 257.332
35.53000 262.889
35.54000 267.233
35.55000 269.764
35.56000 272.277
35.57000 270.557
35.58000 264.683
35.59000 258.902
35.60000 261.262
35.61000 268.883
35.62000 276.042
35.63000 271.298
35.64000 261.328
35.65000 251.939
35.66000 258.485
35.67000 268.833
35.68000 277.982
35.69000 278.428
35.70000 277.138
35.71000 274.726
35.72000 267.097
35.73000 258.809
35.74000 252.427
35.75000 251.391
35.76000 250.875
35.77000 253.018
35.78000 260.825
35.79000 268.819
35.80000 270.783
35.81000 264.048
35.82000 257.244
35.83000 255.714
35.84000 259.154
35.85000 262.542
35.86000 261.947
35.87000 258.870
35.88000 255.925
35.89000 256.125
35.90000 257.658
35.91000 259.096
35.92000 255.724
35.93000 251.387
35.94000 247.570
35.95000 247.363
35.96000 247.850
35.97000 249.283
35.98000 254.958
35.99000 261.144
36.00000 265.864
36.01000 257.375
36.02000 249.980
36.03000 246.708
36.04000 251.917
36.05000 257.381
36.06000 258.722
36.07000 254.332
36.08000 249.906
36.09000 249.002
36.10000 251.286
36.11000 253.568
36.12000 255.689
36.13000 257.713
36.14000 259.675
36.15000 260.251
36.16000 260.259
36.17000 260.268
36.18000 256.840
36.19000 252.863
36.20000 249.699
36.21000 251.955
36.22000 255.211
36.23000 256.962
36.24000 252.222
36.25000 246.734
36.26000 242.587
36.27000 250.633
36.28000 257.553
36.29000 262.735
36.30000 264.466
36.31000 266.102
36.32000 264.483
36.33000 258.505
36.34000 252.509
36.35000 248.864
36.36000 247.270
36.37000 245.677
36.38000 244.159
36.39000 242.683
36.40000 241.532
36.41000 247.011
36.42000 255.110
36.43000 262.648
36.44000 259.103
36.45000 253.210
36.46000 248.789
36.47000 253.767
36.48000 260.409
36.49000 264.947
36.50000 260.730
36.51000 255.553
36.52000 251.677
36.53000 253.386
36.54000 254.981
36.55000 256.127
36.56000 256.416
36.57000 256.683
36.58000 255.209
36.59000 251.489
36.60000 247.765
36.61000 248.230
36.62000 252.189
36.63000 256.078
36.64000 256.404
36.65000 254.735
36.66000 253.072
36.67000 251.526
36.68000 250.025
36.69000 248.633
36.70000 249.157
36.71000 250.074
36.72000 250.409
36.73000 247.182
36.74000 243.348
36.75000 241.010
36.76000 244.661
36.77000 248.939
36.78000 252.109
36.79000 251.790
36.80000 251.390
36.81000 250.106
36.82000 247.186
36.83000 244.231
36.84000 243.512
36.85000 245.569
36.86000 247.630
36.87000 251.768
36.88000 257.555
36.89000 263.182
36.90000 261.558
36.91000 256.018
36.92000 250.737
36.93000 250.066
36.94000 251.095
36.95000 252.044
36.96000 254.935
36.97000 257.961
36.98000 260.924
36.99000 263.523
37.00000 266.062
37.01000 268.219
37.02000 268.896
37.03000 269.426
37.04000 269.815
37.05000 265.780
37.06000 262.483
37.07000 262.086
37.08000 266.871
37.09000 271.759
37.10000 269.501
37.11000 258.709
37.12000 247.924
37.13000 245.679
37.14000 250.031
37.15000 254.293
37.16000 254.919
37.17000 253.650
37.18000 252.416
37.19000 251.763
37.20000 251.318
37.21000 250.909
37.22000 251.023
37.23000 251.238
37.24000 251.562
37.25000 252.510
37.26000 253.556
37.27000 254.533
37.28000 255.259
37.29000 255.960
37.30000 256.469
37.31000 254.209
37.32000 252.367
37.33000 251.026
37.34000 250.549
37.35000 250.087
37.36000 250.336
37.37000 251.402
37.38000 252.465
37.39000 253.066
37.40000 253.319
37.41000 253.448
37.42000 249.064
37.43000 242.408
37.44000 236.195
37.45000 236.930
37.46000 240.052
37.47000 242.907
37.48000 245.275
37.49000 247.279
37.50000 248.371
37.51000 244.518
37.52000 239.923
37.53000 238.209
37.54000 246.844
37.55000 256.406
37.56000 263.277
37.57000 253.319
37.58000 245.116
37.59000 240.522
37.60000 241.931
37.61000 243.432
37.62000 245.392
37.63000 247.860
37.64000 250.318
37.65000 250.484
37.66000 249.015
37.67000 247.670
37.68000 250.469
37.69000 255.282
37.70000 259.409
37.71000 253.428
37.72000 244.095
37.73000 235.599
37.74000 238.662
37.75000 243.656
37.76000 248.468
37.77000 252.337
37.78000 256.070
37.79000 258.313
37.80000 255.396
37.81000 252.039
37.82000 249.654
37.83000 249.129
37.84000 248.789
37.85000 248.625
37.86000 248.744
37.87000 248.866
37.88000 249.129
37.89000 249.544
37.90000 249.956
37.91000 251.324
37.92000 253.332
37.93000 255.240
37.94000 254.104
37.95000 251.540
37.96000 249.324
37.97000 251.937
37.98000 256.096
37.99000 259.863
38.00000 256.620
38.01000 252.434
38.02000 248.566
38.03000 246.287
38.04000 244.226
38.05000 243.298
38.06000 246.157
38.07000 249.321
38.08000 251.544
38.09000 255.557
38.10000 258.649
38.11000 259.763
38.12000 257.816
38.13000 255.835
38.14000 253.520
38.15000 250.867
38.16000 248.228
38.17000 253.147
38.18000 262.983
38.19000 272.567
38.20000 275.136
38.21000 274.527
38.22000 273.829
38.23000 271.963
38.24000 269.737
38.25000 267.731
38.26000 270.561
38.27000 273.923
38.28000 276.230
38.29000 273.452
38.30000 270.004
38.31000 268.825
38.32000 274.965
38.33000 281.662
38.34000 286.316
38.35000 279.848
38.36000 274.673
38.37000 271.488
38.38000 271.272
38.39000 271.085
38.40000 275.260
38.41000 283.701
38.42000 292.084
38.43000 303.106
38.44000 315.628
38.45000 327.860
38.46000 332.652
38.47000 334.189
38.48000 336.272
38.49000 345.121
38.50000 355.987
38.51000 365.731
38.52000 367.528
38.53000 367.718
38.54000 369.776
38.55000 380.502
38.56000 392.319
38.57000 403.165
38.58000 410.987
38.59000 418.593
38.60000 423.817
38.61000 429.007
38.62000 432.899
38.63000 437.374
38.64000 442.687
38.65000 448.008
38.66000 453.953
38.67000 460.486
38.68000 466.965
38.69000 468.458
38.70000 466.881
38.71000 465.429
38.72000 466.932
38.73000 469.683
38.74000 471.990
38.75000 469.097
38.76000 464.707
38.77000 460.792
38.78000 454.469
38.79000 448.567
38.80000 441.118
38.81000 426.754
38.82000 411.559
38.83000 398.796
38.84000 393.341
38.85000 388.379
38.86000 385.012
38.87000 376.440
38.88000 369.930
38.89000 359.365
38.90000 343.181
38.91000 326.966
38.92000 318.257
38.93000 316.321
38.94000 314.404
38.95000 314.520
38.96000 315.828
38.97000 316.803
38.98000 310.488
38.99000 301.196
39.00000 291.811
39.01000 281.386
39.02000 270.672
39.03000 261.168
39.04000 261.272
39.05000 262.892
39.06000 264.016
39.07000 263.002
39.08000 261.743
39.09000 259.769
39.10000 255.720
39.11000 251.538
39.12000 248.735
39.13000 247.624
39.14000 246.833
39.15000 246.666
39.16000 247.330
39.17000 247.999
39.18000 248.970
39.19000 250.203
39.20000 251.423
39.21000 248.538
39.22000 243.403
39.23000 238.673
39.24000 242.190
39.25000 248.957
39.26000 255.065
39.27000 254.222
39.28000 251.519
39.29000 249.135
39.30000 244.345
39.31000 239.848
39.32000 237.662
39.33000 245.058
39.34000 253.502
39.35000 259.364
39.36000 257.996
39.37000 256.196
39.38000 255.005
39.39000 244.409
39.40000 236.416
39.41000 234.338
39.42000 239.862
39.43000 245.410
39.44000 248.208
39.45000 248.711
39.46000 249.207
39.47000 246.816
39.48000 242.916
39.49000 238.940
39.50000 233.504
39.51000 227.513
39.52000 222.489
39.53000 227.150
39.54000 234.309
39.55000 240.589
39.56000 237.930
39.57000 234.347
39.58000 231.043
39.59000 228.857
39.60000 226.787
39.61000 226.480
39.62000 230.940
39.63000 235.666
39.64000 238.755
39.65000 239.658
39.66000 240.287
39.67000 238.972
39.68000 235.251
39.69000 231.538
39.70000 232.364
39.71000 236.836
39.72000 241.244
39.73000 244.081
39.74000 246.015
39.75000 247.664
39.76000 244.270
39.77000 239.024
39.78000 234.017
39.79000 231.296
39.80000 229.145
39.81000 227.268
39.82000 227.016
39.83000 227.026
39.84000 227.127
39.85000 227.576
39.86000 228.059
39.87000 228.013
39.88000 226.587
39.89000 225.088
39.90000 224.122
39.91000 221.841
39.92000 220.156
39.93000 221.553
39.94000 226.620
39.95000 231.669
39.96000 230.686
39.97000 225.040
39.98000 219.484
39.99000 218.467
40.00000 219.767
40.01000 221.094
40.02000 222.866
40.03000 224.797
40.04000 226.124
40.05000 221.979
40.06000 216.521
40.07000 211.791
40.08000 214.051
40.09000 216.902
40.10000 220.395
40.11000 226.264
40.12000 232.358
40.13000 235.283
40.14000 230.219
40.15000 224.767
40.16000 221.299
40.17000 220.974
40.18000 220.777
40.19000 221.220
40.20000 222.396
40.21000 223.553
40.22000 220.992
40.23000 215.663
40.24000 210.430
40.25000 212.621
40.26000 218.334
40.27000 223.952
40.28000 228.101
40.29000 231.747
40.30000 234.678
40.31000 231.431
40.32000 226.756
40.33000 222.729
40.34000 221.691
40.35000 221.190
40.36000 220.002
40.37000 216.353
40.38000 212.485
40.39000 210.029
40.40000 211.013
40.41000 212.152
40.42000 212.866
40.43000 214.255
40.44000 215.266
40.45000 213.659
40.46000 209.170
40.47000 204.716
40.48000 205.830
40.49000 210.936
40.50000 215.940
40.51000 217.751
40.52000 218.006
40.53000 218.293
40.54000 219.069
40.55000 220.006
40.56000 220.915
40.57000 221.582
40.58000 222.196
40.59000 222.721
40.60000 220.712
40.61000 218.712
40.62000 216.665
40.63000 214.456
40.64000 212.234
40.65000 212.616
40.66000 219.122
40.67000 225.884
40.68000 230.066
40.69000 221.143
40.70000 214.608
40.71000 213.468
40.72000 218.032
40.73000 222.554
40.74000 221.781
40.75000 217.348
40.76000 213.013
40.77000 212.987
40.78000 214.895
40.79000 216.763
40.80000 218.076
40.81000 219.212
40.82000 219.980
40.83000 217.842
40.84000 215.082
40.85000 212.735
40.86000 207.759
40.87000 203.278
40.88000 200.774
40.89000 204.864
40.90000 209.482
40.91000 214.695
40.92000 221.258
40.93000 227.874
40.94000 231.905
40.95000 226.631
40.96000 222.787
40.97000 219.869
40.98000 217.889
40.99000 215.913
41.00000 214.335
41.01000 213.023
41.02000 211.743
41.03000 209.269
41.04000 206.388
41.05000 203.772
41.06000 204.610
41.07000 206.512
41.08000 207.917
41.09000 205.574
41.10000 202.458
41.11000 199.826
41.12000 200.431
41.13000 201.292
41.14000 202.785
41.15000 206.312
41.16000 209.992
41.17000 211.991
41.18000 210.304
41.19000 208.485
41.20000 207.394
41.21000 200.204
41.22000 195.054
41.23000 195.698
41.24000 201.988
41.25000 208.200
41.26000 207.673
41.27000 202.818
41.28000 198.093
41.29000 200.176
41.30000 204.990
41.31000 209.533
41.32000 210.733
41.33000 210.940
41.34000 211.046
41.35000 210.429
41.36000 209.669
41.37000 209.031
41.38000 208.108
41.39000 207.310
41.40000 206.537
41.41000 205.839
41.42000 205.147
41.43000 204.546
41.44000 204.138
41.45000 203.737
41.46000 203.499
41.47000 203.182
41.48000 202.958
41.49000 201.325
41.50000 198.374
41.51000 195.462
41.52000 195.327
41.53000 196.913
41.54000 198.453
41.55000 201.463
41.56000 204.907
41.57000 207.904
41.58000 205.691
41.59000 201.983
41.60000 199.183
41.61000 202.653
41.62000 207.318
41.63000 211.203
41.64000 206.209
41.65000 201.190
41.66000 198.959
41.67000 205.080
41.68000 211.762
41.69000 213.914
41.70000 206.805
41.71000 199.421
41.72000 195.127
41.73000 195.696
41.74000 196.117
41.75000 196.670
41.76000 197.340
41.77000 198.077
41.78000 203.029
41.79000 210.501
41.80000 217.736
41.81000 216.660
41.82000 212.443
41.83000 208.467
41.84000 207.158
41.85000 206.587
41.86000 206.004
41.87000 205.345
41.88000 204.673
41.89000 204.117
41.90000 205.254
41.91000 206.350
41.92000 207.708
41.93000 209.825
41.94000 211.989
41.95000 215.178
41.96000 220.392
41.97000 225.661
41.98000 228.675
41.99000 216.463
42.00000 207.889
42.01000 203.794
42.02000 203.570
42.03000 203.358
42.04000 203.846
42.05000 204.737
42.06000 205.597
42.07000 206.056
42.08000 206.339
42.09000 206.315
42.10000 203.069
42.11000 198.962
42.12000 195.797
42.13000 198.597
42.14000 202.448
42.15000 205.609
42.16000 206.126
42.17000 206.316
42.18000 205.572
42.19000 202.225
42.20000 198.724
42.21000 199.457
42.22000 208.260
42.23000 217.259
42.24000 222.322
42.25000 213.543
42.26000 207.420
42.27000 204.183
42.28000 203.344
42.29000 202.602
42.30000 206.618
42.31000 213.283
42.32000 219.701
42.33000 215.711
42.34000 208.257
42.35000 201.756
42.36000 204.765
42.37000 210.220
42.38000 215.177
42.39000 217.103
42.40000 218.516
42.41000 219.668
42.42000 221.128
42.43000 222.348
42.44000 222.488
42.45000 219.716
42.46000 216.783
42.47000 213.273
42.48000 208.705
42.49000 204.114
42.50000 201.575
42.51000 197.771
42.52000 195.156
42.53000 196.584
42.54000 201.246
42.55000 205.820
42.56000 206.463
42.57000 204.995
42.58000 203.585
42.59000 203.185
42.60000 203.156
42.61000 202.986
42.62000 201.470
42.63000 199.621
42.64000 198.573
42.65000 202.204
42.66000 206.593
42.67000 210.140
42.68000 207.732
42.69000 205.296
42.70000 202.816
42.71000 200.222
42.72000 197.622
42.73000 195.704
42.74000 194.996
42.75000 194.313
42.76000 193.941
42.77000 197.226
42.78000 199.489
42.79000 203.477
42.80000 208.796
42.81000 213.855
42.82000 208.599
42.83000 197.995
42.84000 187.846
42.85000 191.448
42.86000 199.338
42.87000 206.226
42.88000 204.062
42.89000 199.734
42.90000 195.866
42.91000 194.572
42.92000 193.679
42.93000 192.963
42.94000 194.338
42.95000 195.610
42.96000 196.578
42.97000 196.783
42.98000 196.951
42.99000 196.439
43.00000 194.764
43.01000 193.069
43.02000 192.165
43.03000 198.867
43.04000 203.419
43.05000 204.318
43.06000 202.507
43.07000 200.695
43.08000 198.845
43.09000 196.977
43.10000 195.195
43.11000 189.316
43.12000 182.560
43.13000 177.273
43.14000 184.646
43.15000 194.934
43.16000 203.179
43.17000 200.417
43.18000 196.016
43.19000 192.515
43.20000 193.265
43.21000 194.174
43.22000 194.332
43.23000 192.667
43.24000 190.921
43.25000 191.043
43.26000 194.253
43.27000 197.509
43.28000 199.213
43.29000 189.831
43.30000 183.507
43.31000 181.773
43.32000 183.319
43.33000 184.863
43.34000 186.344
43.35000 187.797
43.36000 189.177
43.37000 190.175
43.38000 190.980
43.39000 191.858
43.40000 193.335
43.41000 194.944
43.42000 195.998
43.43000 194.180
43.44000 191.951
43.45000 190.194
43.46000 196.050
43.47000 201.261
43.48000 203.934
43.49000 200.652
43.50000 197.124
43.51000 195.073
43.52000 195.376
43.53000 195.710
43.54000 195.881
43.55000 193.552
43.56000 191.971
43.57000 188.647
43.58000 184.123
43.59000 179.689
43.60000 177.954
43.61000 177.479
43.62000 177.028
43.63000 181.369
43.64000 186.772
43.65000 191.927
43.66000 195.137
43.67000 197.931
43.68000 200.327
43.69000 200.736
43.70000 200.874
43.71000 200.983
43.72000 199.402
43.73000 198.032
43.74000 196.610
43.75000 195.070
43.76000 193.525
43.77000 193.797
43.78000 196.862
43.79000 199.957
43.80000 201.514
43.81000 193.950
43.82000 188.922
43.83000 186.414
43.84000 185.581
43.85000 184.875
43.86000 187.661
43.87000 192.022
43.88000 196.139
43.89000 193.583
43.90000 189.357
43.91000 185.834
43.92000 187.601
43.93000 190.454
43.94000 193.314
43.95000 196.207
43.96000 199.104
43.97000 201.349
43.98000 198.050
43.99000 195.098
44.00000 194.225
44.01000 197.899
44.02000 201.733
44.03000 201.759
44.04000 196.138
44.05000 190.464
44.06000 188.140
44.07000 189.069
44.08000 189.997
44.09000 190.812
44.10000 191.555
44.11000 192.284
44.12000 192.663
44.13000 192.890
44.14000 193.103
44.15000 192.387
44.16000 191.480
44.17000 191.017
44.18000 193.742
44.19000 197.096
44.20000 198.944
44.21000 193.845
44.22000 187.878
44.23000 183.294
44.24000 188.451
44.25000 193.075
44.26000 194.327
44.27000 188.458
44.28000 182.360
44.29000 181.275
44.30000 187.355
44.31000 193.488
44.32000 195.324
44.33000 193.150
44.34000 191.026
44.35000 192.422
44.36000 195.994
44.37000 199.453
44.38000 200.298
44.39000 200.043
44.40000 199.804
44.41000 196.918
44.42000 193.603
44.43000 191.026
44.44000 193.531
44.45000 197.000
44.46000 199.610
44.47000 198.401
44.48000 196.736
44.49000 195.469
44.50000 198.258
44.51000 200.667
44.52000 200.450
44.53000 194.878
44.54000 189.149
44.55000 188.635
44.56000 195.304
44.57000 202.014
44.58000 205.178
44.59000 205.162
44.60000 205.160
44.61000 205.999
44.62000 207.339
44.63000 208.505
44.64000 205.902
44.65000 201.770
44.66000 197.913
44.67000 194.464
44.68000 191.441
44.69000 189.150
44.70000 191.690
44.71000 195.112
44.72000 198.642
44.73000 202.633
44.74000 206.677
44.75000 209.726
44.76000 214.097
44.77000 217.585
44.78000 218.269
44.79000 213.431
44.80000 208.446
44.81000 206.874
44.82000 209.829
44.83000 212.803
44.84000 214.730
44.85000 215.752
44.86000 216.710
44.87000 214.101
44.88000 209.440
44.89000 205.170
44.90000 208.744
44.91000 215.392
44.92000 221.572
44.93000 220.607
44.94000 218.019
44.95000 216.115
44.96000 218.530
44.97000 221.702
44.98000 223.921
44.99000 222.216
45.00000 220.086
45.01000 218.495
45.02000 212.835
45.03000 208.236
45.04000 204.955
45.05000 204.179
45.06000 203.463
45.07000 204.601
45.08000 208.106
45.09000 211.615
45.10000 214.879
45.11000 217.930
45.12000 220.891
45.13000 219.466
45.14000 215.607
45.15000 211.947
45.16000 212.027
45.17000 213.523
45.18000 214.907
45.19000 214.116
45.20000 212.904
45.21000 211.526
45.22000 209.147
45.23000 206.600
45.24000 203.839
45.25000 200.232
45.26000 196.537
45.27000 193.805
45.28000 204.869
45.29000 214.040
45.30000 217.403
45.31000 210.112
45.32000 202.593
45.33000 196.136
45.34000 190.985
45.35000 185.847
45.36000 186.485
45.37000 191.708
45.38000 196.842
45.39000 198.051
45.40000 197.161
45.41000 196.379
45.42000 197.522
45.43000 199.367
45.44000 201.067
45.45000 201.983
45.46000 202.630
45.47000 203.662
45.48000 206.936
45.49000 210.573
45.50000 212.988
45.51000 210.730
45.52000 208.013
45.53000 206.025
45.54000 196.436
45.55000 188.734
45.56000 185.912
45.57000 191.730
45.58000 197.713
45.59000 199.528
45.60000 196.413
45.61000 193.297
45.62000 189.278
45.63000 184.593
45.64000 180.045
45.65000 180.920
45.66000 184.598
45.67000 188.123
45.68000 189.151
45.69000 189.298
45.70000 189.433
45.71000 183.957
45.72000 177.882
45.73000 172.867
45.74000 173.778
45.75000 175.607
45.76000 176.318
45.77000 172.902
45.78000 169.102
45.79000 166.350
45.80000 173.102
45.81000 178.638
45.82000 183.414
45.83000 186.893
45.84000 190.350
45.85000 189.034
45.86000 182.288
45.87000 175.558
45.88000 174.514
45.89000 177.651
45.90000 180.726
45.91000 181.616
45.92000 181.416
45.93000 180.908
45.94000 175.654
45.95000 168.784
45.96000 162.508
45.97000 168.231
45.98000 175.757
45.99000 181.780
46.00000 179.741
46.01000 176.504
46.02000 174.967
46.03000 179.477
46.04000 184.523
46.05000 188.139
46.06000 177.127
46.07000 168.214
46.08000 164.239
46.09000 168.405
46.10000 172.692
46.11000 172.480
46.12000 167.351
46.13000 162.240
46.14000 164.247
46.15000 171.258
46.16000 178.078
46.17000 178.687
46.18000 176.303
46.19000 174.157
46.20000 175.450
46.21000 177.875
46.22000 180.079
46.23000 180.529
46.24000 180.585
46.25000 180.426
46.26000 179.164
46.27000 177.745
46.28000 176.066
46.29000 173.494
46.30000 170.847
46.31000 168.971
46.32000 171.577
46.33000 173.700
46.34000 174.164
46.35000 171.992
46.36000 169.786
46.37000 170.746
46.38000 175.030
46.39000 179.293
46.40000 179.178
46.41000 176.093
46.42000 173.177
46.43000 175.283
46.44000 179.725
46.45000 183.755
46.46000 182.157
46.47000 178.773
46.48000 175.711
46.49000 176.502
46.50000 177.920
46.51000 179.107
46.52000 179.147
46.53000 179.030
46.54000 178.304
46.55000 175.555
46.56000 172.646
46.57000 170.606
46.58000 168.297
46.59000 166.542
46.60000 166.328
46.61000 168.477
46.62000 170.652
46.63000 173.915
46.64000 178.277
46.65000 182.612
46.66000 180.596
46.67000 174.462
46.68000 168.516
46.69000 167.705
46.70000 169.202
46.71000 170.664
46.72000 171.699
46.73000 172.601
46.74000 173.414
46.75000 173.629
46.76000 173.710
46.77000 173.616
46.78000 172.689
46.79000 171.654
46.80000 170.026
46.81000 166.506
46.82000 162.844
46.83000 160.306
46.84000 165.433
46.85000 169.494
46.86000 172.346
46.87000 173.411
46.88000 174.461
46.89000 174.232
46.90000 172.765
46.91000 171.310
46.92000 171.492
46.93000 172.700
46.94000 173.853
46.95000 173.647
46.96000 172.851
46.97000 171.959
46.98000 169.892
46.99000 167.478
47.00000 165.316
47.01000 167.370
47.02000 169.887
47.03000 171.621
47.04000 169.762
47.05000 167.456
47.06000 166.197
47.07000 168.166
47.08000 170.364
47.09000 171.869
47.10000 174.684
47.11000 176.824
47.12000 175.197
47.13000 168.202
47.14000 161.167
47.15000 157.782
47.16000 157.788
47.17000 157.795
47.18000 158.453
47.19000 159.493
47.20000 160.674
47.21000 165.137
47.22000 170.976
47.23000 176.048
47.24000 172.260
47.25000 165.945
47.26000 160.321
47.27000 160.823
47.28000 162.268
47.29000 163.596
47.30000 164.409
47.31000 165.162
47.32000 166.303
47.33000 168.604
47.34000 170.981
47.35000 172.590
47.36000 164.658
47.37000 158.542
47.38000 154.453
47.39000 153.147
47.40000 151.862
47.41000 156.582
47.42000 166.667
47.43000 176.651
47.44000 177.185
47.45000 172.214
47.46000 167.397
47.47000 165.883
47.48000 165.707
47.49000 165.591
47.50000 166.152
47.51000 166.900
47.52000 167.562
47.53000 165.405
47.54000 163.096
47.55000 160.670
47.56000 157.752
47.57000 154.778
47.58000 152.449
47.59000 151.973
47.60000 151.614
47.61000 151.374
47.62000 158.269
47.63000 163.519
47.64000 165.917
47.65000 164.545
47.66000 163.153
47.67000 161.087
47.68000 158.440
47.69000 155.824
47.70000 158.060
47.71000 162.958
47.72000 167.628
47.73000 167.763
47.74000 166.125
47.75000 164.765
47.76000 166.291
47.77000 168.584
47.78000 170.603
47.79000 168.264
47.80000 165.593
47.81000 162.730
47.82000 159.077
47.83000 155.339
47.84000 152.813
47.85000 153.653
47.86000 154.691
47.87000 155.376
47.88000 153.790
47.89000 152.581
47.90000 153.381
47.91000 156.737
47.92000 160.099
47.93000 161.558
47.94000 161.446
47.95000 161.335
47.96000 161.095
47.97000 160.791
47.98000 160.481
47.99000 160.073
48.00000 159.627
48.01000 159.271
48.02000 159.809
48.03000 160.576
48.04000 161.248
48.05000 164.759
48.06000 168.180
48.07000 170.032
48.08000 165.677
48.09000 160.684
48.10000 157.158
48.11000 157.565
48.12000 158.187
48.13000 158.593
48.14000 163.994
48.15000 168.034
48.16000 167.048
48.17000 159.903
48.18000 152.761
48.19000 151.241
48.20000 154.194
48.21000 157.102
48.22000 160.923
48.23000 165.102
48.24000 169.067
48.25000 169.287
48.26000 168.144
48.27000 166.908
48.28000 164.800
48.29000 162.476
48.30000 160.454
48.31000 157.296
48.32000 154.444
48.33000 152.666
48.34000 154.986
48.35000 157.707
48.36000 158.588
48.37000 154.705
48.38000 150.578
48.39000 147.926
48.40000 153.758
48.41000 158.129
48.42000 160.939
48.43000 161.908
48.44000 162.858
48.45000 159.962
48.46000 154.123
48.47000 148.380
48.48000 147.507
48.49000 149.090
48.50000 150.752
48.51000 153.695
48.52000 157.088
48.53000 160.195
48.54000 160.732
48.55000 160.659
48.56000 160.596
48.57000 157.761
48.58000 154.988
48.59000 152.977
48.60000 153.773
48.61000 154.829
48.62000 154.784
48.63000 151.989
48.64000 149.063
48.65000 147.208
48.66000 149.199
48.67000 150.690
48.68000 152.227
48.69000 153.814
48.70000 155.414
48.71000 159.269
48.72000 164.787
48.73000 170.203
48.74000 170.456
48.75000 168.223
48.76000 166.050
48.77000 164.801
48.78000 163.866
48.79000 162.867
48.80000 161.326
48.81000 159.661
48.82000 158.228
48.83000 156.120
48.84000 154.251
48.85000 152.861
48.86000 153.169
48.87000 153.626
48.88000 155.258
48.89000 159.726
48.90000 164.319
48.91000 167.190
48.92000 165.951
48.93000 165.014
48.94000 162.814
48.95000 159.238
48.96000 155.680
48.97000 154.697
48.98000 155.545
48.99000 156.376
49.00000 160.016
49.01000 164.813
49.02000 169.258
49.03000 168.619
49.04000 166.314
49.05000 163.583
49.06000 157.387
49.07000 150.426
49.08000 144.479
49.09000 149.695
49.10000 155.423
49.11000 159.813
49.12000 159.626
49.13000 159.057
49.14000 159.187
49.15000 160.944
49.16000 162.769
49.17000 163.893
49.18000 162.286
49.19000 161.109
49.20000 160.478
49.21000 160.419
49.22000 160.351
49.23000 159.134
49.24000 157.130
49.25000 155.172
49.26000 153.111
49.27000 151.090
49.28000 149.477
49.29000 153.396
49.30000 159.066
49.31000 163.600
49.32000 159.276
49.33000 153.074
49.34000 147.810
49.35000 151.735
49.36000 156.072
49.37000 158.736
49.38000 155.872
49.39000 152.571
49.40000 150.440
49.41000 150.944
49.42000 151.546
49.43000 151.912
49.44000 156.850
49.45000 160.408
49.46000 162.732
49.47000 163.817
49.48000 164.862
49.49000 162.058
49.50000 156.714
49.51000 151.504
49.52000 149.143
49.53000 148.108
49.54000 147.389
49.55000 150.720
49.56000 155.288
49.57000 159.027
49.58000 156.581
49.59000 152.873
49.60000 149.747
49.61000 153.310
49.62000 157.010
49.63000 159.638
49.64000 158.852
49.65000 157.811
49.66000 157.673
49.67000 159.496
49.68000 161.388
49.69000 162.519
49.70000 161.201
49.71000 160.250
49.72000 158.136
49.73000 154.901
49.74000 151.681
49.75000 149.611
49.76000 148.274
49.77000 146.974
49.78000 147.493
49.79000 148.735
49.80000 149.919
49.81000 150.402
49.82000 150.678
49.83000 151.255
49.84000 153.973
49.85000 157.113
49.86000 159.742
49.87000 154.491
49.88000 149.314
49.89000 146.892
49.90000 152.943
49.91000 159.589
49.92000 162.093
49.93000 155.898
49.94000 149.427
49.95000 145.618
49.96000 143.121
49.97000 141.368
49.98000 144.811
49.99000 153.068
50.00000 161.243
50.01000 163.600
50.02000 162.386
50.03000 161.209
50.04000 158.325
50.05000 154.914
50.06000 151.875
50.07000 153.112
50.08000 155.564
50.09000 157.789
50.10000 158.468
50.11000 158.855
50.12000 159.176
50.13000 155.852
50.14000 152.744
50.15000 150.754
50.16000 152.081
50.17000 153.628
50.18000 154.313
50.19000 153.252
50.20000 152.141
50.21000 151.497
50.22000 152.172
50.23000 152.652
50.24000 153.313
50.25000 154.137
50.26000 154.922
50.27000 153.368
50.28000 150.429
50.29000 147.585
50.30000 151.330
50.31000 157.382
50.32000 162.668
50.33000 159.611
50.34000 154.265
50.35000 149.691
50.36000 150.161
50.37000 151.546
50.38000 152.689
50.39000 154.674
50.40000 156.388
50.41000 157.464
50.42000 156.711
50.43000 155.844
50.44000 156.722
50.45000 161.015
50.46000 165.397
50.47000 167.893
50.48000 167.114
50.49000 166.561
50.50000 166.170
50.51000 165.918
50.52000 165.632
50.53000 163.438
50.54000 160.153
50.55000 156.984
50.56000 160.065
50.57000 165.258
50.58000 169.921
50.59000 169.092
50.60000 166.811
50.61000 164.895
50.62000 165.271
50.63000 166.046
50.64000 166.681
50.65000 164.340
50.66000 162.158
50.67000 160.652
50.68000 161.016
50.69000 161.490
50.70000 161.236
50.71000 159.607
50.72000 157.946
50.73000 157.015
50.74000 163.954
50.75000 168.765
50.76000 165.852
50.77000 156.578
50.78000 147.427
50.79000 144.229
50.80000 144.314
50.81000 144.396
50.82000 147.772
50.83000 152.101
50.84000 156.436
50.85000 160.837
50.86000 165.254
50.87000 168.460
50.88000 164.370
50.89000 159.060
50.90000 154.743
50.91000 160.087
50.92000 165.255
50.93000 167.385
50.94000 161.391
50.95000 154.953
50.96000 152.207
50.97000 156.191
50.98000 160.317
50.99000 162.588
51.00000 159.903
51.01000 158.043
51.02000 155.531
51.03000 152.501
51.04000 149.545
51.05000 149.757
51.06000 151.655
51.07000 153.476
51.08000 153.783
51.09000 153.557
51.10000 153.432
51.11000 154.259
51.12000 155.321
51.13000 156.460
51.14000 158.049
51.15000 159.711
51.16000 161.051
51.17000 154.390
51.18000 148.346
51.19000 144.635
51.20000 146.944
51.21000 149.561
51.22000 152.065
51.23000 154.374
51.24000 156.680
51.25000 157.926
51.26000 155.609
51.27000 154.030
51.28000 154.797
51.29000 157.354
51.30000 159.787
51.31000 157.394
51.32000 152.522
51.33000 147.862
51.34000 144.612
51.35000 142.047
51.36000 139.856
51.37000 141.005
51.38000 142.945
51.39000 144.876
51.40000 146.754
51.41000 148.625
51.42000 150.122
51.43000 145.809
51.44000 141.887
51.45000 139.997
51.46000 143.171
51.47000 146.585
51.48000 147.107
51.49000 142.719
51.50000 138.249
51.51000 135.877
51.52000 141.869
51.53000 145.931
51.54000 146.723
51.55000 145.112
51.56000 143.521
51.57000 142.674
51.58000 142.196
51.59000 141.739
51.60000 142.387
51.61000 143.335
51.62000 144.032
51.63000 142.600
51.64000 140.683
51.65000 138.995
51.66000 138.532
51.67000 138.249
51.68000 138.024
51.69000 141.028
51.70000 143.674
51.71000 145.690
51.72000 146.191
51.73000 146.625
51.74000 146.878
51.75000 146.834
51.76000 146.786
51.77000 146.760
51.78000 139.930
51.79000 135.344
51.80000 135.273
51.81000 138.401
51.82000 141.498
51.83000 143.602
51.84000 145.230
51.85000 146.778
51.86000 147.805
51.87000 148.598
51.88000 149.276
51.89000 149.020
51.90000 148.560
51.91000 147.663
51.92000 144.529
51.93000 141.079
51.94000 138.364
51.95000 140.440
51.96000 142.421
51.97000 143.452
51.98000 142.271
51.99000 141.000
52.00000 140.947
52.01000 142.820
52.02000 144.716
52.03000 145.684
52.04000 139.962
52.05000 136.163
52.06000 137.407
52.07000 142.093
52.08000 146.616
52.09000 146.377
52.10000 143.937
52.11000 141.626
52.12000 144.828
52.13000 149.374
52.14000 153.024
52.15000 149.719
52.16000 144.944
52.17000 140.953
52.18000 140.830
52.19000 141.230
52.20000 141.542
52.21000 142.934
52.22000 144.111
52.23000 142.966
52.24000 136.610
52.25000 130.058
52.26000 128.520
52.27000 134.622
52.28000 140.804
52.29000 143.898
52.30000 139.045
52.31000 135.844
52.32000 135.923
52.33000 138.162
52.34000 140.369
52.35000 141.723
52.36000 142.698
52.37000 143.616
52.38000 142.081
52.39000 139.989
52.40000 138.183
52.41000 138.499
52.42000 139.246
52.43000 140.234
52.44000 142.357
52.45000 144.628
52.46000 146.384
52.47000 144.070
52.48000 141.994
52.49000 140.348
52.50000 139.631
52.51000 138.947
52.52000 137.400
52.53000 134.587
52.54000 131.762
52.55000 132.704
52.56000 137.267
52.57000 141.761
52.58000 140.723
52.59000 136.173
52.60000 131.814
52.61000 132.170
52.62000 134.560
52.63000 136.806
52.64000 133.738
52.65000 129.511
52.66000 126.255
52.67000 129.894
52.68000 134.882
52.69000 138.686
52.70000 137.078
52.71000 134.803
52.72000 133.060
52.73000 133.403
52.74000 133.789
52.75000 133.747
52.76000 132.806
52.77000 131.836
52.78000 131.991
52.79000 133.736
52.80000 135.493
52.81000 136.991
52.82000 138.248
52.83000 139.496
52.84000 140.072
52.85000 140.237
52.86000 140.333
52.87000 138.846
52.88000 136.700
52.89000 134.690
52.90000 133.810
52.91000 133.301
52.92000 132.522
52.93000 129.908
52.94000 126.950
52.95000 125.001
52.96000 127.492
52.97000 130.507
52.98000 132.796
52.99000 136.371
53.00000 139.248
53.01000 140.137
53.02000 137.010
53.03000 133.768
53.04000 133.839
53.05000 138.430
53.06000 143.045
53.07000 145.242
53.08000 145.295
53.09000 145.301
53.10000 142.456
53.11000 137.928
53.12000 133.782
53.13000 137.728
53.14000 144.931
53.15000 151.647
53.16000 148.750
53.17000 143.748
53.18000 139.144
53.19000 137.141
53.20000 135.608
53.21000 134.744
53.22000 136.719
53.23000 139.012
53.24000 140.737
53.25000 136.832
53.26000 133.506
53.27000 132.964
53.28000 137.857
53.29000 142.892
53.30000 145.211
53.31000 143.962
53.32000 142.698
53.33000 140.901
53.34000 138.656
53.35000 136.447
53.36000 136.148
53.37000 136.939
53.38000 137.763
53.39000 139.256
53.40000 141.008
53.41000 142.635
53.42000 140.428
53.43000 137.526
53.44000 135.207
53.45000 136.530
53.46000 138.485
53.47000 139.315
53.48000 135.551
53.49000 131.295
53.50000 128.125
53.51000 126.117
53.52000 124.607
53.53000 125.926
53.54000 132.576
53.55000 139.350
53.56000 144.192
53.57000 146.587
53.58000 148.972
53.59000 148.292
53.60000 145.108
53.61000 141.938
53.62000 139.420
53.63000 137.261
53.64000 135.319
53.65000 137.385
53.66000 140.955
53.67000 144.257
53.68000 140.527
53.69000 135.572
53.70000 131.635
53.71000 133.805
53.72000 136.993
53.73000 138.841
53.74000 135.418
53.75000 131.459
53.76000 128.539
53.77000 126.966
53.78000 125.804
53.79000 125.700
53.80000 127.522
53.81000 129.383
53.82000 131.701
53.83000 134.574
53.84000 137.443
53.85000 139.206
53.86000 140.089
53.87000 140.912
53.88000 139.151
53.89000 136.020
53.90000 133.086
53.91000 133.553
53.92000 135.253
53.93000 136.819
53.94000 135.195
53.95000 133.044
53.96000 131.313
53.97000 131.998
53.98000 133.070
53.99000 133.348
54.00000 130.618
54.01000 127.596
54.02000 125.390
54.03000 131.045
54.04000 135.711
54.05000 138.898
54.06000 139.488
54.07000 140.031
54.08000 139.544
54.09000 137.851
54.10000 136.160
54.11000 136.981
54.12000 139.694
54.13000 142.289
54.14000 140.312
54.15000 135.993
54.16000 131.918
54.17000 131.806
54.18000 133.079
54.19000 134.246
54.20000 136.049
54.21000 137.788
54.22000 138.907
54.23000 136.597
54.24000 133.762
54.25000 131.647
54.26000 132.165
54.27000 132.927
54.28000 133.477
54.29000 134.768
54.30000 135.785
54.31000 136.888
54.32000 138.135
54.33000 139.385
54.34000 139.945
54.35000 139.725
54.36000 139.506
54.37000 137.447
54.38000 134.066
54.39000 130.764
54.40000 130.164
54.41000 130.902
54.42000 131.737
54.43000 134.048
54.44000 136.857
54.45000 139.420
54.46000 138.069
54.47000 136.082
54.48000 134.387
54.49000 134.252
54.50000 134.346
54.51000 134.065
54.52000 132.459
54.53000 130.738
54.54000 129.509
54.55000 132.980
54.56000 135.787
54.57000 137.161
54.58000 136.196
54.59000 135.198
54.60000 135.856
54.61000 138.307
54.62000 140.748
54.63000 141.727
54.64000 141.675
54.65000 141.575
54.66000 139.981
54.67000 137.673
54.68000 135.476
54.69000 134.864
54.70000 134.770
54.71000 134.684
54.72000 135.259
54.73000 135.894
54.74000 136.791
54.75000 139.029
54.76000 141.456
54.77000 143.740
54.78000 145.535
54.79000 147.290
54.80000 148.531
54.81000 149.927
54.82000 150.992
54.83000 149.989
54.84000 145.728
54.85000 141.428
54.86000 138.109
54.87000 135.812
54.88000 133.528
54.89000 136.406
54.90000 142.718
54.91000 148.853
54.92000 149.820
54.93000 148.405
54.94000 147.038
54.95000 146.316
54.96000 145.796
54.97000 145.326
54.98000 143.365
54.99000 141.365
55.00000 139.571
55.01000 138.795
55.02000 138.155
55.03000 137.748
55.04000 138.104
55.05000 138.520
55.06000 138.810
55.07000 136.838
55.08000 135.285
55.09000 134.100
55.10000 133.478
55.11000 132.860
55.12000 133.259
55.13000 134.670
55.14000 136.073
55.15000 139.331
55.16000 143.742
55.17000 147.972
55.18000 147.385
55.19000 144.651
55.20000 142.154
55.21000 142.658
55.22000 144.073
55.23000 145.345
55.24000 148.874
55.25000 152.365
55.26000 154.954
55.27000 153.275
55.28000 151.046
55.29000 148.388
55.30000 144.367
55.31000 140.246
55.32000 137.399
55.33000 141.151
55.34000 144.142
55.35000 145.919
55.36000 145.920
55.37000 145.905
55.38000 146.012
55.39000 146.237
55.40000 146.460
55.41000 149.178
55.42000 153.403
55.43000 157.532
55.44000 159.296
55.45000 160.042
55.46000 160.477
55.47000 157.161
55.48000 152.747
55.49000 148.799
55.50000 155.036
55.51000 162.205
55.52000 168.221
55.53000 168.986
55.54000 169.105
55.55000 170.511
55.56000 175.850
55.57000 181.463
55.58000 185.295
55.59000 176.321
55.60000 169.310
55.61000 166.184
55.62000 168.543
55.63000 170.942
55.64000 177.651
55.65000 188.327
55.66000 198.908
55.67000 198.672
55.68000 191.968
55.69000 185.686
55.70000 188.994
55.71000 196.284
55.72000 203.107
55.73000 204.607
55.74000 204.603
55.75000 204.599
55.76000 203.694
55.77000 202.762
55.78000 202.300
55.79000 203.902
55.80000 205.746
55.81000 208.563
55.82000 214.251
55.83000 220.127
55.84000 224.091
55.85000 218.622
55.86000 214.352
55.87000 212.953
55.88000 215.458
55.89000 217.984
55.90000 220.326
55.91000 222.506
55.92000 224.664
55.93000 221.135
55.94000 214.411
55.95000 208.048
55.96000 209.313
55.97000 213.637
55.98000 217.808
55.99000 220.313
56.00000 222.364
56.01000 224.178
56.02000 220.563
56.03000 216.592
56.04000 213.522
56.05000 214.255
56.06000 215.413
56.07000 214.768
56.08000 208.981
56.09000 202.877
56.10000 198.812
56.11000 193.732
56.12000 189.953
56.13000 190.750
56.14000 197.539
56.15000 204.345
56.16000 204.753
56.17000 199.719
56.18000 194.745
56.19000 190.898
56.20000 187.772
56.21000 184.686
56.22000 182.379
56.23000 180.374
56.24000 178.357
56.25000 176.208
56.26000 174.026
56.27000 172.106
56.28000 173.094
56.29000 174.376
56.30000 174.658
56.31000 170.863
56.32000 166.634
56.33000 162.814
56.34000 160.121
56.35000 157.492
56.36000 155.763
56.37000 154.415
56.38000 153.430
56.39000 153.970
56.40000 156.436
56.41000 158.898
56.42000 157.841
56.43000 153.901
56.44000 150.015
56.45000 147.924
56.46000 146.849
56.47000 145.849
56.48000 146.240
56.49000 147.151
56.50000 148.209
56.51000 150.710
56.52000 153.575
56.53000 156.082
56.54000 153.461
56.55000 150.487
56.56000 147.353
56.57000 143.592
56.58000 139.768
56.59000 137.358
56.60000 138.706
56.61000 140.256
56.62000 141.262
56.63000 138.842
56.64000 137.018
56.65000 136.672
56.66000 138.118
56.67000 139.560
56.68000 138.840
56.69000 136.417
56.70000 134.030
56.71000 134.605
56.72000 136.682
56.73000 138.635
56.74000 138.442
56.75000 137.475
56.76000 136.341
56.77000 133.656
56.78000 130.593
56.79000 127.930
56.80000 131.775
56.81000 135.939
56.82000 140.089
56.83000 144.184
56.84000 148.273
56.85000 149.368
56.86000 142.779
56.87000 135.804
56.88000 131.336
56.89000 128.078
56.90000 125.721
56.91000 124.203
56.92000 123.663
56.93000 123.140
56.94000 125.832
56.95000 130.964
56.96000 136.008
56.97000 137.975
56.98000 138.357
56.99000 138.590
57.00000 136.440
57.01000 133.458
57.02000 130.838
57.03000 131.417
57.04000 132.749
57.05000 133.900
57.06000 130.950
57.07000 127.913
57.08000 125.705
57.09000 126.521
57.10000 127.615
57.11000 129.089
57.12000 131.508
57.13000 133.972
57.14000 135.528
57.15000 136.114
57.16000 136.528
57.17000 134.979
57.18000 131.226
57.19000 127.475
57.20000 124.292
57.21000 121.523
57.22000 118.806
57.23000 121.292
57.24000 126.159
57.25000 130.685
57.26000 130.055
57.27000 127.690
57.28000 125.522
57.29000 125.026
57.30000 124.910
57.31000 124.809
57.32000 125.568
57.33000 126.315
57.34000 126.480
57.35000 124.597
57.36000 122.536
57.37000 121.340
57.38000 122.216
57.39000 123.183
57.40000 123.785
57.41000 125.838
57.42000 127.333
57.43000 127.239
57.44000 125.433
57.45000 123.643
57.46000 124.240
57.47000 126.516
57.48000 128.745
57.49000 126.322
57.50000 121.868
57.51000 117.941
57.52000 121.514
57.53000 127.524
57.54000 132.792
57.55000 132.068
57.56000 130.038
57.57000 128.305
57.58000 125.678
57.59000 123.362
57.60000 121.867
57.61000 123.159
57.62000 124.680
57.63000 125.375
57.64000 124.160
57.65000 122.868
57.66000 122.075
57.67000 125.981
57.68000 128.821
57.69000 131.229
57.70000 133.188
57.71000 135.100
57.72000 131.704
57.73000 124.705
57.74000 117.870
57.75000 118.382
57.76000 122.107
57.77000 125.475
57.78000 124.052
57.79000 121.126
57.80000 118.376
57.81000 116.981
57.82000 115.871
57.83000 114.930
57.84000 118.331
57.85000 121.670
57.86000 123.904
57.87000 122.525
57.88000 120.864
57.89000 120.812
57.90000 124.347
57.91000 128.015
57.92000 130.233
57.93000 127.016
57.94000 124.684
57.95000 123.248
57.96000 122.703
57.97000 122.187
57.98000 124.374
57.99000 128.328
58.00000 132.182
58.01000 135.042
58.02000 137.350
58.03000 139.304
58.04000 136.776
58.05000 132.892
58.06000 128.742
58.07000 122.638
58.08000 116.140
58.09000 110.669
58.10000 115.012
58.11000 119.683
58.12000 123.913
58.13000 126.747
58.14000 129.478
58.15000 129.544
58.16000 123.868
58.17000 117.996
58.18000 114.499
58.19000 111.896
58.20000 110.058
58.21000 111.614
58.22000 116.411
58.23000 121.167
58.24000 122.743
58.25000 122.312
58.26000 121.893
58.27000 120.628
58.28000 119.082
58.29000 117.698
58.30000 118.262
58.31000 119.394
58.32000 120.398
58.33000 120.499
58.34000 120.424
58.35000 120.362
58.36000 124.362
58.37000 128.096
58.38000 129.133
58.39000 121.946
58.40000 114.188
58.41000 110.920
58.42000 116.992
58.43000 123.355
58.44000 127.084
58.45000 125.335
58.46000 124.077
58.47000 124.077
58.48000 125.232
58.49000 126.376
58.50000 126.715
58.51000 126.565
58.52000 126.420
58.53000 123.659
58.54000 120.018
58.55000 116.586
58.56000 115.535
58.57000 115.155
58.58000 115.073
58.59000 117.007
58.60000 119.317
58.61000 121.235
58.62000 119.564
58.63000 117.835
58.64000 115.395
58.65000 110.858
58.66000 106.185
58.67000 104.893
58.68000 110.396
58.69000 116.090
58.70000 119.375
58.71000 119.408
58.72000 119.418
58.73000 119.605
58.74000 119.947
58.75000 120.260
58.76000 118.872
58.77000 116.485
58.78000 114.176
58.79000 113.602
58.80000 113.715
58.81000 113.996
58.82000 116.074
58.83000 118.642
58.84000 120.689
58.85000 119.367
58.86000 117.440
58.87000 115.852
58.88000 117.178
58.89000 118.537
58.90000 119.337
58.91000 118.553
58.92000 117.672
58.93000 116.843
58.94000 116.115
58.95000 115.389
58.96000 114.977
58.97000 114.345
58.98000 113.905
58.99000 114.026
59.00000 114.624
59.01000 115.219
59.02000 115.718
59.03000 116.161
59.04000 116.588
59.05000 115.281
59.06000 113.422
59.07000 111.812
59.08000 112.750
59.09000 114.356
59.10000 115.890
59.11000 116.981
59.12000 117.996
59.13000 118.826
59.14000 119.560
59.15000 120.152
59.16000 120.536
59.17000 120.352
59.18000 120.136
59.19000 121.134
59.20000 124.406
59.21000 127.731
59.22000 129.586
59.23000 121.747
59.24000 116.312
59.25000 114.948
59.26000 116.906
59.27000 118.794
59.28000 117.406
59.29000 114.227
59.30000 111.170
59.31000 110.398
59.32000 110.473
59.33000 110.391
59.34000 108.782
59.35000 106.787
59.36000 105.250
59.37000 106.436
59.38000 108.073
59.39000 109.401
59.40000 114.840
59.41000 119.614
59.42000 121.700
59.43000 116.669
59.44000 111.256
59.45000 108.351
59.46000 109.977
59.47000 111.696
59.48000 112.638
59.49000 114.694
59.50000 116.101
59.51000 114.742
59.52000 111.214
59.53000 107.732
59.54000 106.200
59.55000 105.698
59.56000 105.216
59.57000 107.217
59.58000 109.921
59.59000 112.700
59.60000 116.173
59.61000 119.815
59.62000 122.800
59.63000 122.020
59.64000 120.643
59.65000 119.534
59.66000 117.957
59.67000 116.641
59.68000 115.787
59.69000 116.114
59.70000 116.500
59.71000 116.498
59.72000 115.819
59.73000 115.129
59.74000 114.757
59.75000 110.642
59.76000 107.844
59.77000 108.916
59.78000 112.912
59.79000 116.811
59.80000 117.058
59.81000 115.445
59.82000 113.903
59.83000 114.897
59.84000 116.641
59.85000 117.818
59.86000 113.993
59.87000 108.996
59.88000 104.814
59.89000 105.111
59.90000 106.089
59.91000 106.870
59.92000 112.493
59.93000 117.392
59.94000 120.449
59.95000 118.952
59.96000 117.245
59.97000 117.539
59.98000 121.202
59.99000 124.919
60.00000 126.883
60.01000 123.045
60.02000 120.424
60.03000 115.896
60.04000 109.979
60.05000 104.241
60.06000 104.658
60.07000 108.102
60.08000 111.382
60.09000 111.557
60.10000 110.754
60.11000 110.305
60.12000 112.836
60.13000 116.041
60.14000 118.622
60.15000 117.912
60.16000 116.721
60.17000 115.779
60.18000 117.722
60.19000 119.486
60.20000 120.651
60.21000 120.391
60.22000 120.070
60.23000 119.803
60.24000 119.627
60.25000 119.451
60.26000 119.360
60.27000 116.875
60.28000 115.216
60.29000 115.955
60.30000 118.378
60.31000 120.732
60.32000 120.954
60.33000 120.163
60.34000 119.412
60.35000 117.690
60.36000 115.811
60.37000 114.089
60.38000 113.633
60.39000 113.452
60.40000 113.161
60.41000 112.315
60.42000 111.391
60.43000 110.665
60.44000 114.973
60.45000 118.751
60.46000 120.971
60.47000 119.603
60.48000 118.092
60.49000 117.935
60.50000 119.899
60.51000 121.887
60.52000 122.898
60.53000 126.174
60.54000 128.344
60.55000 127.611
60.56000 124.915
60.57000 122.249
60.58000 120.441
60.59000 119.028
60.60000 117.691
60.61000 117.254
60.62000 117.112
60.63000 116.839
60.64000 115.564
60.65000 114.079
60.66000 113.405
60.67000 116.692
60.68000 120.508
60.69000 123.479
60.70000 123.034
60.71000 122.469
60.72000 121.819
60.73000 120.980
60.74000 120.133
60.75000 120.613
60.76000 123.096
60.77000 125.599
60.78000 125.732
60.79000 123.516
60.80000 121.311
60.81000 120.192
60.82000 119.779
60.83000 119.392
60.84000 119.687
60.85000 120.283
60.86000 120.845
60.87000 121.079
60.88000 121.202
60.89000 121.377
60.90000 121.941
60.91000 122.582
60.92000 122.698
60.93000 120.349
60.94000 117.684
60.95000 115.628
60.96000 116.426
60.97000 117.224
60.98000 117.354
60.99000 116.048
61.00000 114.693
61.01000 114.830
61.02000 117.137
61.03000 119.462
61.04000 119.700
61.05000 117.953
61.06000 116.258
61.07000 118.727
61.08000 123.813
61.09000 128.754
61.10000 130.165
61.11000 130.067
61.12000 129.974
61.13000 127.503
61.14000 124.618
61.15000 122.282
61.16000 123.803
61.17000 126.072
61.18000 127.857
61.19000 127.450
61.20000 126.776
61.21000 126.261
61.22000 126.734
61.23000 127.160
61.24000 126.776
61.25000 124.710
61.26000 122.592
61.27000 120.515
61.28000 118.495
61.29000 116.477
61.30000 116.262
61.31000 117.695
61.32000 119.135
61.33000 120.999
61.34000 123.121
61.35000 125.129
61.36000 124.575
61.37000 122.963
61.38000 121.455
61.39000 124.450
61.40000 128.320
61.41000 131.663
61.42000 131.462
61.43000 130.601
61.44000 130.637
61.45000 134.582
61.46000 138.982
61.47000 142.316
61.48000 142.262
61.49000 142.046
61.50000 141.949
61.51000 142.089
61.52000 142.235
61.53000 147.811
61.54000 160.725
61.55000 173.673
61.56000 188.514
61.57000 204.995
61.58000 221.405
61.59000 233.652
61.60000 243.464
61.61000 253.151
61.62000 260.266
61.63000 266.354
61.64000 272.027
61.65000 280.482
61.66000 288.812
61.67000 296.354
61.68000 298.811
61.69000 300.358
61.70000 302.271
61.71000 305.723
61.72000 309.345
61.73000 312.064
61.74000 305.512
61.75000 299.953
61.76000 293.343
61.77000 284.701
61.78000 276.008
61.79000 262.770
61.80000 243.617
61.81000 224.457
61.82000 207.049
61.83000 191.163
61.84000 175.404
61.85000 166.270
61.86000 160.877
61.87000 155.450
61.88000 149.354
61.89000 143.001
61.90000 137.107
61.91000 135.371
61.92000 134.786
61.93000 133.972
61.94000 131.741
61.95000 129.267
61.96000 127.576
61.97000 129.050
61.98000 130.858
61.99000 132.201
62.00000 135.189
62.01000 137.584
62.02000 137.732
62.03000 133.684
62.04000 129.539
62.05000 128.555
62.06000 131.531
62.07000 134.515
62.08000 133.299
62.09000 128.686
62.10000 124.212
62.11000 126.213
62.12000 131.743
62.13000 136.878
62.14000 134.867
62.15000 130.199
62.16000 125.886
62.17000 127.798
62.18000 130.920
62.19000 133.381
62.20000 131.920
62.21000 129.812
62.22000 128.379
62.23000 129.577
62.24000 131.039
62.25000 132.115
62.26000 129.612
62.27000 127.528
62.28000 126.880
62.29000 128.819
62.30000 130.810
62.31000 130.937
62.32000 128.816
62.33000 126.694
62.34000 126.213
62.35000 127.012
62.36000 127.813
62.37000 128.686
62.38000 129.597
62.39000 130.480
62.40000 130.901
62.41000 131.155
62.42000 131.389
62.43000 130.144
62.44000 128.712
62.45000 127.445
62.46000 127.119
62.47000 126.942
62.48000 127.152
62.49000 128.815
62.50000 130.617
62.51000 131.929
62.52000 127.590
62.53000 124.034
62.54000 123.027
62.55000 126.455
62.56000 129.963
62.57000 129.411
62.58000 124.150
62.59000 118.898
62.60000 117.882
62.61000 120.044
62.62000 122.157
62.63000 122.445
62.64000 121.807
62.65000 121.224
62.66000 121.519
62.67000 122.118
62.68000 122.667
62.69000 124.567
62.70000 126.538
62.71000 128.800
62.72000 132.649
62.73000 136.739
62.74000 138.664
62.75000 132.745
62.76000 126.113
62.77000 121.335
62.78000 124.947
62.79000 128.011
62.80000 130.709
62.81000 132.791
62.82000 134.864
62.83000 134.903
62.84000 132.674
62.85000 130.451
62.86000 129.323
62.87000 128.992
62.88000 128.637
62.89000 127.430
62.90000 125.804
62.91000 124.352
62.92000 125.498
62.93000 127.513
62.94000 129.349
62.95000 129.154
62.96000 128.577
62.97000 128.534
62.98000 131.306
62.99000 134.486
63.00000 136.524
63.01000 134.568
63.02000 132.268
63.03000 130.628
63.04000 134.698
63.05000 137.986
63.06000 139.057
63.07000 136.541
63.08000 133.974
63.09000 133.124
63.10000 134.113
63.11000 135.098
63.12000 136.000
63.13000 136.836
63.14000 137.584
63.15000 135.581
63.16000 132.275
63.17000 129.367
63.18000 132.042
63.19000 136.522
63.20000 140.584
63.21000 137.880
63.22000 134.201
63.23000 131.397
63.24000 133.027
63.25000 135.274
63.26000 137.191
63.27000 137.998
63.28000 138.715
63.29000 139.220
63.30000 137.835
63.31000 136.729
63.32000 136.393
63.33000 137.259
63.34000 138.139
63.35000 139.136
63.36000 140.252
63.37000 141.363
63.38000 141.508
63.39000 141.010
63.40000 140.554
63.41000 141.278
63.42000 142.542
63.43000 143.665
63.44000 142.916
63.45000 141.583
63.46000 140.380
63.47000 136.838
63.48000 133.298
63.49000 130.341
63.50000 130.218
63.51000 130.473
63.52000 131.108
63.53000 132.979
63.54000 134.945
63.55000 136.315
63.56000 131.980
63.57000 128.552
63.58000 129.176
63.59000 135.899
63.60000 142.682
63.61000 147.807
63.62000 151.292
63.63000 154.753
63.64000 150.338
63.65000 140.946
63.66000 131.936
63.67000 132.898
63.68000 138.261
63.69000 143.190
63.70000 142.664
63.71000 140.497
63.72000 138.552
63.73000 137.226
63.74000 136.176
63.75000 135.017
63.76000 133.355
63.77000 131.627
63.78000 131.488
63.79000 136.334
63.80000 141.542
63.81000 145.130
63.82000 139.573
63.83000 135.172
63.84000 134.919
63.85000 140.687
63.86000 146.504
63.87000 146.628
63.88000 141.351
63.89000 136.116
63.90000 139.575
63.91000 148.328
63.92000 156.791
63.93000 158.240
63.94000 156.701
63.95000 155.124
63.96000 153.115
63.97000 150.981
63.98000 149.074
63.99000 145.931
64.00000 142.985
64.01000 140.522
64.02000 140.236
64.03000 140.215
64.04000 140.705
64.05000 142.747
64.06000 144.896
64.07000 146.358
64.08000 146.015
64.09000 145.717
64.10000 145.596
64.11000 145.722
64.12000 145.850
64.13000 145.655
64.14000 145.166
64.15000 144.681
64.16000 148.087
64.17000 153.732
64.18000 159.004
64.19000 155.988
64.20000 149.561
64.21000 143.751
64.22000 144.902
64.23000 148.002
64.24000 150.756
64.25000 154.151
64.26000 157.199
64.27000 158.942
64.28000 155.021
64.29000 150.443
64.30000 147.762
64.31000 150.632
64.32000 153.860
64.33000 156.030
64.34000 158.301
64.35000 159.992
64.36000 160.174
64.37000 158.326
64.38000 156.468
64.39000 156.375
64.40000 157.825
64.41000 159.261
64.42000 161.215
64.43000 163.421
64.44000 165.334
64.45000 161.181
64.46000 154.617
64.47000 149.128
64.48000 155.104
64.49000 164.177
64.50000 172.193
64.51000 166.904
64.52000 160.290
64.53000 154.763
64.54000 153.787
64.55000 153.315
64.56000 154.150
64.57000 158.681
64.58000 163.436
64.59000 166.594
64.60000 162.441
64.61000 159.236
64.62000 159.095
64.63000 162.930
64.64000 166.780
64.65000 170.349
64.66000 173.679
64.67000 176.969
64.68000 179.277
64.69000 180.987
64.70000 182.655
64.71000 183.516
64.72000 184.066
64.73000 184.284
64.74000 181.135
64.75000 177.110
64.76000 173.573
64.77000 172.320
64.78000 171.578
64.79000 171.258
64.80000 172.640
64.81000 174.200
64.82000 176.069
64.83000 178.780
64.84000 181.538
64.85000 183.346
64.86000 177.685
64.87000 173.398
64.88000 173.433
64.89000 178.866
64.90000 184.299
64.91000 183.703
64.92000 178.221
64.93000 172.814
64.94000 174.408
64.95000 179.652
64.96000 184.820
64.97000 188.597
64.98000 191.858
64.99000 194.681
65.00000 193.275
65.01000 190.808
65.02000 188.654
65.03000 192.485
65.04000 196.606
65.05000 199.208
65.06000 195.913
65.07000 192.026
65.08000 190.441
65.09000 194.921
65.10000 199.723
65.11000 202.829
65.12000 209.014
65.13000 213.582
65.14000 212.668
65.15000 205.164
65.16000 197.680
65.17000 199.407
65.18000 208.319
65.19000 217.091
65.20000 218.674
65.21000 216.555
65.22000 214.545
65.23000 214.371
65.24000 214.855
65.25000 215.463
65.26000 217.205
65.27000 219.223
65.28000 220.974
65.29000 222.399
65.30000 223.570
65.31000 226.788
65.32000 237.673
65.33000 249.290
65.34000 255.106
65.35000 246.168
65.36000 236.501
65.37000 230.331
65.38000 237.829
65.39000 243.462
65.40000 247.985
65.41000 251.228
65.42000 254.475
65.43000 258.966
65.44000 264.391
65.45000 269.721
65.46000 269.984
65.47000 267.761
65.48000 265.932
65.49000 270.338
65.50000 276.898
65.51000 282.866
65.52000 283.642
65.53000 283.208
65.54000 282.834
65.55000 296.013
65.56000 308.930
65.57000 319.994
65.58000 324.362
65.59000 328.124
65.60000 333.647
65.61000 343.496
65.62000 353.544
65.63000 359.869
65.64000 389.481
65.65000 411.170
65.66000 441.060
65.67000 480.065
65.68000 519.213
65.69000 580.146
65.70000 656.845
65.71000 732.047
65.72000 830.917
65.73000 937.254
65.74000 1045.656
65.75000 1184.763
65.76000 1334.115
65.77000 1478.354
65.78000 1579.904
65.79000 1671.870
65.80000 1750.707
65.81000 1829.268
65.82000 1895.582
65.83000 1952.004
65.84000 1973.955
65.85000 1992.951
65.86000 2011.422
65.87000 2028.645
65.88000 2045.815
65.89000 2056.471
65.90000 2041.988
65.91000 2031.321
65.92000 2001.824
65.93000 1952.217
65.94000 1902.273
65.95000 1809.829
65.96000 1687.748
65.97000 1568.305
65.98000 1431.098
65.99000 1291.375
66.00000 1152.929
66.01000 1032.369
66.02000 917.570
66.03000 806.938
66.04000 729.532
66.05000 659.307
66.06000 599.498
66.07000 546.755
66.08000 503.236
66.09000 465.308
66.10000 446.178
66.11000 428.575
66.12000 415.848
66.13000 414.293
66.14000 413.177
66.15000 412.495
66.16000 400.658
66.17000 392.095
66.18000 388.003
66.19000 388.498
66.20000 389.037
66.21000 394.358
66.22000 402.892
66.23000 411.223
66.24000 415.430
66.25000 417.657
66.26000 420.648
66.27000 433.740
66.28000 449.971
66.29000 466.241
66.30000 482.799
66.31000 499.417
66.32000 513.476
66.33000 550.471
66.34000 583.980
66.35000 611.365
66.36000 618.880
66.37000 624.871
66.38000 632.498
66.39000 643.747
66.40000 655.127
66.41000 661.983
66.42000 659.703
66.43000 658.016
66.44000 657.986
66.45000 659.586
66.46000 661.082
66.47000 653.355
66.48000 639.651
66.49000 626.305
66.50000 612.934
66.51000 600.178
66.52000 586.462
66.53000 560.762
66.54000 531.468
66.55000 503.138
66.56000 481.834
66.57000 461.937
66.58000 445.217
66.59000 423.903
66.60000 405.659
66.61000 391.122
66.62000 388.189
66.63000 386.096
66.64000 381.998
66.65000 373.619
66.66000 365.097
66.67000 360.042
66.68000 359.646
66.69000 359.393
66.70000 359.953
66.71000 361.281
66.72000 362.618
66.73000 364.647
66.74000 367.107
66.75000 369.498
66.76000 376.117
66.77000 384.113
66.78000 390.828
66.79000 382.415
66.80000 369.625
66.81000 358.659
66.82000 360.427
66.83000 364.646
66.84000 368.166
66.85000 358.632
66.86000 349.413
66.87000 346.059
66.88000 360.426
66.89000 376.003
66.90000 385.973
66.91000 384.380
66.92000 382.437
66.93000 381.302
66.94000 372.856
66.95000 366.885
66.96000 367.372
66.97000 373.724
66.98000 380.026
66.99000 383.000
67.00000 383.968
67.01000 384.907
67.02000 383.146
67.03000 380.432
67.04000 378.468
67.05000 384.917
67.06000 393.713
67.07000 400.316
67.08000 392.251
67.09000 381.472
67.10000 372.543
67.11000 390.513
67.12000 407.914
67.13000 417.896
67.14000 406.228
67.15000 393.172
67.16000 384.830
67.17000 385.877
67.18000 387.183
67.19000 387.933
67.20000 399.463
67.21000 407.563
67.22000 413.082
67.23000 416.347
67.24000 419.595
67.25000 421.835
67.26000 423.489
67.27000 425.088
67.28000 423.957
67.29000 421.870
67.30000 419.947
67.31000 419.780
67.32000 420.084
67.33000 420.461
67.34000 421.303
67.35000 422.228
67.36000 422.989
67.37000 424.376
67.38000 425.573
67.39000 425.856
67.40000 423.564
67.41000 421.116
67.42000 423.449
67.43000 434.971
67.44000 446.722
67.45000 453.360
67.46000 447.827
67.47000 443.947
67.48000 440.688
67.49000 437.949
67.50000 435.318
67.51000 438.168
67.52000 444.093
67.53000 449.804
67.54000 453.629
67.55000 456.545
67.56000 459.502
67.57000 462.864
67.58000 466.332
67.59000 468.413
67.60000 461.971
67.61000 454.074
67.62000 447.629
67.63000 456.130
67.64000 464.366
67.65000 470.379
67.66000 470.344
67.67000 469.967
67.68000 468.642
67.69000 465.558
67.70000 462.435
67.71000 460.700
67.72000 461.401
67.73000 461.897
67.74000 464.850
67.75000 469.788
67.76000 474.636
67.77000 475.365
67.78000 473.863
67.79000 472.420
67.80000 475.065
67.81000 478.956
67.82000 483.159
67.83000 490.351
67.84000 498.292
67.85000 506.122
67.86000 513.304
67.87000 520.378
67.88000 526.108
67.89000 517.091
67.90000 508.550
67.91000 501.349
67.92000 497.668
67.93000 494.173
67.94000 495.610
67.95000 505.884
67.96000 516.335
67.97000 522.036
67.98000 518.885
67.99000 516.731
68.00000 519.956
68.01000 527.365
68.02000 534.534
68.03000 531.881
68.04000 524.091
68.05000 516.629
68.06000 512.304
68.07000 509.314
68.08000 507.988
68.09000 521.870
68.10000 539.420
68.11000 555.200
68.12000 560.954
68.13000 565.133
68.14000 568.491
68.15000 557.115
68.16000 546.762
68.17000 541.180
68.18000 547.694
68.19000 554.802
68.20000 563.205
68.21000 573.843
68.22000 584.522
68.23000 590.242
68.24000 596.744
68.25000 601.137
68.26000 596.789
68.27000 585.894
68.28000 575.393
68.29000 579.387
68.30000 590.699
68.31000 601.501
68.32000 599.589
68.33000 593.742
68.34000 590.420
68.35000 609.127
68.36000 632.951
68.37000 653.882
68.38000 659.076
68.39000 661.900
68.40000 664.150
68.41000 666.989
68.42000 669.321
68.43000 673.136
68.44000 680.581
68.45000 688.191
68.46000 689.064
68.47000 678.698
68.48000 668.160
68.49000 662.619
68.50000 692.726
68.51000 713.110
68.52000 726.615
68.53000 735.158
68.54000 744.102
68.55000 766.511
68.56000 795.483
68.57000 823.056
68.58000 838.481
68.59000 849.017
68.60000 861.297
68.61000 888.085
68.62000 918.119
68.63000 950.325
68.64000 993.881
68.65000 1039.074
68.66000 1074.794
68.67000 1132.792
68.68000 1180.888
68.69000 1228.256
68.70000 1273.899
68.71000 1319.469
68.72000 1357.327
68.73000 1382.777
68.74000 1408.061
68.75000 1421.099
68.76000 1469.443
68.77000 1502.129
68.78000 1549.501
68.79000 1607.082
68.80000 1664.070
68.81000 1702.938
68.82000 1733.278
68.83000 1762.055
68.84000 1856.779
68.85000 1963.638
68.86000 2069.448
68.87000 2166.922
68.88000 2262.600
68.89000 2380.688
68.90000 2611.435
68.91000 2857.740
68.92000 3050.767
68.93000 4007.406
68.94000 4821.244
68.95000 5980.237
68.96000 7927.593
68.97000 9905.747
68.98000 12444.647
68.99000 15853.656
69.00000 19272.654
69.01000 21000.906
69.02000 26562.063
69.03000 30277.236
69.04000 33378.922
69.05000 36069.512
69.06000 38726.699
69.07000 40449.270
69.08000 41747.074
69.09000 42973.676
69.10000 43824.969
69.11000 44499.965
69.12000 45175.785
69.13000 45857.832
69.14000 46541.176
69.15000 47223.848
69.16000 47903.281
69.17000 48582.285
69.18000 49109.785
69.19000 49179.516
69.20000 49207.184
69.21000 48551.453
69.22000 46388.363
69.23000 44171.082
69.24000 41559.773
69.25000 38358.938
69.26000 35152.426
69.27000 32395.232
69.28000 30078.953
69.29000 27770.875
69.30000 26185.281
69.31000 25066.479
69.32000 23966.420
69.33000 23348.863
69.34000 22943.064
69.35000 22560.936
69.36000 22188.980
69.37000 21851.521
69.38000 21443.143
69.39000 20519.643
69.40000 19493.398
69.41000 18329.396
69.42000 16524.242
69.43000 14638.127
69.44000 13185.911
69.45000 10773.465
69.46000 8808.905
69.47000 7099.569
69.48000 5933.832
69.49000 4786.009
69.50000 3846.325
69.51000 3206.818
69.52000 2569.795
69.53000 2145.965
69.54000 1923.062
69.55000 1700.962
69.56000 1539.301
69.57000 1415.301
69.58000 1293.382
69.59000 1220.932
69.60000 1169.449
69.61000 1121.151
69.62000 1061.790
69.63000 1004.799
69.64000 951.284
69.65000 921.934
69.66000 897.219
69.67000 871.532
69.68000 841.487
69.69000 810.916
69.70000 787.593
69.71000 787.140
69.72000 788.006
69.73000 780.132
69.74000 754.283
69.75000 727.894
69.76000 705.224
69.77000 687.723
69.78000 670.261
69.79000 659.996
69.80000 656.249
69.81000 652.400
69.82000 641.851
69.83000 627.276
69.84000 612.936
69.85000 603.755
69.86000 596.686
69.87000 590.080
69.88000 580.362
69.89000 570.757
69.90000 562.196
69.91000 560.583
69.92000 560.251
69.93000 557.693
69.94000 545.524
69.95000 532.249
69.96000 522.216
69.97000 519.022
69.98000 516.859
69.99000 512.330
70.00000 503.100
