20.00000 474.118
20.01000 472.006
20.02000 469.591
20.03000 467.564
20.04000 467.061
20.05000 466.713
20.06000 466.457
20.07000 465.262
20.08000 464.297
20.09000 463.352
20.10000 462.442
20.11000 461.533
20.12000 461.679
20.13000 463.112
20.14000 464.544
20.15000 468.184
20.16000 473.543
20.17000 478.751
20.18000 477.506
20.19000 472.837
20.20000 468.480
20.21000 469.511
20.22000 472.494
20.23000 475.240
20.24000 478.565
20.25000 481.665
20.26000 483.262
20.27000 476.198
20.28000 467.749
20.29000 459.793
20.30000 453.709
20.31000 447.807
20.32000 443.498
20.33000 455.269
20.34000 464.971
20.35000 470.499
20.36000 468.704
20.37000 466.773
20.38000 466.080
20.39000 466.838
20.40000 467.595
20.41000 469.105
20.42000 471.173
20.43000 473.123
20.44000 470.511
20.45000 465.561
20.46000 460.759
20.47000 458.341
20.48000 456.756
20.49000 455.303
20.50000 456.809
20.51000 458.774
20.52000 461.069
20.53000 465.195
20.54000 469.602
20.55000 473.098
20.56000 473.259
20.57000 473.114
20.58000 473.009
20.59000 463.743
20.60000 456.304
20.61000 453.105
20.62000 457.085
20.63000 461.183
20.64000 459.391
20.65000 450.964
20.66000 442.559
20.67000 442.538
20.68000 448.611
20.69000 454.505
20.70000 454.166
20.71000 450.745
20.72000 447.647
20.73000 449.461
20.74000 452.934
20.75000 456.103
20.76000 458.332
20.77000 460.120
20.78000 461.896
20.79000 463.608
20.80000 465.311
20.81000 466.910
20.82000 468.141
20.83000 469.340
20.84000 470.197
20.85000 473.878
20.86000 476.781
20.87000 477.978
20.88000 476.389
20.89000 474.759
20.90000 477.691
20.91000 485.560
20.92000 493.398
20.93000 491.324
20.94000 482.344
20.95000 473.622
20.96000 473.121
20.97000 476.546
20.98000 479.783
20.99000 480.327
21.00000 479.993
21.01000 479.690
21.02000 476.796
21.03000 473.739
21.04000 472.551
21.05000 480.914
21.06000 490.622
21.07000 495.816
21.08000 485.647
21.09000 474.207
21.10000 466.121
21.11000 473.359
21.12000 479.327
21.13000 483.013
21.14000 483.103
21.15000 483.149
21.16000 484.604
21.17000 487.522
21.18000 490.426
21.19000 487.619
21.20000 481.007
21.21000 474.501
21.22000 471.081
21.23000 469.083
21.24000 467.576
21.25000 472.694
21.26000 479.897
21.27000 486.404
21.28000 485.259
21.29000 482.833
21.30000 480.270
21.31000 477.038
21.32000 473.716
21.33000 471.970
21.34000 475.400
21.35000 479.236
21.36000 481.916
21.37000 461.962
21.38000 446.247
21.39000 440.978
21.40000 451.579
21.41000 462.347
21.42000 467.745
21.43000 467.785
21.44000 467.824
21.45000 470.444
21.46000 474.695
21.47000 478.858
21.48000 480.671
21.49000 481.436
21.50000 482.372
21.51000 485.475
21.52000 489.236
21.53000 492.617
21.54000 493.731
21.55000 494.304
21.56000 492.559
21.57000 479.849
21.58000 465.728
21.59000 460.000
21.60000 480.871
21.61000 503.707
21.62000 519.485
21.63000 520.992
21.64000 521.758
21.65000 520.031
21.66000 514.652
21.67000 509.243
21.68000 514.364
21.69000 529.576
21.70000 544.673
21.71000 549.791
21.72000 548.615
21.73000 548.042
21.74000 562.277
21.75000 582.882
21.76000 602.835
21.77000 614.949
21.78000 624.768
21.79000 633.548
21.80000 657.921
21.81000 681.823
21.82000 702.934
21.83000 711.334
21.84000 718.170
21.85000 725.949
21.86000 736.610
21.87000 747.472
21.88000 754.888
21.89000 762.867
21.90000 768.847
21.91000 777.751
21.92000 790.784
21.93000 803.842
21.94000 809.618
21.95000 808.689
21.96000 807.768
21.97000 801.295
21.98000 791.625
21.99000 782.334
22.00000 781.654
22.01000 784.552
22.02000 786.337
22.03000 775.432
22.04000 760.940
22.05000 748.049
22.06000 749.155
22.07000 752.393
22.08000 751.382
22.09000 731.740
22.10000 709.911
22.11000 691.330
22.12000 682.339
22.13000 673.977
22.14000 668.336
22.15000 652.009
22.16000 639.635
22.17000 625.856
22.18000 610.167
22.19000 594.468
22.20000 580.811
22.21000 568.961
22.22000 557.233
22.23000 554.616
22.24000 557.304
22.25000 559.523
22.26000 551.861
22.27000 540.234
22.28000 528.934
22.29000 521.164
22.30000 514.357
22.31000 508.335
22.32000 508.100
22.33000 508.798
22.34000 509.040
22.35000 507.353
22.36000 505.452
22.37000 501.955
22.38000 493.914
22.39000 485.594
22.40000 480.051
22.41000 469.191
22.42000 461.051
22.43000 459.017
22.44000 464.982
22.45000 470.974
22.46000 472.198
22.47000 469.365
22.48000 466.566
22.49000 468.708
22.50000 473.534
22.51000 477.703
22.52000 468.953
22.53000 455.199
22.54000 443.597
22.55000 454.113
22.56000 470.442
22.57000 484.807
22.58000 474.818
22.59000 462.596
22.60000 452.039
22.61000 448.259
22.62000 445.202
22.63000 444.388
22.64000 449.749
22.65000 455.466
22.66000 459.226
22.67000 443.069
22.68000 430.833
22.69000 427.687
22.70000 436.006
22.71000 444.351
22.72000 447.665
22.73000 446.862
22.74000 446.069
22.75000 445.090
22.76000 444.039
22.77000 442.727
22.78000 436.615
22.79000 428.708
22.80000 421.355
22.81000 419.418
22.82000 418.853
22.83000 418.359
22.84000 431.602
22.85000 444.904
22.86000 454.201
22.87000 447.790
22.88000 439.786
22.89000 432.208
22.90000 425.765
22.91000 419.383
22.92000 415.241
22.93000 426.405
22.94000 434.814
22.95000 438.173
22.96000 435.402
22.97000 432.625
22.98000 432.268
22.99000 433.817
23.00000 435.342
23.01000 434.457
23.02000 432.362
23.03000 430.308
23.04000 428.959
23.05000 427.864
23.06000 426.872
23.07000 426.830
23.08000 427.020
23.09000 427.185
23.10000 426.422
23.11000 425.646
23.12000 425.686
23.13000 428.815
23.14000 432.242
23.15000 435.286
23.16000 437.345
23.17000 439.355
23.18000 440.643
23.19000 430.150
23.20000 422.349
23.21000 417.481
23.22000 416.040
23.23000 414.619
23.24000 416.329
23.25000 420.413
23.26000 424.428
23.27000 425.679
23.28000 425.523
23.29000 425.211
23.30000 422.367
23.31000 418.640
23.32000 415.438
23.33000 416.883
23.34000 419.422
23.35000 421.616
23.36000 421.782
23.37000 421.659
23.38000 421.233
23.39000 419.698
23.40000 418.063
23.41000 417.132
23.42000 417.951
23.43000 418.851
23.44000 419.419
23.45000 404.001
23.46000 392.642
23.47000 389.251
23.48000 394.805
23.49000 400.390
23.50000 409.836
23.51000 422.103
23.52000 434.137
23.53000 432.948
23.54000 425.517
23.55000 418.181
23.56000 412.282
23.57000 406.866
23.58000 402.594
23.59000 407.990
23.60000 415.578
23.61000 422.093
23.62000 416.894
23.63000 411.049
23.64000 408.244
23.65000 416.130
23.66000 424.946
23.67000 429.514
23.68000 423.913
23.69000 417.871
23.70000 414.107
23.71000 414.187
23.72000 414.284
23.73000 417.035
23.74000 422.651
23.75000 428.218
23.76000 427.081
23.77000 421.224
23.78000 415.490
23.79000 421.831
23.80000 433.444
23.81000 443.892
23.82000 437.777
23.83000 426.280
23.84000 415.556
23.85000 411.079
23.86000 407.965
23.87000 405.309
23.88000 405.358
23.89000 405.718
23.90000 405.938
23.91000 405.683
23.92000 405.388
23.93000 408.198
23.94000 418.182
23.95000 428.454
23.96000 434.760
23.97000 419.076
23.98000 407.646
23.99000 407.650
24.00000 419.504
24.01000 431.266
24.02000 432.726
24.03000 427.195
24.04000 421.794
24.05000 419.751
24.06000 419.274
24.07000 418.475
24.08000 413.353
24.09000 406.875
24.10000 401.463
24.11000 404.263
24.12000 408.788
24.13000 412.623
24.14000 409.823
24.15000 406.732
24.16000 405.382
24.17000 409.735
24.18000 414.532
24.19000 416.060
24.20000 410.291
24.21000 404.252
24.22000 400.599
24.23000 408.146
24.24000 413.607
24.25000 412.294
24.26000 404.243
24.27000 396.283
24.28000 396.801
24.29000 402.864
24.30000 408.773
24.31000 413.799
24.32000 418.221
24.33000 422.386
24.34000 423.307
24.35000 423.247
24.36000 423.165
24.37000 422.928
24.38000 422.660
24.39000 422.434
24.40000 416.301
24.41000 410.553
24.42000 406.523
24.43000 407.917
24.44000 409.711
24.45000 410.520
24.46000 409.209
24.47000 407.826
24.48000 407.002
24.49000 396.991
24.50000 389.843
24.51000 391.289
24.52000 400.942
24.53000 410.506
24.54000 412.967
24.55000 410.947
24.56000 408.983
24.57000 414.037
24.58000 421.705
24.59000 428.172
24.60000 420.253
24.61000 408.133
24.62000 398.089
24.63000 402.694
24.64000 410.147
24.65000 416.377
24.66000 415.272
24.67000 413.609
24.68000 411.937
24.69000 410.238
24.70000 408.537
24.71000 408.361
24.72000 411.356
24.73000 414.451
24.74000 416.265
24.75000 414.526
24.76000 413.282
24.77000 410.350
24.78000 405.868
24.79000 401.355
24.80000 394.662
24.81000 386.644
24.82000 378.870
24.83000 377.308
24.84000 378.267
24.85000 379.836
24.86000 388.333
24.87000 398.781
24.88000 407.365
24.89000 403.341
24.90000 396.963
24.91000 391.668
24.92000 394.589
24.93000 397.797
24.94000 399.970
24.95000 399.098
24.96000 398.026
24.97000 396.821
24.98000 395.347
24.99000 393.866
25.00000 393.011
25.01000 397.256
25.02000 400.243
25.03000 397.433
25.04000 389.510
25.05000 381.801
25.06000 386.868
25.07000 399.435
25.08000 411.587
25.09000 416.065
25.10000 417.395
25.11000 418.563
25.12000 417.986
25.13000 416.935
25.14000 414.871
25.15000 406.242
25.16000 396.435
25.17000 388.354
25.18000 391.948
25.19000 395.977
25.20000 400.653
25.21000 407.168
25.22000 413.796
25.23000 414.363
25.24000 403.170
25.25000 391.676
25.26000 385.154
25.27000 387.507
25.28000 389.167
25.29000 387.813
25.30000 383.903
25.31000 380.048
25.32000 379.082
25.33000 379.754
25.34000 380.401
25.35000 386.156
25.36000 393.424
25.37000 400.157
25.38000 401.422
25.39000 401.254
25.40000 400.368
25.41000 395.021
25.42000 388.905
25.43000 383.903
25.44000 390.745
25.45000 397.379
25.46000 398.919
25.47000 386.479
25.48000 373.237
25.49000 365.184
25.50000 366.850
25.51000 368.739
25.52000 369.792
25.53000 387.760
25.54000 400.210
25.55000 404.339
25.56000 401.679
25.57000 399.204
25.58000 405.395
25.59000 416.323
25.60000 426.831
25.61000 421.059
25.62000 409.960
25.63000 399.282
25.64000 392.694
25.65000 387.140
25.66000 382.258
25.67000 381.381
25.68000 381.167
25.69000 380.994
25.70000 383.902
25.71000 386.528
25.72000 388.108
25.73000 386.919
25.74000 385.581
25.75000 383.935
25.76000 381.730
25.77000 379.513
25.78000 378.298
25.79000 386.056
25.80000 391.398
25.81000 394.815
25.82000 396.719
25.83000 398.628
25.84000 400.773
25.85000 403.042
25.86000 405.217
25.87000 403.210
25.88000 399.931
25.89000 397.173
25.90000 399.245
25.91000 402.492
25.92000 404.192
25.93000 397.037
25.94000 388.476
25.95000 381.583
25.96000 388.309
25.97000 394.829
25.98000 397.762
25.99000 391.514
26.00000 384.807
26.01000 382.025
26.02000 386.088
26.03000 390.276
26.04000 392.530
26.05000 390.397
26.06000 388.948
26.07000 390.410
26.08000 394.074
26.09000 397.570
26.10000 394.723
26.11000 388.645
26.12000 382.837
26.13000 384.224
26.14000 387.842
26.15000 390.596
26.16000 385.719
26.17000 379.052
26.18000 373.991
26.19000 377.759
26.20000 382.870
26.21000 386.952
26.22000 382.416
26.23000 378.116
26.24000 377.176
26.25000 384.538
26.26000 392.286
26.27000 392.837
26.28000 381.276
26.29000 369.521
26.30000 363.311
26.31000 370.336
26.32000 375.097
26.33000 377.158
26.34000 377.251
26.35000 377.403
26.36000 379.583
26.37000 382.761
26.38000 385.788
26.39000 383.575
26.40000 379.894
26.41000 376.738
26.42000 377.993
26.43000 380.244
26.44000 381.815
26.45000 379.791
26.46000 377.244
26.47000 375.225
26.48000 385.375
26.49000 394.381
26.50000 401.451
26.51000 403.901
26.52000 406.151
26.53000 404.241
26.54000 395.573
26.55000 386.811
26.56000 382.271
26.57000 379.107
26.58000 376.964
26.59000 373.647
26.60000 369.506
26.61000 365.654
26.62000 370.831
26.63000 380.296
26.64000 389.282
26.65000 385.342
26.66000 377.840
26.67000 371.086
26.68000 370.335
26.69000 370.891
26.70000 372.005
26.71000 375.960
26.72000 380.311
26.73000 383.728
26.74000 388.750
26.75000 392.873
26.76000 392.432
26.77000 381.474
26.78000 370.097
26.79000 363.815
26.80000 365.515
26.81000 367.309
26.82000 368.221
26.83000 365.583
26.84000 363.865
26.85000 367.657
26.86000 375.174
26.87000 382.392
26.88000 381.030
26.89000 375.733
26.90000 370.722
26.91000 367.430
26.92000 364.896
26.93000 362.968
26.94000 365.683
26.95000 369.370
26.96000 372.744
26.97000 374.591
26.98000 376.234
26.99000 377.513
27.00000 372.720
27.01000 368.529
27.02000 366.510
27.03000 369.325
27.04000 372.317
27.05000 374.333
27.06000 374.876
27.07000 375.403
27.08000 371.199
27.09000 362.303
27.10000 353.560
27.11000 358.837
27.12000 373.257
27.13000 386.921
27.14000 380.709
27.15000 365.696
27.16000 351.546
27.17000 360.037
27.18000 374.070
27.19000 385.749
27.20000 380.138
27.21000 371.044
27.22000 363.810
27.23000 365.321
27.24000 367.948
27.25000 369.976
27.26000 364.973
27.27000 360.600
27.28000 358.976
27.29000 363.261
27.30000 367.744
27.31000 370.150
27.32000 369.531
27.33000 368.886
27.34000 369.068
27.35000 370.037
27.36000 370.994
27.37000 370.940
27.38000 370.250
27.39000 369.423
27.40000 365.272
27.41000 359.699
27.42000 354.466
27.43000 361.904
27.44000 372.052
27.45000 381.937
27.46000 389.977
27.47000 397.660
27.48000 403.337
27.49000 399.941
27.50000 395.438
27.51000 391.994
27.52000 375.773
27.53000 362.282
27.54000 355.039
27.55000 360.760
27.56000 366.880
27.57000 372.058
27.58000 375.916
27.59000 379.764
27.60000 379.152
27.61000 374.463
27.62000 369.802
27.63000 366.959
27.64000 365.220
27.65000 363.660
27.66000 366.135
27.67000 370.276
27.68000 374.149
27.69000 370.191
27.70000 364.597
27.71000 360.180
27.72000 363.681
27.73000 368.656
27.74000 373.353
27.75000 376.836
27.76000 380.177
27.77000 382.708
27.78000 375.357
27.79000 369.083
27.80000 364.533
27.81000 363.435
27.82000 362.433
27.83000 360.982
27.84000 358.923
27.85000 356.861
27.86000 358.133
27.87000 362.329
27.88000 366.471
27.89000 367.409
27.90000 366.473
27.91000 365.591
27.92000 365.839
27.93000 366.538
27.94000 367.188
27.95000 368.383
27.96000 369.596
27.97000 370.354
27.98000 368.169
27.99000 365.457
28.00000 364.142
28.01000 368.693
28.02000 373.895
28.03000 377.799
28.04000 369.996
28.05000 363.344
28.06000 359.334
28.07000 360.435
28.08000 361.666
28.09000 361.995
28.10000 361.149
28.11000 360.298
28.12000 359.895
28.13000 359.869
28.14000 359.910
28.15000 363.439
28.16000 368.938
28.17000 374.239
28.18000 375.700
28.19000 375.683
28.20000 375.666
28.21000 381.593
28.22000 388.332
28.23000 392.969
28.24000 384.597
28.25000 373.990
28.26000 366.069
28.27000 369.014
28.28000 373.108
28.29000 376.151
28.30000 370.522
28.31000 365.761
28.32000 363.613
28.33000 366.345
28.34000 369.189
28.35000 368.264
28.36000 362.615
28.37000 356.959
28.38000 360.089
28.39000 370.327
28.40000 380.364
28.41000 381.115
28.42000 376.804
28.43000 372.509
28.44000 368.484
28.45000 364.561
28.46000 360.936
28.47000 360.003
28.48000 359.773
28.49000 359.958
28.50000 362.597
28.51000 365.642
28.52000 367.605
28.53000 365.350
28.54000 362.671
28.55000 360.700
28.56000 364.266
28.57000 367.253
28.58000 366.641
28.59000 359.543
28.60000 352.313
28.61000 350.659
28.62000 355.730
28.63000 360.806
28.64000 359.368
28.65000 352.865
28.66000 346.563
28.67000 348.637
28.68000 355.118
28.69000 360.876
28.70000 354.381
28.71000 343.487
28.72000 333.467
28.73000 334.393
28.74000 337.596
28.75000 340.782
28.76000 343.880
28.77000 346.964
28.78000 349.206
28.79000 348.284
28.80000 347.058
28.81000 346.166
28.82000 341.683
28.83000 338.094
28.84000 339.666
28.85000 350.212
28.86000 360.920
28.87000 363.324
28.88000 356.095
28.89000 348.873
28.90000 346.121
28.91000 346.735
28.92000 347.478
28.93000 353.067
28.94000 361.118
28.95000 368.487
28.96000 365.019
28.97000 357.794
28.98000 351.179
28.99000 347.777
29.00000 345.419
29.01000 343.538
29.02000 344.271
29.03000 345.400
29.04000 346.895
29.05000 349.716
29.06000 352.657
29.07000 354.777
29.08000 354.627
29.09000 354.432
29.10000 355.387
29.11000 358.271
29.12000 361.185
29.13000 361.470
29.14000 358.822
29.15000 356.181
29.16000 353.117
29.17000 349.774
29.18000 346.641
29.19000 350.635
29.20000 358.123
29.21000 364.659
29.22000 356.961
29.23000 344.499
29.24000 333.142
29.25000 336.180
29.26000 341.745
29.27000 346.890
29.28000 349.831
29.29000 352.452
29.30000 353.948
29.31000 351.513
29.32000 348.739
29.33000 346.762
29.34000 345.613
29.35000 344.764
29.36000 347.189
29.37000 354.914
29.38000 362.712
29.39000 366.919
29.40000 367.280
29.41000 367.637
29.42000 371.647
29.43000 378.142
29.44000 384.268
29.45000 378.936
29.46000 368.178
29.47000 358.096
29.48000 357.532
29.49000 360.043
29.50000 362.321
29.51000 365.402
29.52000 368.275
29.53000 371.546
29.54000 376.831
29.55000 382.396
29.56000 383.831
29.57000 371.333
29.58000 357.700
29.59000 348.089
29.60000 353.460
29.61000 357.984
29.62000 362.269
29.63000 366.183
29.64000 370.093
29.65000 374.830
29.66000 380.420
29.67000 385.978
29.68000 383.949
29.69000 376.895
29.70000 370.147
29.71000 372.117
29.72000 378.074
29.73000 384.490
29.74000 397.006
29.75000 411.425
29.76000 424.437
29.77000 421.866
29.78000 416.750
29.79000 414.180
29.80000 424.010
29.81000 435.490
29.82000 444.559
29.83000 445.781
29.84000 446.399
29.85000 446.830
29.86000 456.414
29.87000 463.899
29.88000 469.974
29.89000 473.925
29.90000 477.855
29.91000 479.468
29.92000 478.790
29.93000 478.116
29.94000 478.074
29.95000 478.436
29.96000 478.702
29.97000 476.478
29.98000 473.154
29.99000 470.499
30.00000 476.230
30.01000 484.485
30.02000 491.897
30.03000 495.497
30.04000 497.977
30.05000 498.889
30.06000 492.458
30.07000 485.091
30.08000 477.542
30.09000 469.418
30.10000 461.253
30.11000 455.628
30.12000 456.695
30.13000 457.665
30.14000 453.357
30.15000 441.389
30.16000 429.359
30.17000 426.608
30.18000 432.659
30.19000 438.662
30.20000 432.361
30.21000 418.590
30.22000 405.191
30.23000 400.736
30.24000 400.094
30.25000 400.092
30.26000 407.689
30.27000 417.492
30.28000 426.247
30.29000 423.479
30.30000 419.130
30.31000 414.357
30.32000 407.669
30.33000 400.749
30.34000 397.245
30.35000 404.101
30.36000 411.668
30.37000 416.819
30.38000 410.518
30.39000 405.550
30.40000 401.011
30.41000 397.072
30.42000 393.139
30.43000 390.364
30.44000 388.645
30.45000 386.942
30.46000 391.076
30.47000 398.588
30.48000 405.586
30.49000 401.108
30.50000 391.905
30.51000 383.174
30.52000 379.764
30.53000 377.844
30.54000 376.138
30.55000 383.989
30.56000 392.336
30.57000 399.331
30.58000 400.454
30.59000 400.896
30.60000 401.493
30.61000 402.545
30.62000 403.626
30.63000 404.353
30.64000 401.867
30.65000 399.953
30.66000 397.692
30.67000 394.963
30.68000 392.241
30.69000 397.404
30.70000 409.476
30.71000 421.420
30.72000 424.876
30.73000 423.414
30.74000 422.216
30.75000 426.490
30.76000 432.940
30.77000 439.023
30.78000 441.180
30.79000 442.275
30.80000 443.243
30.81000 453.127
30.82000 463.033
30.83000 472.429
30.84000 479.685
30.85000 486.705
30.86000 494.055
30.87000 502.337
30.88000 510.676
30.89000 516.214
30.90000 551.050
30.91000 577.346
30.92000 601.829
30.93000 623.962
30.94000 646.089
30.95000 670.822
30.96000 697.751
30.97000 724.351
30.98000 766.697
30.99000 816.612
31.00000 866.392
31.01000 913.571
31.02000 959.752
31.03000 1008.600
31.04000 1084.507
31.05000 1167.461
31.06000 1240.327
31.07000 1336.386
31.08000 1422.378
31.09000 1512.661
31.10000 1620.239
31.11000 1729.640
31.12000 1842.306
31.13000 1963.884
31.14000 2085.967
31.15000 2166.007
31.16000 2335.198
31.17000 2461.088
31.18000 2601.912
31.19000 2761.392
31.20000 2920.814
31.21000 3037.797
31.22000 3120.376
31.23000 3201.807
31.24000 3289.526
31.25000 3378.094
31.26000 3465.598
31.27000 3533.947
31.28000 3595.192
31.29000 3652.415
31.30000 3670.829
31.31000 3679.500
31.32000 3687.071
31.33000 3689.038
31.34000 3689.933
31.35000 3673.248
31.36000 3588.238
31.37000 3496.379
31.38000 3402.565
31.39000 3303.601
31.40000 3204.363
31.41000 3140.153
31.42000 3002.976
31.43000 2901.566
31.44000 2792.600
31.45000 2674.551
31.46000 2556.448
31.47000 2429.387
31.48000 2295.336
31.49000 2163.383
31.50000 2025.786
31.51000 1889.598
31.52000 1755.113
31.53000 1649.359
31.54000 1553.891
31.55000 1459.225
31.56000 1371.929
31.57000 1286.417
31.58000 1212.188
31.59000 1144.391
31.60000 1087.484
31.61000 1030.217
31.62000 971.599
31.63000 912.852
31.64000 858.268
31.65000 814.276
31.66000 770.807
31.67000 743.059
31.68000 690.655
31.69000 652.212
31.70000 624.892
31.71000 610.434
31.72000 595.972
31.73000 577.254
31.74000 555.338
31.75000 533.806
31.76000 516.986
31.77000 503.044
31.78000 489.071
31.79000 474.611
31.80000 459.982
31.81000 446.202
31.82000 439.855
31.83000 435.239
31.84000 431.258
31.85000 427.089
31.86000 423.529
31.87000 418.180
31.88000 406.367
31.89000 393.970
31.90000 383.096
31.91000 375.966
31.92000 369.009
31.93000 364.629
31.94000 361.308
31.95000 358.917
31.96000 356.247
31.97000 353.266
31.98000 350.321
31.99000 352.986
32.00000 359.711
32.01000 366.305
32.02000 364.878
32.03000 359.728
32.04000 354.660
32.05000 350.809
32.06000 347.364
32.07000 343.292
32.08000 333.982
32.09000 323.496
32.10000 314.507
32.11000 323.241
32.12000 332.784
32.13000 339.523
32.14000 336.488
32.15000 332.615
32.16000 330.960
32.17000 334.569
32.18000 338.401
32.19000 340.780
32.20000 337.987
32.21000 335.927
32.22000 335.927
32.23000 338.127
32.24000 340.287
32.25000 337.058
32.26000 330.071
32.27000 323.235
32.28000 324.705
32.29000 329.878
32.30000 334.423
32.31000 330.150
32.32000 323.038
32.33000 316.815
32.34000 317.681
32.35000 320.079
32.36000 322.122
32.37000 324.674
32.38000 326.879
32.39000 327.781
32.40000 324.300
32.41000 320.463
32.42000 318.321
32.43000 320.064
32.44000 321.959
32.45000 323.118
32.46000 328.942
32.47000 333.149
32.48000 335.849
32.49000 337.004
32.50000 338.136
32.51000 336.923
32.52000 334.133
32.53000 331.410
32.54000 329.577
32.55000 328.213
32.56000 326.891
32.57000 326.120
32.58000 325.521
32.59000 325.174
32.60000 326.754
32.61000 328.735
32.62000 330.411
32.63000 322.804
32.64000 315.406
32.65000 312.479
32.66000 324.059
32.67000 336.752
32.68000 341.976
32.69000 330.675
32.70000 318.775
32.71000 311.606
32.72000 308.767
32.73000 306.777
32.74000 308.615
32.75000 314.222
32.76000 319.901
32.77000 332.093
32.78000 348.506
32.79000 364.491
32.80000 383.674
32.81000 403.301
32.82000 423.362
32.83000 448.852
32.84000 475.970
32.85000 503.437
32.86000 533.450
32.87000 563.973
32.88000 589.621
32.89000 605.110
32.90000 616.943
32.91000 626.719
32.92000 630.054
32.93000 632.922
32.94000 639.367
32.95000 653.456
32.96000 667.798
32.97000 676.307
32.98000 666.338
32.99000 659.177
33.00000 654.106
33.01000 651.009
33.02000 647.774
33.03000 633.988
33.04000 613.606
33.05000 593.804
33.06000 565.897
33.07000 536.112
33.08000 506.729
33.09000 482.088
33.10000 458.819
33.11000 435.990
33.12000 416.236
33.13000 397.075
33.14000 381.085
33.15000 365.915
33.16000 353.415
33.17000 341.752
33.18000 332.621
33.19000 323.662
33.20000 315.123
33.21000 307.449
33.22000 299.802
33.23000 295.336
33.24000 308.617
33.25000 318.037
33.26000 318.910
33.27000 312.018
33.28000 305.150
33.29000 299.882
33.30000 295.579
33.31000 291.410
33.32000 294.091
33.33000 299.292
33.34000 304.215
33.35000 306.038
33.36000 306.994
33.37000 307.330
33.38000 303.516
33.39000 298.936
33.40000 295.141
33.41000 290.231
33.42000 286.071
33.43000 283.734
33.44000 286.719
33.45000 290.046
33.46000 292.209
33.47000 292.055
33.48000 291.837
33.49000 291.712
33.50000 287.480
33.51000 284.508
33.52000 283.601
33.53000 284.498
33.54000 285.437
33.55000 288.797
33.56000 293.566
33.57000 298.176
33.58000 296.279
33.59000 292.058
33.60000 288.096
33.61000 286.885
33.62000 286.415
33.63000 286.083
33.64000 286.638
33.65000 287.351
33.66000 287.937
33.67000 290.733
33.68000 293.232
33.69000 294.508
33.70000 292.339
33.71000 289.962
33.72000 285.632
33.73000 277.547
33.74000 269.368
33.75000 264.747
33.76000 280.232
33.77000 291.039
33.78000 295.010
33.79000 293.240
33.80000 291.459
33.81000 289.086
33.82000 286.380
33.83000 283.773
33.84000 283.022
33.85000 282.985
33.86000 283.537
33.87000 290.040
33.88000 298.088
33.89000 304.086
33.90000 297.478
33.91000 288.720
33.92000 281.571
33.93000 281.256
33.94000 281.585
33.95000 283.382
33.96000 289.171
33.97000 295.185
33.98000 296.099
33.99000 287.546
34.00000 278.781
34.01000 273.913
34.02000 283.155
34.03000 289.553
34.04000 290.321
34.05000 286.538
34.06000 282.847
34.07000 283.349
34.08000 286.122
34.09000 288.786
34.10000 284.751
34.11000 278.653
34.12000 273.115
34.13000 272.942
34.14000 274.113
34.15000 275.356
34.16000 277.032
34.17000 278.778
34.18000 280.192
34.19000 282.810
34.20000 285.041
34.21000 286.816
34.22000 287.396
34.23000 287.914
34.24000 287.668
34.25000 286.054
34.26000 284.413
34.27000 283.517
34.28000 280.028
34.29000 277.632
34.30000 276.226
34.31000 275.591
34.32000 274.961
34.33000 274.564
34.34000 274.287
34.35000 274.023
34.36000 272.951
34.37000 271.683
34.38000 271.159
34.39000 277.446
34.40000 285.375
34.41000 291.484
34.42000 287.277
34.43000 281.450
34.44000 276.767
34.45000 278.799
34.46000 280.962
34.47000 283.105
34.48000 285.194
34.49000 287.281
34.50000 287.482
34.51000 284.421
34.52000 281.302
34.53000 279.631
34.54000 277.594
34.55000 276.207
34.56000 275.551
34.57000 275.443
34.58000 275.359
34.59000 276.164
34.60000 277.418
34.61000 278.615
34.62000 275.913
34.63000 272.154
34.64000 269.289
34.65000 274.231
34.66000 280.987
34.67000 286.122
34.68000 282.440
34.69000 277.430
34.70000 273.437
34.71000 271.890
34.72000 270.820
34.73000 267.395
34.74000 258.198
34.75000 248.738
34.76000 248.605
34.77000 264.032
34.78000 279.699
34.79000 287.936
34.80000 282.842
34.81000 279.401
34.82000 278.836
34.83000 280.347
34.84000 281.774
34.85000 280.426
34.86000 277.724
34.87000 275.153
34.88000 269.866
34.89000 264.136
34.90000 259.246
34.91000 261.350
34.92000 265.019
34.93000 268.395
34.94000 270.237
34.95000 271.859
34.96000 273.141
34.97000 271.473
34.98000 269.931
34.99000 270.093
35.00000 274.285
35.01000 278.647
35.02000 280.928
35.03000 279.860
35.04000 278.747
35.05000 278.173
35.06000 277.171
35.07000 276.502
35.08000 276.620
35.09000 277.286
35.10000 277.829
35.11000 274.647
35.12000 269.712
35.13000 265.032
35.14000 266.074
35.15000 268.729
35.16000 270.675
35.17000 266.979
35.18000 262.068
35.19000 258.303
35.20000 260.299
35.21000 263.091
35.22000 265.279
35.23000 270.202
35.24000 274.314
35.25000 275.354
35.26000 269.378
35.27000 263.127
35.28000 262.463
35.29000 270.467
35.30000 278.571
35.31000 282.668
35.32000 267.949
35.33000 258.179
35.34000 256.547
35.35000 260.370
35.36000 264.016
35.37000 262.713
35.38000 259.162
35.39000 255.806
35.40000 256.716
35.41000 258.767
35.42000 260.562
35.43000 260.424
35.44000 259.885
35.45000 259.712
35.46000 261.305
35.47000 263.132
35.48000 264.552
35.49000 264.200
35.50000 263.814
35.51000 264.706
35.52000 268.419
35.53000 272.234
35.54000 273.483
35.55000 270.893
35.56000 268.266
35.57000 267.777
35.58000 269.386
35.59000 271.005
35.60000 273.454
35.61000 276.440
35.62000 279.279
35.63000 278.359
35.64000 275.789
35.65000 273.369
35.66000 270.049
35.67000 266.767
35.68000 263.573
35.69000 261.020
35.70000 258.596
35.71000 256.305
35.72000 254.635
35.73000 253.044
35.74000 251.819
35.75000 256.122
35.76000 259.844
35.77000 261.991
35.78000 260.782
35.79000 259.463
35.80000 257.670
35.81000 255.191
35.82000 252.708
35.83000 255.396
35.84000 262.955
35.85000 270.440
35.86000 272.341
35.87000 270.762
35.88000 269.004
35.89000 263.024
35.90000 255.253
35.91000 247.962
35.92000 250.901
35.93000 256.267
35.94000 260.932
35.95000 260.723
35.96000 259.578
35.97000 257.896
35.98000 253.802
35.99000 249.418
36.00000 246.073
36.01000 257.630
36.02000 267.533
36.03000 271.084
36.04000 261.567
36.05000 251.657
36.06000 246.046
36.07000 246.410
36.08000 246.813
36.09000 250.410
36.10000 256.891
36.11000 263.255
36.12000 261.942
36.13000 256.014
36.14000 250.333
36.15000 250.106
36.16000 252.112
36.17000 253.987
36.18000 252.912
36.19000 251.191
36.20000 249.541
36.21000 248.358
36.22000 247.261
36.23000 246.731
36.24000 248.647
36.25000 250.844
36.26000 252.505
36.27000 263.022
36.28000 271.711
36.29000 274.136
36.30000 264.122
36.31000 253.768
36.32000 249.320
36.33000 252.782
36.34000 256.282
36.35000 258.842
36.36000 260.581
36.37000 262.230
36.38000 258.726
36.39000 252.232
36.40000 245.903
36.41000 242.971
36.42000 241.381
36.43000 239.901
36.44000 238.097
36.45000 236.388
36.46000 235.071
36.47000 236.259
36.48000 237.890
36.49000 239.495
36.50000 240.988
36.51000 242.468
36.52000 243.577
36.53000 246.631
36.54000 249.105
36.55000 251.599
36.56000 254.132
36.57000 256.666
36.58000 256.352
36.59000 252.365
36.60000 248.369
36.61000 247.164
36.62000 248.295
36.63000 249.395
36.64000 248.989
36.65000 247.740
36.66000 246.662
36.67000 248.851
36.68000 252.287
36.69000 255.471
36.70000 258.581
36.71000 261.362
36.72000 263.879
36.73000 264.778
36.74000 265.401
36.75000 264.786
36.76000 259.211
36.77000 253.118
36.78000 248.601
36.79000 249.547
36.80000 250.520
36.81000 252.374
36.82000 255.857
36.83000 259.376
36.84000 262.697
36.85000 265.775
36.86000 268.846
36.87000 264.484
36.88000 254.176
36.89000 244.069
36.90000 243.029
36.91000 246.886
36.92000 250.592
36.93000 251.610
36.94000 251.638
36.95000 251.663
36.96000 257.844
36.97000 264.760
36.98000 269.994
36.99000 265.341
37.00000 259.074
37.01000 254.274
37.02000 255.141
37.03000 256.571
37.04000 257.620
37.05000 256.358
37.06000 255.289
37.07000 254.500
37.08000 254.211
37.09000 253.932
37.10000 254.116
37.11000 254.852
37.12000 255.588
37.13000 255.329
37.14000 254.304
37.15000 253.348
37.16000 255.189
37.17000 258.489
37.18000 261.397
37.19000 257.757
37.20000 251.786
37.21000 246.301
37.22000 240.772
37.23000 235.827
37.24000 232.660
37.25000 239.521
37.26000 247.953
37.27000 254.132
37.28000 251.921
37.29000 248.918
37.30000 246.736
37.31000 250.384
37.32000 253.408
37.33000 255.703
37.34000 256.740
37.35000 257.756
37.36000 257.896
37.37000 257.031
37.38000 256.167
37.39000 252.196
37.40000 245.950
37.41000 239.909
37.42000 241.368
37.43000 246.605
37.44000 251.349
37.45000 248.378
37.46000 242.757
37.47000 237.616
37.48000 238.921
37.49000 241.408
37.50000 244.360
37.51000 249.839
37.52000 255.698
37.53000 260.067
37.54000 259.090
37.55000 257.633
37.56000 256.586
37.57000 255.101
37.58000 253.949
37.59000 251.989
37.60000 248.684
37.61000 245.360
37.62000 242.768
37.63000 240.987
37.64000 239.213
37.65000 235.720
37.66000 231.034
37.67000 226.634
37.68000 231.715
37.69000 241.406
37.70000 250.360
37.71000 248.478
37.72000 243.002
37.73000 238.017
37.74000 242.733
37.75000 248.823
37.76000 253.375
37.77000 249.912
37.78000 245.296
37.79000 242.398
37.80000 245.452
37.81000 249.012
37.82000 251.542
37.83000 256.502
37.84000 260.356
37.85000 261.307
37.86000 257.600
37.87000 253.832
37.88000 252.387
37.89000 253.406
37.90000 254.420
37.91000 252.056
37.92000 247.402
37.93000 242.905
37.94000 243.141
37.95000 245.600
37.96000 247.845
37.97000 247.118
37.98000 245.441
37.99000 243.921
38.00000 243.947
38.01000 244.262
38.02000 244.485
38.03000 244.242
38.04000 243.935
38.05000 244.149
38.06000 246.101
38.07000 248.194
38.08000 249.665
38.09000 252.784
38.10000 255.195
38.11000 255.716
38.12000 253.312
38.13000 250.874
38.14000 250.176
38.15000 251.249
38.16000 252.317
38.17000 253.600
38.18000 255.008
38.19000 256.510
38.20000 260.606
38.21000 265.878
38.22000 270.888
38.23000 272.458
38.24000 272.965
38.25000 273.422
38.26000 276.640
38.27000 279.964
38.28000 283.763
38.29000 289.848
38.30000 296.234
38.31000 301.020
38.32000 300.647
38.33000 299.883
38.34000 299.351
38.35000 308.586
38.36000 315.809
38.37000 324.383
38.38000 334.973
38.39000 345.583
38.40000 349.374
38.41000 346.497
38.42000 343.640
38.43000 347.015
38.44000 354.289
38.45000 361.525
38.46000 367.771
38.47000 373.584
38.48000 379.802
38.49000 391.029
38.50000 403.748
38.51000 415.153
38.52000 416.265
38.53000 415.448
38.54000 416.035
38.55000 423.138
38.56000 431.062
38.57000 437.521
38.58000 439.425
38.59000 441.002
38.60000 442.086
38.61000 436.960
38.62000 432.964
38.63000 436.162
38.64000 449.704
38.65000 463.324
38.66000 459.642
38.67000 439.709
38.68000 419.940
38.69000 416.747
38.70000 423.724
38.71000 430.344
38.72000 428.489
38.73000 423.054
38.74000 417.671
38.75000 412.908
38.76000 408.323
38.77000 404.233
38.78000 389.760
38.79000 375.441
38.80000 362.186
38.81000 353.686
38.82000 345.757
38.83000 338.310
38.84000 332.308
38.85000 326.404
38.86000 322.397
38.87000 320.109
38.88000 318.440
38.89000 315.078
38.90000 309.369
38.91000 303.647
38.92000 299.776
38.93000 297.575
38.94000 295.395
38.95000 285.634
38.96000 271.625
38.97000 258.120
38.98000 255.653
38.99000 257.692
39.00000 259.676
39.01000 261.039
39.02000 262.230
39.03000 263.287
39.04000 254.533
39.05000 245.387
39.06000 238.715
39.07000 242.682
39.08000 247.868
39.09000 252.232
39.10000 254.207
39.11000 256.031
39.12000 257.254
39.13000 253.126
39.14000 249.955
39.15000 244.848
39.16000 237.157
39.17000 229.462
39.18000 228.617
39.19000 233.717
39.20000 238.760
39.21000 241.343
39.22000 242.477
39.23000 243.454
39.24000 241.246
39.25000 237.781
39.26000 234.135
39.27000 228.569
39.28000 222.490
39.29000 217.127
39.30000 221.578
39.31000 226.911
39.32000 231.519
39.33000 233.121
39.34000 234.394
39.35000 234.689
39.36000 232.244
39.37000 229.637
39.38000 227.911
39.39000 233.285
39.40000 237.380
39.41000 240.961
39.42000 243.879
39.43000 246.786
39.44000 245.583
39.45000 240.949
39.46000 236.373
39.47000 231.559
39.48000 226.741
39.49000 222.221
39.50000 223.356
39.51000 226.643
39.52000 229.422
39.53000 227.112
39.54000 223.488
39.55000 220.309
39.56000 224.366
39.57000 228.904
39.58000 231.877
39.59000 228.602
39.60000 224.677
39.61000 221.239
39.62000 219.122
39.63000 217.078
39.64000 215.743
39.65000 222.772
39.66000 228.068
39.67000 231.868
39.68000 233.815
39.69000 235.754
39.70000 236.999
39.71000 237.687
39.72000 238.364
39.73000 237.357
39.74000 235.499
39.75000 233.601
39.76000 231.015
39.77000 228.176
39.78000 225.416
39.79000 223.407
39.80000 221.586
39.81000 219.997
39.82000 222.184
39.83000 224.578
39.84000 226.771
39.85000 228.185
39.86000 229.522
39.87000 230.149
39.88000 228.922
39.89000 227.597
39.90000 226.743
39.91000 225.466
39.92000 224.527
39.93000 223.466
39.94000 222.259
39.95000 221.061
39.96000 222.106
39.97000 224.884
39.98000 227.618
39.99000 228.875
40.00000 229.350
40.01000 229.798
40.02000 229.807
40.03000 229.660
40.04000 229.936
40.05000 234.050
40.06000 239.083
40.07000 243.445
40.08000 233.185
40.09000 222.510
40.10000 214.461
40.11000 216.162
40.12000 218.779
40.13000 221.283
40.14000 223.498
40.15000 225.700
40.16000 227.100
40.17000 220.911
40.18000 216.319
40.19000 214.779
40.20000 216.732
40.21000 218.670
40.22000 217.031
40.23000 212.731
40.24000 208.509
40.25000 206.425
40.26000 205.450
40.27000 204.719
40.28000 207.775
40.29000 212.129
40.30000 215.673
40.31000 212.210
40.32000 207.129
40.33000 202.753
40.34000 207.554
40.35000 212.786
40.36000 216.683
40.37000 215.800
40.38000 214.490
40.39000 212.703
40.40000 209.754
40.41000 206.752
40.42000 204.869
40.43000 224.478
40.44000 238.882
40.45000 241.488
40.46000 231.110
40.47000 220.771
40.48000 217.500
40.49000 219.297
40.50000 221.059
40.51000 221.791
40.52000 222.016
40.53000 222.136
40.54000 220.714
40.55000 218.782
40.56000 217.242
40.57000 218.937
40.58000 221.351
40.59000 223.417
40.60000 223.364
40.61000 223.062
40.62000 223.306
40.63000 225.431
40.64000 227.716
40.65000 228.723
40.66000 226.725
40.67000 224.602
40.68000 223.290
40.69000 215.117
40.70000 209.180
40.71000 207.898
40.72000 211.539
40.73000 215.132
40.74000 212.755
40.75000 206.252
40.76000 199.893
40.77000 200.139
40.78000 203.340
40.79000 206.587
40.80000 210.488
40.81000 214.597
40.82000 218.181
40.83000 217.619
40.84000 216.170
40.85000 214.938
40.86000 216.259
40.87000 217.662
40.88000 218.231
40.89000 216.020
40.90000 213.586
40.91000 210.655
40.92000 206.592
40.93000 202.486
40.94000 199.984
40.95000 210.253
40.96000 217.694
40.97000 221.226
40.98000 220.790
40.99000 220.328
41.00000 217.246
41.01000 212.418
41.02000 207.708
41.03000 207.931
41.04000 210.275
41.05000 212.749
41.06000 216.924
41.07000 221.621
41.08000 224.904
41.09000 217.518
41.10000 207.934
41.11000 199.840
41.12000 203.937
41.13000 208.700
41.14000 211.983
41.15000 210.507
41.16000 208.671
41.17000 208.041
41.18000 210.056
41.19000 212.165
41.20000 213.430
41.21000 207.074
41.22000 202.506
41.23000 202.609
41.24000 207.265
41.25000 211.845
41.26000 209.999
41.27000 204.025
41.28000 198.210
41.29000 199.925
41.30000 204.688
41.31000 209.063
41.32000 208.649
41.33000 206.811
41.34000 205.267
41.35000 205.840
41.36000 206.832
41.37000 207.665
41.38000 210.677
41.39000 213.412
41.40000 214.518
41.41000 210.566
41.42000 206.253
41.43000 204.304
41.44000 207.361
41.45000 210.580
41.46000 212.482
41.47000 207.426
41.48000 203.815
41.49000 200.238
41.50000 196.693
41.51000 193.232
41.52000 195.958
41.53000 202.516
41.54000 208.885
41.55000 208.393
41.56000 205.182
41.57000 202.370
41.58000 204.216
41.59000 207.398
41.60000 209.993
41.61000 208.540
41.62000 206.317
41.63000 204.465
41.64000 208.776
41.65000 212.958
41.66000 215.572
41.67000 213.483
41.68000 211.078
41.69000 210.034
41.70000 211.770
41.71000 213.589
41.72000 214.647
41.73000 205.389
41.74000 198.845
41.75000 198.042
41.76000 202.404
41.77000 206.650
41.78000 203.568
41.79000 196.105
41.80000 188.879
41.81000 188.535
41.82000 190.858
41.83000 193.013
41.84000 193.303
41.85000 193.076
41.86000 192.825
41.87000 192.413
41.88000 191.972
41.89000 191.607
41.90000 200.529
41.91000 208.761
41.92000 212.860
41.93000 204.999
41.94000 196.384
41.95000 191.392
41.96000 193.553
41.97000 195.908
41.98000 197.254
41.99000 199.660
42.00000 201.344
42.01000 203.413
42.02000 205.814
42.03000 208.199
42.04000 209.619
42.05000 210.483
42.06000 211.318
42.07000 211.715
42.08000 211.926
42.09000 212.089
42.10000 211.744
42.11000 211.264
42.12000 210.252
42.13000 205.871
42.14000 200.896
42.15000 196.813
42.16000 202.607
42.17000 208.247
42.18000 211.079
42.19000 206.072
42.20000 200.601
42.21000 196.140
42.22000 193.603
42.23000 191.113
42.24000 189.711
42.25000 191.510
42.26000 192.767
42.27000 193.848
42.28000 194.784
42.29000 195.750
42.30000 198.200
42.31000 201.476
42.32000 204.631
42.33000 206.233
42.34000 207.184
42.35000 207.732
42.36000 204.257
42.37000 199.747
42.38000 195.692
42.39000 194.405
42.40000 193.585
42.41000 192.916
42.42000 191.591
42.43000 190.453
42.44000 190.843
42.45000 195.352
42.46000 200.090
42.47000 203.042
42.48000 202.705
42.49000 202.297
42.50000 202.072
42.51000 202.225
42.52000 202.337
42.53000 203.938
42.54000 206.732
42.55000 209.411
42.56000 206.992
42.57000 201.835
42.58000 196.884
42.59000 196.414
42.60000 197.511
42.61000 198.806
42.62000 201.990
42.63000 205.641
42.64000 209.278
42.65000 212.825
42.66000 216.357
42.67000 219.213
42.68000 207.919
42.69000 197.599
42.70000 191.801
42.71000 197.781
42.72000 204.370
42.73000 210.569
42.74000 216.074
42.75000 221.565
42.76000 224.548
42.77000 217.940
42.78000 213.397
42.79000 208.572
42.80000 203.531
42.81000 198.548
42.82000 195.876
42.83000 194.403
42.84000 192.993
42.85000 195.202
42.86000 198.454
42.87000 202.089
42.88000 209.187
42.89000 217.112
42.90000 222.974
42.91000 217.271
42.92000 209.771
42.93000 203.756
42.94000 201.915
42.95000 200.742
42.96000 200.128
42.97000 200.920
42.98000 201.780
42.99000 202.451
43.00000 202.796
43.01000 203.137
43.02000 203.318
43.03000 196.174
43.04000 191.325
43.05000 190.997
43.06000 194.023
43.07000 197.092
43.08000 201.730
43.09000 207.153
43.10000 212.327
43.11000 210.447
43.12000 206.466
43.13000 202.664
43.14000 200.411
43.15000 198.515
43.16000 197.048
43.17000 197.893
43.18000 199.082
43.19000 200.027
43.20000 204.061
43.21000 207.532
43.22000 209.371
43.23000 207.245
43.24000 204.941
43.25000 205.055
43.26000 209.164
43.27000 213.332
43.28000 215.513
43.29000 202.751
43.30000 194.134
43.31000 189.560
43.32000 187.877
43.33000 186.347
43.34000 189.812
43.35000 195.691
43.36000 201.282
43.37000 199.767
43.38000 196.199
43.39000 192.868
43.40000 191.483
43.41000 190.530
43.42000 190.022
43.43000 191.819
43.44000 193.944
43.45000 195.621
43.46000 197.522
43.47000 199.061
43.48000 201.178
43.49000 204.647
43.50000 208.172
43.51000 209.679
43.52000 207.971
43.53000 206.221
43.54000 205.323
43.55000 211.452
43.56000 215.542
43.57000 215.811
43.58000 213.446
43.59000 210.977
43.60000 205.408
43.61000 198.392
43.62000 191.744
43.63000 193.027
43.64000 196.534
43.65000 199.596
43.66000 199.159
43.67000 197.975
43.68000 197.231
43.69000 198.672
43.70000 200.413
43.71000 201.774
43.72000 199.947
43.73000 198.286
43.74000 197.023
43.75000 196.663
43.76000 196.337
43.77000 195.302
43.78000 193.178
43.79000 191.042
43.80000 189.968
43.81000 192.836
43.82000 194.749
43.83000 196.390
43.84000 197.850
43.85000 199.348
43.86000 201.907
43.87000 204.945
43.88000 207.813
43.89000 204.985
43.90000 200.785
43.91000 197.453
43.92000 200.642
43.93000 205.169
43.94000 208.393
43.95000 205.371
43.96000 201.534
43.97000 198.559
43.98000 199.754
43.99000 200.953
44.00000 203.043
44.01000 207.081
44.02000 211.188
44.03000 211.058
44.04000 204.646
44.05000 198.176
44.06000 194.054
44.07000 192.211
44.08000 190.389
44.09000 190.275
44.10000 191.255
44.11000 192.255
44.12000 193.785
44.13000 195.544
44.14000 197.200
44.15000 194.979
44.16000 191.899
44.17000 189.495
44.18000 191.949
44.19000 195.363
44.20000 198.717
44.21000 201.795
44.22000 204.839
44.23000 207.177
44.24000 209.736
44.25000 211.773
44.26000 213.061
44.27000 212.772
44.28000 212.432
44.29000 212.638
44.30000 213.623
44.31000 214.614
44.32000 214.000
44.33000 211.890
44.34000 209.780
44.35000 207.682
44.36000 205.590
44.37000 203.880
44.38000 211.071
44.39000 222.001
44.40000 232.245
44.41000 231.717
44.42000 228.434
44.43000 226.230
44.44000 231.453
44.45000 238.086
44.46000 244.574
44.47000 250.420
44.48000 256.190
44.49000 260.582
44.50000 261.562
44.51000 262.155
44.52000 265.311
44.53000 273.694
44.54000 282.231
44.55000 289.387
44.56000 294.642
44.57000 299.883
44.58000 303.128
44.59000 304.582
44.60000 306.112
44.61000 312.476
44.62000 321.718
44.63000 331.147
44.64000 344.595
44.65000 359.673
44.66000 373.749
44.67000 375.794
44.68000 374.638
44.69000 374.754
44.70000 383.246
44.71000 393.266
44.72000 402.500
44.73000 408.366
44.74000 413.848
44.75000 417.982
44.76000 422.552
44.77000 426.152
44.78000 429.925
44.79000 434.040
44.80000 438.164
44.81000 444.723
44.82000 454.511
44.83000 464.307
44.84000 470.441
44.85000 473.414
44.86000 476.321
44.87000 475.538
44.88000 472.635
44.89000 469.873
44.90000 469.936
44.91000 471.107
44.92000 472.195
44.93000 464.691
44.94000 455.852
44.95000 448.117
44.96000 447.356
44.97000 447.817
44.98000 446.547
44.99000 438.144
45.00000 428.969
45.01000 422.116
45.02000 421.810
45.03000 421.872
45.04000 418.981
45.05000 410.479
45.06000 401.842
45.07000 393.520
45.08000 385.599
45.09000 377.688
45.10000 370.683
45.11000 364.447
45.12000 358.246
45.13000 353.745
45.14000 350.187
45.15000 346.600
45.16000 342.483
45.17000 338.165
45.18000 334.168
45.19000 330.335
45.20000 326.928
45.21000 322.575
45.22000 312.497
45.23000 301.454
45.24000 291.999
45.25000 288.846
45.26000 286.344
45.27000 284.494
45.28000 286.526
45.29000 288.267
45.30000 285.671
45.31000 275.119
45.32000 264.394
45.33000 258.846
45.34000 259.660
45.35000 260.490
45.36000 259.131
45.37000 256.039
45.38000 253.033
45.39000 253.762
45.40000 256.490
45.41000 258.881
45.42000 255.356
45.43000 249.670
45.44000 244.429
45.45000 238.838
45.46000 233.754
45.47000 229.769
45.48000 232.177
45.49000 235.618
45.50000 236.349
45.51000 226.708
45.52000 216.048
45.53000 208.247
45.54000 215.170
45.55000 221.098
45.56000 223.546
45.57000 219.831
45.58000 215.999
45.59000 213.722
45.60000 213.287
45.61000 212.856
45.62000 213.172
45.63000 214.055
45.64000 214.840
45.65000 211.729
45.66000 206.605
45.67000 201.661
45.68000 199.669
45.69000 198.719
45.70000 197.846
45.71000 193.669
45.72000 189.242
45.73000 186.681
45.74000 194.548
45.75000 204.029
45.76000 211.433
45.77000 211.165
45.78000 210.181
45.79000 209.469
45.80000 204.265
45.81000 200.103
45.82000 197.740
45.83000 198.450
45.84000 199.211
45.85000 197.625
45.86000 193.367
45.87000 189.120
45.88000 186.109
45.89000 184.030
45.90000 182.003
45.91000 181.844
45.92000 182.616
45.93000 183.311
45.94000 182.817
45.95000 181.918
45.96000 181.097
45.97000 182.730
45.98000 184.679
45.99000 186.575
46.00000 188.186
46.01000 189.753
46.02000 189.763
46.03000 184.229
46.04000 178.204
46.05000 173.886
46.06000 179.723
46.07000 184.528
46.08000 186.606
46.09000 184.186
46.10000 181.700
46.11000 179.866
46.12000 178.745
46.13000 177.629
46.14000 176.284
46.15000 174.790
46.16000 173.364
46.17000 174.129
46.18000 175.949
46.19000 177.600
46.20000 176.790
46.21000 175.172
46.22000 173.700
46.23000 170.068
46.24000 166.434
46.25000 163.539
46.26000 164.458
46.27000 165.920
46.28000 167.596
46.29000 170.009
46.30000 172.483
46.31000 174.237
46.32000 176.284
46.33000 177.849
46.34000 178.530
46.35000 177.807
46.36000 177.066
46.37000 175.737
46.38000 173.790
46.39000 171.853
46.40000 173.827
46.41000 178.434
46.42000 182.850
46.43000 181.598
46.44000 177.710
46.45000 174.070
46.46000 173.824
46.47000 174.654
46.48000 175.405
46.49000 170.157
46.50000 164.413
46.51000 160.466
46.52000 165.437
46.53000 171.622
46.54000 175.716
46.55000 172.884
46.56000 169.504
46.57000 167.134
46.58000 166.422
46.59000 165.930
46.60000 167.300
46.61000 171.523
46.62000 175.778
46.63000 178.766
46.64000 180.475
46.65000 182.175
46.66000 180.936
46.67000 177.798
46.68000 174.645
46.69000 171.101
46.70000 167.382
46.71000 164.146
46.72000 167.136
46.73000 172.034
46.74000 176.443
46.75000 176.416
46.76000 175.597
46.77000 174.420
46.78000 171.533
46.79000 168.423
46.80000 167.037
46.81000 171.160
46.82000 175.696
46.83000 178.839
46.84000 176.833
46.85000 175.188
46.86000 173.835
46.87000 172.914
46.88000 171.996
46.89000 170.705
46.90000 169.053
46.91000 167.413
46.92000 166.719
46.93000 166.630
46.94000 166.709
46.95000 170.977
46.96000 177.063
46.97000 182.502
46.98000 180.054
46.99000 175.275
47.00000 170.995
47.01000 169.877
47.02000 169.445
47.03000 169.084
47.04000 169.052
47.05000 169.061
47.06000 168.053
47.07000 163.906
47.08000 159.537
47.09000 156.545
47.10000 157.220
47.11000 157.813
47.12000 160.489
47.13000 166.133
47.14000 171.798
47.15000 173.038
47.16000 170.164
47.17000 167.314
47.18000 165.430
47.19000 164.165
47.20000 162.985
47.21000 163.797
47.22000 165.444
47.23000 167.083
47.24000 168.641
47.25000 170.175
47.26000 171.542
47.27000 167.601
47.28000 163.303
47.29000 160.367
47.30000 163.463
47.31000 167.275
47.32000 168.861
47.33000 163.817
47.34000 158.332
47.35000 154.621
47.36000 157.407
47.37000 159.623
47.38000 160.690
47.39000 160.179
47.40000 159.661
47.41000 161.034
47.42000 164.097
47.43000 167.130
47.44000 165.210
47.45000 160.452
47.46000 155.988
47.47000 157.866
47.48000 162.309
47.49000 166.127
47.50000 163.091
47.51000 158.169
47.52000 153.810
47.53000 158.518
47.54000 164.019
47.55000 168.692
47.56000 169.833
47.57000 170.575
47.58000 171.009
47.59000 170.559
47.60000 170.054
47.61000 169.717
47.62000 163.857
47.63000 159.405
47.64000 156.214
47.65000 154.688
47.66000 153.174
47.67000 154.111
47.68000 157.154
47.69000 160.161
47.70000 161.182
47.71000 161.066
47.72000 160.948
47.73000 160.794
47.74000 160.627
47.75000 160.500
47.76000 160.791
47.77000 161.194
47.78000 161.548
47.79000 164.217
47.80000 166.864
47.81000 168.250
47.82000 164.456
47.83000 160.103
47.84000 157.840
47.85000 161.380
47.86000 165.261
47.87000 167.821
47.88000 166.450
47.89000 165.369
47.90000 164.041
47.91000 162.397
47.92000 160.757
47.93000 161.818
47.94000 165.109
47.95000 168.357
47.96000 168.790
47.97000 167.696
47.98000 166.664
47.99000 166.780
48.00000 167.329
48.01000 167.848
48.02000 168.068
48.03000 168.212
48.04000 168.337
48.05000 163.311
48.06000 158.258
48.07000 154.432
48.08000 155.465
48.09000 156.997
48.10000 158.590
48.11000 160.345
48.12000 162.110
48.13000 163.259
48.14000 161.979
48.15000 161.002
48.16000 160.562
48.17000 160.782
48.18000 161.010
48.19000 163.541
48.20000 167.904
48.21000 172.202
48.22000 173.138
48.23000 172.304
48.24000 171.419
48.25000 169.640
48.26000 167.535
48.27000 165.183
48.28000 160.507
48.29000 155.257
48.30000 150.686
48.31000 157.201
48.32000 164.289
48.33000 169.335
48.34000 166.586
48.35000 163.075
48.36000 160.277
48.37000 159.321
48.38000 158.459
48.39000 157.906
48.40000 163.466
48.41000 167.606
48.42000 168.551
48.43000 165.728
48.44000 162.919
48.45000 164.487
48.46000 169.406
48.47000 174.244
48.48000 172.718
48.49000 168.069
48.50000 163.493
48.51000 160.107
48.52000 157.138
48.53000 154.723
48.54000 157.263
48.55000 160.979
48.56000 164.195
48.57000 161.982
48.58000 159.388
48.59000 157.612
48.60000 158.844
48.61000 160.355
48.62000 160.947
48.63000 159.239
48.64000 157.423
48.65000 156.271
48.66000 158.121
48.67000 159.500
48.68000 159.795
48.69000 158.862
48.70000 157.924
48.71000 156.299
48.72000 154.169
48.73000 152.078
48.74000 152.523
48.75000 154.169
48.76000 155.963
48.77000 160.027
48.78000 164.862
48.79000 168.863
48.80000 165.735
48.81000 160.975
48.82000 156.881
48.83000 155.262
48.84000 154.202
48.85000 154.150
48.86000 157.675
48.87000 161.514
48.88000 162.982
48.89000 158.724
48.90000 154.213
48.91000 151.393
48.92000 155.362
48.93000 158.297
48.94000 158.116
48.95000 154.540
48.96000 150.991
48.97000 151.466
48.98000 154.799
48.99000 158.065
49.00000 157.953
49.01000 156.285
49.02000 154.390
49.03000 149.222
49.04000 142.980
49.05000 138.269
49.06000 146.045
49.07000 156.572
49.08000 165.567
49.09000 166.342
49.10000 166.013
49.11000 166.227
49.12000 168.300
49.13000 170.528
49.14000 169.797
49.15000 162.167
49.16000 154.254
49.17000 149.379
49.18000 154.490
49.19000 158.248
49.20000 160.910
49.21000 162.426
49.22000 163.927
49.23000 163.794
49.24000 162.542
49.25000 161.319
49.26000 159.516
49.27000 157.532
49.28000 155.768
49.29000 156.995
49.30000 159.169
49.31000 161.125
49.32000 161.379
49.33000 161.272
49.34000 161.181
49.35000 158.911
49.36000 156.758
49.37000 156.085
49.38000 160.302
49.39000 164.905
49.40000 166.115
49.41000 159.685
49.42000 152.967
49.43000 148.889
49.44000 152.029
49.45000 154.324
49.46000 155.451
49.47000 155.403
49.48000 155.353
49.49000 155.084
49.50000 154.669
49.51000 154.265
49.52000 154.111
49.53000 154.073
49.54000 153.864
49.55000 151.473
49.56000 148.415
49.57000 145.773
49.58000 146.233
49.59000 147.326
49.60000 148.247
49.61000 155.767
49.62000 162.761
49.63000 166.644
49.64000 160.614
49.65000 153.845
49.66000 150.292
49.67000 153.728
49.68000 157.406
49.69000 159.606
49.70000 160.400
49.71000 160.954
49.72000 162.671
49.73000 165.508
49.74000 168.272
49.75000 165.027
49.76000 157.958
49.77000 151.081
49.78000 153.005
49.79000 158.459
49.80000 163.304
49.81000 160.752
49.82000 156.020
49.83000 151.983
49.84000 152.906
49.85000 154.803
49.86000 156.391
49.87000 156.131
49.88000 155.723
49.89000 156.347
49.90000 160.143
49.91000 164.161
49.92000 166.199
49.93000 164.080
49.94000 161.829
49.95000 160.504
49.96000 160.436
49.97000 160.393
49.98000 158.023
49.99000 153.496
50.00000 149.057
50.01000 150.893
50.02000 156.580
50.03000 162.099
50.04000 166.190
50.05000 169.505
50.06000 172.747
50.07000 175.161
50.08000 177.340
50.09000 179.157
50.10000 178.502
50.11000 177.381
50.12000 176.450
50.13000 176.480
50.14000 176.600
50.15000 177.588
50.16000 181.156
50.17000 184.895
50.18000 187.616
50.19000 188.275
50.20000 188.874
50.21000 189.222
50.22000 187.075
50.23000 185.561
50.24000 185.382
50.25000 186.393
50.26000 187.421
50.27000 189.517
50.28000 192.247
50.29000 194.889
50.30000 199.859
50.31000 205.443
50.32000 210.728
50.33000 212.737
50.34000 213.848
50.35000 215.486
50.36000 220.572
50.37000 226.285
50.38000 231.000
50.39000 228.673
50.40000 226.102
50.41000 225.158
50.42000 228.879
50.43000 232.891
50.44000 235.554
50.45000 235.579
50.46000 235.534
50.47000 235.509
50.48000 239.885
50.49000 242.948
50.50000 244.295
50.51000 244.173
50.52000 244.058
50.53000 244.303
50.54000 244.754
50.55000 245.189
50.56000 247.741
50.57000 250.920
50.58000 254.069
50.59000 256.911
50.60000 259.672
50.61000 260.879
50.62000 252.337
50.63000 242.097
50.64000 233.708
50.65000 241.064
50.66000 248.483
50.67000 254.440
50.68000 256.346
50.69000 258.016
50.70000 256.412
50.71000 248.622
50.72000 240.687
50.73000 236.242
50.74000 226.912
50.75000 220.442
50.76000 217.638
50.77000 217.852
50.78000 217.973
50.79000 213.610
50.80000 206.773
50.81000 200.195
50.82000 199.758
50.83000 201.515
50.84000 203.325
50.85000 205.650
50.86000 208.107
50.87000 208.788
50.88000 198.781
50.89000 186.985
50.90000 177.395
50.91000 181.630
50.92000 186.242
50.93000 188.575
50.94000 184.818
50.95000 180.729
50.96000 177.529
50.97000 175.949
50.98000 174.404
50.99000 173.553
51.00000 170.711
51.01000 168.748
51.02000 166.464
51.03000 163.924
51.04000 161.509
51.05000 164.446
51.06000 170.232
51.07000 175.783
51.08000 170.731
51.09000 162.412
51.10000 154.865
51.11000 154.558
51.12000 156.031
51.13000 157.045
51.14000 155.410
51.15000 153.349
51.16000 151.687
51.17000 151.281
51.18000 151.050
51.19000 151.055
51.20000 151.666
51.21000 152.307
51.22000 151.273
51.23000 147.289
51.24000 143.249
51.25000 141.065
51.26000 152.218
51.27000 159.837
51.28000 160.497
51.29000 155.846
51.30000 151.228
51.31000 147.890
51.32000 145.209
51.33000 142.645
51.34000 143.165
51.35000 144.656
51.36000 145.762
51.37000 143.432
51.38000 140.287
51.39000 138.578
51.40000 144.833
51.41000 152.313
51.42000 158.299
51.43000 148.837
51.44000 140.031
51.45000 135.494
51.46000 141.600
51.47000 148.209
51.48000 150.833
51.49000 146.690
51.50000 142.434
51.51000 140.176
51.52000 140.422
51.53000 140.589
51.54000 140.367
51.55000 139.858
51.56000 139.413
51.57000 141.220
51.58000 144.144
51.59000 146.932
51.60000 148.182
51.61000 148.858
51.62000 148.994
51.63000 144.534
51.64000 139.026
51.65000 134.523
51.66000 135.382
51.67000 137.032
51.68000 138.341
51.69000 144.122
51.70000 149.091
51.71000 151.950
51.72000 149.731
51.73000 147.290
51.74000 143.832
51.75000 138.711
51.76000 133.566
51.77000 130.887
51.78000 139.167
51.79000 144.744
51.80000 147.121
51.81000 147.231
51.82000 147.247
51.83000 144.234
51.84000 139.770
51.85000 135.529
51.86000 133.530
51.87000 132.361
51.88000 131.399
51.89000 132.123
51.90000 133.217
51.91000 134.924
51.92000 139.777
51.93000 145.073
51.94000 149.242
51.95000 146.225
51.96000 143.331
51.97000 140.817
51.98000 139.191
51.99000 137.600
52.00000 136.565
52.01000 136.408
52.02000 136.261
52.03000 136.186
52.04000 137.562
52.05000 138.483
52.06000 139.127
52.07000 139.580
52.08000 140.081
52.09000 141.950
52.10000 144.453
52.11000 146.823
52.12000 145.432
52.13000 143.061
52.14000 140.830
52.15000 139.688
52.16000 138.777
52.17000 137.895
52.18000 137.163
52.19000 136.452
52.20000 135.897
52.21000 139.348
52.22000 142.351
52.23000 144.538
52.24000 144.893
52.25000 145.180
52.26000 146.027
52.27000 147.730
52.28000 149.441
52.29000 150.297
52.30000 144.602
52.31000 140.813
52.32000 137.814
52.33000 135.335
52.34000 132.960
52.35000 133.386
52.36000 135.063
52.37000 136.644
52.38000 139.249
52.39000 141.923
52.40000 143.749
52.41000 139.282
52.42000 133.534
52.43000 129.257
52.44000 131.957
52.45000 135.560
52.46000 138.346
52.47000 138.572
52.48000 138.601
52.49000 139.451
52.50000 142.081
52.51000 144.771
52.52000 143.788
52.53000 137.407
52.54000 130.980
52.55000 131.113
52.56000 137.555
52.57000 143.919
52.58000 143.878
52.59000 139.775
52.60000 135.898
52.61000 137.641
52.62000 141.808
52.63000 145.724
52.64000 143.573
52.65000 139.982
52.66000 136.293
52.67000 131.912
52.68000 127.395
52.69000 124.714
52.70000 130.422
52.71000 137.165
52.72000 142.333
52.73000 136.414
52.74000 131.126
52.75000 128.876
52.76000 132.982
52.77000 137.289
52.78000 138.628
52.79000 135.764
52.80000 132.871
52.81000 132.595
52.82000 134.734
52.83000 136.881
52.84000 139.587
52.85000 142.635
52.86000 145.583
52.87000 146.256
52.88000 145.980
52.89000 145.722
52.90000 146.000
52.91000 146.391
52.92000 146.620
52.93000 145.744
52.94000 144.660
52.95000 144.190
52.96000 146.421
52.97000 148.971
52.98000 150.908
52.99000 149.629
53.00000 148.459
53.01000 148.514
53.02000 151.047
53.03000 153.651
53.04000 155.190
53.05000 155.273
53.06000 155.349
53.07000 154.815
53.08000 153.743
53.09000 152.691
53.10000 152.878
53.11000 153.795
53.12000 154.625
53.13000 153.595
53.14000 151.817
53.15000 150.159
53.16000 151.625
53.17000 153.726
53.18000 155.156
53.19000 152.209
53.20000 148.472
53.21000 145.966
53.22000 148.677
53.23000 151.974
53.24000 154.455
53.25000 151.929
53.26000 149.710
53.27000 148.321
53.28000 148.548
53.29000 148.817
53.30000 150.292
53.31000 153.352
53.32000 156.416
53.33000 156.237
53.34000 153.296
53.35000 150.360
53.36000 147.708
53.37000 145.219
53.38000 142.944
53.39000 144.910
53.40000 148.523
53.41000 151.879
53.42000 147.708
53.43000 142.156
53.44000 137.836
53.45000 141.218
53.46000 145.937
53.47000 148.976
53.48000 145.160
53.49000 140.610
53.50000 137.221
53.51000 135.452
53.52000 134.149
53.53000 135.817
53.54000 143.082
53.55000 150.478
53.56000 153.299
53.57000 150.331
53.58000 147.347
53.59000 145.069
53.60000 143.375
53.61000 141.739
53.62000 142.832
53.63000 145.426
53.64000 147.867
53.65000 147.495
53.66000 146.067
53.67000 144.747
53.68000 141.818
53.69000 138.821
53.70000 136.643
53.71000 139.384
53.72000 142.945
53.73000 146.006
53.74000 147.101
53.75000 147.996
53.76000 148.656
53.77000 144.086
53.78000 140.327
53.79000 138.008
53.80000 138.309
53.81000 138.665
53.82000 138.216
53.83000 136.788
53.84000 135.361
53.85000 135.889
53.86000 137.953
53.87000 140.011
53.88000 141.772
53.89000 143.376
53.90000 144.760
53.91000 142.352
53.92000 138.571
53.93000 135.089
53.94000 133.292
53.95000 132.055
53.96000 130.782
53.97000 129.306
53.98000 127.798
53.99000 126.733
54.00000 127.353
54.01000 128.136
54.02000 128.708
54.03000 132.849
54.04000 136.180
54.05000 137.963
54.06000 137.028
54.07000 136.043
54.08000 135.519
54.09000 135.533
54.10000 135.548
54.11000 135.289
54.12000 134.824
54.13000 134.360
54.14000 133.886
54.15000 133.408
54.16000 132.856
54.17000 131.123
54.18000 128.977
54.19000 127.010
54.20000 126.395
54.21000 126.131
54.22000 126.466
54.23000 130.107
54.24000 134.255
54.25000 137.892
54.26000 139.658
54.27000 141.253
54.28000 142.404
54.29000 140.681
54.30000 139.255
54.31000 137.368
54.32000 134.697
54.33000 132.014
54.34000 131.594
54.35000 133.725
54.36000 135.850
54.37000 137.730
54.38000 139.417
54.39000 141.055
54.40000 141.009
54.41000 140.131
54.42000 139.237
54.43000 138.109
54.44000 136.901
54.45000 135.800
54.46000 139.087
54.47000 142.887
54.48000 145.659
54.49000 142.962
54.50000 139.462
54.51000 136.924
54.52000 137.775
54.53000 138.923
54.54000 139.743
54.55000 137.571
54.56000 135.814
54.57000 136.257
54.58000 140.295
54.59000 144.383
54.60000 143.572
54.61000 137.459
54.62000 131.369
54.63000 129.036
54.64000 129.350
54.65000 129.778
54.66000 133.805
54.67000 139.550
54.68000 144.953
54.69000 145.463
54.70000 144.379
54.71000 143.395
54.72000 140.347
54.73000 137.258
54.74000 134.503
54.75000 133.461
54.76000 132.659
54.77000 132.857
54.78000 136.457
54.79000 140.337
54.80000 143.080
54.81000 141.180
54.82000 139.594
54.83000 139.749
54.84000 142.647
54.85000 145.578
54.86000 148.162
54.87000 150.386
54.88000 152.599
54.89000 148.511
54.90000 140.237
54.91000 132.237
54.92000 132.146
54.93000 135.704
54.94000 139.010
54.95000 138.928
54.96000 137.780
54.97000 136.743
54.98000 136.764
54.99000 136.978
55.00000 137.253
55.01000 137.827
55.02000 138.442
55.03000 139.772
55.04000 143.452
55.05000 147.317
55.06000 150.018
55.07000 149.844
55.08000 149.631
55.09000 149.193
55.10000 148.411
55.11000 147.626
55.12000 148.355
55.13000 150.596
55.14000 152.822
55.15000 154.839
55.16000 156.691
55.17000 158.497
55.18000 159.050
55.19000 159.046
55.20000 159.020
55.21000 158.726
55.22000 158.350
55.23000 158.012
55.24000 164.068
55.25000 170.506
55.26000 176.047
55.27000 177.347
55.28000 178.101
55.29000 180.360
55.30000 187.388
55.31000 194.768
55.32000 199.867
55.33000 207.327
55.34000 212.997
55.35000 217.222
55.36000 219.333
55.37000 221.427
55.38000 226.977
55.39000 235.841
55.40000 244.637
55.41000 246.991
55.42000 245.297
55.43000 243.978
55.44000 251.875
55.45000 263.736
55.46000 275.154
55.47000 281.253
55.48000 285.794
55.49000 289.854
55.50000 305.524
55.51000 321.161
55.52000 335.215
55.53000 342.069
55.54000 348.037
55.55000 353.442
55.56000 357.124
55.57000 360.686
55.58000 363.118
55.59000 381.818
55.60000 396.184
55.61000 407.644
55.62000 415.003
55.63000 422.333
55.64000 429.127
55.65000 435.427
55.66000 441.671
55.67000 442.614
55.68000 440.368
55.69000 438.518
55.70000 445.666
55.71000 456.551
55.72000 466.706
55.73000 468.538
55.74000 468.017
55.75000 467.554
55.76000 477.435
55.77000 487.696
55.78000 495.710
55.79000 493.876
55.80000 490.886
55.81000 487.501
55.82000 482.946
55.83000 478.315
55.84000 475.192
55.85000 478.079
55.86000 480.355
55.87000 481.672
55.88000 481.687
55.89000 481.691
55.90000 477.422
55.91000 469.373
55.92000 461.407
55.93000 448.275
55.94000 432.457
55.95000 417.350
55.96000 417.243
55.97000 423.151
55.98000 427.911
55.99000 420.243
56.00000 409.189
56.01000 399.410
56.02000 386.517
56.03000 374.888
56.04000 364.197
56.05000 357.465
56.06000 351.176
56.07000 343.130
56.08000 330.075
56.09000 316.712
56.10000 307.811
56.11000 307.911
56.12000 308.157
56.13000 302.613
56.14000 289.485
56.15000 276.327
56.16000 265.596
56.17000 256.928
56.18000 248.363
56.19000 242.442
56.20000 238.131
56.21000 233.784
56.22000 228.720
56.23000 223.378
56.24000 218.151
56.25000 214.103
56.26000 210.365
56.27000 207.077
56.28000 201.589
56.29000 196.539
56.30000 192.098
56.31000 190.136
56.32000 188.440
56.33000 185.955
56.34000 181.305
56.35000 176.529
56.36000 173.388
56.37000 175.575
56.38000 177.275
56.39000 176.438
56.40000 172.400
56.41000 168.355
56.42000 165.874
56.43000 164.673
56.44000 163.489
56.45000 162.937
56.46000 162.737
56.47000 162.361
56.48000 158.766
56.49000 153.966
56.50000 149.584
56.51000 149.293
56.52000 150.038
56.53000 150.689
56.54000 145.469
56.55000 140.160
56.56000 136.635
56.57000 140.103
56.58000 144.281
56.59000 147.511
56.60000 148.222
56.61000 148.797
56.62000 149.170
56.63000 150.038
56.64000 150.681
56.65000 149.496
56.66000 146.092
56.67000 142.691
56.68000 141.891
56.69000 143.138
56.70000 144.366
56.71000 142.455
56.72000 138.991
56.73000 135.691
56.74000 135.220
56.75000 135.771
56.76000 136.095
56.77000 134.308
56.78000 132.005
56.79000 130.004
56.80000 130.876
56.81000 132.011
56.82000 132.265
56.83000 129.191
56.84000 125.795
56.85000 124.309
56.86000 127.721
56.87000 131.380
56.88000 133.724
56.89000 134.691
56.90000 135.377
56.91000 134.936
56.92000 133.181
56.93000 131.431
56.94000 131.336
56.95000 132.497
56.96000 133.638
56.97000 131.470
56.98000 127.741
56.99000 124.099
57.00000 121.855
57.01000 120.097
57.02000 118.461
57.03000 117.895
57.04000 117.580
57.05000 117.309
57.06000 122.224
57.07000 127.071
57.08000 131.255
57.09000 133.021
57.10000 134.566
57.11000 135.622
57.12000 135.465
57.13000 135.252
57.14000 135.117
57.15000 136.461
57.16000 137.451
57.17000 137.509
57.18000 136.519
57.19000 135.534
57.20000 135.631
57.21000 136.518
57.22000 137.388
57.23000 133.037
57.24000 126.363
57.25000 120.205
57.26000 121.843
57.27000 126.105
57.28000 129.939
57.29000 130.151
57.30000 129.542
57.31000 129.019
57.32000 130.457
57.33000 131.916
57.34000 131.746
57.35000 125.853
57.36000 119.461
57.37000 114.891
57.38000 114.677
57.39000 114.653
57.40000 114.638
57.41000 121.542
57.42000 126.588
57.43000 126.823
57.44000 121.870
57.45000 116.937
57.46000 114.904
57.47000 114.912
57.48000 114.920
57.49000 118.570
57.50000 123.742
57.51000 128.736
57.52000 131.194
57.53000 132.828
57.54000 134.190
57.55000 133.362
57.56000 132.057
57.57000 130.943
57.58000 132.053
57.59000 133.249
57.60000 133.316
57.61000 129.555
57.62000 125.479
57.63000 122.298
57.64000 121.184
57.65000 120.154
57.66000 119.522
57.67000 116.808
57.68000 114.845
57.69000 113.640
57.70000 113.222
57.71000 112.806
57.72000 112.632
57.73000 112.622
57.74000 112.612
57.75000 114.908
57.76000 118.121
57.77000 121.187
57.78000 122.281
57.79000 122.756
57.80000 123.407
57.81000 125.409
57.82000 127.695
57.83000 129.633
57.84000 124.816
57.85000 120.022
57.86000 117.055
57.87000 120.073
57.88000 123.557
57.89000 125.177
57.90000 122.637
57.91000 119.943
57.92000 118.314
57.93000 117.625
57.94000 117.141
57.95000 117.456
57.96000 118.567
57.97000 119.692
57.98000 122.189
57.99000 125.584
58.00000 128.893
58.01000 128.646
58.02000 126.904
58.03000 125.235
58.04000 124.480
58.05000 124.001
58.06000 123.088
58.07000 118.977
58.08000 114.219
58.09000 110.214
58.10000 111.093
58.11000 112.348
58.12000 114.508
58.13000 119.524
58.14000 124.749
58.15000 127.715
58.16000 125.811
58.17000 123.741
58.18000 122.509
58.19000 121.745
58.20000 121.208
58.21000 119.866
58.22000 117.757
58.23000 115.678
58.24000 116.057
58.25000 117.984
58.26000 119.858
58.27000 119.531
58.28000 118.321
58.29000 117.239
58.30000 117.678
58.31000 118.561
58.32000 119.301
58.33000 119.039
58.34000 118.581
58.35000 118.199
58.36000 116.324
58.37000 114.615
58.38000 113.389
58.39000 113.635
58.40000 113.983
58.41000 114.136
58.42000 113.882
58.43000 113.615
58.44000 113.459
58.45000 119.593
58.46000 123.943
58.47000 124.312
58.48000 121.028
58.49000 117.772
58.50000 116.396
58.51000 116.163
58.52000 115.937
58.53000 115.169
58.54000 114.228
58.55000 113.398
58.56000 113.831
58.57000 114.619
58.58000 115.306
58.59000 115.309
58.60000 115.184
58.61000 115.080
58.62000 117.883
58.63000 120.480
58.64000 122.914
58.65000 124.867
58.66000 126.788
58.67000 126.758
58.68000 122.805
58.69000 118.741
58.70000 116.397
58.71000 115.911
58.72000 115.577
58.73000 114.904
58.74000 113.933
58.75000 113.022
58.76000 115.765
58.77000 120.652
58.78000 125.377
58.79000 124.085
58.80000 120.593
58.81000 117.515
58.82000 118.901
58.83000 121.499
58.84000 123.850
58.85000 124.595
58.86000 125.053
58.87000 125.429
58.88000 119.467
58.89000 113.980
58.90000 110.578
58.91000 113.105
58.92000 115.994
58.93000 117.098
58.94000 114.737
58.95000 112.289
58.96000 110.900
58.97000 114.496
58.98000 117.013
58.99000 118.400
59.00000 118.828
59.01000 119.178
59.02000 115.372
59.03000 109.213
59.04000 103.273
59.05000 105.402
59.06000 110.336
59.07000 114.833
59.08000 114.849
59.09000 113.691
59.10000 113.214
59.11000 116.961
59.12000 121.435
59.13000 125.095
59.14000 123.841
59.15000 122.388
59.16000 121.072
59.17000 120.135
59.18000 119.219
59.19000 117.255
59.20000 113.327
59.21000 109.355
59.22000 107.139
59.23000 111.728
59.24000 114.912
59.25000 115.199
59.26000 113.123
59.27000 111.121
59.28000 112.517
59.29000 115.772
59.30000 118.901
59.31000 118.938
59.32000 117.890
59.33000 116.823
59.34000 115.564
59.35000 114.255
59.36000 113.261
59.37000 114.139
59.38000 115.327
59.39000 116.291
59.40000 115.188
59.41000 114.119
59.42000 113.547
59.43000 114.294
59.44000 115.112
59.45000 115.996
59.46000 117.000
59.47000 118.006
59.48000 118.558
59.49000 112.944
59.50000 109.083
59.51000 107.901
59.52000 108.823
59.53000 109.703
59.54000 108.852
59.55000 107.088
59.56000 105.397
59.57000 107.624
59.58000 111.020
59.59000 114.195
59.60000 115.324
59.61000 115.955
59.62000 116.050
59.63000 113.084
59.64000 109.631
59.65000 106.851
59.66000 113.585
59.67000 119.790
59.68000 123.184
59.69000 119.385
59.70000 115.225
59.71000 112.238
59.72000 111.295
59.73000 110.389
59.74000 109.902
59.75000 113.688
59.76000 116.260
59.77000 114.759
59.78000 110.179
59.79000 105.784
59.80000 108.359
59.81000 114.483
59.82000 120.337
59.83000 125.108
59.84000 129.195
59.85000 132.645
59.86000 130.464
59.87000 126.963
59.88000 123.551
59.89000 120.624
59.90000 117.771
59.91000 115.493
59.92000 117.673
59.93000 119.763
59.94000 120.779
59.95000 119.142
59.96000 117.382
59.97000 117.231
59.98000 119.788
59.99000 122.389
60.00000 123.762
60.01000 119.987
60.02000 117.434
60.03000 117.074
60.04000 118.311
60.05000 119.536
60.06000 120.350
60.07000 120.962
60.08000 121.546
60.09000 121.494
60.10000 121.249
60.11000 120.906
60.12000 119.747
60.13000 118.404
60.14000 117.800
60.15000 121.104
60.16000 124.978
60.17000 128.046
60.18000 121.965
60.19000 116.440
60.20000 113.748
60.21000 117.814
60.22000 122.172
60.23000 123.496
60.24000 119.894
60.25000 116.224
60.26000 114.322
60.27000 107.184
60.28000 102.415
60.29000 104.102
60.30000 110.318
60.31000 116.464
60.32000 120.447
60.33000 123.403
60.34000 126.209
60.35000 126.017
60.36000 124.943
60.37000 124.079
60.38000 124.907
60.39000 126.102
60.40000 126.263
60.41000 121.172
60.42000 115.348
60.43000 110.774
60.44000 110.555
60.45000 110.666
60.46000 110.490
60.47000 109.657
60.48000 108.798
60.49000 109.629
60.50000 113.106
60.51000 116.614
60.52000 118.397
60.53000 120.767
60.54000 122.323
60.55000 120.311
60.56000 115.888
60.57000 111.565
60.58000 110.129
60.59000 110.016
60.60000 109.909
60.61000 111.642
60.62000 113.764
60.63000 115.401
60.64000 113.313
60.65000 110.445
60.66000 108.442
60.67000 110.664
60.68000 113.451
60.69000 115.620
60.70000 116.389
60.71000 116.914
60.72000 117.375
60.73000 117.690
60.74000 118.001
60.75000 118.659
60.76000 119.841
60.77000 121.029
60.78000 122.171
60.79000 123.268
60.80000 124.367
60.81000 125.632
60.82000 127.004
60.83000 128.311
60.84000 127.878
60.85000 126.674
60.86000 125.540
60.87000 121.509
60.88000 117.019
60.89000 113.008
60.90000 112.528
60.91000 112.758
60.92000 113.541
60.93000 116.917
60.94000 120.626
60.95000 123.487
60.96000 118.462
60.97000 114.022
60.98000 111.496
60.99000 113.085
61.00000 114.813
61.01000 116.110
61.02000 116.779
61.03000 117.444
61.04000 116.930
61.05000 115.296
61.06000 113.696
61.07000 114.787
61.08000 117.569
61.09000 120.165
61.10000 118.265
61.11000 114.443
61.12000 110.854
61.13000 114.132
61.14000 118.946
61.15000 123.498
61.16000 126.215
61.17000 128.577
61.18000 131.170
61.19000 134.804
61.20000 138.566
61.21000 141.443
61.22000 138.629
61.23000 136.101
61.24000 133.548
61.25000 130.947
61.26000 128.345
61.27000 125.787
61.28000 123.294
61.29000 120.801
61.30000 119.335
61.31000 118.809
61.32000 118.350
61.33000 122.387
61.34000 129.152
61.35000 135.572
61.36000 134.263
61.37000 129.764
61.38000 125.555
61.39000 121.709
61.40000 118.308
61.41000 116.299
61.42000 123.656
61.43000 132.759
61.44000 140.876
61.45000 144.706
61.46000 148.037
61.47000 150.560
61.48000 154.187
61.49000 157.091
61.50000 163.321
61.51000 176.216
61.52000 189.297
61.53000 204.983
61.54000 224.188
61.55000 243.403
61.56000 262.070
61.57000 280.230
61.58000 298.332
61.59000 313.071
61.60000 325.843
61.61000 338.457
61.62000 347.800
61.63000 355.838
61.64000 363.327
61.65000 377.501
61.66000 391.961
61.67000 405.037
61.68000 409.189
61.69000 411.744
61.70000 411.771
61.71000 401.187
61.72000 389.424
61.73000 380.598
61.74000 370.144
61.75000 361.900
61.76000 349.752
61.77000 330.055
61.78000 310.167
61.79000 287.010
61.80000 259.600
61.81000 232.197
61.82000 216.410
61.83000 210.456
61.84000 204.407
61.85000 193.431
61.86000 179.674
61.87000 166.154
61.88000 157.235
61.89000 150.087
61.90000 143.456
61.91000 143.572
61.92000 145.265
61.93000 146.660
61.94000 146.218
61.95000 145.460
61.96000 144.065
61.97000 140.090
61.98000 135.843
61.99000 132.687
62.00000 136.268
62.01000 139.350
62.02000 140.713
62.03000 138.866
62.04000 136.945
62.05000 136.267
62.06000 137.144
62.07000 138.025
62.08000 137.667
62.09000 136.306
62.10000 135.013
62.11000 136.826
62.12000 140.332
62.13000 143.705
62.14000 144.654
62.15000 144.703
62.16000 144.747
62.17000 140.970
62.18000 136.718
62.19000 133.332
62.20000 135.092
62.21000 137.699
62.22000 139.656
62.23000 139.074
62.24000 138.237
62.25000 137.621
62.26000 132.453
62.27000 128.266
62.28000 126.982
62.29000 130.928
62.30000 134.981
62.31000 136.242
62.32000 134.136
62.33000 132.028
62.34000 130.627
62.35000 129.782
62.36000 129.009
62.37000 131.191
62.38000 134.929
62.39000 138.269
62.40000 134.875
62.41000 129.062
62.42000 123.716
62.43000 127.140
62.44000 132.100
62.45000 135.964
62.46000 133.583
62.47000 130.215
62.48000 127.644
62.49000 128.074
62.50000 128.791
62.51000 129.312
62.52000 130.443
62.53000 131.337
62.54000 132.712
62.55000 134.923
62.56000 137.148
62.57000 135.905
62.58000 130.640
62.59000 125.384
62.60000 124.048
62.61000 125.655
62.62000 127.278
62.63000 129.479
62.64000 131.975
62.65000 134.357
62.66000 134.926
62.67000 134.866
62.68000 134.812
62.69000 132.834
62.70000 130.674
62.71000 128.823
62.72000 128.670
62.73000 128.774
62.74000 128.747
62.75000 128.248
62.76000 127.706
62.77000 127.316
62.78000 131.690
62.79000 135.210
62.80000 136.459
62.81000 133.897
62.82000 131.275
62.83000 130.245
62.84000 130.990
62.85000 131.733
62.86000 130.801
62.87000 128.671
62.88000 126.619
62.89000 127.210
62.90000 129.098
62.91000 130.883
62.92000 131.146
62.93000 130.899
62.94000 130.674
62.95000 132.757
62.96000 135.062
62.97000 136.786
62.98000 135.451
62.99000 133.672
63.00000 133.114
63.01000 136.827
63.02000 140.908
63.03000 143.816
63.04000 139.312
63.05000 135.636
63.06000 133.538
63.07000 133.994
63.08000 134.486
63.09000 136.728
63.10000 140.847
63.11000 144.948
63.12000 144.497
63.13000 140.900
63.14000 137.344
63.15000 135.032
63.16000 133.309
63.17000 131.718
63.18000 131.989
63.19000 132.861
63.20000 133.653
63.21000 135.952
63.22000 138.269
63.23000 140.277
63.24000 140.722
63.25000 140.951
63.26000 140.580
63.27000 138.191
63.28000 135.637
63.29000 133.837
63.30000 136.277
63.31000 138.254
63.32000 137.697
63.33000 133.181
63.34000 128.618
63.35000 129.039
63.36000 134.588
63.37000 140.107
63.38000 145.639
63.39000 151.108
63.40000 156.403
63.41000 156.735
63.42000 154.800
63.43000 152.805
63.44000 150.021
63.45000 146.990
63.46000 144.255
63.47000 146.689
63.48000 149.775
63.49000 151.744
63.50000 148.275
63.51000 144.082
63.52000 141.127
63.53000 142.201
63.54000 143.585
63.55000 144.550
63.56000 141.184
63.57000 138.525
63.58000 138.218
63.59000 141.452
63.60000 144.721
63.61000 145.652
63.62000 144.274
63.63000 142.904
63.64000 140.695
63.65000 137.981
63.66000 135.566
63.67000 140.936
63.68000 149.742
63.69000 157.675
63.70000 154.652
63.71000 148.333
63.72000 142.659
63.73000 142.187
63.74000 142.688
63.75000 143.704
63.76000 147.138
63.77000 150.878
63.78000 154.143
63.79000 155.909
63.80000 157.567
63.81000 158.709
63.82000 158.304
63.83000 157.961
63.84000 154.910
63.85000 147.928
63.86000 140.915
63.87000 138.127
63.88000 139.348
63.89000 140.559
63.90000 143.800
63.91000 148.236
63.92000 152.549
63.93000 153.912
63.94000 154.019
63.95000 154.045
63.96000 153.129
63.97000 151.940
63.98000 150.878
63.99000 150.454
64.00000 150.193
64.01000 150.584
64.02000 153.922
64.03000 157.617
64.04000 159.460
64.05000 155.691
64.06000 151.537
64.07000 148.709
64.08000 151.261
64.09000 153.289
64.10000 153.123
64.11000 149.890
64.12000 146.638
64.13000 147.233
64.14000 151.335
64.15000 155.399
64.16000 157.340
64.17000 157.984
64.18000 158.641
64.19000 159.578
64.20000 160.630
64.21000 161.484
64.22000 160.100
64.23000 158.090
64.24000 156.304
64.25000 158.740
64.26000 161.530
64.27000 163.986
64.28000 164.988
64.29000 165.820
64.30000 164.997
64.31000 159.332
64.32000 153.354
64.33000 149.334
64.34000 155.853
64.35000 160.914
64.36000 165.694
64.37000 170.094
64.38000 174.489
64.39000 175.977
64.40000 174.920
64.41000 173.873
64.42000 172.402
64.43000 170.722
64.44000 169.126
64.45000 169.256
64.46000 170.073
64.47000 170.821
64.48000 170.823
64.49000 170.624
64.50000 170.448
64.51000 167.302
64.52000 164.128
64.53000 162.528
64.54000 167.516
64.55000 173.232
64.56000 177.018
64.57000 175.350
64.58000 173.351
64.59000 172.024
64.60000 174.929
64.61000 177.154
64.62000 178.512
64.63000 178.743
64.64000 178.968
64.65000 178.213
64.66000 176.632
64.67000 175.071
64.68000 179.180
64.69000 186.296
64.70000 193.232
64.71000 196.682
64.72000 198.794
64.73000 200.557
64.74000 198.778
64.75000 196.078
64.76000 193.706
64.77000 192.183
64.78000 190.999
64.79000 192.003
64.80000 201.828
64.81000 212.581
64.82000 220.060
64.83000 218.602
64.84000 216.637
64.85000 215.349
64.86000 208.356
64.87000 203.120
64.88000 204.377
64.89000 213.747
64.90000 223.130
64.91000 228.586
64.92000 230.859
64.93000 233.101
64.94000 236.974
64.95000 241.598
64.96000 246.224
64.97000 250.854
64.98000 255.486
64.99000 259.827
65.00000 261.360
65.01000 262.188
65.02000 262.911
65.03000 267.954
65.04000 272.877
65.05000 277.369
65.06000 280.182
65.07000 282.826
65.08000 286.270
65.09000 291.818
65.10000 297.478
65.11000 301.140
65.12000 316.556
65.13000 328.004
65.14000 335.987
65.15000 339.807
65.16000 343.616
65.17000 347.137
65.18000 350.431
65.19000 353.673
65.20000 357.754
65.21000 362.134
65.22000 366.537
65.23000 371.313
65.24000 376.223
65.25000 381.241
65.26000 387.251
65.27000 393.501
65.28000 398.926
65.29000 402.168
65.30000 404.637
65.31000 406.438
65.32000 405.731
65.33000 404.786
65.34000 405.498
65.35000 410.425
65.36000 415.560
65.37000 418.838
65.38000 437.274
65.39000 450.883
65.40000 458.028
65.41000 457.702
65.42000 457.361
65.43000 456.149
65.44000 454.281
65.45000 452.445
65.46000 456.125
65.47000 462.376
65.48000 468.628
65.49000 474.911
65.50000 481.203
65.51000 486.580
65.52000 483.944
65.53000 479.440
65.54000 475.555
65.55000 492.942
65.56000 510.420
65.57000 526.349
65.58000 536.682
65.59000 546.510
65.60000 561.922
65.61000 591.050
65.62000 620.809
65.63000 639.541
65.64000 685.588
65.65000 719.213
65.66000 774.097
65.67000 852.610
65.68000 931.346
65.69000 1042.900
65.70000 1178.202
65.71000 1310.864
65.72000 1506.526
65.73000 1724.570
65.74000 1939.717
65.75000 2111.785
65.76000 2269.480
65.77000 2424.208
65.78000 2554.157
65.79000 2678.545
65.80000 2785.175
65.81000 2834.277
65.82000 2868.710
65.83000 2900.865
65.84000 2925.076
65.85000 2948.607
65.86000 2964.785
65.87000 2963.518
65.88000 2961.509
65.89000 2960.261
65.90000 2868.442
65.91000 2801.487
65.92000 2711.656
65.93000 2597.394
65.94000 2482.777
65.95000 2323.439
65.96000 2132.914
65.97000 1946.506
65.98000 1764.143
65.99000 1590.963
66.00000 1419.012
66.01000 1264.273
66.02000 1115.077
66.03000 972.010
66.04000 877.823
66.05000 794.200
66.06000 722.979
66.07000 670.718
66.08000 628.989
66.09000 591.663
66.10000 569.141
66.11000 547.821
66.12000 529.231
66.13000 516.895
66.14000 504.806
66.15000 497.412
66.16000 494.741
66.17000 492.868
66.18000 491.274
66.19000 489.965
66.20000 488.691
66.21000 491.055
66.22000 495.865
66.23000 500.560
66.24000 522.779
66.25000 551.670
66.26000 579.923
66.27000 599.755
66.28000 616.969
66.29000 636.323
66.30000 671.987
66.31000 711.044
66.32000 744.088
66.33000 762.020
66.34000 775.352
66.35000 792.092
66.36000 819.890
66.37000 848.537
66.38000 864.453
66.39000 852.211
66.40000 838.948
66.41000 830.958
66.42000 860.300
66.43000 881.439
66.44000 880.897
66.45000 859.011
66.46000 837.161
66.47000 818.586
66.48000 802.135
66.49000 786.112
66.50000 754.258
66.51000 717.250
66.52000 680.460
66.53000 646.389
66.54000 613.134
66.55000 580.531
66.56000 552.686
66.57000 525.792
66.58000 503.193
66.59000 492.895
66.60000 485.614
66.61000 476.105
66.62000 459.621
66.63000 442.632
66.64000 432.193
66.65000 435.745
66.66000 439.762
66.67000 442.145
66.68000 441.520
66.69000 441.060
66.70000 434.031
66.71000 420.791
66.72000 407.762
66.73000 410.785
66.74000 423.839
66.75000 436.521
66.76000 441.339
66.77000 442.740
66.78000 443.241
66.79000 433.109
66.80000 419.898
66.81000 408.241
66.82000 407.420
66.83000 408.685
66.84000 409.740
66.85000 418.875
66.86000 427.263
66.87000 432.891
66.88000 430.177
66.89000 426.894
66.90000 428.446
66.91000 439.971
66.92000 451.798
66.93000 458.704
66.94000 438.228
66.95000 423.703
66.96000 419.028
66.97000 423.300
66.98000 427.566
66.99000 431.487
67.00000 435.200
67.01000 438.798
67.02000 443.065
67.03000 447.363
67.04000 451.187
67.05000 449.705
67.06000 446.740
67.07000 443.578
67.08000 439.092
67.09000 434.361
67.10000 430.441
67.11000 432.475
67.12000 434.722
67.13000 438.520
67.14000 446.844
67.15000 455.459
67.16000 464.573
67.17000 474.681
67.18000 484.817
67.19000 490.639
67.20000 464.630
67.21000 446.345
67.22000 445.984
67.23000 461.271
67.24000 476.336
67.25000 478.588
67.26000 473.388
67.27000 468.362
67.28000 469.339
67.29000 472.504
67.30000 475.665
67.31000 478.773
67.32000 481.866
67.33000 484.937
67.34000 487.864
67.35000 490.765
67.36000 493.151
67.37000 488.245
67.38000 483.553
67.39000 481.514
67.40000 486.948
67.41000 492.831
67.42000 496.621
67.43000 496.388
67.44000 496.055
67.45000 495.867
67.46000 499.418
67.47000 501.891
67.48000 501.155
67.49000 497.723
67.50000 494.437
67.51000 498.549
67.52000 506.813
67.53000 514.778
67.54000 520.701
67.55000 525.531
67.56000 529.163
67.57000 520.687
67.58000 509.067
67.59000 500.339
67.60000 509.382
67.61000 521.457
67.62000 531.312
67.63000 526.649
67.64000 521.588
67.65000 520.132
67.66000 528.480
67.67000 537.382
67.68000 543.220
67.69000 543.373
67.70000 543.400
67.71000 543.414
67.72000 557.011
67.73000 566.398
67.74000 562.918
67.75000 549.044
67.76000 535.445
67.77000 534.404
67.78000 540.165
67.79000 545.701
67.80000 552.502
67.81000 559.308
67.82000 565.072
67.83000 560.835
67.84000 554.094
67.85000 548.363
67.86000 548.581
67.87000 549.774
67.88000 550.740
67.89000 559.802
67.90000 567.838
67.91000 570.806
67.92000 560.463
67.93000 549.418
67.94000 548.648
67.95000 566.286
67.96000 584.290
67.97000 594.112
67.98000 585.861
67.99000 580.188
68.00000 579.228
68.01000 581.931
68.02000 584.772
68.03000 593.265
68.04000 604.712
68.05000 615.678
68.06000 618.408
68.07000 618.212
68.08000 618.215
68.09000 620.029
68.10000 622.281
68.11000 624.934
68.12000 629.863
68.13000 635.150
68.14000 639.398
68.15000 641.691
68.16000 643.399
68.17000 648.216
68.18000 660.918
68.19000 674.007
68.20000 680.756
68.21000 676.546
68.22000 672.141
68.23000 669.782
68.24000 669.870
68.25000 669.952
68.26000 673.913
68.27000 680.780
68.28000 687.422
68.29000 685.767
68.30000 679.925
68.31000 674.346
68.32000 678.993
68.33000 686.585
68.34000 694.506
68.35000 705.302
68.36000 716.766
68.37000 727.149
68.38000 731.651
68.39000 735.267
68.40000 738.149
68.41000 744.696
68.42000 750.244
68.43000 758.618
68.44000 773.915
68.45000 789.529
68.46000 800.292
68.47000 802.966
68.48000 805.516
68.49000 806.856
68.50000 831.874
68.51000 848.867
68.52000 869.043
68.53000 891.513
68.54000 914.009
68.55000 937.382
68.56000 961.182
68.57000 983.833
68.58000 1012.717
68.59000 1041.372
68.60000 1071.859
68.61000 1117.591
68.62000 1166.734
68.63000 1217.661
68.64000 1277.917
68.65000 1339.518
68.66000 1388.207
68.67000 1468.285
68.68000 1534.737
68.69000 1606.203
68.70000 1689.531
68.71000 1773.360
68.72000 1847.735
68.73000 1906.898
68.74000 1965.858
68.75000 1996.260
68.76000 2085.740
68.77000 2146.229
68.78000 2232.720
68.79000 2337.290
68.80000 2442.143
68.81000 2555.699
68.82000 2673.350
68.83000 2784.940
68.84000 3003.892
68.85000 3237.551
68.86000 3484.896
68.87000 3840.963
68.88000 4220.453
68.89000 4673.897
68.90000 5499.122
68.91000 6375.691
68.92000 7062.648
68.93000 9470.264
68.94000 11505.500
68.95000 14105.656
68.96000 17996.137
68.97000 21937.023
68.98000 26312.131
68.99000 31361.014
69.00000 36417.633
69.01000 38973.676
69.02000 45660.848
69.03000 50126.547
69.04000 53676.027
69.05000 56611.559
69.06000 59510.730
69.07000 61392.531
69.08000 62811.961
69.09000 64153.508
69.10000 65229.398
69.11000 66141.867
69.12000 67055.336
69.13000 67976.406
69.14000 68899.047
69.15000 69729.000
69.16000 70110.727
69.17000 70433.234
69.18000 70683.781
69.19000 68383.000
69.20000 66397.969
69.21000 64039.504
69.22000 60857.352
69.23000 57645.590
69.24000 54212.340
69.25000 50447.723
69.26000 46679.938
69.27000 43470.672
69.28000 40809.465
69.29000 38157.852
69.30000 36351.590
69.31000 35091.504
69.32000 33846.582
69.33000 32992.109
69.34000 32308.998
69.35000 31665.727
69.36000 30534.188
69.37000 29365.557
69.38000 28095.873
69.39000 26092.205
69.40000 23942.141
69.41000 21747.371
69.42000 19344.541
69.43000 16915.438
69.44000 15045.149
69.45000 12338.801
69.46000 10148.658
69.47000 8206.946
69.48000 6794.368
69.49000 5399.225
69.50000 4309.914
69.51000 3661.668
69.52000 3017.039
69.53000 2548.269
69.54000 2245.278
69.55000 1943.868
69.56000 1761.622
69.57000 1653.627
69.58000 1546.005
69.59000 1447.240
69.60000 1352.231
69.61000 1263.101
69.62000 1199.897
69.63000 1149.128
69.64000 1101.090
69.65000 1072.038
69.66000 1046.628
69.67000 1020.296
69.68000 989.833
69.69000 958.872
69.70000 935.251
69.71000 889.486
69.72000 852.246
69.73000 825.222
69.74000 819.210
69.75000 813.829
69.76000 798.228
69.77000 768.423
69.78000 738.535
69.79000 718.136
69.80000 706.336
69.81000 694.583
69.82000 685.808
69.83000 678.824
69.84000 671.967
69.85000 667.903
69.86000 664.983
69.87000 662.254
69.88000 639.216
69.89000 613.182
69.90000 590.017
69.91000 585.954
69.92000 585.413
69.93000 582.730
69.94000 570.803
69.95000 557.813
69.96000 547.995
69.97000 547.659
69.98000 547.870
69.99000 543.536
70.00000 530.177
