20.00000 492.407
20.01000 492.772
20.02000 493.189
20.03000 491.518
20.04000 481.636
20.05000 470.916
20.06000 463.010
20.07000 473.830
20.08000 482.999
20.09000 489.793
20.10000 492.267
20.11000 494.651
20.12000 493.483
20.13000 487.989
20.14000 482.496
20.15000 479.431
20.16000 478.291
20.17000 477.194
20.18000 477.928
20.19000 479.634
20.20000 480.932
20.21000 475.200
20.22000 466.922
20.23000 459.299
20.24000 464.541
20.25000 472.048
20.26000 477.833
20.27000 473.696
20.28000 467.972
20.29000 463.294
20.30000 462.582
20.31000 462.254
20.32000 462.015
20.33000 455.852
20.34000 450.869
20.35000 451.552
20.36000 462.174
20.37000 472.982
20.38000 473.052
20.39000 460.542
20.40000 448.045
20.41000 449.973
20.42000 462.795
20.43000 475.427
20.44000 480.753
20.45000 482.337
20.46000 483.817
20.47000 483.646
20.48000 482.897
20.49000 482.211
20.50000 473.338
20.51000 463.715
20.52000 455.955
20.53000 458.507
20.54000 462.639
20.55000 466.533
20.56000 469.553
20.57000 472.492
20.58000 474.615
20.59000 466.487
20.60000 459.882
20.61000 457.860
20.62000 463.598
20.63000 469.463
20.64000 471.827
20.65000 470.247
20.66000 468.669
20.67000 470.185
20.68000 473.937
20.69000 477.460
20.70000 472.997
20.71000 464.584
20.72000 456.871
20.73000 459.799
20.74000 466.320
20.75000 472.270
20.76000 474.977
20.77000 476.724
20.78000 477.337
20.79000 471.915
20.80000 465.607
20.81000 460.245
20.82000 458.218
20.83000 456.482
20.84000 455.242
20.85000 468.531
20.86000 479.159
20.87000 478.814
20.88000 460.546
20.89000 442.021
20.90000 437.143
20.91000 447.039
20.92000 456.898
20.93000 459.226
20.94000 456.265
20.95000 453.450
20.96000 455.247
20.97000 459.247
20.98000 463.071
20.99000 464.392
21.00000 464.897
21.01000 465.356
21.02000 465.856
21.03000 466.305
21.04000 466.985
21.05000 468.844
21.06000 470.869
21.07000 472.698
21.08000 473.861
21.09000 474.969
21.10000 475.752
21.11000 475.238
21.12000 474.809
21.13000 471.776
21.14000 464.644
21.15000 457.461
21.16000 456.669
21.17000 462.523
21.18000 468.347
21.19000 467.805
21.20000 462.990
21.21000 458.173
21.22000 453.331
21.23000 448.477
21.24000 444.369
21.25000 450.314
21.26000 459.421
21.27000 467.650
21.28000 468.053
21.29000 466.956
21.30000 464.734
21.31000 456.980
21.32000 448.480
21.33000 442.901
21.34000 446.912
21.35000 451.673
21.36000 455.001
21.37000 446.873
21.38000 440.410
21.39000 442.912
21.40000 459.039
21.41000 475.308
21.42000 478.929
21.43000 469.923
21.44000 460.974
21.45000 453.098
21.46000 446.030
21.47000 439.351
21.48000 443.051
21.49000 451.374
21.50000 459.215
21.51000 460.935
21.52000 460.796
21.53000 460.671
21.54000 456.548
21.55000 452.228
21.56000 449.052
21.57000 451.283
21.58000 454.210
21.59000 457.641
21.60000 462.670
21.61000 467.818
21.62000 471.375
21.63000 465.887
21.64000 461.529
21.65000 458.093
21.66000 456.009
21.67000 453.936
21.68000 452.873
21.69000 452.776
21.70000 452.680
21.71000 453.423
21.72000 454.675
21.73000 455.855
21.74000 455.259
21.75000 453.900
21.76000 452.949
21.77000 456.909
21.78000 462.309
21.79000 467.137
21.80000 469.741
21.81000 471.633
21.82000 474.616
21.83000 482.562
21.84000 491.119
21.85000 499.017
21.86000 504.901
21.87000 510.645
21.88000 514.567
21.89000 501.185
21.90000 490.771
21.91000 485.898
21.92000 488.845
21.93000 491.848
21.94000 494.102
21.95000 495.669
21.96000 497.221
21.97000 499.459
21.98000 502.064
21.99000 504.678
22.00000 507.504
22.01000 510.417
22.02000 513.156
22.03000 513.912
22.04000 514.107
22.05000 514.281
22.06000 512.287
22.07000 510.203
22.08000 508.203
22.09000 506.576
22.10000 504.993
22.11000 504.806
22.12000 508.742
22.13000 512.948
22.14000 515.786
22.15000 508.365
22.16000 502.626
22.17000 500.170
22.18000 502.180
22.19000 504.214
22.20000 505.314
22.21000 505.588
22.22000 505.859
22.23000 502.112
22.24000 496.134
22.25000 490.488
22.26000 491.844
22.27000 496.009
22.28000 499.865
22.29000 500.374
22.30000 499.971
22.31000 499.615
22.32000 491.911
22.33000 484.109
22.34000 477.197
22.35000 474.050
22.36000 471.325
22.37000 469.637
22.38000 470.908
22.39000 472.361
22.40000 473.329
22.41000 477.933
22.42000 481.410
22.43000 477.758
22.44000 464.764
22.45000 451.736
22.46000 442.854
22.47000 437.498
22.48000 432.206
22.49000 441.335
22.50000 458.231
22.51000 474.073
22.52000 469.202
22.53000 456.308
22.54000 444.306
22.55000 441.467
22.56000 441.037
22.57000 440.659
22.58000 444.598
22.59000 448.631
22.60000 450.665
22.61000 444.560
22.62000 437.588
22.63000 434.836
22.64000 443.704
22.65000 453.241
22.66000 459.515
22.67000 455.422
22.68000 452.232
22.69000 450.317
22.70000 450.009
22.71000 449.705
22.72000 448.663
22.73000 447.017
22.74000 445.392
22.75000 445.503
22.76000 446.535
22.77000 447.540
22.78000 448.041
22.79000 448.352
22.80000 448.333
22.81000 445.078
22.82000 441.002
22.83000 437.438
22.84000 436.804
22.85000 436.679
22.86000 437.541
22.87000 442.279
22.88000 447.410
22.89000 449.632
22.90000 444.121
22.91000 438.192
22.92000 434.343
22.93000 437.333
22.94000 439.628
22.95000 440.820
22.96000 440.674
22.97000 440.517
22.98000 437.900
22.99000 433.345
23.00000 428.859
23.01000 430.195
23.02000 434.476
23.03000 438.655
23.04000 441.071
23.05000 442.849
23.06000 443.896
23.07000 438.140
23.08000 430.724
23.09000 424.276
23.10000 427.803
23.11000 432.167
23.12000 435.550
23.13000 435.219
23.14000 434.531
23.15000 434.968
23.16000 438.295
23.17000 441.767
23.18000 443.992
23.19000 436.063
23.20000 430.151
23.21000 424.377
23.22000 418.765
23.23000 413.178
23.24000 413.073
23.25000 417.125
23.26000 421.108
23.27000 425.496
23.28000 429.938
23.29000 434.268
23.30000 436.788
23.31000 438.678
23.32000 439.847
23.33000 434.634
23.34000 427.919
23.35000 422.117
23.36000 427.017
23.37000 432.568
23.38000 436.741
23.39000 435.892
23.40000 434.583
23.41000 432.414
23.42000 428.113
23.43000 423.712
23.44000 420.932
23.45000 428.701
23.46000 434.453
23.47000 438.004
23.48000 439.084
23.49000 440.158
23.50000 440.731
23.51000 440.937
23.52000 441.140
23.53000 440.523
23.54000 439.539
23.55000 439.087
23.56000 446.671
23.57000 456.962
23.58000 465.396
23.59000 458.144
23.60000 447.337
23.61000 438.058
23.62000 438.270
23.63000 439.624
23.64000 440.485
23.65000 439.611
23.66000 438.587
23.67000 438.589
23.68000 441.045
23.69000 443.608
23.70000 445.204
23.71000 451.822
23.72000 456.642
23.73000 460.980
23.74000 464.800
23.75000 468.623
23.76000 472.844
23.77000 477.346
23.78000 481.754
23.79000 478.542
23.80000 471.971
23.81000 466.174
23.82000 471.398
23.83000 480.202
23.84000 488.762
23.85000 495.350
23.86000 501.507
23.87000 506.760
23.88000 498.985
23.89000 490.905
23.90000 486.370
23.91000 493.868
23.92000 502.357
23.93000 506.374
23.94000 500.055
23.95000 493.322
23.96000 489.188
23.97000 499.106
23.98000 506.335
23.99000 508.481
24.00000 505.359
24.01000 502.263
24.02000 502.083
24.03000 503.881
24.04000 505.638
24.05000 502.520
24.06000 497.389
24.07000 492.414
24.08000 489.525
24.09000 487.290
24.10000 484.941
24.11000 481.705
24.12000 478.284
24.13000 475.385
24.14000 475.070
24.15000 475.096
24.16000 474.236
24.17000 470.474
24.18000 466.487
24.19000 463.458
24.20000 462.570
24.21000 461.762
24.22000 461.273
24.23000 462.671
24.24000 463.681
24.25000 463.884
24.26000 463.284
24.27000 462.635
24.28000 457.381
24.29000 449.114
24.30000 441.058
24.31000 439.107
24.32000 439.832
24.33000 440.692
24.34000 443.256
24.35000 446.335
24.36000 448.685
24.37000 445.655
24.38000 441.538
24.39000 438.072
24.40000 430.068
24.41000 422.906
24.42000 417.590
24.43000 418.106
24.44000 419.051
24.45000 420.764
24.46000 424.129
24.47000 427.551
24.48000 429.589
24.49000 425.758
24.50000 423.009
24.51000 421.633
24.52000 421.568
24.53000 421.454
24.54000 417.474
24.55000 411.055
24.56000 404.814
24.57000 402.178
24.58000 401.141
24.59000 400.472
24.60000 404.202
24.61000 409.216
24.62000 413.937
24.63000 416.580
24.64000 418.820
24.65000 420.692
24.66000 420.474
24.67000 420.081
24.68000 419.338
24.69000 417.530
24.70000 415.648
24.71000 414.313
24.72000 414.117
24.73000 413.956
24.74000 413.861
24.75000 410.584
24.76000 408.260
24.77000 406.264
24.78000 404.569
24.79000 402.892
24.80000 402.480
24.81000 402.837
24.82000 403.183
24.83000 404.788
24.84000 406.804
24.85000 408.520
24.86000 406.841
24.87000 404.204
24.88000 402.142
24.89000 403.961
24.90000 406.506
24.91000 408.617
24.92000 405.036
24.93000 401.525
24.94000 398.191
24.95000 395.379
24.96000 392.600
24.97000 391.351
24.98000 393.176
24.99000 395.087
25.00000 396.190
25.01000 403.960
25.02000 409.425
25.03000 410.911
25.04000 408.888
25.05000 406.796
25.06000 400.601
25.07000 391.998
25.08000 383.679
25.09000 389.188
25.10000 399.610
25.11000 409.219
25.12000 410.060
25.13000 408.519
25.14000 407.758
25.15000 412.052
25.16000 417.254
25.17000 421.540
25.18000 416.921
25.19000 412.304
25.20000 406.170
25.21000 395.725
25.22000 385.017
25.23000 380.721
25.24000 388.868
25.25000 397.333
25.26000 402.135
25.27000 400.374
25.28000 399.132
25.29000 399.996
25.30000 402.647
25.31000 405.180
25.32000 401.510
25.33000 394.327
25.34000 387.400
25.35000 392.745
25.36000 402.232
25.37000 410.202
25.38000 402.665
25.39000 391.063
25.40000 381.047
25.41000 380.876
25.42000 382.402
25.43000 383.650
25.44000 392.530
25.45000 400.467
25.46000 404.696
25.47000 398.745
25.48000 392.211
25.49000 389.478
25.50000 393.864
25.51000 398.413
25.52000 400.950
25.53000 399.341
25.54000 398.220
25.55000 398.010
25.56000 398.544
25.57000 399.122
25.58000 401.742
25.59000 405.479
25.60000 409.072
25.61000 394.737
25.62000 375.038
25.63000 357.537
25.64000 361.419
25.65000 370.702
25.66000 379.302
25.67000 383.828
25.68000 387.679
25.69000 390.804
25.70000 395.283
25.71000 399.047
25.72000 400.491
25.73000 395.786
25.74000 390.753
25.75000 389.907
25.76000 396.631
25.77000 403.511
25.78000 407.282
25.79000 399.011
25.80000 393.324
25.81000 393.517
25.82000 398.328
25.83000 402.964
25.84000 400.283
25.85000 393.741
25.86000 387.470
25.87000 388.488
25.88000 391.889
25.89000 394.814
25.90000 393.338
25.91000 390.791
25.92000 388.680
25.93000 389.063
25.94000 389.843
25.95000 390.471
25.96000 386.973
25.97000 383.812
25.98000 383.492
25.99000 390.440
26.00000 397.751
26.01000 399.218
26.02000 390.490
26.03000 381.577
26.04000 376.779
26.05000 378.330
26.06000 379.411
26.07000 383.880
26.08000 390.910
26.09000 397.733
26.10000 396.748
26.11000 391.785
26.12000 387.042
26.13000 387.263
26.14000 389.074
26.15000 390.877
26.16000 392.612
26.17000 394.331
26.18000 394.059
26.19000 382.841
26.20000 369.957
26.21000 359.666
26.22000 371.168
26.23000 382.065
26.24000 387.848
26.25000 380.996
26.26000 373.556
26.27000 371.598
26.28000 378.866
26.29000 386.281
26.30000 390.199
26.31000 392.517
26.32000 394.052
26.33000 389.276
26.34000 379.903
26.35000 370.812
26.36000 371.377
26.37000 376.692
26.38000 381.755
26.39000 380.167
26.40000 376.627
26.41000 373.525
26.42000 374.107
26.43000 375.520
26.44000 377.413
26.45000 381.840
26.46000 386.636
26.47000 390.436
26.48000 387.495
26.49000 384.662
26.50000 383.078
26.51000 384.474
26.52000 385.999
26.53000 385.242
26.54000 380.780
26.55000 376.267
26.56000 373.928
26.57000 376.874
26.58000 378.819
26.59000 374.848
26.60000 366.725
26.61000 358.901
26.62000 360.449
26.63000 366.445
26.64000 372.138
26.65000 378.553
26.66000 384.690
26.67000 390.349
26.68000 392.167
26.69000 393.149
26.70000 393.170
26.71000 388.310
26.72000 382.770
26.73000 378.418
26.74000 388.047
26.75000 396.669
26.76000 399.326
26.77000 388.237
26.78000 376.600
26.79000 369.780
26.80000 370.504
26.81000 371.319
26.82000 371.733
26.83000 379.537
26.84000 384.746
26.85000 387.523
26.86000 388.654
26.87000 389.609
26.88000 385.494
26.89000 379.055
26.90000 372.964
26.91000 372.871
26.92000 374.511
26.93000 375.376
26.94000 370.288
26.95000 363.953
26.96000 359.305
26.97000 362.895
26.98000 367.586
26.99000 371.239
27.00000 369.764
27.01000 368.274
27.02000 368.557
27.03000 372.787
27.04000 377.162
27.05000 376.530
27.06000 368.337
27.07000 360.068
27.08000 361.002
27.09000 371.062
27.10000 380.979
27.11000 377.840
27.12000 366.187
27.13000 355.041
27.14000 357.242
27.15000 365.353
27.16000 372.998
27.17000 375.972
27.18000 377.405
27.19000 378.007
27.20000 372.506
27.21000 365.775
27.22000 361.219
27.23000 366.886
27.24000 373.860
27.25000 379.242
27.26000 380.752
27.27000 381.725
27.28000 380.604
27.29000 374.984
27.30000 369.212
27.31000 368.874
27.32000 376.449
27.33000 384.089
27.34000 384.086
27.35000 376.807
27.36000 369.585
27.37000 366.794
27.38000 366.789
27.39000 366.930
27.40000 370.642
27.41000 375.879
27.42000 380.797
27.43000 381.024
27.44000 379.984
27.45000 377.819
27.46000 367.742
27.47000 356.131
27.48000 347.835
27.49000 354.537
27.50000 363.069
27.51000 369.593
27.52000 370.954
27.53000 371.746
27.54000 371.263
27.55000 368.134
27.56000 364.924
27.57000 361.159
27.58000 356.617
27.59000 352.071
27.60000 351.328
27.61000 354.059
27.62000 356.749
27.63000 356.690
27.64000 354.963
27.65000 353.444
27.66000 356.596
27.67000 361.676
27.68000 366.429
27.69000 370.756
27.70000 374.578
27.71000 377.504
27.72000 374.393
27.73000 370.158
27.74000 366.935
27.75000 368.123
27.76000 369.825
27.77000 371.114
27.78000 374.964
27.79000 378.117
27.80000 377.606
27.81000 369.755
27.82000 361.698
27.83000 356.459
27.84000 355.028
27.85000 353.618
27.86000 354.272
27.87000 356.734
27.88000 359.133
27.89000 357.775
27.90000 354.218
27.91000 351.001
27.92000 354.850
27.93000 361.518
27.94000 367.730
27.95000 364.314
27.96000 358.864
27.97000 354.873
27.98000 360.299
27.99000 367.411
28.00000 373.370
28.01000 374.492
28.02000 375.076
28.03000 375.515
28.04000 372.122
28.05000 369.289
28.06000 366.201
28.07000 362.619
28.08000 359.024
28.09000 356.969
28.10000 356.920
28.11000 356.879
28.12000 356.350
28.13000 355.411
28.14000 354.484
28.15000 354.191
28.16000 354.257
28.17000 354.586
28.18000 360.044
28.19000 367.477
28.20000 374.373
28.21000 373.983
28.22000 371.917
28.23000 369.652
28.24000 366.147
28.25000 362.429
28.26000 359.451
28.27000 359.467
28.28000 359.799
28.29000 360.046
28.30000 361.433
28.31000 362.562
28.32000 365.073
28.33000 370.164
28.34000 375.315
28.35000 374.470
28.36000 366.113
28.37000 357.744
28.38000 356.364
28.39000 360.652
28.40000 364.827
28.41000 363.788
28.42000 359.908
28.43000 356.124
28.44000 354.092
28.45000 352.711
28.46000 351.436
28.47000 355.683
28.48000 360.741
28.49000 365.010
28.50000 364.590
28.51000 363.397
28.52000 361.055
28.53000 354.231
28.54000 346.957
28.55000 341.605
28.56000 343.825
28.57000 345.855
28.58000 348.682
28.59000 352.945
28.60000 357.238
28.61000 357.308
28.62000 352.285
28.63000 347.262
28.64000 347.302
28.65000 351.284
28.66000 355.100
28.67000 352.057
28.68000 345.405
28.69000 338.984
28.70000 336.484
28.71000 335.392
28.72000 334.387
28.73000 333.327
28.74000 332.367
28.75000 333.278
28.76000 344.857
28.77000 358.125
28.78000 367.314
28.79000 361.172
28.80000 353.563
28.81000 348.023
28.82000 355.921
28.83000 362.516
28.84000 363.617
28.85000 355.160
28.86000 346.532
28.87000 343.690
28.88000 347.562
28.89000 351.432
28.90000 351.124
28.91000 347.692
28.92000 344.409
28.93000 346.706
28.94000 351.838
28.95000 356.917
28.96000 361.166
28.97000 365.126
28.98000 368.752
28.99000 359.165
29.00000 347.885
29.01000 339.000
29.02000 343.224
29.03000 349.437
29.04000 354.142
29.05000 353.377
29.06000 352.116
29.07000 351.207
29.08000 352.340
29.09000 353.281
29.10000 353.190
29.11000 351.366
29.12000 349.516
29.13000 352.689
29.14000 361.466
29.15000 370.216
29.16000 368.518
29.17000 359.315
29.18000 350.228
29.19000 345.080
29.20000 341.864
29.21000 338.937
29.22000 340.343
29.23000 343.200
29.24000 345.803
29.25000 346.277
29.26000 346.272
29.27000 346.764
29.28000 349.865
29.29000 353.346
29.30000 357.117
29.31000 361.903
29.32000 366.776
29.33000 370.249
29.34000 356.473
29.35000 345.407
29.36000 339.200
29.37000 340.858
29.38000 342.623
29.39000 345.560
29.40000 349.751
29.41000 353.923
29.42000 351.301
29.43000 344.003
29.44000 336.980
29.45000 338.456
29.46000 343.957
29.47000 348.825
29.48000 344.777
29.49000 337.850
29.50000 331.567
29.51000 341.393
29.52000 353.142
29.53000 361.619
29.54000 353.532
29.55000 343.140
29.56000 334.836
29.57000 333.578
29.58000 332.893
29.59000 332.411
29.60000 346.351
29.61000 357.358
29.62000 362.106
29.63000 357.084
29.64000 351.946
29.65000 349.964
29.66000 351.229
29.67000 352.487
29.68000 355.044
29.69000 358.434
29.70000 361.725
29.71000 362.225
29.72000 361.448
29.73000 360.931
29.74000 363.853
29.75000 367.848
29.76000 371.452
29.77000 376.409
29.78000 381.012
29.79000 382.622
29.80000 369.663
29.81000 354.765
29.82000 344.712
29.83000 350.431
29.84000 357.365
29.85000 362.198
29.86000 369.618
29.87000 375.288
29.88000 378.257
29.89000 377.157
29.90000 376.017
29.91000 374.033
29.92000 371.215
29.93000 368.415
29.94000 368.714
29.95000 370.993
29.96000 373.034
29.97000 368.887
29.98000 362.008
29.99000 356.186
30.00000 363.637
30.01000 375.081
30.02000 385.357
30.03000 383.498
30.04000 379.742
30.05000 377.894
30.06000 384.990
30.07000 393.224
30.08000 396.861
30.09000 386.060
30.10000 374.209
30.11000 366.044
30.12000 375.076
30.13000 382.289
30.14000 384.174
30.15000 378.325
30.16000 372.413
30.17000 371.115
30.18000 374.193
30.19000 377.247
30.20000 371.065
30.21000 359.302
30.22000 348.230
30.23000 353.826
30.24000 366.529
30.25000 377.994
30.26000 374.772
30.27000 367.285
30.28000 360.599
30.29000 354.276
30.30000 348.829
30.31000 346.156
30.32000 355.990
30.33000 367.344
30.34000 374.641
30.35000 369.636
30.36000 363.788
30.37000 359.806
30.38000 366.680
30.39000 372.062
30.40000 374.877
30.41000 374.103
30.42000 373.304
30.43000 370.703
30.44000 366.460
30.45000 362.255
30.46000 360.814
30.47000 361.039
30.48000 361.444
30.49000 365.852
30.50000 371.907
30.51000 377.447
30.52000 377.181
30.53000 375.291
30.54000 373.611
30.55000 367.473
30.56000 361.433
30.57000 357.733
30.58000 364.199
30.59000 371.843
30.60000 377.980
30.61000 379.704
30.62000 381.142
30.63000 382.110
30.64000 375.757
30.65000 370.886
30.66000 368.221
30.67000 368.530
30.68000 368.859
30.69000 372.945
30.70000 380.321
30.71000 387.619
30.72000 390.474
30.73000 390.730
30.74000 390.668
30.75000 384.032
30.76000 374.780
30.77000 366.733
30.78000 371.551
30.79000 379.843
30.80000 387.169
30.81000 391.220
30.82000 394.213
30.83000 398.198
30.84000 406.326
30.85000 414.913
30.86000 419.159
30.87000 411.138
30.88000 402.373
30.89000 396.553
30.90000 397.519
30.91000 398.358
30.92000 404.023
30.93000 415.949
30.94000 427.895
30.95000 436.533
30.96000 442.383
30.97000 448.161
30.98000 450.549
30.99000 451.016
31.00000 452.150
31.01000 466.160
31.02000 485.114
31.03000 503.584
31.04000 517.139
31.05000 529.413
31.06000 540.195
31.07000 547.514
31.08000 553.295
31.09000 561.270
31.10000 578.089
31.11000 595.839
31.12000 613.267
31.13000 629.815
31.14000 646.314
31.15000 657.130
31.16000 698.197
31.17000 728.896
31.18000 754.961
31.19000 775.235
31.20000 795.497
31.21000 817.495
31.22000 840.902
31.23000 863.983
31.24000 896.032
31.25000 931.914
31.26000 967.224
31.27000 992.223
31.28000 1013.399
31.29000 1034.320
31.30000 1052.775
31.31000 1070.611
31.32000 1086.187
31.33000 1115.976
31.34000 1143.472
31.35000 1165.797
31.36000 1168.033
31.37000 1168.255
31.38000 1170.823
31.39000 1179.570
31.40000 1188.645
31.41000 1194.517
31.42000 1183.608
31.43000 1175.382
31.44000 1160.170
31.45000 1136.561
31.46000 1112.929
31.47000 1087.896
31.48000 1061.770
31.49000 1036.054
31.50000 1007.493
31.51000 978.375
31.52000 949.271
31.53000 920.402
31.54000 891.618
31.55000 862.562
31.56000 831.009
31.57000 798.852
31.58000 770.938
31.59000 743.583
31.60000 720.350
31.61000 697.514
31.62000 676.166
31.63000 654.959
31.64000 632.328
31.65000 606.073
31.66000 579.639
31.67000 562.765
31.68000 543.532
31.69000 529.510
31.70000 517.931
31.71000 509.176
31.72000 500.397
31.73000 485.929
31.74000 467.188
31.75000 448.775
31.76000 443.471
31.77000 444.761
31.78000 445.462
31.79000 436.862
31.80000 425.047
31.81000 413.815
31.82000 407.685
31.83000 402.746
31.84000 398.484
31.85000 398.775
31.86000 399.605
31.87000 399.713
31.88000 397.210
31.89000 394.471
31.90000 389.518
31.91000 379.126
31.92000 368.483
31.93000 361.783
31.94000 365.449
31.95000 368.219
31.96000 369.646
31.97000 369.582
31.98000 369.512
31.99000 368.855
32.00000 367.774
32.01000 366.713
32.02000 366.334
32.03000 366.289
32.04000 365.899
32.05000 360.389
32.06000 353.170
32.07000 346.848
32.08000 348.019
32.09000 350.871
32.10000 353.316
32.11000 346.294
32.12000 339.205
32.13000 334.831
32.14000 339.916
32.15000 345.813
32.16000 347.343
32.17000 338.515
32.18000 329.246
32.19000 323.493
32.20000 341.977
32.21000 355.514
32.22000 358.161
32.23000 349.173
32.24000 340.220
32.25000 336.130
32.26000 335.430
32.27000 334.746
32.28000 336.895
32.29000 340.242
32.30000 343.301
32.31000 342.326
32.32000 340.052
32.33000 337.404
32.34000 331.766
32.35000 325.483
32.36000 320.131
32.37000 325.848
32.38000 331.945
32.39000 338.753
32.40000 347.948
32.41000 357.338
32.42000 362.241
32.43000 356.863
32.44000 351.081
32.45000 347.545
32.46000 341.034
32.47000 336.349
32.48000 331.220
32.49000 325.633
32.50000 320.107
32.51000 320.921
32.52000 325.998
32.53000 330.954
32.54000 332.474
32.55000 332.428
32.56000 332.292
32.57000 330.966
32.58000 329.270
32.59000 327.848
32.60000 328.511
32.61000 329.607
32.62000 330.535
32.63000 326.034
32.64000 321.665
32.65000 318.993
32.66000 321.830
32.67000 325.091
32.68000 325.188
32.69000 318.287
32.70000 311.133
32.71000 306.823
32.72000 316.895
32.73000 324.162
32.74000 324.873
32.75000 319.128
32.76000 313.510
32.77000 319.250
32.78000 332.352
32.79000 345.113
32.80000 354.511
32.81000 362.058
32.82000 370.227
32.83000 386.162
32.84000 404.426
32.85000 422.018
32.86000 434.702
32.87000 446.403
32.88000 456.236
32.89000 478.039
32.90000 497.470
32.91000 514.772
32.92000 525.407
32.93000 535.560
32.94000 538.910
32.95000 527.724
32.96000 516.056
32.97000 509.134
32.98000 518.498
32.99000 525.217
33.00000 527.735
33.01000 526.281
33.02000 524.762
33.03000 518.346
33.04000 508.868
33.05000 499.661
33.06000 478.564
33.07000 453.723
33.08000 429.837
33.09000 417.233
33.10000 407.895
33.11000 397.728
33.12000 381.772
33.13000 364.702
33.14000 350.457
33.15000 342.381
33.16000 336.302
33.17000 329.394
33.18000 319.980
33.19000 310.395
33.20000 303.221
33.21000 301.022
33.22000 298.973
33.23000 297.777
33.24000 289.424
33.25000 283.519
33.26000 284.827
33.27000 292.688
33.28000 300.422
33.29000 299.835
33.30000 294.229
33.31000 288.797
33.32000 290.501
33.33000 294.888
33.34000 299.161
33.35000 302.163
33.36000 304.811
33.37000 306.702
33.38000 303.533
33.39000 299.428
33.40000 296.028
33.41000 292.282
33.42000 289.156
33.43000 287.229
33.44000 288.802
33.45000 290.600
33.46000 290.076
33.47000 284.925
33.48000 279.648
33.49000 276.616
33.50000 288.959
33.51000 297.640
33.52000 299.845
33.53000 296.396
33.54000 293.041
33.55000 295.148
33.56000 300.434
33.57000 305.542
33.58000 303.333
33.59000 298.514
33.60000 294.522
33.61000 299.324
33.62000 306.494
33.63000 311.974
33.64000 306.629
33.65000 299.360
33.66000 293.382
33.67000 291.788
33.68000 290.875
33.69000 291.552
33.70000 296.711
33.71000 302.139
33.72000 304.455
33.73000 300.785
33.74000 296.966
33.75000 294.808
33.76000 298.586
33.77000 301.227
33.78000 303.109
33.79000 304.353
33.80000 305.600
33.81000 307.013
33.82000 308.520
33.83000 309.972
33.84000 309.109
33.85000 307.464
33.86000 306.210
33.87000 308.902
33.88000 312.618
33.89000 314.915
33.90000 308.493
33.91000 300.582
33.92000 294.125
33.93000 300.332
33.94000 306.496
33.95000 311.106
33.96000 311.484
33.97000 311.624
33.98000 311.129
33.99000 309.455
34.00000 307.755
34.01000 306.811
34.02000 305.277
34.03000 304.227
34.04000 307.270
34.05000 313.620
34.06000 319.894
34.07000 322.713
34.08000 323.661
34.09000 324.571
34.10000 322.298
34.11000 319.068
34.12000 316.845
34.13000 324.296
34.14000 334.168
34.15000 343.031
34.16000 345.943
34.17000 347.880
34.18000 349.449
34.19000 346.734
34.20000 344.175
34.21000 340.023
34.22000 331.685
34.23000 323.126
34.24000 318.909
34.25000 322.471
34.26000 326.188
34.27000 328.216
34.28000 325.470
34.29000 323.584
34.30000 323.152
34.31000 323.851
34.32000 324.646
34.33000 329.345
34.34000 336.086
34.35000 342.544
34.36000 341.383
34.37000 337.763
34.38000 334.488
34.39000 334.364
34.40000 335.000
34.41000 335.794
34.42000 337.481
34.43000 339.310
34.44000 340.778
34.45000 335.210
34.46000 330.155
34.47000 325.836
34.48000 323.382
34.49000 321.021
34.50000 320.813
34.51000 324.330
34.52000 327.913
34.53000 329.833
34.54000 329.458
34.55000 329.202
34.56000 329.378
34.57000 329.876
34.58000 330.255
34.59000 326.266
34.60000 320.070
34.61000 314.153
34.62000 308.992
34.63000 304.437
34.64000 300.174
34.65000 298.450
34.66000 297.317
34.67000 296.517
34.68000 297.534
34.69000 298.825
34.70000 299.854
34.71000 293.378
34.72000 287.608
34.73000 283.886
34.74000 285.179
34.75000 286.701
34.76000 286.971
34.77000 285.154
34.78000 283.303
34.79000 282.331
34.80000 280.984
34.81000 280.074
34.82000 279.654
34.83000 279.587
34.84000 279.473
34.85000 277.819
34.86000 275.413
34.87000 273.124
34.88000 273.885
34.89000 275.529
34.90000 277.394
34.91000 281.102
34.92000 285.222
34.93000 287.558
34.94000 280.559
34.95000 272.214
34.96000 265.618
34.97000 271.771
34.98000 277.586
34.99000 280.357
35.00000 275.931
35.01000 271.200
35.02000 270.288
35.03000 275.522
35.04000 280.838
35.05000 283.579
35.06000 284.331
35.07000 284.792
35.08000 279.577
35.09000 270.414
35.10000 261.423
35.11000 257.651
35.12000 256.337
35.13000 255.091
35.14000 258.028
35.15000 261.975
35.16000 265.934
35.17000 269.984
35.18000 274.054
35.19000 277.553
35.20000 278.187
35.21000 278.424
35.22000 278.611
35.23000 274.330
35.24000 270.621
35.25000 266.655
35.26000 262.101
35.27000 257.524
35.28000 256.168
35.29000 259.809
35.30000 263.507
35.31000 265.376
35.32000 265.453
35.33000 265.488
35.34000 263.822
35.35000 261.015
35.36000 258.421
35.37000 261.767
35.38000 267.813
35.39000 273.528
35.40000 269.937
35.41000 263.991
35.42000 258.642
35.43000 257.836
35.44000 257.972
35.45000 258.505
35.46000 260.966
35.47000 263.680
35.48000 265.789
35.49000 261.512
35.50000 257.722
35.51000 257.704
35.52000 266.008
35.53000 274.611
35.54000 277.679
35.55000 272.463
35.56000 267.167
35.57000 262.989
35.58000 259.909
35.59000 256.885
35.60000 258.772
35.61000 263.831
35.62000 268.875
35.63000 273.521
35.64000 277.992
35.65000 282.202
35.66000 273.501
35.67000 262.010
35.68000 252.323
35.69000 255.749
35.70000 261.792
35.71000 266.785
35.72000 266.894
35.73000 266.387
35.74000 265.996
35.75000 266.705
35.76000 267.329
35.77000 265.333
35.78000 257.756
35.79000 249.994
35.80000 248.500
35.81000 256.047
35.82000 263.666
35.83000 265.307
35.84000 261.317
35.85000 257.400
35.86000 258.977
35.87000 263.977
35.88000 268.791
35.89000 269.146
35.90000 267.612
35.91000 266.172
35.92000 268.832
35.93000 272.334
35.94000 274.456
35.95000 266.981
35.96000 257.664
35.97000 250.128
35.98000 250.569
35.99000 251.972
36.00000 253.043
36.01000 252.726
36.02000 252.402
36.03000 251.402
36.04000 249.011
36.05000 246.579
36.06000 246.035
36.07000 248.115
36.08000 250.212
36.09000 249.404
36.10000 245.969
36.11000 242.593
36.12000 243.090
36.13000 245.914
36.14000 248.915
36.15000 255.797
36.16000 264.268
36.17000 272.184
36.18000 269.470
36.19000 264.322
36.20000 259.963
36.21000 260.861
36.22000 262.728
36.23000 263.302
36.24000 258.292
36.25000 252.638
36.26000 248.365
36.27000 253.570
36.28000 258.125
36.29000 261.142
36.30000 261.102
36.31000 260.978
36.32000 261.304
36.33000 262.232
36.34000 263.163
36.35000 260.955
36.36000 256.023
36.37000 251.171
36.38000 250.860
36.39000 253.184
36.40000 255.381
36.41000 254.968
36.42000 253.523
36.43000 252.179
36.44000 252.559
36.45000 253.321
36.46000 254.026
36.47000 254.366
36.48000 254.641
36.49000 255.393
36.50000 258.124
36.51000 261.072
36.52000 263.279
36.53000 254.052
36.54000 246.318
36.55000 242.208
36.56000 245.047
36.57000 248.058
36.58000 251.154
36.59000 254.361
36.60000 257.565
36.61000 259.179
36.62000 259.461
36.63000 259.677
36.64000 256.586
36.65000 251.644
36.66000 247.095
36.67000 250.040
36.68000 255.846
36.69000 261.227
36.70000 259.018
36.71000 255.261
36.72000 252.357
36.73000 254.674
36.74000 257.879
36.75000 260.461
36.76000 260.545
36.77000 260.367
36.78000 260.236
36.79000 256.185
36.80000 252.869
36.81000 252.849
36.82000 258.929
36.83000 265.143
36.84000 265.004
36.85000 256.978
36.86000 248.942
36.87000 250.039
36.88000 258.458
36.89000 266.692
36.90000 266.584
36.91000 261.968
36.92000 257.781
36.93000 261.236
36.94000 267.507
36.95000 273.295
36.96000 272.287
36.97000 269.864
36.98000 268.134
36.99000 270.475
37.00000 273.481
37.01000 274.447
37.02000 267.530
37.03000 259.829
37.04000 254.179
37.05000 253.584
37.06000 253.330
37.07000 256.923
37.08000 267.388
37.09000 277.990
37.10000 281.890
37.11000 277.788
37.12000 273.680
37.13000 276.045
37.14000 283.388
37.15000 290.444
37.16000 285.849
37.17000 275.180
37.18000 265.348
37.19000 269.473
37.20000 278.566
37.21000 286.921
37.22000 278.266
37.23000 266.891
37.24000 256.911
37.25000 254.801
37.26000 253.924
37.27000 253.008
37.28000 251.949
37.29000 250.877
37.30000 250.098
37.31000 241.177
37.32000 234.011
37.33000 231.579
37.34000 237.304
37.35000 243.172
37.36000 247.779
37.37000 250.937
37.38000 254.084
37.39000 256.406
37.40000 258.099
37.41000 259.605
37.42000 254.247
37.43000 245.435
37.44000 237.155
37.45000 237.216
37.46000 240.144
37.47000 242.821
37.48000 246.887
37.49000 250.787
37.50000 253.430
37.51000 249.262
37.52000 244.071
37.53000 241.384
37.54000 247.689
37.55000 254.800
37.56000 259.909
37.57000 261.754
37.58000 263.053
37.59000 259.458
37.60000 247.725
37.61000 235.867
37.62000 233.120
37.63000 240.432
37.64000 247.723
37.65000 250.910
37.66000 251.143
37.67000 251.403
37.68000 252.589
37.69000 254.224
37.70000 255.722
37.71000 255.210
37.72000 254.030
37.73000 252.957
37.74000 249.408
37.75000 245.778
37.76000 243.657
37.77000 249.399
37.78000 256.273
37.79000 260.243
37.80000 254.153
37.81000 247.209
37.82000 242.274
37.83000 240.711
37.84000 239.629
37.85000 240.160
37.86000 243.277
37.87000 246.429
37.88000 249.092
37.89000 251.238
37.90000 253.373
37.91000 254.942
37.92000 256.107
37.93000 257.192
37.94000 255.869
37.95000 253.416
37.96000 251.087
37.97000 250.477
37.98000 250.417
37.99000 250.363
38.00000 251.067
38.01000 251.831
38.02000 252.569
38.03000 253.172
38.04000 253.757
38.05000 254.162
38.06000 253.960
38.07000 253.710
38.08000 253.534
38.09000 254.328
38.10000 254.957
38.11000 256.674
38.12000 260.072
38.13000 263.489
38.14000 263.525
38.15000 260.115
38.16000 256.725
38.17000 254.715
38.18000 253.642
38.19000 252.771
38.20000 257.497
38.21000 264.761
38.22000 271.527
38.23000 271.772
38.24000 270.003
38.25000 268.408
38.26000 271.796
38.27000 275.673
38.28000 278.981
38.29000 279.543
38.30000 279.743
38.31000 280.783
38.32000 284.534
38.33000 288.491
38.34000 291.241
38.35000 291.275
38.36000 291.227
38.37000 293.789
38.38000 300.242
38.39000 306.732
38.40000 315.414
38.41000 326.240
38.42000 336.990
38.43000 351.049
38.44000 366.987
38.45000 382.674
38.46000 391.963
38.47000 398.452
38.48000 405.062
38.49000 413.170
38.50000 421.726
38.51000 429.398
38.52000 459.795
38.53000 490.305
38.54000 519.548
38.55000 542.914
38.56000 565.540
38.57000 586.719
38.58000 603.394
38.59000 619.746
38.60000 630.978
38.61000 662.649
38.62000 686.899
38.63000 706.108
38.64000 718.069
38.65000 729.973
38.66000 743.172
38.67000 757.586
38.68000 771.881
38.69000 786.575
38.70000 801.245
38.71000 815.644
38.72000 823.610
38.73000 828.858
38.74000 833.089
38.75000 825.408
38.76000 814.300
38.77000 804.392
38.78000 785.787
38.79000 768.154
38.80000 749.357
38.81000 725.361
38.82000 700.740
38.83000 676.193
38.84000 651.868
38.85000 627.559
38.86000 611.061
38.87000 575.244
38.88000 548.096
38.89000 524.327
38.90000 505.243
38.91000 486.187
38.92000 464.866
38.93000 441.502
38.94000 418.362
38.95000 402.638
38.96000 391.593
38.97000 380.353
38.98000 364.836
38.99000 347.573
39.00000 331.146
39.01000 323.982
39.02000 319.390
39.03000 315.317
39.04000 303.080
39.05000 291.181
39.06000 280.494
39.07000 275.027
39.08000 270.159
39.09000 265.609
39.10000 261.985
39.11000 258.421
39.12000 256.031
39.13000 247.548
39.14000 241.130
39.15000 238.018
39.16000 239.316
39.17000 240.636
39.18000 240.853
39.19000 240.112
39.20000 239.380
39.21000 242.023
39.22000 246.512
39.23000 250.962
39.24000 254.627
39.25000 257.981
39.26000 260.364
39.27000 252.516
39.28000 241.930
39.29000 232.592
39.30000 237.583
39.31000 244.070
39.32000 248.143
39.33000 242.209
39.34000 235.180
39.35000 229.775
39.36000 228.916
39.37000 228.327
39.38000 227.937
39.39000 231.188
39.40000 233.654
39.41000 236.746
39.42000 240.642
39.43000 244.531
39.44000 243.229
39.45000 237.595
39.46000 232.033
39.47000 230.068
39.48000 230.109
39.49000 230.104
39.50000 229.231
39.51000 228.026
39.52000 227.375
39.53000 232.274
39.54000 238.604
39.55000 244.157
39.56000 240.483
39.57000 235.986
39.58000 231.222
39.59000 225.395
39.60000 219.458
39.61000 217.159
39.62000 224.703
39.63000 232.796
39.64000 238.085
39.65000 231.284
39.66000 226.095
39.67000 225.471
39.68000 230.496
39.69000 235.530
39.70000 238.730
39.71000 240.456
39.72000 242.157
39.73000 243.003
39.74000 243.378
39.75000 243.407
39.76000 237.314
39.77000 228.971
39.78000 221.611
39.79000 223.607
39.80000 227.930
39.81000 231.700
39.82000 227.138
39.83000 222.079
39.84000 218.700
39.85000 221.796
39.86000 225.532
39.87000 228.424
39.88000 229.110
39.89000 229.682
39.90000 230.050
39.91000 234.860
39.92000 238.437
39.93000 241.854
39.94000 245.080
39.95000 248.284
39.96000 245.902
39.97000 239.202
39.98000 232.611
39.99000 229.331
40.00000 227.822
40.01000 226.645
40.02000 230.976
40.03000 237.262
40.04000 242.194
40.05000 234.848
40.06000 224.559
40.07000 215.640
40.08000 217.720
40.09000 220.951
40.10000 224.617
40.11000 229.902
40.12000 235.340
40.13000 238.091
40.14000 234.068
40.15000 229.717
40.16000 226.949
40.17000 227.207
40.18000 227.433
40.19000 225.964
40.20000 222.553
40.21000 219.159
40.22000 219.444
40.23000 222.468
40.24000 225.436
40.25000 227.044
40.26000 227.937
40.27000 228.558
40.28000 224.934
40.29000 219.857
40.30000 215.242
40.31000 214.617
40.32000 214.914
40.33000 215.170
40.34000 217.331
40.35000 219.404
40.36000 221.550
40.37000 223.957
40.38000 226.388
40.39000 227.058
40.40000 223.441
40.41000 219.631
40.42000 217.241
40.43000 219.169
40.44000 220.609
40.45000 218.991
40.46000 214.007
40.47000 209.076
40.48000 212.479
40.49000 221.857
40.50000 231.047
40.51000 228.016
40.52000 219.402
40.53000 211.276
40.54000 210.309
40.55000 211.709
40.56000 212.972
40.57000 213.104
40.58000 212.984
40.59000 212.882
40.60000 215.315
40.61000 217.673
40.62000 219.271
40.63000 218.244
40.64000 216.994
40.65000 215.079
40.66000 211.601
40.67000 208.057
40.68000 205.865
40.69000 209.392
40.70000 211.980
40.71000 212.473
40.72000 210.750
40.73000 209.044
40.74000 209.346
40.75000 211.037
40.76000 212.690
40.77000 209.987
40.78000 205.441
40.79000 201.097
40.80000 199.547
40.81000 198.891
40.82000 198.149
40.83000 196.736
40.84000 195.180
40.85000 193.857
40.86000 200.393
40.87000 206.787
40.88000 211.817
40.89000 212.302
40.90000 212.423
40.91000 211.137
40.92000 206.657
40.93000 202.054
40.94000 199.249
40.95000 202.268
40.96000 204.471
40.97000 206.509
40.98000 208.379
40.99000 210.230
41.00000 210.077
41.01000 208.591
41.02000 207.141
41.03000 209.790
41.04000 214.091
41.05000 217.903
41.06000 215.339
41.07000 210.810
41.08000 206.604
41.09000 204.825
41.10000 203.547
41.11000 202.467
41.12000 205.591
41.13000 208.663
41.14000 212.378
41.15000 218.163
41.16000 224.105
41.17000 227.083
41.18000 223.561
41.19000 219.809
41.20000 217.557
41.21000 213.388
41.22000 210.413
41.23000 207.031
41.24000 203.254
41.25000 199.520
41.26000 199.507
41.27000 201.883
41.28000 204.196
41.29000 207.544
41.30000 211.163
41.31000 214.406
41.32000 213.011
41.33000 210.237
41.34000 207.459
41.35000 204.656
41.36000 201.847
41.37000 199.492
41.38000 206.563
41.39000 213.432
41.40000 218.310
41.41000 217.005
41.42000 215.260
41.43000 211.691
41.44000 204.261
41.45000 196.705
41.46000 192.240
41.47000 198.098
41.48000 202.292
41.49000 202.896
41.50000 200.139
41.51000 197.449
41.52000 199.642
41.53000 204.860
41.54000 209.926
41.55000 210.817
41.56000 209.994
41.57000 208.977
41.58000 205.714
41.59000 201.807
41.60000 199.029
41.61000 204.050
41.62000 210.558
41.63000 215.979
41.64000 223.568
41.65000 230.070
41.66000 233.124
41.67000 225.844
41.68000 217.870
41.69000 212.933
41.70000 214.204
41.71000 215.659
41.72000 216.506
41.73000 219.556
41.74000 221.705
41.75000 220.634
41.76000 216.664
41.77000 212.749
41.78000 212.281
41.79000 213.874
41.80000 215.416
41.81000 213.289
41.82000 209.866
41.83000 206.579
41.84000 204.799
41.85000 203.436
41.86000 202.424
41.87000 203.729
41.88000 205.459
41.89000 206.889
41.90000 210.459
41.91000 213.603
41.92000 215.821
41.93000 215.355
41.94000 214.719
41.95000 212.779
41.96000 208.261
41.97000 203.674
41.98000 201.050
41.99000 202.671
42.00000 203.821
42.01000 207.223
42.02000 212.573
42.03000 217.850
42.04000 219.019
42.05000 217.818
42.06000 216.659
42.07000 215.446
42.08000 214.283
42.09000 212.965
42.10000 210.027
42.11000 206.656
42.12000 204.519
42.13000 210.211
42.14000 217.281
42.15000 223.084
42.16000 223.685
42.17000 223.714
42.18000 223.134
42.19000 220.851
42.20000 218.466
42.21000 216.231
42.22000 214.277
42.23000 212.331
42.24000 211.236
42.25000 208.580
42.26000 206.737
42.27000 206.893
42.28000 208.712
42.29000 210.516
42.30000 211.597
42.31000 212.276
42.32000 212.929
42.33000 213.383
42.34000 213.739
42.35000 214.438
42.36000 218.560
42.37000 223.563
42.38000 227.324
42.39000 223.528
42.40000 218.456
42.41000 214.324
42.42000 213.957
42.43000 213.976
42.44000 212.619
42.45000 207.551
42.46000 202.277
42.47000 200.228
42.48000 204.112
42.49000 208.125
42.50000 210.343
42.51000 212.172
42.52000 213.418
42.53000 209.686
42.54000 201.970
42.55000 194.414
42.56000 193.937
42.57000 197.261
42.58000 200.453
42.59000 204.699
42.60000 209.031
42.61000 212.826
42.62000 211.526
42.63000 208.963
42.64000 206.912
42.65000 207.848
42.66000 209.268
42.67000 210.416
42.68000 208.273
42.69000 206.266
42.70000 204.780
42.71000 204.654
42.72000 204.599
42.73000 203.895
42.74000 202.040
42.75000 200.164
42.76000 199.144
42.77000 193.209
42.78000 189.155
42.79000 190.274
42.80000 195.378
42.81000 200.505
42.82000 206.546
42.83000 213.062
42.84000 219.298
42.85000 215.925
42.86000 209.615
42.87000 203.943
42.88000 204.049
42.89000 205.536
42.90000 206.564
42.91000 205.015
42.92000 203.065
42.93000 201.502
42.94000 201.353
42.95000 201.340
42.96000 199.800
42.97000 194.422
42.98000 188.858
42.99000 186.885
43.00000 191.064
43.01000 195.347
43.02000 197.632
43.03000 202.471
43.04000 205.748
43.05000 204.830
43.06000 200.799
43.07000 196.842
43.08000 195.539
43.09000 195.563
43.10000 195.586
43.11000 200.421
43.12000 206.435
43.13000 211.386
43.14000 207.170
43.15000 200.844
43.16000 194.962
43.17000 191.468
43.18000 188.330
43.19000 185.834
43.20000 188.603
43.21000 191.212
43.22000 192.893
43.23000 192.320
43.24000 191.645
43.25000 193.434
43.26000 199.293
43.27000 205.213
43.28000 208.311
43.29000 198.172
43.30000 191.347
43.31000 190.933
43.32000 195.102
43.33000 199.184
43.34000 200.446
43.35000 200.345
43.36000 200.249
43.37000 199.973
43.38000 199.664
43.39000 199.114
43.40000 196.589
43.41000 193.627
43.42000 191.188
43.43000 191.462
43.44000 192.124
43.45000 192.646
43.46000 186.363
43.47000 180.864
43.48000 179.210
43.49000 186.571
43.50000 194.306
43.51000 199.094
43.52000 199.181
43.53000 199.208
43.54000 199.221
43.55000 195.405
43.56000 192.830
43.57000 189.348
43.58000 185.241
43.59000 181.409
43.60000 185.788
43.61000 193.999
43.62000 201.779
43.63000 202.373
43.64000 200.813
43.65000 199.389
43.66000 199.031
43.67000 198.900
43.68000 198.260
43.69000 195.088
43.70000 191.569
43.71000 188.817
43.72000 189.183
43.73000 189.674
43.74000 190.936
43.75000 193.947
43.76000 197.025
43.77000 199.823
43.78000 202.189
43.79000 204.551
43.80000 205.739
43.81000 202.510
43.82000 200.328
43.83000 195.571
43.84000 189.106
43.85000 182.952
43.86000 185.359
43.87000 191.622
43.88000 197.536
43.89000 196.220
43.90000 192.974
43.91000 190.135
43.92000 190.343
43.93000 191.176
43.94000 192.528
43.95000 196.363
43.96000 200.521
43.97000 203.745
43.98000 200.775
43.99000 198.045
44.00000 196.842
44.01000 198.977
44.02000 201.230
44.03000 199.853
44.04000 193.092
44.05000 186.281
44.06000 182.876
44.07000 182.778
44.08000 182.733
44.09000 187.095
44.10000 194.279
44.11000 201.278
44.12000 203.609
44.13000 203.908
44.14000 204.190
44.15000 202.824
44.16000 201.130
44.17000 199.403
44.18000 197.438
44.19000 195.426
44.20000 193.708
44.21000 193.339
44.22000 193.140
44.23000 192.986
44.24000 197.059
44.25000 200.517
44.26000 202.433
44.27000 201.094
44.28000 199.650
44.29000 201.696
44.30000 208.729
44.31000 215.799
44.32000 214.040
44.33000 204.048
44.34000 194.147
44.35000 190.837
44.36000 191.599
44.37000 192.169
44.38000 188.294
44.39000 182.551
44.40000 177.168
44.41000 186.456
44.42000 198.729
44.43000 209.728
44.44000 211.969
44.45000 212.547
44.46000 212.949
44.47000 212.575
44.48000 212.108
44.49000 211.753
44.50000 212.362
44.51000 212.892
44.52000 213.288
44.53000 213.410
44.54000 213.524
44.55000 213.208
44.56000 212.298
44.57000 211.385
44.58000 210.819
44.59000 210.564
44.60000 210.337
44.61000 211.960
44.62000 214.684
44.63000 217.089
44.64000 212.579
44.65000 205.265
44.66000 198.437
44.67000 197.861
44.68000 198.903
44.69000 200.639
44.70000 206.947
44.71000 214.091
44.72000 219.219
44.73000 215.732
44.74000 211.265
44.75000 207.897
44.76000 210.783
44.77000 213.351
44.78000 215.689
44.79000 217.573
44.80000 219.445
44.81000 221.403
44.82000 223.478
44.83000 225.551
44.84000 223.358
44.85000 217.500
44.86000 211.780
44.87000 213.702
44.88000 220.018
44.89000 226.053
44.90000 226.458
44.91000 224.656
44.92000 222.980
44.93000 219.787
44.94000 216.539
44.95000 214.041
44.96000 216.280
44.97000 219.349
44.98000 222.346
44.99000 225.047
45.00000 227.715
45.01000 229.708
45.02000 228.327
45.03000 227.096
45.04000 224.888
45.05000 220.823
45.06000 216.714
45.07000 215.370
45.08000 217.558
45.09000 219.756
45.10000 221.087
45.11000 221.698
45.12000 222.387
45.13000 226.947
45.14000 233.653
45.15000 239.942
45.16000 238.428
45.17000 233.960
45.18000 229.824
45.19000 231.117
45.20000 233.530
45.21000 234.148
45.22000 223.883
45.23000 211.786
45.24000 203.197
45.25000 208.532
45.26000 215.304
45.27000 220.311
45.28000 214.651
45.29000 209.805
45.30000 206.636
45.31000 206.542
45.32000 206.515
45.33000 208.348
45.34000 212.467
45.35000 216.586
45.36000 216.633
45.37000 213.446
45.38000 210.292
45.39000 208.625
45.40000 207.752
45.41000 206.875
45.42000 205.905
45.43000 204.902
45.44000 203.977
45.45000 204.886
45.46000 206.107
45.47000 207.360
45.48000 208.798
45.49000 210.265
45.50000 211.702
45.51000 213.019
45.52000 214.324
45.53000 215.279
45.54000 209.642
45.55000 205.029
45.56000 201.326
45.57000 199.234
45.58000 197.173
45.59000 195.673
45.60000 194.838
45.61000 194.006
45.62000 195.780
45.63000 199.534
45.64000 203.143
45.65000 201.055
45.66000 196.023
45.67000 191.321
45.68000 192.033
45.69000 194.656
45.70000 197.062
45.71000 192.666
45.72000 187.303
45.73000 182.931
45.74000 184.106
45.75000 186.141
45.76000 186.913
45.77000 183.027
45.78000 178.708
45.79000 175.579
45.80000 184.963
45.81000 192.632
45.82000 194.912
45.83000 187.989
45.84000 180.910
45.85000 177.263
45.86000 177.521
45.87000 177.781
45.88000 180.309
45.89000 184.481
45.90000 188.509
45.91000 187.380
45.92000 183.676
45.93000 180.259
45.94000 181.252
45.95000 183.748
45.96000 186.028
45.97000 187.146
45.98000 187.902
45.99000 188.228
46.00000 186.253
46.01000 183.936
46.02000 181.884
46.03000 180.773
46.04000 179.747
46.05000 179.011
46.06000 179.189
46.07000 179.357
46.08000 179.085
46.09000 178.087
46.10000 177.078
46.11000 176.776
46.12000 177.245
46.13000 177.713
46.14000 176.332
46.15000 173.659
46.16000 171.131
46.17000 173.318
46.18000 177.776
46.19000 181.938
46.20000 181.802
46.21000 180.254
46.22000 178.846
46.23000 170.914
46.24000 162.626
46.25000 156.170
46.26000 159.171
46.27000 163.516
46.28000 167.005
46.29000 167.555
46.30000 167.858
46.31000 168.072
46.32000 171.266
46.33000 173.788
46.34000 175.162
46.35000 174.712
46.36000 174.238
46.37000 174.813
46.38000 176.492
46.39000 178.162
46.40000 178.223
46.41000 177.191
46.42000 176.148
46.43000 174.787
46.44000 173.278
46.45000 172.279
46.46000 178.249
46.47000 186.431
46.48000 193.832
46.49000 191.950
46.50000 188.554
46.51000 184.547
46.52000 177.510
46.53000 170.060
46.54000 164.518
46.55000 165.292
46.56000 166.568
46.57000 167.462
46.58000 171.319
46.59000 174.321
46.60000 176.813
46.61000 178.521
46.62000 180.221
46.63000 178.536
46.64000 173.438
46.65000 168.371
46.66000 168.709
46.67000 172.572
46.68000 176.298
46.69000 176.311
46.70000 174.657
46.71000 173.222
46.72000 174.614
46.73000 176.871
46.74000 178.903
46.75000 176.765
46.76000 174.143
46.77000 172.144
46.78000 173.121
46.79000 174.486
46.80000 176.151
46.81000 178.777
46.82000 181.476
46.83000 183.346
46.84000 179.475
46.85000 176.410
46.86000 175.893
46.87000 179.143
46.88000 182.426
46.89000 182.123
46.90000 178.347
46.91000 174.599
46.92000 170.832
46.93000 167.115
46.94000 163.761
46.95000 169.514
46.96000 179.217
46.97000 187.920
46.98000 184.431
46.99000 177.339
47.00000 170.988
47.01000 167.681
47.02000 165.318
47.03000 163.142
47.04000 161.823
47.05000 160.610
47.06000 160.314
47.07000 162.847
47.08000 165.580
47.09000 167.451
47.10000 175.554
47.11000 181.771
47.12000 181.687
47.13000 172.624
47.14000 163.496
47.15000 161.430
47.16000 165.931
47.17000 170.394
47.18000 171.290
47.19000 170.015
47.20000 168.659
47.21000 165.412
47.22000 161.374
47.23000 157.803
47.24000 159.631
47.25000 162.999
47.26000 165.999
47.27000 169.434
47.28000 172.491
47.29000 174.417
47.30000 171.336
47.31000 167.662
47.32000 164.880
47.33000 164.759
47.34000 164.816
47.35000 164.854
47.36000 163.445
47.37000 162.365
47.38000 162.448
47.39000 164.130
47.40000 165.820
47.41000 165.572
47.42000 163.592
47.43000 161.633
47.44000 159.457
47.45000 157.203
47.46000 154.976
47.47000 153.342
47.48000 151.946
47.49000 151.252
47.50000 158.235
47.51000 167.330
47.52000 175.386
47.53000 174.006
47.54000 171.326
47.55000 168.945
47.56000 167.843
47.57000 166.886
47.58000 165.805
47.59000 164.369
47.60000 162.912
47.61000 161.938
47.62000 165.836
47.63000 168.821
47.64000 170.834
47.65000 171.560
47.66000 172.278
47.67000 171.769
47.68000 170.205
47.69000 168.659
47.70000 166.572
47.71000 164.232
47.72000 161.978
47.73000 161.432
47.74000 161.553
47.75000 161.523
47.76000 159.925
47.77000 157.912
47.78000 156.138
47.79000 154.695
47.80000 153.502
47.81000 153.577
47.82000 158.859
47.83000 164.704
47.84000 167.410
47.85000 161.401
47.86000 154.882
47.87000 150.580
47.88000 154.200
47.89000 157.008
47.90000 158.417
47.91000 158.043
47.92000 157.665
47.93000 157.850
47.94000 158.502
47.95000 159.146
47.96000 154.600
47.97000 147.383
47.98000 140.591
47.99000 141.734
48.00000 145.871
48.01000 149.763
48.02000 151.237
48.03000 152.092
48.04000 152.841
48.05000 156.383
48.06000 159.823
48.07000 161.629
48.08000 156.962
48.09000 151.631
48.10000 148.415
48.11000 150.870
48.12000 153.635
48.13000 155.436
48.14000 151.529
48.15000 148.575
48.16000 146.075
48.17000 144.130
48.18000 142.204
48.19000 145.780
48.20000 153.732
48.21000 161.567
48.22000 161.782
48.23000 158.044
48.24000 154.724
48.25000 158.710
48.26000 165.357
48.27000 171.292
48.28000 170.535
48.29000 168.128
48.30000 166.033
48.31000 162.109
48.32000 158.506
48.33000 155.654
48.34000 155.664
48.35000 155.955
48.36000 156.348
48.37000 157.008
48.38000 157.682
48.39000 158.115
48.40000 162.187
48.41000 165.208
48.42000 166.392
48.43000 165.409
48.44000 164.422
48.45000 163.235
48.46000 161.897
48.47000 160.580
48.48000 158.697
48.49000 156.594
48.50000 154.499
48.51000 152.540
48.52000 150.629
48.53000 149.418
48.54000 154.485
48.55000 161.043
48.56000 166.718
48.57000 168.376
48.58000 169.259
48.59000 169.450
48.60000 167.096
48.61000 164.507
48.62000 162.561
48.63000 162.224
48.64000 161.964
48.65000 161.799
48.66000 160.540
48.67000 159.614
48.68000 159.222
48.69000 159.436
48.70000 159.638
48.71000 157.652
48.72000 154.052
48.73000 150.520
48.74000 149.080
48.75000 148.697
48.76000 148.325
48.77000 148.127
48.78000 147.989
48.79000 148.382
48.80000 153.320
48.81000 159.298
48.82000 164.438
48.83000 155.974
48.84000 147.105
48.85000 140.528
48.86000 142.082
48.87000 144.352
48.88000 147.488
48.89000 152.713
48.90000 158.031
48.91000 161.355
48.92000 155.059
48.93000 150.415
48.94000 149.927
48.95000 153.969
48.96000 158.007
48.97000 161.256
48.98000 163.943
48.99000 166.575
49.00000 166.325
49.01000 164.752
49.02000 163.178
49.03000 161.585
49.04000 159.986
49.05000 158.690
49.06000 159.865
49.07000 161.585
49.08000 163.055
49.09000 159.960
49.10000 156.807
49.11000 154.988
49.12000 157.738
49.13000 160.869
49.14000 161.056
49.15000 154.383
49.16000 147.429
49.17000 143.145
49.18000 146.938
49.19000 149.733
49.20000 151.456
49.21000 152.057
49.22000 152.663
49.23000 153.840
49.24000 155.408
49.25000 156.940
49.26000 157.670
49.27000 158.013
49.28000 158.295
49.29000 157.742
49.30000 156.924
49.31000 156.097
49.32000 155.202
49.33000 154.294
49.34000 153.522
49.35000 151.424
49.36000 149.513
49.37000 148.342
49.38000 149.619
49.39000 151.088
49.40000 151.764
49.41000 150.652
49.42000 149.472
49.43000 148.756
49.44000 147.685
49.45000 146.918
49.46000 151.267
49.47000 160.758
49.48000 170.163
49.49000 171.294
49.50000 166.965
49.51000 162.743
49.52000 163.529
49.53000 166.422
49.54000 168.857
49.55000 165.425
49.56000 160.202
49.57000 155.623
49.58000 155.850
49.59000 157.059
49.60000 158.078
49.61000 158.760
49.62000 159.293
49.63000 159.300
49.64000 157.628
49.65000 155.831
49.66000 155.429
49.67000 158.060
49.68000 160.795
49.69000 162.431
49.70000 156.522
49.71000 152.281
49.72000 149.864
49.73000 149.206
49.74000 148.560
49.75000 148.840
49.76000 149.711
49.77000 150.558
49.78000 150.110
49.79000 149.149
49.80000 148.373
49.81000 149.836
49.82000 151.959
49.83000 154.228
49.84000 157.548
49.85000 161.073
49.86000 164.025
49.87000 160.679
49.88000 157.248
49.89000 153.731
49.90000 149.947
49.91000 146.146
49.92000 144.068
49.93000 145.611
49.94000 147.268
49.95000 148.244
49.96000 152.661
49.97000 155.794
49.98000 155.650
49.99000 152.469
50.00000 149.343
50.01000 150.169
50.02000 153.420
50.03000 156.574
50.04000 156.343
50.05000 154.783
50.06000 153.201
50.07000 151.366
50.08000 149.458
50.09000 147.876
50.10000 148.519
50.11000 149.581
50.12000 150.464
50.13000 149.291
50.14000 148.120
50.15000 147.990
50.16000 150.954
50.17000 154.123
50.18000 154.641
50.19000 149.786
50.20000 144.775
50.21000 141.873
50.22000 140.696
50.23000 139.878
50.24000 140.574
50.25000 142.616
50.26000 144.714
50.27000 150.270
50.28000 157.873
50.29000 165.231
50.30000 163.796
50.31000 159.089
50.32000 154.336
50.33000 149.075
50.34000 143.675
50.35000 139.148
50.36000 140.334
50.37000 142.555
50.38000 144.388
50.39000 149.028
50.40000 153.111
50.41000 155.538
50.42000 153.221
50.43000 150.607
50.44000 150.077
50.45000 153.621
50.46000 157.272
50.47000 159.353
50.48000 160.965
50.49000 162.083
50.50000 160.137
50.51000 155.567
50.52000 151.100
50.53000 152.249
50.54000 156.607
50.55000 160.812
50.56000 165.262
50.57000 169.542
50.58000 172.996
50.59000 167.893
50.60000 160.528
50.61000 154.598
50.62000 157.664
50.63000 162.298
50.64000 166.094
50.65000 165.632
50.66000 164.878
50.67000 164.114
50.68000 163.322
50.69000 162.528
50.70000 161.265
50.71000 159.120
50.72000 156.953
50.73000 155.739
50.74000 159.464
50.75000 162.054
50.76000 163.483
50.77000 163.956
50.78000 164.398
50.79000 163.352
50.80000 161.485
50.81000 159.689
50.82000 156.054
50.83000 151.997
50.84000 148.640
50.85000 152.188
50.86000 157.494
50.87000 161.807
50.88000 160.131
50.89000 157.454
50.90000 155.277
50.91000 158.786
50.92000 162.125
50.93000 164.087
50.94000 162.366
50.95000 160.443
50.96000 158.031
50.97000 154.726
50.98000 151.401
50.99000 149.571
51.00000 147.747
51.01000 146.495
51.02000 146.718
51.03000 148.109
51.04000 149.454
51.05000 148.817
51.06000 147.126
51.07000 145.503
51.08000 147.942
51.09000 151.601
51.10000 154.640
51.11000 151.869
51.12000 147.670
51.13000 144.061
51.14000 143.854
51.15000 144.194
51.16000 144.468
51.17000 141.442
51.18000 138.723
51.19000 137.297
51.20000 139.211
51.21000 141.296
51.22000 141.417
51.23000 138.085
51.24000 134.689
51.25000 132.852
51.26000 140.155
51.27000 145.150
51.28000 146.984
51.29000 146.407
51.30000 145.828
51.31000 145.162
51.32000 144.451
51.33000 143.772
51.34000 140.740
51.35000 137.149
51.36000 134.182
51.37000 136.794
51.38000 140.726
51.39000 143.788
51.40000 142.021
51.41000 139.512
51.42000 137.503
51.43000 143.374
51.44000 148.711
51.45000 150.707
51.46000 144.378
51.47000 137.655
51.48000 134.719
51.49000 138.214
51.50000 141.815
51.51000 143.727
51.52000 146.636
51.53000 148.589
51.54000 145.797
51.55000 139.518
51.56000 133.351
51.57000 131.144
51.58000 130.901
51.59000 130.670
51.60000 133.182
51.61000 136.373
51.62000 139.294
51.63000 139.917
51.64000 140.016
51.65000 140.559
51.66000 143.469
51.67000 146.727
51.68000 149.313
51.69000 146.295
51.70000 143.470
51.71000 141.197
51.72000 140.251
51.73000 139.363
51.74000 138.670
51.75000 138.295
51.76000 137.926
51.77000 137.733
51.78000 137.486
51.79000 137.331
51.80000 138.907
51.81000 141.708
51.82000 144.397
51.83000 143.517
51.84000 140.927
51.85000 138.466
51.86000 143.173
51.87000 149.687
51.88000 155.047
51.89000 151.020
51.90000 144.932
51.91000 139.839
51.92000 139.851
51.93000 140.584
51.94000 141.161
51.95000 142.116
51.96000 142.905
51.97000 143.156
51.98000 142.155
51.99000 141.103
52.00000 141.086
52.01000 142.704
52.02000 144.343
52.03000 145.179
52.04000 140.345
52.05000 137.145
52.06000 139.187
52.07000 144.807
52.08000 150.185
52.09000 148.478
52.10000 143.494
52.11000 138.775
52.12000 137.029
52.13000 136.286
52.14000 136.203
52.15000 141.240
52.16000 147.359
52.17000 151.752
52.18000 147.631
52.19000 142.360
52.20000 138.246
52.21000 141.438
52.22000 144.441
52.23000 146.704
52.24000 147.307
52.25000 147.848
52.26000 147.605
52.27000 146.165
52.28000 144.713
52.29000 143.986
52.30000 144.573
52.31000 144.957
52.32000 144.643
52.33000 143.868
52.34000 143.085
52.35000 142.066
52.36000 140.942
52.37000 139.881
52.38000 141.162
52.39000 142.990
52.40000 144.641
52.41000 144.975
52.42000 145.042
52.43000 144.401
52.44000 140.401
52.45000 135.967
52.46000 132.538
52.47000 132.332
52.48000 132.359
52.49000 133.354
52.50000 136.448
52.51000 139.614
52.52000 142.699
52.53000 145.666
52.54000 148.631
52.55000 146.699
52.56000 140.059
52.57000 133.488
52.58000 132.462
52.59000 134.955
52.60000 137.366
52.61000 137.737
52.62000 137.228
52.63000 136.750
52.64000 136.714
52.65000 136.800
52.66000 136.727
52.67000 135.523
52.68000 134.097
52.69000 133.679
52.70000 137.863
52.71000 142.615
52.72000 146.257
52.73000 144.795
52.74000 143.358
52.75000 142.288
52.76000 141.985
52.77000 141.706
52.78000 140.234
52.79000 137.073
52.80000 133.901
52.81000 133.239
52.82000 134.894
52.83000 136.558
52.84000 138.896
52.85000 141.646
52.86000 144.265
52.87000 143.888
52.88000 142.264
52.89000 140.743
52.90000 137.834
52.91000 134.832
52.92000 132.647
52.93000 136.020
52.94000 140.439
52.95000 143.848
52.96000 142.810
52.97000 141.249
52.98000 140.063
52.99000 142.981
53.00000 145.488
53.01000 145.781
53.02000 141.604
53.03000 137.297
53.04000 136.520
53.05000 140.555
53.06000 144.616
53.07000 147.028
53.08000 147.973
53.09000 148.901
53.10000 148.770
53.11000 148.015
53.12000 147.062
53.13000 141.897
53.14000 135.039
53.15000 128.643
53.16000 132.284
53.17000 138.066
53.18000 143.348
53.19000 145.372
53.20000 146.806
53.21000 148.803
53.22000 153.178
53.23000 157.820
53.24000 161.312
53.25000 159.998
53.26000 158.739
53.27000 156.139
53.28000 150.927
53.29000 145.646
53.30000 142.610
53.31000 142.524
53.32000 142.451
53.33000 145.601
53.34000 151.488
53.35000 157.283
53.36000 158.098
53.37000 156.075
53.38000 153.992
53.39000 150.715
53.40000 146.972
53.41000 143.497
53.42000 145.030
53.43000 147.602
53.44000 150.229
53.45000 153.190
53.46000 156.210
53.47000 157.598
53.48000 152.328
53.49000 146.345
53.50000 141.888
53.51000 145.000
53.52000 147.765
53.53000 149.256
53.54000 148.348
53.55000 147.385
53.56000 145.646
53.57000 142.926
53.58000 140.206
53.59000 139.964
53.60000 141.749
53.61000 143.522
53.62000 144.740
53.63000 145.652
53.64000 146.550
53.65000 147.192
53.66000 147.738
53.67000 148.243
53.68000 145.646
53.69000 142.606
53.70000 140.325
53.71000 142.595
53.72000 145.624
53.73000 147.532
53.74000 145.030
53.75000 142.079
53.76000 139.902
53.77000 138.530
53.78000 137.501
53.79000 138.690
53.80000 143.910
53.81000 149.215
53.82000 150.194
53.83000 145.907
53.84000 141.615
53.85000 138.988
53.86000 137.681
53.87000 136.415
53.88000 136.875
53.89000 138.252
53.90000 139.688
53.91000 142.148
53.92000 144.979
53.93000 147.586
53.94000 144.573
53.95000 140.647
53.96000 136.827
53.97000 133.613
53.98000 130.496
53.99000 128.234
54.00000 129.209
54.01000 130.499
54.02000 131.440
54.03000 132.250
54.04000 132.869
54.05000 133.009
54.06000 132.308
54.07000 131.590
54.08000 131.770
54.09000 133.001
54.10000 134.230
54.11000 135.149
54.12000 135.829
54.13000 136.478
54.14000 135.927
54.15000 134.761
54.16000 133.674
54.17000 133.854
54.18000 134.477
54.19000 135.049
54.20000 137.465
54.21000 140.005
54.22000 141.476
54.23000 137.041
54.24000 131.699
54.25000 127.562
54.26000 127.825
54.27000 128.493
54.28000 128.976
54.29000 136.783
54.30000 143.036
54.31000 147.165
54.32000 147.701
54.33000 148.178
54.34000 149.034
54.35000 150.317
54.36000 151.595
54.37000 149.829
54.38000 145.865
54.39000 142.024
54.40000 142.445
54.41000 144.975
54.42000 147.180
54.43000 144.459
54.44000 140.074
54.45000 136.074
54.46000 131.930
54.47000 128.227
54.48000 125.972
54.49000 131.419
54.50000 137.997
54.51000 142.470
54.52000 139.518
54.53000 135.919
54.54000 133.347
54.55000 130.109
54.56000 127.616
54.57000 129.329
54.58000 137.910
54.59000 146.590
54.60000 148.705
54.61000 143.714
54.62000 138.743
54.63000 139.674
54.64000 144.722
54.65000 149.556
54.66000 147.612
54.67000 142.431
54.68000 137.488
54.69000 135.957
54.70000 135.536
54.71000 135.155
54.72000 136.743
54.73000 138.526
54.74000 140.118
54.75000 140.733
54.76000 141.209
54.77000 141.453
54.78000 140.905
54.79000 140.292
54.80000 139.859
54.81000 130.330
54.82000 122.814
54.83000 122.264
54.84000 132.688
54.85000 143.247
54.86000 147.491
54.87000 145.170
54.88000 142.859
54.89000 140.844
54.90000 139.052
54.91000 137.445
54.92000 141.228
54.93000 147.497
54.94000 153.037
54.95000 148.762
54.96000 141.399
54.97000 134.746
54.98000 141.622
54.99000 150.175
55.00000 156.693
55.01000 153.202
55.02000 148.365
55.03000 143.926
55.04000 140.796
55.05000 137.768
55.06000 135.652
55.07000 141.081
55.08000 145.396
55.09000 146.791
55.10000 143.753
55.11000 140.669
55.12000 139.124
55.13000 139.115
55.14000 139.106
55.15000 141.570
55.16000 145.597
55.17000 149.506
55.18000 150.287
55.19000 149.675
55.20000 149.309
55.21000 152.066
55.22000 155.771
55.23000 159.101
55.24000 157.526
55.25000 155.276
55.26000 153.601
55.27000 154.643
55.28000 156.036
55.29000 157.883
55.30000 161.173
55.31000 164.569
55.32000 166.916
55.33000 165.287
55.34000 163.960
55.35000 161.670
55.36000 157.969
55.37000 154.257
55.38000 155.092
55.39000 160.283
55.40000 165.435
55.41000 166.544
55.42000 165.120
55.43000 164.031
55.44000 171.182
55.45000 181.876
55.46000 191.722
55.47000 191.346
55.48000 187.977
55.49000 184.964
55.50000 188.642
55.51000 192.987
55.52000 197.234
55.53000 201.040
55.54000 204.792
55.55000 207.716
55.56000 208.111
55.57000 208.329
55.58000 208.478
55.59000 221.665
55.60000 231.831
55.61000 238.562
55.62000 240.443
55.63000 242.291
55.64000 247.793
55.65000 256.657
55.66000 265.442
55.67000 268.783
55.68000 268.800
55.69000 269.153
55.70000 277.136
55.71000 288.289
55.72000 299.185
55.73000 307.160
55.74000 314.310
55.75000 320.670
55.76000 328.783
55.77000 336.110
55.78000 344.021
55.79000 354.485
55.80000 365.248
55.81000 374.429
55.82000 378.934
55.83000 383.134
55.84000 385.967
55.85000 405.066
55.86000 419.622
55.87000 429.327
55.88000 432.436
55.89000 435.506
55.90000 437.112
55.91000 437.421
55.92000 437.727
55.93000 440.672
55.94000 445.071
55.95000 449.076
55.96000 444.745
55.97000 437.071
55.98000 430.765
55.99000 439.248
56.00000 451.761
56.01000 462.831
56.02000 448.489
56.03000 432.136
56.04000 417.880
56.05000 412.475
56.06000 408.062
56.07000 402.555
56.08000 393.931
56.09000 385.117
56.10000 379.244
56.11000 374.937
56.12000 371.779
56.13000 365.198
56.14000 354.132
56.15000 343.048
56.16000 332.135
56.17000 321.369
56.18000 310.730
56.19000 302.330
56.20000 295.377
56.21000 288.539
56.22000 283.965
56.23000 280.268
56.24000 276.270
56.25000 269.174
56.26000 261.265
56.27000 254.307
56.28000 240.672
56.29000 227.943
56.30000 217.593
56.31000 216.921
56.32000 217.281
56.33000 215.106
56.34000 205.953
56.35000 196.397
56.36000 190.111
56.37000 185.434
56.38000 182.018
56.39000 180.720
56.40000 182.093
56.41000 183.463
56.42000 179.322
56.43000 170.673
56.44000 162.141
56.45000 159.926
56.46000 161.140
56.47000 162.398
56.48000 164.453
56.49000 166.806
56.50000 168.524
56.51000 164.048
56.52000 158.003
56.53000 152.716
56.54000 155.555
56.55000 159.144
56.56000 161.818
56.57000 160.910
56.58000 159.637
56.59000 157.253
56.60000 151.916
56.61000 146.419
56.62000 142.851
56.63000 138.948
56.64000 136.085
56.65000 137.260
56.66000 143.334
56.67000 149.396
56.68000 148.596
56.69000 142.392
56.70000 136.282
56.71000 134.728
56.72000 135.558
56.73000 136.265
56.74000 134.855
56.75000 132.679
56.76000 131.200
56.77000 136.188
56.78000 142.757
56.79000 148.467
56.80000 148.500
56.81000 147.756
56.82000 147.155
56.83000 147.090
56.84000 147.077
56.85000 145.877
56.86000 141.632
56.87000 137.234
56.88000 134.417
56.89000 135.074
56.90000 135.599
56.91000 137.502
56.92000 141.013
56.93000 144.503
56.94000 142.870
56.95000 137.353
56.96000 131.929
56.97000 129.280
56.98000 128.090
56.99000 126.973
57.00000 127.041
57.01000 127.522
57.02000 128.241
57.03000 131.073
57.04000 134.402
57.05000 137.278
57.06000 135.208
57.07000 132.809
57.08000 130.229
57.09000 126.991
57.10000 123.693
57.11000 121.610
57.12000 122.539
57.13000 123.609
57.14000 124.284
57.15000 122.626
57.16000 121.397
57.17000 122.126
57.18000 125.053
57.19000 127.962
57.20000 127.670
57.21000 125.041
57.22000 122.462
57.23000 123.974
57.24000 127.375
57.25000 130.550
57.26000 130.308
57.27000 128.915
57.28000 127.550
57.29000 126.423
57.30000 125.351
57.31000 124.430
57.32000 123.999
57.33000 123.696
57.34000 123.366
57.35000 122.942
57.36000 122.511
57.37000 122.361
57.38000 122.886
57.39000 123.439
57.40000 123.784
57.41000 121.173
57.42000 119.262
57.43000 120.168
57.44000 124.114
57.45000 128.047
57.46000 130.178
57.47000 131.040
57.48000 131.885
57.49000 128.563
57.50000 123.466
57.51000 118.660
57.52000 117.981
57.53000 118.644
57.54000 119.488
57.55000 121.805
57.56000 124.443
57.57000 126.693
57.58000 123.879
57.59000 120.913
57.60000 119.296
57.61000 122.259
57.62000 125.598
57.63000 127.911
57.64000 127.851
57.65000 127.696
57.66000 127.601
57.67000 125.942
57.68000 124.739
57.69000 125.375
57.70000 127.917
57.71000 130.446
57.72000 131.480
57.73000 131.499
57.74000 131.518
57.75000 128.942
57.76000 125.333
57.77000 121.958
57.78000 121.707
57.79000 122.436
57.80000 123.430
57.81000 126.474
57.82000 129.948
57.83000 132.893
57.84000 133.438
57.85000 133.625
57.86000 132.595
57.87000 127.581
57.88000 122.257
57.89000 119.111
57.90000 120.824
57.91000 122.716
57.92000 123.860
57.93000 123.923
57.94000 123.960
57.95000 123.297
57.96000 121.938
57.97000 120.601
57.98000 121.296
57.99000 123.321
58.00000 125.294
58.01000 124.587
58.02000 122.776
58.03000 121.183
58.04000 122.352
58.05000 124.357
58.06000 126.157
58.07000 126.446
58.08000 126.431
58.09000 126.417
58.10000 125.084
58.11000 123.831
58.12000 122.967
58.13000 123.335
58.14000 123.793
58.15000 124.529
58.16000 125.867
58.17000 127.225
58.18000 128.034
58.19000 126.933
58.20000 126.142
58.21000 125.321
58.22000 124.473
58.23000 123.608
58.24000 121.396
58.25000 118.335
58.26000 115.359
58.27000 115.776
58.28000 117.556
58.29000 119.248
58.30000 119.895
58.31000 120.235
58.32000 120.349
58.33000 118.856
58.34000 117.050
58.35000 115.542
58.36000 117.668
58.37000 119.804
58.38000 121.133
58.39000 120.001
58.40000 118.698
58.41000 117.860
58.42000 117.990
58.43000 118.150
58.44000 118.243
58.45000 117.407
58.46000 116.814
58.47000 118.986
58.48000 123.696
58.49000 128.301
58.50000 125.750
58.51000 118.846
58.52000 112.152
58.53000 112.776
58.54000 116.239
58.55000 119.675
58.56000 122.801
58.57000 125.840
58.58000 127.888
58.59000 123.247
58.60000 117.355
58.61000 112.465
58.62000 115.083
58.63000 117.971
58.64000 120.743
58.65000 123.169
58.66000 125.573
58.67000 127.548
58.68000 128.660
58.69000 129.748
58.70000 130.375
58.71000 127.029
58.72000 124.669
58.73000 121.781
58.74000 118.426
58.75000 115.180
58.76000 118.504
58.77000 125.682
58.78000 132.623
58.79000 127.782
58.80000 118.764
58.81000 110.606
58.82000 111.712
58.83000 115.334
58.84000 118.716
58.85000 120.537
58.86000 122.078
58.87000 123.348
58.88000 118.530
58.89000 114.008
58.90000 110.724
58.91000 110.960
58.92000 111.411
58.93000 112.332
58.94000 114.165
58.95000 116.020
58.96000 117.073
58.97000 114.915
58.98000 113.408
58.99000 114.851
59.00000 118.794
59.01000 122.648
59.02000 121.739
59.03000 118.134
59.04000 114.657
59.05000 116.242
59.06000 119.571
59.07000 122.822
59.08000 125.272
59.09000 127.513
59.10000 129.227
59.11000 127.671
59.12000 125.550
59.13000 123.816
59.14000 118.164
59.15000 113.195
59.16000 110.132
59.17000 112.302
59.18000 114.773
59.19000 117.196
59.20000 119.530
59.21000 121.863
59.22000 123.164
59.23000 119.341
59.24000 116.688
59.25000 115.930
59.26000 116.718
59.27000 117.489
59.28000 117.472
59.29000 117.025
59.30000 116.595
59.31000 116.158
59.32000 115.744
59.33000 115.584
59.34000 117.878
59.35000 120.792
59.36000 123.285
59.37000 123.273
59.38000 122.846
59.39000 122.499
59.40000 122.644
59.41000 122.803
59.42000 122.360
59.43000 120.321
59.44000 118.197
59.45000 117.581
59.46000 119.691
59.47000 121.858
59.48000 123.045
59.49000 120.792
59.50000 119.241
59.51000 118.403
59.52000 118.127
59.53000 117.898
59.54000 119.637
59.55000 122.416
59.56000 125.079
59.57000 121.501
59.58000 116.063
59.59000 111.328
59.60000 113.112
59.61000 116.484
59.62000 119.091
59.63000 117.331
59.64000 114.877
59.65000 112.901
59.66000 112.915
59.67000 113.080
59.68000 114.555
59.69000 119.381
59.70000 124.373
59.71000 125.820
59.72000 121.084
59.73000 116.235
59.74000 113.626
59.75000 115.615
59.76000 116.963
59.77000 114.846
59.78000 110.109
59.79000 105.567
59.80000 108.372
59.81000 114.920
59.82000 121.177
59.83000 123.270
59.84000 123.870
59.85000 123.956
59.86000 119.506
59.87000 113.991
59.88000 109.154
59.89000 108.038
59.90000 107.488
59.91000 107.048
59.92000 116.803
59.93000 125.433
59.94000 130.811
59.95000 128.155
59.96000 125.125
59.97000 122.550
59.98000 120.739
59.99000 118.941
60.00000 117.991
60.01000 116.463
60.02000 115.440
60.03000 116.715
60.04000 119.666
60.05000 122.515
60.06000 121.873
60.07000 119.515
60.08000 117.268
60.09000 116.651
60.10000 116.585
60.11000 116.891
60.12000 120.329
60.13000 124.475
60.14000 127.544
60.15000 124.928
60.16000 121.484
60.17000 118.755
60.18000 117.734
60.19000 117.033
60.20000 116.391
60.21000 115.893
60.22000 115.401
60.23000 115.791
60.24000 117.615
60.25000 119.459
60.26000 120.415
60.27000 121.615
60.28000 122.405
60.29000 120.672
60.30000 117.167
60.31000 113.762
60.32000 113.456
60.33000 114.622
60.34000 115.729
60.35000 116.162
60.36000 116.359
60.37000 116.284
60.38000 114.014
60.39000 111.266
60.40000 109.008
60.41000 109.236
60.42000 109.811
60.43000 110.263
60.44000 112.315
60.45000 114.063
60.46000 115.401
60.47000 115.799
60.48000 116.160
60.49000 116.466
60.50000 116.688
60.51000 116.910
60.52000 117.022
60.53000 119.057
60.54000 120.407
60.55000 120.190
60.56000 118.913
60.57000 117.724
60.58000 119.041
60.59000 121.508
60.60000 123.842
60.61000 123.041
60.62000 121.404
60.63000 120.243
60.64000 122.729
60.65000 125.979
60.66000 128.049
60.67000 124.356
60.68000 119.892
60.69000 116.417
60.70000 117.207
60.71000 118.099
60.72000 117.742
60.73000 114.608
60.74000 111.372
60.75000 109.586
60.76000 109.988
60.77000 110.412
60.78000 112.847
60.79000 117.276
60.80000 121.643
60.81000 120.380
60.82000 115.446
60.83000 110.698
60.84000 110.875
60.85000 113.233
60.86000 115.454
60.87000 113.984
60.88000 111.618
60.89000 109.598
60.90000 110.123
60.91000 111.160
60.92000 112.795
60.93000 117.242
60.94000 122.048
60.95000 125.757
60.96000 118.970
60.97000 112.982
60.98000 110.025
60.99000 113.580
61.00000 117.354
61.01000 119.945
61.02000 120.814
61.03000 121.669
61.04000 121.503
61.05000 120.367
61.06000 119.243
61.07000 119.112
61.08000 119.604
61.09000 120.200
61.10000 123.319
61.11000 127.516
61.12000 131.457
61.13000 135.742
61.14000 139.741
61.15000 142.193
61.16000 133.771
61.17000 123.242
61.18000 115.308
61.19000 119.108
61.20000 124.340
61.21000 128.342
61.22000 122.909
61.23000 118.111
61.24000 115.787
61.25000 118.598
61.26000 121.566
61.27000 123.000
61.28000 122.280
61.29000 121.545
61.30000 121.526
61.31000 122.161
61.32000 122.807
61.33000 124.264
61.34000 126.211
61.35000 128.084
61.36000 128.257
61.37000 127.728
61.38000 127.234
61.39000 128.610
61.40000 130.338
61.41000 131.691
61.42000 130.520
61.43000 128.878
61.44000 127.897
61.45000 129.789
61.46000 132.017
61.47000 133.704
61.48000 133.959
61.49000 134.087
61.50000 136.191
61.51000 142.255
61.52000 148.430
61.53000 158.469
61.54000 173.729
61.55000 189.010
61.56000 202.464
61.57000 214.295
61.58000 226.145
61.59000 239.069
61.60000 252.623
61.61000 265.878
61.62000 272.893
61.63000 277.420
61.64000 281.638
61.65000 283.219
61.66000 284.002
61.67000 284.580
61.68000 283.827
61.69000 282.837
61.70000 282.619
61.71000 285.647
61.72000 289.035
61.73000 291.577
61.74000 284.148
61.75000 277.870
61.76000 268.375
61.77000 252.662
61.78000 236.791
61.79000 224.364
61.80000 216.419
61.81000 208.501
61.82000 197.648
61.83000 184.348
61.84000 171.088
61.85000 159.933
61.86000 149.965
61.87000 140.448
61.88000 139.701
61.89000 142.331
61.90000 144.770
61.91000 146.642
61.92000 148.194
61.93000 149.259
61.94000 147.304
61.95000 144.831
61.96000 142.072
61.97000 138.162
61.98000 134.129
61.99000 131.133
62.00000 130.586
62.01000 130.269
62.02000 128.861
62.03000 125.413
62.04000 121.919
62.05000 121.129
62.06000 123.730
62.07000 126.337
62.08000 128.211
62.09000 129.484
62.10000 130.705
62.11000 129.520
62.12000 127.024
62.13000 124.610
62.14000 123.710
62.15000 123.372
62.16000 123.060
62.17000 124.848
62.18000 126.926
62.19000 128.907
62.20000 130.309
62.21000 131.616
62.22000 132.278
62.23000 130.427
62.24000 128.324
62.25000 126.777
62.26000 127.011
62.27000 127.265
62.28000 127.851
62.29000 129.035
62.30000 130.232
62.31000 129.636
62.32000 126.878
62.33000 124.121
62.34000 123.917
62.35000 125.700
62.36000 127.420
62.37000 126.493
62.38000 124.173
62.39000 121.942
62.40000 121.228
62.41000 121.059
62.42000 120.903
62.43000 123.012
62.44000 125.388
62.45000 127.192
62.46000 125.734
62.47000 123.760
62.48000 122.460
62.49000 123.692
62.50000 125.167
62.51000 126.241
62.52000 127.097
62.53000 127.749
62.54000 128.578
62.55000 129.719
62.56000 130.865
62.57000 131.502
62.58000 131.549
62.59000 131.594
62.60000 130.789
62.61000 129.353
62.62000 127.998
62.63000 129.738
62.64000 133.050
62.65000 136.130
62.66000 135.534
62.67000 133.665
62.68000 131.953
62.69000 133.571
62.70000 135.704
62.71000 137.318
62.72000 136.088
62.73000 134.426
62.74000 133.622
62.75000 135.923
62.76000 138.506
62.77000 140.368
62.78000 135.700
62.79000 131.894
62.80000 128.838
62.81000 127.044
62.82000 125.269
62.83000 125.602
62.84000 128.286
62.85000 130.962
62.86000 130.999
62.87000 129.135
62.88000 127.328
62.89000 127.490
62.90000 128.616
62.91000 129.597
62.92000 128.394
62.93000 126.462
62.94000 124.701
62.95000 132.765
62.96000 141.870
62.97000 149.231
62.98000 147.420
62.99000 144.277
63.00000 141.463
63.01000 139.801
63.02000 138.239
63.03000 137.125
63.04000 132.927
63.05000 129.627
63.06000 128.145
63.07000 129.607
63.08000 131.110
63.09000 132.114
63.10000 132.585
63.11000 133.054
63.12000 134.204
63.13000 135.813
63.14000 137.258
63.15000 133.587
63.16000 127.496
63.17000 122.040
63.18000 125.528
63.19000 131.906
63.20000 137.690
63.21000 137.252
63.22000 135.676
63.23000 133.688
63.24000 129.616
63.25000 125.253
63.26000 122.870
63.27000 127.164
63.28000 132.002
63.29000 135.413
63.30000 138.658
63.31000 141.114
63.32000 142.489
63.33000 142.173
63.34000 141.838
63.35000 139.733
63.36000 135.805
63.37000 131.899
63.38000 129.150
63.39000 127.204
63.40000 125.392
63.41000 127.377
63.42000 131.098
63.43000 134.459
63.44000 133.063
63.45000 130.182
63.46000 127.583
63.47000 130.077
63.48000 133.202
63.49000 135.691
63.50000 135.083
63.51000 134.062
63.52000 133.933
63.53000 136.706
63.54000 139.703
63.55000 141.791
63.56000 141.925
63.57000 141.973
63.58000 140.761
63.59000 137.653
63.60000 134.527
63.61000 132.728
63.62000 132.240
63.63000 131.756
63.64000 130.837
63.65000 129.652
63.66000 128.541
63.67000 129.319
63.68000 130.931
63.69000 132.665
63.70000 135.927
63.71000 139.648
63.72000 142.989
63.73000 139.314
63.74000 134.866
63.75000 131.315
63.76000 131.956
63.77000 133.132
63.78000 134.612
63.79000 137.053
63.80000 139.563
63.81000 141.292
63.82000 143.355
63.83000 144.912
63.84000 144.773
63.85000 142.175
63.86000 139.557
63.87000 140.923
63.88000 146.068
63.89000 151.172
63.90000 150.831
63.91000 147.143
63.92000 143.628
63.93000 144.284
63.94000 146.718
63.95000 148.890
63.96000 147.956
63.97000 146.121
63.98000 144.482
63.99000 143.819
64.00000 143.405
64.01000 143.602
64.02000 146.550
64.03000 149.832
64.04000 150.923
64.05000 145.368
64.06000 139.358
64.07000 135.267
64.08000 141.217
64.09000 145.891
64.10000 149.034
64.11000 150.036
64.12000 151.023
64.13000 150.245
64.14000 147.859
64.15000 145.496
64.16000 146.319
64.17000 149.015
64.18000 151.660
64.19000 153.186
64.20000 154.251
64.21000 155.245
64.22000 155.435
64.23000 155.401
64.24000 155.371
64.25000 153.870
64.26000 152.333
64.27000 151.070
64.28000 151.004
64.29000 151.077
64.30000 151.745
64.31000 154.153
64.32000 156.673
64.33000 158.367
64.34000 153.137
64.35000 149.107
64.36000 147.624
64.37000 149.570
64.38000 151.534
64.39000 153.426
64.40000 155.256
64.41000 157.065
64.42000 155.534
64.43000 152.131
64.44000 148.890
64.45000 148.993
64.46000 150.424
64.47000 151.602
64.48000 150.071
64.49000 147.809
64.50000 145.810
64.51000 151.281
64.52000 157.155
64.53000 162.285
64.54000 164.304
64.55000 165.979
64.56000 166.090
64.57000 161.784
64.58000 157.210
64.59000 154.173
64.60000 163.661
64.61000 170.908
64.62000 173.582
64.63000 170.324
64.64000 167.042
64.65000 163.942
64.66000 160.994
64.67000 158.082
64.68000 162.577
64.69000 171.023
64.70000 179.039
64.71000 178.753
64.72000 175.279
64.73000 171.837
64.74000 168.713
64.75000 165.672
64.76000 163.001
64.77000 162.881
64.78000 163.153
64.79000 164.215
64.80000 168.460
64.81000 173.041
64.82000 175.730
64.83000 173.257
64.84000 170.491
64.85000 168.677
64.86000 177.543
64.87000 184.240
64.88000 187.733
64.89000 187.225
64.90000 186.705
64.91000 185.981
64.92000 185.093
64.93000 184.217
64.94000 180.912
64.95000 176.417
64.96000 172.219
64.97000 173.360
64.98000 176.481
64.99000 179.781
65.00000 184.816
65.01000 190.285
65.02000 195.062
65.03000 191.077
65.04000 186.434
65.05000 183.351
65.06000 186.331
65.07000 189.918
65.08000 192.241
65.09000 191.233
65.10000 190.049
65.11000 189.283
65.12000 193.963
65.13000 197.465
65.14000 199.671
65.15000 200.320
65.16000 200.952
65.17000 198.289
65.18000 193.055
65.19000 187.902
65.20000 192.841
65.21000 202.753
65.22000 212.610
65.23000 221.525
65.24000 230.104
65.25000 237.676
65.26000 235.998
65.27000 232.082
65.28000 228.683
65.29000 230.501
65.30000 232.751
65.31000 234.950
65.32000 236.953
65.33000 238.937
65.34000 240.311
65.35000 240.128
65.36000 239.869
65.37000 239.704
65.38000 257.992
65.39000 271.536
65.40000 275.827
65.41000 269.420
65.42000 263.022
65.43000 261.350
65.44000 263.228
65.45000 265.073
65.46000 271.976
65.47000 281.117
65.48000 289.684
65.49000 289.161
65.50000 285.496
65.51000 282.343
65.52000 283.668
65.53000 286.035
65.54000 288.078
65.55000 305.193
65.56000 321.644
65.57000 336.077
65.58000 343.214
65.59000 349.692
65.60000 357.049
65.61000 366.566
65.62000 376.181
65.63000 382.235
65.64000 412.018
65.65000 433.835
65.66000 465.267
65.67000 507.383
65.68000 549.664
65.69000 616.984
65.70000 702.424
65.71000 786.196
65.72000 888.942
65.73000 996.799
65.74000 1105.568
65.75000 1227.917
65.76000 1354.797
65.77000 1478.584
65.78000 1576.549
65.79000 1668.718
65.80000 1747.729
65.81000 1810.692
65.82000 1861.903
65.83000 1904.717
65.84000 1918.264
65.85000 1929.301
65.86000 1937.062
65.87000 1937.050
65.88000 1936.706
65.89000 1936.493
65.90000 1890.155
65.91000 1856.362
65.92000 1809.748
65.93000 1749.444
65.94000 1688.917
65.95000 1600.438
65.96000 1492.467
65.97000 1386.828
65.98000 1266.940
65.99000 1145.430
66.00000 1024.776
66.01000 916.129
66.02000 811.348
66.03000 711.401
66.04000 650.001
66.05000 596.933
66.06000 551.735
66.07000 512.451
66.08000 480.112
66.09000 450.196
66.10000 428.427
66.11000 407.319
66.12000 390.282
66.13000 382.573
66.14000 375.231
66.15000 370.741
66.16000 379.847
66.17000 386.476
66.18000 383.136
66.19000 369.570
66.20000 356.155
66.21000 358.675
66.22000 371.908
66.23000 384.825
66.24000 400.238
66.25000 416.068
66.26000 431.597
66.27000 443.133
66.28000 453.428
66.29000 465.263
66.30000 488.833
66.31000 514.843
66.32000 536.849
66.33000 554.932
66.34000 569.632
66.35000 583.987
66.36000 597.222
66.37000 610.372
66.38000 620.037
66.39000 621.993
66.40000 623.669
66.41000 624.679
66.42000 614.716
66.43000 607.549
66.44000 608.396
66.45000 617.133
66.46000 625.690
66.47000 618.260
66.48000 600.468
66.49000 583.140
66.50000 563.693
66.51000 544.266
66.52000 524.709
66.53000 503.526
66.54000 481.857
66.55000 460.209
66.56000 438.720
66.57000 417.263
66.58000 399.233
66.59000 386.495
66.60000 376.441
66.61000 369.407
66.62000 371.827
66.63000 374.931
66.64000 374.188
66.65000 365.224
66.66000 355.987
66.67000 350.508
66.68000 339.846
66.69000 332.274
66.70000 332.892
66.71000 341.251
66.72000 349.522
66.73000 350.990
66.74000 348.208
66.75000 345.504
66.76000 342.784
66.77000 340.192
66.78000 338.243
66.79000 343.894
66.80000 351.744
66.81000 357.674
66.82000 350.210
66.83000 340.169
66.84000 331.790
66.85000 349.890
66.86000 367.562
66.87000 380.110
66.88000 377.174
66.89000 373.182
66.90000 369.848
66.91000 367.874
66.92000 365.941
66.93000 364.812
66.94000 362.602
66.95000 361.043
66.96000 358.538
66.97000 355.175
66.98000 351.891
66.99000 353.888
67.00000 359.069
67.01000 364.089
67.02000 361.930
67.03000 357.096
67.04000 352.984
67.05000 356.946
67.06000 363.163
67.07000 369.033
67.08000 372.584
67.09000 375.706
67.10000 378.292
67.11000 382.438
67.12000 386.009
67.13000 386.918
67.14000 380.059
67.15000 372.701
67.16000 369.438
67.17000 374.328
67.18000 379.444
67.19000 382.382
67.20000 375.150
67.21000 370.064
67.22000 372.206
67.23000 380.660
67.24000 389.005
67.25000 391.054
67.26000 389.440
67.27000 387.880
67.28000 392.293
67.29000 398.686
67.30000 404.206
67.31000 400.431
67.32000 394.154
67.33000 389.520
67.34000 395.415
67.35000 403.182
67.36000 409.569
67.37000 408.175
67.38000 406.326
67.39000 405.958
67.40000 409.765
67.41000 413.824
67.42000 414.530
67.43000 408.791
67.44000 402.891
67.45000 399.559
67.46000 408.876
67.47000 415.380
67.48000 417.090
67.49000 414.776
67.50000 412.558
67.51000 415.297
67.52000 420.818
67.53000 426.138
67.54000 430.762
67.55000 434.857
67.56000 438.368
67.57000 435.995
67.58000 432.094
67.59000 429.494
67.60000 434.885
67.61000 441.641
67.62000 447.155
67.63000 443.340
67.64000 439.419
67.65000 436.591
67.66000 436.737
67.67000 437.050
67.68000 437.176
67.69000 436.954
67.70000 436.724
67.71000 436.596
67.72000 445.438
67.73000 451.566
67.74000 457.709
67.75000 463.865
67.76000 469.874
67.77000 469.189
67.78000 464.877
67.79000 460.734
67.80000 460.933
67.81000 462.622
67.82000 464.436
67.83000 467.453
67.84000 470.771
67.85000 472.893
67.86000 467.964
67.87000 461.880
67.88000 456.952
67.89000 459.711
67.90000 462.582
67.91000 465.763
67.92000 469.753
67.93000 473.786
67.94000 475.328
67.95000 472.406
67.96000 469.395
67.97000 467.752
67.98000 482.557
67.99000 492.723
68.00000 496.661
68.01000 495.756
68.02000 494.840
68.03000 493.468
68.04000 491.858
68.05000 490.315
68.06000 495.311
68.07000 502.148
68.08000 509.221
68.09000 518.454
68.10000 528.209
68.11000 536.245
68.12000 534.546
68.13000 531.319
68.14000 528.726
68.15000 533.552
68.16000 538.034
68.17000 541.456
68.18000 542.188
68.19000 542.789
68.20000 544.025
68.21000 546.361
68.22000 548.716
68.23000 549.978
68.24000 561.715
68.25000 569.679
68.26000 567.115
68.27000 556.666
68.28000 546.644
68.29000 552.369
68.30000 566.043
68.31000 579.100
68.32000 586.384
68.33000 591.303
68.34000 596.147
68.35000 600.342
68.36000 604.385
68.37000 608.204
68.38000 610.803
68.39000 613.217
68.40000 615.141
68.41000 626.000
68.42000 635.410
68.43000 642.239
68.44000 642.751
68.45000 642.974
68.46000 648.658
68.47000 663.451
68.48000 678.383
68.49000 686.234
68.50000 704.799
68.51000 717.339
68.52000 721.599
68.53000 719.886
68.54000 718.526
68.55000 728.968
68.56000 745.162
68.57000 760.574
68.58000 777.909
68.59000 794.547
68.60000 812.329
68.61000 839.631
68.62000 869.065
68.63000 899.134
68.64000 932.530
68.65000 966.406
68.66000 993.181
68.67000 1070.724
68.68000 1136.468
68.69000 1189.697
68.70000 1213.327
68.71000 1235.705
68.72000 1268.577
68.73000 1318.335
68.74000 1368.319
68.75000 1394.094
68.76000 1450.769
68.77000 1489.033
68.78000 1537.892
68.79000 1594.115
68.80000 1649.960
68.81000 1694.267
68.82000 1733.145
68.83000 1770.019
68.84000 1836.973
68.85000 1907.609
68.86000 1982.639
68.87000 2092.566
68.88000 2210.010
68.89000 2358.242
68.90000 2661.243
68.91000 2985.619
68.92000 3239.828
68.93000 4399.301
68.94000 5384.388
68.95000 6745.438
68.96000 8965.217
68.97000 11218.542
68.98000 13939.654
68.99000 17386.627
69.00000 20841.932
69.01000 22588.537
69.02000 27517.861
69.03000 30810.152
69.04000 33477.074
69.05000 35724.945
69.06000 37943.695
69.07000 39347.699
69.08000 40381.414
69.09000 41358.414
69.10000 41986.102
69.11000 42463.141
69.12000 42966.570
69.13000 43670.402
69.14000 44415.789
69.15000 45138.918
69.16000 45754.410
69.17000 46355.684
69.18000 46822.793
69.19000 46229.473
69.20000 45693.137
69.21000 44529.762
69.22000 41983.336
69.23000 39387.188
69.24000 36707.223
69.25000 33901.852
69.26000 31095.301
69.27000 28778.021
69.28000 26940.838
69.29000 25109.793
69.30000 23819.576
69.31000 22878.781
69.32000 21957.318
69.33000 21533.527
69.34000 21328.152
69.35000 21134.758
69.36000 20720.135
69.37000 20280.348
69.38000 19759.279
69.39000 18647.867
69.40000 17418.703
69.41000 16082.773
69.42000 14249.927
69.43000 12354.333
69.44000 10894.818
69.45000 8854.152
69.46000 7205.529
69.47000 5775.259
69.48000 4810.059
69.49000 3860.184
69.50000 3101.959
69.51000 2620.128
69.52000 2140.573
69.53000 1814.266
69.54000 1632.399
69.55000 1451.333
69.56000 1330.655
69.57000 1247.606
69.58000 1165.499
69.59000 1105.758
69.60000 1055.496
69.61000 1008.346
69.62000 971.699
69.63000 941.072
69.64000 909.954
69.65000 875.427
69.66000 840.246
69.67000 808.683
69.68000 793.330
69.69000 779.933
69.70000 769.712
69.71000 739.361
69.72000 714.372
69.73000 696.794
69.74000 694.456
69.75000 692.577
69.76000 684.515
69.77000 667.863
69.78000 651.159
69.79000 636.953
69.80000 625.017
69.81000 613.161
69.82000 606.475
69.83000 602.897
69.84000 599.412
69.85000 598.003
69.86000 597.442
69.87000 596.918
69.88000 583.064
69.89000 567.127
69.90000 553.427
69.91000 554.630
69.92000 558.581
69.93000 558.284
69.94000 539.661
69.95000 518.928
69.96000 503.258
69.97000 499.152
69.98000 496.510
69.99000 493.861
70.00000 491.198
