20.00000 490.749
20.01000 485.616
20.02000 479.749
20.03000 475.407
20.04000 477.068
20.05000 479.340
20.06000 481.016
20.07000 472.777
20.08000 465.979
20.09000 464.228
20.10000 471.654
20.11000 479.273
20.12000 481.567
20.13000 477.376
20.14000 473.177
20.15000 469.571
20.16000 466.448
20.17000 463.330
20.18000 460.450
20.19000 457.697
20.20000 455.306
20.21000 459.166
20.22000 465.290
20.23000 470.928
20.24000 470.616
20.25000 469.034
20.26000 467.855
20.27000 469.001
20.28000 470.519
20.29000 471.925
20.30000 472.905
20.31000 473.843
20.32000 474.528
20.33000 470.496
20.34000 467.205
20.35000 463.707
20.36000 459.848
20.37000 455.982
20.38000 455.140
20.39000 457.842
20.40000 460.542
20.41000 458.913
20.42000 454.022
20.43000 449.280
20.44000 450.270
20.45000 454.197
20.46000 457.651
20.47000 453.462
20.48000 446.599
20.49000 440.308
20.50000 442.886
20.51000 447.047
20.52000 451.862
20.53000 460.302
20.54000 469.298
20.55000 475.596
20.56000 472.031
20.57000 467.559
20.58000 464.327
20.59000 471.383
20.60000 477.166
20.61000 478.107
20.62000 470.849
20.63000 463.458
20.64000 460.242
20.65000 461.730
20.66000 463.217
20.67000 466.784
20.68000 471.835
20.69000 476.617
20.70000 472.054
20.71000 462.869
20.72000 453.994
20.73000 449.825
20.74000 447.245
20.75000 444.892
20.76000 452.880
20.77000 462.050
20.78000 468.687
20.79000 461.852
20.80000 453.037
20.81000 445.756
20.82000 443.883
20.83000 442.482
20.84000 441.481
20.85000 447.694
20.86000 452.676
20.87000 456.508
20.88000 458.458
20.89000 460.382
20.90000 461.420
20.91000 461.498
20.92000 461.575
20.93000 462.448
20.94000 463.869
20.95000 465.213
20.96000 464.119
20.97000 461.859
20.98000 459.338
20.99000 453.093
21.00000 445.632
21.01000 438.858
21.02000 443.781
21.03000 450.390
21.04000 455.899
21.05000 455.787
21.06000 454.885
21.07000 455.088
21.08000 459.053
21.09000 463.329
21.10000 466.352
21.11000 456.064
21.12000 447.843
21.13000 447.038
21.14000 457.920
21.15000 468.945
21.16000 471.522
21.17000 465.315
21.18000 459.139
21.19000 456.426
21.20000 456.074
21.21000 455.889
21.22000 460.564
21.23000 467.480
21.24000 473.275
21.25000 463.977
21.26000 449.929
21.27000 437.236
21.28000 441.110
21.29000 447.587
21.30000 453.801
21.31000 458.721
21.32000 463.467
21.33000 466.260
21.34000 462.641
21.35000 458.521
21.36000 455.640
21.37000 451.244
21.38000 447.879
21.39000 446.778
21.40000 449.116
21.41000 451.490
21.42000 453.535
21.43000 455.253
21.44000 456.960
21.45000 456.629
21.46000 454.984
21.47000 453.434
21.48000 454.387
21.49000 456.456
21.50000 458.291
21.51000 457.154
21.52000 455.114
21.53000 453.281
21.54000 465.475
21.55000 478.643
21.56000 487.926
21.57000 478.826
21.58000 467.361
21.59000 457.290
21.60000 451.642
21.61000 446.321
21.62000 442.644
21.63000 445.849
21.64000 448.435
21.65000 450.395
21.66000 451.436
21.67000 452.470
21.68000 455.466
21.69000 460.343
21.70000 465.183
21.71000 468.814
21.72000 471.632
21.73000 474.241
21.74000 471.718
21.75000 466.987
21.76000 462.514
21.77000 461.158
21.78000 460.714
21.79000 460.318
21.80000 462.952
21.81000 465.764
21.82000 468.342
21.83000 469.849
21.84000 471.224
21.85000 471.913
21.86000 470.501
21.87000 468.943
21.88000 467.879
21.89000 479.161
21.90000 487.889
21.91000 494.971
21.92000 499.733
21.93000 504.474
21.94000 500.253
21.95000 487.781
21.96000 475.419
21.97000 473.804
21.98000 478.652
21.99000 483.441
22.00000 486.864
22.01000 489.720
22.02000 492.433
22.03000 493.501
22.04000 494.105
22.05000 494.642
22.06000 500.117
22.07000 505.674
22.08000 508.754
22.09000 500.974
22.10000 491.919
22.11000 484.786
22.12000 483.329
22.13000 482.244
22.14000 481.512
22.15000 489.746
22.16000 496.062
22.17000 495.646
22.18000 486.072
22.19000 476.455
22.20000 476.335
22.21000 484.619
22.22000 492.817
22.23000 488.547
22.24000 477.190
22.25000 466.439
22.26000 468.460
22.27000 475.605
22.28000 482.331
22.29000 484.520
22.30000 485.474
22.31000 486.317
22.32000 482.271
22.33000 478.012
22.34000 472.989
22.35000 464.740
22.36000 456.131
22.37000 451.136
22.38000 456.446
22.39000 462.391
22.40000 466.351
22.41000 454.441
22.42000 445.323
22.43000 445.821
22.44000 458.918
22.45000 472.044
22.46000 468.855
22.47000 451.784
22.48000 434.915
22.49000 433.679
22.50000 441.137
22.51000 448.361
22.52000 450.996
22.53000 451.854
22.54000 452.249
22.55000 447.893
22.56000 442.288
22.57000 437.357
22.58000 428.949
22.59000 421.196
22.60000 417.333
22.61000 429.301
22.62000 442.958
22.63000 452.158
22.64000 449.094
22.65000 445.323
22.66000 442.842
22.67000 432.894
22.68000 425.442
22.69000 421.601
22.70000 422.316
22.71000 423.062
22.72000 430.109
22.73000 442.315
22.74000 454.356
22.75000 453.060
22.76000 444.687
22.77000 436.484
22.78000 431.379
22.79000 427.433
22.80000 424.298
22.81000 429.080
22.82000 435.868
22.83000 441.804
22.84000 435.514
22.85000 428.385
22.86000 422.665
22.87000 422.474
22.88000 422.845
22.89000 425.139
22.90000 432.543
22.91000 440.223
22.92000 445.208
22.93000 450.555
22.94000 454.476
22.95000 453.772
22.96000 447.455
22.97000 441.123
22.98000 434.448
22.99000 427.504
23.00000 420.666
23.01000 425.182
23.02000 435.388
23.03000 444.726
23.04000 439.179
23.05000 428.257
23.06000 419.169
23.07000 427.140
23.08000 439.277
23.09000 449.829
23.10000 441.601
23.11000 432.030
23.12000 424.934
23.13000 427.194
23.14000 430.358
23.15000 432.981
23.16000 434.216
23.17000 435.380
23.18000 436.126
23.19000 439.692
23.20000 442.327
23.21000 439.400
23.22000 429.979
23.23000 420.597
23.24000 421.515
23.25000 430.247
23.26000 438.830
23.27000 442.980
23.28000 444.802
23.29000 446.194
23.30000 440.685
23.31000 432.769
23.32000 425.934
23.33000 428.677
23.34000 433.674
23.35000 437.992
23.36000 437.409
23.37000 436.277
23.38000 435.840
23.39000 437.936
23.40000 440.264
23.41000 440.353
23.42000 434.893
23.43000 429.174
23.44000 425.561
23.45000 423.773
23.46000 422.498
23.47000 425.048
23.48000 431.892
23.49000 438.730
23.50000 444.105
23.51000 448.412
23.52000 452.636
23.53000 454.710
23.54000 455.686
23.55000 456.431
23.56000 453.684
23.57000 449.761
23.58000 446.129
23.59000 444.951
23.60000 444.330
23.61000 443.797
23.62000 437.773
23.63000 432.001
23.64000 430.860
23.65000 446.007
23.66000 462.570
23.67000 474.624
23.68000 475.886
23.69000 476.679
23.70000 477.174
23.71000 473.897
23.72000 471.497
23.73000 471.727
23.74000 474.792
23.75000 477.825
23.76000 476.227
23.77000 471.370
23.78000 466.615
23.79000 462.973
23.80000 459.984
23.81000 457.850
23.82000 467.884
23.83000 481.871
23.84000 493.593
23.85000 487.037
23.86000 476.493
23.87000 467.498
23.88000 473.751
23.89000 480.812
23.90000 486.272
23.91000 486.293
23.92000 485.867
23.93000 487.656
23.94000 494.567
23.95000 501.684
23.96000 506.053
23.97000 507.290
23.98000 508.150
23.99000 505.822
24.00000 500.190
24.01000 494.615
24.02000 495.386
24.03000 500.463
24.04000 505.423
24.05000 507.018
24.06000 507.065
24.07000 506.746
24.08000 501.528
24.09000 494.773
24.10000 488.371
24.11000 484.697
24.12000 481.594
24.13000 478.965
24.14000 488.337
24.15000 497.539
24.16000 499.459
24.17000 477.540
24.18000 453.765
24.19000 441.628
24.20000 455.470
24.21000 470.273
24.22000 479.225
24.23000 463.596
24.24000 452.279
24.25000 444.564
24.26000 440.433
24.27000 436.351
24.28000 436.810
24.29000 440.240
24.30000 443.583
24.31000 446.387
24.32000 448.835
24.33000 450.424
24.34000 441.148
24.35000 428.582
24.36000 418.064
24.37000 422.649
24.38000 430.286
24.39000 436.714
24.40000 431.958
24.41000 426.795
24.42000 422.952
24.43000 423.280
24.44000 423.914
24.45000 425.066
24.46000 427.334
24.47000 429.639
24.48000 431.012
24.49000 423.642
24.50000 418.367
24.51000 416.441
24.52000 417.714
24.53000 418.931
24.54000 415.658
24.55000 409.553
24.56000 403.618
24.57000 400.020
24.58000 397.552
24.59000 395.863
24.60000 403.508
24.61000 413.879
24.62000 423.029
24.63000 423.560
24.64000 422.416
24.65000 421.460
24.66000 414.986
24.67000 409.048
24.68000 406.419
24.69000 413.880
24.70000 422.041
24.71000 425.265
24.72000 418.217
24.73000 410.849
24.74000 406.530
24.75000 410.825
24.76000 413.893
24.77000 414.422
24.78000 412.621
24.79000 410.818
24.80000 408.827
24.81000 406.722
24.82000 404.681
24.83000 401.682
24.84000 398.465
24.85000 395.714
24.86000 398.251
24.87000 402.278
24.88000 406.953
24.89000 416.008
24.90000 425.881
24.91000 434.075
24.92000 429.473
24.93000 424.431
24.94000 419.011
24.95000 412.476
24.96000 405.867
24.97000 401.465
24.98000 401.495
24.99000 401.650
25.00000 401.739
25.01000 414.928
25.02000 424.205
25.03000 421.747
25.04000 408.940
25.05000 396.347
25.06000 396.547
25.07000 404.255
25.08000 411.710
25.09000 408.920
25.10000 402.417
25.11000 396.448
25.12000 396.229
25.13000 397.572
25.14000 398.488
25.15000 396.635
25.16000 394.285
25.17000 392.348
25.18000 400.871
25.19000 408.844
25.20000 416.041
25.21000 421.036
25.22000 425.895
25.23000 422.570
25.24000 403.368
25.25000 383.760
25.26000 372.635
25.27000 384.154
25.28000 392.233
25.29000 395.319
25.30000 394.169
25.31000 393.103
25.32000 396.420
25.33000 402.220
25.34000 407.813
25.35000 400.584
25.36000 389.127
25.37000 379.104
25.38000 383.758
25.39000 392.259
25.40000 399.884
25.41000 402.077
25.42000 403.332
25.43000 404.359
25.44000 404.849
25.45000 405.204
25.46000 402.771
25.47000 392.685
25.48000 382.161
25.49000 375.174
25.50000 374.810
25.51000 374.599
25.52000 374.482
25.53000 386.254
25.54000 394.420
25.55000 399.801
25.56000 402.910
25.57000 405.921
25.58000 404.369
25.59000 400.323
25.60000 396.431
25.61000 394.116
25.62000 392.497
25.63000 390.935
25.64000 389.931
25.65000 389.069
25.66000 388.220
25.67000 387.457
25.68000 386.707
25.69000 386.099
25.70000 388.872
25.71000 391.412
25.72000 392.811
25.73000 391.186
25.74000 389.399
25.75000 389.976
25.76000 394.829
25.77000 399.769
25.78000 402.477
25.79000 392.067
25.80000 384.883
25.81000 376.458
25.82000 367.057
25.83000 358.007
25.84000 363.643
25.85000 377.029
25.86000 389.862
25.87000 391.183
25.88000 388.546
25.89000 386.182
25.90000 386.356
25.91000 387.148
25.92000 386.850
25.93000 380.310
25.94000 372.779
25.95000 366.716
25.96000 379.856
25.97000 392.016
25.98000 400.893
25.99000 401.365
26.00000 401.416
26.01000 397.918
26.02000 388.227
26.03000 378.424
26.04000 373.147
26.05000 369.405
26.06000 366.872
26.07000 369.301
26.08000 375.482
26.09000 381.615
26.10000 385.929
26.11000 389.318
26.12000 392.556
26.13000 391.670
26.14000 389.511
26.15000 387.318
26.16000 384.827
26.17000 382.267
26.18000 380.463
26.19000 382.817
26.20000 385.804
26.21000 388.189
26.22000 384.736
26.23000 381.516
26.24000 380.006
26.25000 382.724
26.26000 385.638
26.27000 384.120
26.28000 375.144
26.29000 366.049
26.30000 361.244
26.31000 385.635
26.32000 402.119
26.33000 402.680
26.34000 391.644
26.35000 380.967
26.36000 382.603
26.37000 390.295
26.38000 397.621
26.39000 395.739
26.40000 391.131
26.41000 386.378
26.42000 380.407
26.43000 374.161
26.44000 370.060
26.45000 377.285
26.46000 386.163
26.47000 393.195
26.48000 395.908
26.49000 397.788
26.50000 394.839
26.51000 380.364
26.52000 365.391
26.53000 360.535
26.54000 372.107
26.55000 383.908
26.56000 390.023
26.57000 384.534
26.58000 380.835
26.59000 378.230
26.60000 376.391
26.61000 374.607
26.62000 374.523
26.63000 375.248
26.64000 375.935
26.65000 371.939
26.66000 366.851
26.67000 362.721
26.68000 366.297
26.69000 371.550
26.70000 376.803
26.71000 382.064
26.72000 387.326
26.73000 391.458
26.74000 392.723
26.75000 393.547
26.76000 393.937
26.77000 393.328
26.78000 392.679
26.79000 391.895
26.80000 390.896
26.81000 389.895
26.82000 389.387
26.83000 382.425
26.84000 377.763
26.85000 373.494
26.86000 369.492
26.87000 365.690
26.88000 367.586
26.89000 372.095
26.90000 376.360
26.91000 377.599
26.92000 377.867
26.93000 377.651
26.94000 373.715
26.95000 369.001
26.96000 365.443
26.97000 367.535
26.98000 370.381
26.99000 372.597
27.00000 372.933
27.01000 373.084
27.02000 373.448
27.03000 374.284
27.04000 375.138
27.05000 374.108
27.06000 370.232
27.07000 366.327
27.08000 364.901
27.09000 365.933
27.10000 366.991
27.11000 370.353
27.12000 375.218
27.13000 379.816
27.14000 377.402
27.15000 371.883
27.16000 366.681
27.17000 367.403
27.18000 369.701
27.19000 371.347
27.20000 368.198
27.21000 364.083
27.22000 362.374
27.23000 371.973
27.24000 383.017
27.25000 391.539
27.26000 375.790
27.27000 361.899
27.28000 352.692
27.29000 353.548
27.30000 354.744
27.31000 357.663
27.32000 363.092
27.33000 368.541
27.34000 371.264
27.35000 371.392
27.36000 371.474
27.37000 368.029
27.38000 362.364
27.39000 357.084
27.40000 361.126
27.41000 369.155
27.42000 376.695
27.43000 375.252
27.44000 371.550
27.45000 368.763
27.46000 372.400
27.47000 377.281
27.48000 380.252
27.49000 374.579
27.50000 367.851
27.51000 362.706
27.52000 360.202
27.53000 358.369
27.54000 361.135
27.55000 373.440
27.56000 386.039
27.57000 390.954
27.58000 385.086
27.59000 379.146
27.60000 375.781
27.61000 374.771
27.62000 373.824
27.63000 377.099
27.64000 382.935
27.65000 388.591
27.66000 390.196
27.67000 390.128
27.68000 390.064
27.69000 382.971
27.70000 374.736
27.71000 368.031
27.72000 371.629
27.73000 377.147
27.74000 380.146
27.75000 372.172
27.76000 362.921
27.77000 355.912
27.78000 360.649
27.79000 364.965
27.80000 366.736
27.81000 363.407
27.82000 359.935
27.83000 359.995
27.84000 364.827
27.85000 369.682
27.86000 371.693
27.87000 371.205
27.88000 370.639
27.89000 365.462
27.90000 357.587
27.91000 350.291
27.92000 355.052
27.93000 364.622
27.94000 373.537
27.95000 374.481
27.96000 373.380
27.97000 372.423
27.98000 372.394
27.99000 372.531
28.00000 372.062
28.01000 369.046
28.02000 365.748
28.03000 363.273
28.04000 355.768
28.05000 349.665
28.06000 346.721
28.07000 349.886
28.08000 353.207
28.09000 357.400
28.10000 362.729
28.11000 368.057
28.12000 367.378
28.13000 361.636
28.14000 355.977
28.15000 354.659
28.16000 355.795
28.17000 356.945
28.18000 358.388
28.19000 359.943
28.20000 361.387
28.21000 364.316
28.22000 367.304
28.23000 369.642
28.24000 367.954
28.25000 365.574
28.26000 362.577
28.27000 357.088
28.28000 351.334
28.29000 347.059
28.30000 358.926
28.31000 368.869
28.32000 372.374
28.33000 363.856
28.34000 355.065
28.35000 352.742
28.36000 358.525
28.37000 364.324
28.38000 366.513
28.39000 365.767
28.40000 364.908
28.41000 358.762
28.42000 349.735
28.43000 341.468
28.44000 346.985
28.45000 357.627
28.46000 367.459
28.47000 360.338
28.48000 350.118
28.49000 342.155
28.50000 347.601
28.51000 355.259
28.52000 360.293
28.53000 355.102
28.54000 348.880
28.55000 344.303
28.56000 346.133
28.57000 347.813
28.58000 350.018
28.59000 353.168
28.60000 356.338
28.61000 355.131
28.62000 348.646
28.63000 342.163
28.64000 343.573
28.65000 351.123
28.66000 358.599
28.67000 363.026
28.68000 365.848
28.69000 368.304
28.70000 364.552
28.71000 358.572
28.72000 353.071
28.73000 348.834
28.74000 345.323
28.75000 344.060
28.76000 355.615
28.77000 369.198
28.78000 376.779
28.79000 361.801
28.80000 344.665
28.81000 332.188
28.82000 342.446
28.83000 351.214
28.84000 356.644
28.85000 356.270
28.86000 355.790
28.87000 356.416
28.88000 358.324
28.89000 360.229
28.90000 359.645
28.91000 357.201
28.92000 354.918
28.93000 358.664
28.94000 365.471
28.95000 371.862
28.96000 371.618
28.97000 369.074
28.98000 366.745
28.99000 361.561
29.00000 356.356
29.01000 351.656
29.02000 349.727
29.03000 348.219
29.04000 347.173
29.05000 347.805
29.06000 348.589
29.07000 349.154
29.08000 349.932
29.09000 350.536
29.10000 353.178
29.11000 359.239
29.12000 365.355
29.13000 366.668
29.14000 362.623
29.15000 358.588
29.16000 358.234
29.17000 360.533
29.18000 362.791
29.19000 363.689
29.20000 363.921
29.21000 364.046
29.22000 362.591
29.23000 360.607
29.24000 358.800
29.25000 358.127
29.26000 357.758
29.27000 356.936
29.28000 353.731
29.29000 350.179
29.30000 347.679
29.31000 348.856
29.32000 350.349
29.33000 351.413
29.34000 353.384
29.35000 354.915
29.36000 353.807
29.37000 348.424
29.38000 342.982
29.39000 342.432
29.40000 347.124
29.41000 351.797
29.42000 351.038
29.43000 346.527
29.44000 342.107
29.45000 340.481
29.46000 340.178
29.47000 340.005
29.48000 341.667
29.49000 343.921
29.50000 345.966
29.51000 346.990
29.52000 347.698
29.53000 349.382
29.54000 356.007
29.55000 363.320
29.56000 367.024
29.57000 358.554
29.58000 349.092
29.59000 342.422
29.60000 345.147
29.61000 347.496
29.62000 349.788
29.63000 351.989
29.64000 354.188
29.65000 354.498
29.66000 352.862
29.67000 351.235
29.68000 349.429
29.69000 347.528
29.70000 345.770
29.71000 348.100
29.72000 352.300
29.73000 356.355
29.74000 358.505
29.75000 360.060
29.76000 361.463
29.77000 366.730
29.78000 372.064
29.79000 376.551
29.80000 376.910
29.81000 376.718
29.82000 377.962
29.83000 383.874
29.84000 390.146
29.85000 394.518
29.86000 380.689
29.87000 369.752
29.88000 362.803
29.89000 361.858
29.90000 360.973
29.91000 361.924
29.92000 364.689
29.93000 367.435
29.94000 369.247
29.95000 370.435
29.96000 371.658
29.97000 373.816
29.98000 376.387
29.99000 378.462
30.00000 374.320
30.01000 368.308
30.02000 362.909
30.03000 361.034
30.04000 360.012
30.05000 360.361
30.06000 367.131
30.07000 374.719
30.08000 380.492
30.09000 380.565
30.10000 380.224
30.11000 379.989
30.12000 381.288
30.13000 382.301
30.14000 379.186
30.15000 370.080
30.16000 360.924
30.17000 358.974
30.18000 363.859
30.19000 368.705
30.20000 372.157
30.21000 374.690
30.22000 377.276
30.23000 381.142
30.24000 385.555
30.25000 389.431
30.26000 386.939
30.27000 382.598
30.28000 378.721
30.29000 367.320
30.30000 356.123
30.31000 347.835
30.32000 352.657
30.33000 359.072
30.34000 365.888
30.35000 373.913
30.36000 382.021
30.37000 387.541
30.38000 375.046
30.39000 365.302
30.40000 357.374
30.41000 351.986
30.42000 346.617
30.43000 345.983
30.44000 349.662
30.45000 353.308
30.46000 355.112
30.47000 355.789
30.48000 356.441
30.49000 356.555
30.50000 356.448
30.51000 356.483
30.52000 358.125
30.53000 360.216
30.54000 362.074
30.55000 366.191
30.56000 370.125
30.57000 374.060
30.58000 378.001
30.59000 381.942
30.60000 383.431
30.61000 377.741
30.62000 371.589
30.63000 367.451
30.64000 369.090
30.65000 370.427
30.66000 369.611
30.67000 365.893
30.68000 362.167
30.69000 365.417
30.70000 374.780
30.71000 384.043
30.72000 381.131
30.73000 371.340
30.74000 362.062
30.75000 363.422
30.76000 369.012
30.77000 374.014
30.78000 372.749
30.79000 369.792
30.80000 367.179
30.81000 375.606
30.82000 384.583
30.83000 392.126
30.84000 393.670
30.85000 394.551
30.86000 395.662
30.87000 397.419
30.88000 399.216
30.89000 400.409
30.90000 401.037
30.91000 401.490
30.92000 403.110
30.93000 406.246
30.94000 409.385
30.95000 411.460
30.96000 412.637
30.97000 413.800
30.98000 420.282
30.99000 429.518
31.00000 438.608
31.01000 444.897
31.02000 450.111
31.03000 456.050
31.04000 469.351
31.05000 484.568
31.06000 497.935
31.07000 504.043
31.08000 508.225
31.09000 514.433
31.10000 528.811
31.11000 544.049
31.12000 559.883
31.13000 577.342
31.14000 594.893
31.15000 606.399
31.16000 639.756
31.17000 664.647
31.18000 680.884
31.19000 686.309
31.20000 691.745
31.21000 713.160
31.22000 747.530
31.23000 781.421
31.24000 806.257
31.25000 825.611
31.26000 845.218
31.27000 869.399
31.28000 895.276
31.29000 920.078
31.30000 934.508
31.31000 946.334
31.32000 956.661
31.33000 980.373
31.34000 1002.551
31.35000 1019.181
31.36000 1014.252
31.37000 1007.162
31.38000 1004.062
31.39000 1011.476
31.40000 1019.447
31.41000 1024.604
31.42000 1007.535
31.43000 994.723
31.44000 981.686
31.45000 968.381
31.46000 955.060
31.47000 937.943
31.48000 917.862
31.49000 898.095
31.50000 879.345
31.51000 861.695
31.52000 843.583
31.53000 817.677
31.54000 788.982
31.55000 761.218
31.56000 742.007
31.57000 724.865
31.58000 709.985
31.59000 685.052
31.60000 662.455
31.61000 638.414
31.62000 608.961
31.63000 578.993
31.64000 556.052
31.65000 550.989
31.66000 546.809
31.67000 544.141
31.68000 522.363
31.69000 506.272
31.70000 492.600
31.71000 481.727
31.72000 470.874
31.73000 463.447
31.74000 458.596
31.75000 453.829
31.76000 453.344
31.77000 454.970
31.78000 455.628
31.79000 440.988
31.80000 421.058
31.81000 403.590
31.82000 407.668
31.83000 416.770
31.84000 424.622
31.85000 412.512
31.86000 399.680
31.87000 388.894
31.88000 385.507
31.89000 382.789
31.90000 382.859
31.91000 389.776
31.92000 397.008
31.93000 401.561
31.94000 384.739
31.95000 372.325
31.96000 366.941
31.97000 369.372
31.98000 371.795
31.99000 372.002
32.00000 370.606
32.01000 369.237
32.02000 366.728
32.03000 363.775
32.04000 360.770
32.05000 356.984
32.06000 352.938
32.07000 349.460
32.08000 350.721
32.09000 353.046
32.10000 355.039
32.11000 353.715
32.12000 352.192
32.13000 351.723
32.14000 354.931
32.15000 358.455
32.16000 357.836
32.17000 347.391
32.18000 336.526
32.19000 329.784
32.20000 344.780
32.21000 355.784
32.22000 358.831
32.23000 353.377
32.24000 347.935
32.25000 344.244
32.26000 341.774
32.27000 339.358
32.28000 337.063
32.29000 334.915
32.30000 332.678
32.31000 329.187
32.32000 325.293
32.33000 322.003
32.34000 323.534
32.35000 326.108
32.36000 328.300
32.37000 339.549
32.38000 350.063
32.39000 355.501
32.40000 343.871
32.41000 330.855
32.42000 323.087
32.43000 327.339
32.44000 332.064
32.45000 334.955
32.46000 331.071
32.47000 328.235
32.48000 324.275
32.49000 319.161
32.50000 314.068
32.51000 311.306
32.52000 310.111
32.53000 308.944
32.54000 310.449
32.55000 313.053
32.56000 315.533
32.57000 316.364
32.58000 316.684
32.59000 317.116
32.60000 318.407
32.61000 319.878
32.62000 321.122
32.63000 321.298
32.64000 321.326
32.65000 319.646
32.66000 312.423
32.67000 304.774
32.68000 301.234
32.69000 306.784
32.70000 312.664
32.71000 316.206
32.72000 315.059
32.73000 314.210
32.74000 316.580
32.75000 322.119
32.76000 327.648
32.77000 332.286
32.78000 336.346
32.79000 340.300
32.80000 351.874
32.81000 366.104
32.82000 380.387
32.83000 395.326
32.84000 410.462
32.85000 424.930
32.86000 434.522
32.87000 443.139
32.88000 450.379
32.89000 464.228
32.90000 476.464
32.91000 489.583
32.92000 505.465
32.93000 521.546
32.94000 533.187
32.95000 535.341
32.96000 537.180
32.97000 538.271
32.98000 538.016
32.99000 537.828
33.00000 539.526
33.01000 543.007
33.02000 546.384
33.03000 541.747
33.04000 532.102
33.05000 522.732
33.06000 503.618
33.07000 481.525
33.08000 459.549
33.09000 438.951
33.10000 418.753
33.11000 398.712
33.12000 379.777
33.13000 361.055
33.14000 345.432
33.15000 340.806
33.16000 338.075
33.17000 333.597
33.18000 323.840
33.19000 313.724
33.20000 305.711
33.21000 302.038
33.22000 298.497
33.23000 296.429
33.24000 291.204
33.25000 287.515
33.26000 285.329
33.27000 284.507
33.28000 283.705
33.29000 284.215
33.30000 285.517
33.31000 286.779
33.32000 289.494
33.33000 292.629
33.34000 295.477
33.35000 295.120
33.36000 293.868
33.37000 292.510
33.38000 290.447
33.39000 288.254
33.40000 286.437
33.41000 291.778
33.42000 296.870
33.43000 300.716
33.44000 300.924
33.45000 300.898
33.46000 300.886
33.47000 300.900
33.48000 300.916
33.49000 300.925
33.50000 297.317
33.51000 294.785
33.52000 296.178
33.53000 300.998
33.54000 305.681
33.55000 302.411
33.56000 294.514
33.57000 286.882
33.58000 285.463
33.59000 286.448
33.60000 287.417
33.61000 288.226
33.62000 288.991
33.63000 289.658
33.64000 289.696
33.65000 289.622
33.66000 289.561
33.67000 289.835
33.68000 290.090
33.69000 287.884
33.70000 278.747
33.71000 269.192
33.72000 267.297
33.73000 280.130
33.74000 293.330
33.75000 300.788
33.76000 295.802
33.77000 292.308
33.78000 292.728
33.79000 296.435
33.80000 300.084
33.81000 300.814
33.82000 299.904
33.83000 299.028
33.84000 294.616
33.85000 289.197
33.86000 285.075
33.87000 294.048
33.88000 306.422
33.89000 315.852
33.90000 307.198
33.91000 295.458
33.92000 285.875
33.93000 289.810
33.94000 294.189
33.95000 298.089
33.96000 300.688
33.97000 303.214
33.98000 303.892
33.99000 301.142
34.00000 298.315
34.01000 296.745
34.02000 298.517
34.03000 299.759
34.04000 304.721
34.05000 312.687
34.06000 320.477
34.07000 320.227
34.08000 315.620
34.09000 311.193
34.10000 311.588
34.11000 313.626
34.12000 315.596
34.13000 316.906
34.14000 318.051
34.15000 318.497
34.16000 314.821
34.17000 310.470
34.18000 306.946
34.19000 314.805
34.20000 322.130
34.21000 326.192
34.22000 321.684
34.23000 316.724
34.24000 313.558
34.25000 313.605
34.26000 313.716
34.27000 313.776
34.28000 314.985
34.29000 315.825
34.30000 319.011
34.31000 324.021
34.32000 328.923
34.33000 329.404
34.34000 327.574
34.35000 325.820
34.36000 320.761
34.37000 314.941
34.38000 310.284
34.39000 316.259
34.40000 324.800
34.41000 331.120
34.42000 324.872
34.43000 316.648
34.44000 310.040
34.45000 314.194
34.46000 318.388
34.47000 320.277
34.48000 316.321
34.49000 312.078
34.50000 307.937
34.51000 303.972
34.52000 300.010
34.53000 297.887
34.54000 305.393
34.55000 310.493
34.56000 309.761
34.57000 304.660
34.58000 299.717
34.59000 300.624
34.60000 304.484
34.61000 308.169
34.62000 305.196
34.63000 300.301
34.64000 295.069
34.65000 286.892
34.66000 278.032
34.67000 271.979
34.68000 281.204
34.69000 292.730
34.70000 301.917
34.71000 297.168
34.72000 292.325
34.73000 290.523
34.74000 296.175
34.75000 302.167
34.76000 303.853
34.77000 298.358
34.78000 292.752
34.79000 289.805
34.80000 288.350
34.81000 287.353
34.82000 284.612
34.83000 280.614
34.84000 276.756
34.85000 277.607
34.86000 280.754
34.87000 283.748
34.88000 283.411
34.89000 282.073
34.90000 280.801
34.91000 280.076
34.92000 279.473
34.93000 278.209
34.94000 273.482
34.95000 268.255
34.96000 264.124
34.97000 270.792
34.98000 276.886
34.99000 279.628
35.00000 274.440
35.01000 268.916
35.02000 266.783
35.03000 270.108
35.04000 273.506
35.05000 275.258
35.06000 277.958
35.07000 279.782
35.08000 282.408
35.09000 285.590
35.10000 288.480
35.11000 282.449
35.12000 272.219
35.13000 262.516
35.14000 262.623
35.15000 265.625
35.16000 268.315
35.17000 268.517
35.18000 268.183
35.19000 268.631
35.20000 273.008
35.21000 277.928
35.22000 281.784
35.23000 277.116
35.24000 272.834
35.25000 270.175
35.26000 271.224
35.27000 272.417
35.28000 273.647
35.29000 274.932
35.30000 276.218
35.31000 276.868
35.32000 262.564
35.33000 253.055
35.34000 250.095
35.35000 251.524
35.36000 252.917
35.37000 253.293
35.38000 253.207
35.39000 253.125
35.40000 253.905
35.41000 254.867
35.42000 256.208
35.43000 260.430
35.44000 265.250
35.45000 268.535
35.46000 264.395
35.47000 259.273
35.48000 255.294
35.49000 261.431
35.50000 266.927
35.51000 269.479
35.52000 265.537
35.53000 261.360
35.54000 259.617
35.55000 261.516
35.56000 263.450
35.57000 265.116
35.58000 266.520
35.59000 267.864
35.60000 263.997
35.61000 256.764
35.62000 249.849
35.63000 251.150
35.64000 256.058
35.65000 260.679
35.66000 260.815
35.67000 259.712
35.68000 259.100
35.69000 262.055
35.70000 265.722
35.71000 268.555
35.72000 267.508
35.73000 265.970
35.74000 264.785
35.75000 268.586
35.76000 271.880
35.77000 272.462
35.78000 267.268
35.79000 261.885
35.80000 259.649
35.81000 261.954
35.82000 264.296
35.83000 265.488
35.84000 265.596
35.85000 265.699
35.86000 265.415
35.87000 264.892
35.88000 264.386
35.89000 264.321
35.90000 264.443
35.91000 264.557
35.92000 260.226
35.93000 255.112
35.94000 250.305
35.95000 247.634
35.96000 245.374
35.97000 244.560
35.98000 250.230
35.99000 256.682
36.00000 261.604
36.01000 259.797
36.02000 258.014
36.03000 256.640
36.04000 256.107
36.05000 255.600
36.06000 255.391
36.07000 255.597
36.08000 255.805
36.09000 253.135
36.10000 247.863
36.11000 242.683
36.12000 243.524
36.13000 247.986
36.14000 252.388
36.15000 255.498
36.16000 258.078
36.17000 260.490
36.18000 261.013
36.19000 261.011
36.20000 260.536
36.21000 256.913
36.22000 252.708
36.23000 249.254
36.24000 249.036
36.25000 249.189
36.26000 249.306
36.27000 260.667
36.28000 270.138
36.29000 273.287
36.30000 263.881
36.31000 254.133
36.32000 248.907
36.33000 249.737
36.34000 250.599
36.35000 250.574
36.36000 249.781
36.37000 249.003
36.38000 249.126
36.39000 249.771
36.40000 250.522
36.41000 253.433
36.42000 257.198
36.43000 260.702
36.44000 256.821
36.45000 251.523
36.46000 247.449
36.47000 251.197
36.48000 256.331
36.49000 259.950
36.50000 257.273
36.51000 253.904
36.52000 251.383
36.53000 253.735
36.54000 255.798
36.55000 258.596
36.56000 262.801
36.57000 267.042
36.58000 266.668
36.59000 260.345
36.60000 254.004
36.61000 252.396
36.62000 254.742
36.63000 256.978
36.64000 253.652
36.65000 247.213
36.66000 241.328
36.67000 245.992
36.68000 254.684
36.69000 262.740
36.70000 260.282
36.71000 255.621
36.72000 251.609
36.73000 251.579
36.74000 252.225
36.75000 251.658
36.76000 246.234
36.77000 240.303
36.78000 235.906
36.79000 244.754
36.80000 252.202
36.81000 257.658
36.82000 259.427
36.83000 261.115
36.84000 261.825
36.85000 261.321
36.86000 260.814
36.87000 260.162
36.88000 259.396
36.89000 258.665
36.90000 259.549
36.91000 261.305
36.92000 262.808
36.93000 259.825
36.94000 255.189
36.95000 250.910
36.96000 257.448
36.97000 265.727
36.98000 271.714
36.99000 264.233
37.00000 254.553
37.01000 247.527
37.02000 250.755
37.03000 255.002
37.04000 258.119
37.05000 263.001
37.06000 266.845
37.07000 267.924
37.08000 264.063
37.09000 260.105
37.10000 257.117
37.11000 255.288
37.12000 253.465
37.13000 250.760
37.14000 247.390
37.15000 244.195
37.16000 248.094
37.17000 255.694
37.18000 263.005
37.19000 265.495
37.20000 266.269
37.21000 266.980
37.22000 266.996
37.23000 266.860
37.24000 266.275
37.25000 263.151
37.26000 259.629
37.27000 257.757
37.28000 262.029
37.29000 266.882
37.30000 270.406
37.31000 263.260
37.32000 257.364
37.33000 254.664
37.34000 257.473
37.35000 260.377
37.36000 259.525
37.37000 254.357
37.38000 249.199
37.39000 248.075
37.40000 249.948
37.41000 251.730
37.42000 250.183
37.43000 246.958
37.44000 244.051
37.45000 246.103
37.46000 249.859
37.47000 253.294
37.48000 254.022
37.49000 254.112
37.50000 254.028
37.51000 253.008
37.52000 251.848
37.53000 250.087
37.54000 246.165
37.55000 242.050
37.56000 239.093
37.57000 244.346
37.58000 248.651
37.59000 251.342
37.60000 251.351
37.61000 251.318
37.62000 252.679
37.63000 255.578
37.64000 258.468
37.65000 258.386
37.66000 256.187
37.67000 253.966
37.68000 251.034
37.69000 247.756
37.70000 244.897
37.71000 248.203
37.72000 253.553
37.73000 258.424
37.74000 254.116
37.75000 248.490
37.76000 244.435
37.77000 248.571
37.78000 253.883
37.79000 257.779
37.80000 256.766
37.81000 255.336
37.82000 254.319
37.83000 250.200
37.84000 246.965
37.85000 245.340
37.86000 246.298
37.87000 247.290
37.88000 248.870
37.89000 251.072
37.90000 253.264
37.91000 249.836
37.92000 242.596
37.93000 235.591
37.94000 235.746
37.95000 239.262
37.96000 242.930
37.97000 248.717
37.98000 255.183
37.99000 261.039
38.00000 260.432
38.01000 258.674
38.02000 257.890
38.03000 261.992
38.04000 266.766
38.05000 269.497
38.06000 265.400
38.07000 260.754
38.08000 257.489
38.09000 254.291
38.10000 251.871
38.11000 252.939
38.12000 259.405
38.13000 265.932
38.14000 266.963
38.15000 262.396
38.16000 257.855
38.17000 254.073
38.18000 250.842
38.19000 247.725
38.20000 247.783
38.21000 249.280
38.22000 251.067
38.23000 256.645
38.24000 263.394
38.25000 269.478
38.26000 268.149
38.27000 265.639
38.28000 263.898
38.29000 265.869
38.30000 268.329
38.31000 271.176
38.32000 275.274
38.33000 279.467
38.34000 282.380
38.35000 289.703
38.36000 295.340
38.37000 296.681
38.38000 291.612
38.39000 286.483
38.40000 289.256
38.41000 299.758
38.42000 310.188
38.43000 318.914
38.44000 326.425
38.45000 334.049
38.46000 344.537
38.47000 356.280
38.48000 368.217
38.49000 382.547
38.50000 397.591
38.51000 411.080
38.52000 426.388
38.53000 440.080
38.54000 454.268
38.55000 470.758
38.56000 487.537
38.57000 504.458
38.58000 521.816
38.59000 539.206
38.60000 551.151
38.61000 581.933
38.62000 605.477
38.63000 621.123
38.64000 625.413
38.65000 629.614
38.66000 642.536
38.67000 663.648
38.68000 684.586
38.69000 691.141
38.70000 688.803
38.71000 686.641
38.72000 688.624
38.73000 692.359
38.74000 694.837
38.75000 682.597
38.76000 666.122
38.77000 651.426
38.78000 641.951
38.79000 634.576
38.80000 623.902
38.81000 598.494
38.82000 571.315
38.83000 549.249
38.84000 542.547
38.85000 536.883
38.86000 533.039
38.87000 502.517
38.88000 479.154
38.89000 462.602
38.90000 455.489
38.91000 448.429
38.92000 430.219
38.93000 401.946
38.94000 373.944
38.95000 358.246
38.96000 350.094
38.97000 341.852
38.98000 331.643
38.99000 320.629
39.00000 310.209
39.01000 306.370
39.02000 304.359
39.03000 302.574
39.04000 293.937
39.05000 285.364
39.06000 278.038
39.07000 276.077
39.08000 274.730
39.09000 272.313
39.10000 266.789
39.11000 261.068
39.12000 257.232
39.13000 247.205
39.14000 239.638
39.15000 236.379
39.16000 238.868
39.17000 241.385
39.18000 242.722
39.19000 243.037
39.20000 243.348
39.21000 243.990
39.22000 244.804
39.23000 245.493
39.24000 243.636
39.25000 240.777
39.26000 238.100
39.27000 237.350
39.28000 237.117
39.29000 236.911
39.30000 237.641
39.31000 238.414
39.32000 239.255
39.33000 240.377
39.34000 241.530
39.35000 241.283
39.36000 237.113
39.37000 232.709
39.38000 229.793
39.39000 235.249
39.40000 239.427
39.41000 240.410
39.42000 237.285
39.43000 234.148
39.44000 233.163
39.45000 233.973
39.46000 234.772
39.47000 235.183
39.48000 235.372
39.49000 235.458
39.50000 233.598
39.51000 230.997
39.52000 229.218
39.53000 235.676
39.54000 244.260
39.55000 251.788
39.56000 243.621
39.57000 234.323
39.58000 228.471
39.59000 236.385
39.60000 245.731
39.61000 250.378
39.62000 242.317
39.63000 233.547
39.64000 227.816
39.65000 227.129
39.66000 226.706
39.67000 227.098
39.68000 228.498
39.69000 229.900
39.70000 231.309
39.71000 232.721
39.72000 234.114
39.73000 233.793
39.74000 232.584
39.75000 231.311
39.76000 228.901
39.77000 226.073
39.78000 223.758
39.79000 226.334
39.80000 230.127
39.81000 233.434
39.82000 230.886
39.83000 227.894
39.84000 225.268
39.85000 224.058
39.86000 222.988
39.87000 223.206
39.88000 226.786
39.89000 230.542
39.90000 232.964
39.91000 231.320
39.92000 230.061
39.93000 229.588
39.94000 230.050
39.95000 230.512
39.96000 230.626
39.97000 230.470
39.98000 230.317
39.99000 226.263
40.00000 220.374
40.01000 214.705
40.02000 212.674
40.03000 211.934
40.04000 211.677
40.05000 215.804
40.06000 220.982
40.07000 225.470
40.08000 226.587
40.09000 227.091
40.10000 226.513
40.11000 221.920
40.12000 216.950
40.13000 213.928
40.14000 215.821
40.15000 217.954
40.16000 219.310
40.17000 229.219
40.18000 236.526
40.19000 238.335
40.20000 233.849
40.21000 229.363
40.22000 226.285
40.23000 224.256
40.24000 222.263
40.25000 221.832
40.26000 222.172
40.27000 222.304
40.28000 219.194
40.29000 214.972
40.30000 211.462
40.31000 214.102
40.32000 218.162
40.33000 221.659
40.34000 215.558
40.35000 209.172
40.36000 204.508
40.37000 206.009
40.38000 208.060
40.39000 209.935
40.40000 211.378
40.41000 212.801
40.42000 213.694
40.43000 213.075
40.44000 212.612
40.45000 212.656
40.46000 213.259
40.47000 213.879
40.48000 217.018
40.49000 221.963
40.50000 226.808
40.51000 228.482
40.52000 228.614
40.53000 228.533
40.54000 225.333
40.55000 221.101
40.56000 216.677
40.57000 210.667
40.58000 204.305
40.59000 198.860
40.60000 204.908
40.61000 211.400
40.62000 217.204
40.63000 220.635
40.64000 223.865
40.65000 226.333
40.66000 227.011
40.67000 227.613
40.68000 227.986
40.69000 227.082
40.70000 226.420
40.71000 225.324
40.72000 223.771
40.73000 222.226
40.74000 221.829
40.75000 222.225
40.76000 222.612
40.77000 217.841
40.78000 210.952
40.79000 204.869
40.80000 209.933
40.81000 218.556
40.82000 225.597
40.83000 220.172
40.84000 212.078
40.85000 205.196
40.86000 209.562
40.87000 214.524
40.88000 217.809
40.89000 215.501
40.90000 212.745
40.91000 210.666
40.92000 210.123
40.93000 209.639
40.94000 209.344
40.95000 209.699
40.96000 209.958
40.97000 214.766
40.98000 224.192
40.99000 233.484
41.00000 229.112
41.01000 215.639
41.02000 202.495
41.03000 203.526
41.04000 210.634
41.05000 217.273
41.06000 217.790
41.07000 216.421
41.08000 215.108
41.09000 214.218
41.10000 213.416
41.11000 212.738
41.12000 215.245
41.13000 217.689
41.14000 219.179
41.15000 217.599
41.16000 215.787
41.17000 213.500
41.18000 210.172
41.19000 206.806
41.20000 204.787
41.21000 205.131
41.22000 205.391
41.23000 206.966
41.24000 209.824
41.25000 212.636
41.26000 211.549
41.27000 207.957
41.28000 204.461
41.29000 203.079
41.30000 202.641
41.31000 202.288
41.32000 202.991
41.33000 204.007
41.34000 205.110
41.35000 206.838
41.36000 208.691
41.37000 210.245
41.38000 210.539
41.39000 210.652
41.40000 209.972
41.41000 206.828
41.42000 203.508
41.43000 202.190
41.44000 205.111
41.45000 208.169
41.46000 209.977
41.47000 208.106
41.48000 206.764
41.49000 207.667
41.50000 210.671
41.51000 213.602
41.52000 211.240
41.53000 205.598
41.54000 200.121
41.55000 201.374
41.56000 205.255
41.57000 209.043
41.58000 211.744
41.59000 214.133
41.60000 215.993
41.61000 214.196
41.62000 211.701
41.63000 209.624
41.64000 209.051
41.65000 208.725
41.66000 209.079
41.67000 211.468
41.68000 213.993
41.69000 213.185
41.70000 205.559
41.71000 197.731
41.72000 193.178
41.73000 199.145
41.74000 203.381
41.75000 205.372
41.76000 205.344
41.77000 205.295
41.78000 203.932
41.79000 201.783
41.80000 199.702
41.81000 201.468
41.82000 204.619
41.83000 207.465
41.84000 206.945
41.85000 205.494
41.86000 204.284
41.87000 204.672
41.88000 205.352
41.89000 205.915
41.90000 206.174
41.91000 206.359
41.92000 206.179
41.93000 204.947
41.94000 203.648
41.95000 202.638
41.96000 202.199
41.97000 201.775
41.98000 201.532
41.99000 206.707
42.00000 210.338
42.01000 212.707
42.02000 213.985
42.03000 215.221
42.04000 214.047
42.05000 211.483
42.06000 209.008
42.07000 211.359
42.08000 215.362
42.09000 219.275
42.10000 222.247
42.11000 224.968
42.12000 226.984
42.13000 224.532
42.14000 221.294
42.15000 218.637
42.16000 219.588
42.17000 220.692
42.18000 220.163
42.19000 215.076
42.20000 209.718
42.21000 208.089
42.22000 213.567
42.23000 219.218
42.24000 222.397
42.25000 220.740
42.26000 219.577
42.27000 218.743
42.28000 218.180
42.29000 217.633
42.30000 217.809
42.31000 218.387
42.32000 218.945
42.33000 219.134
42.34000 219.181
42.35000 218.745
42.36000 213.487
42.37000 206.989
42.38000 201.218
42.39000 199.866
42.40000 199.261
42.41000 198.768
42.42000 205.673
42.43000 211.941
42.44000 216.706
42.45000 217.417
42.46000 217.903
42.47000 216.446
42.48000 211.415
42.49000 206.305
42.50000 203.481
42.51000 209.952
42.52000 214.417
42.53000 213.323
42.54000 207.780
42.55000 202.324
42.56000 200.698
42.57000 201.130
42.58000 201.545
42.59000 202.262
42.60000 203.036
42.61000 203.492
42.62000 200.926
42.63000 197.610
42.64000 194.470
42.65000 192.358
42.66000 190.413
42.67000 188.840
42.68000 193.328
42.69000 197.463
42.70000 198.548
42.71000 191.690
42.72000 184.420
42.73000 182.543
42.74000 190.239
42.75000 198.121
42.76000 202.402
42.77000 201.155
42.78000 200.297
42.79000 200.302
42.80000 200.973
42.81000 201.602
42.82000 200.599
42.83000 198.748
42.84000 196.977
42.85000 199.260
42.86000 202.725
42.87000 205.473
42.88000 201.742
42.89000 196.463
42.90000 192.125
42.91000 193.064
42.92000 194.823
42.93000 196.234
42.94000 197.973
42.95000 199.406
42.96000 199.735
42.97000 197.286
42.98000 194.704
42.99000 194.357
43.00000 197.842
43.01000 201.392
43.02000 203.285
43.03000 204.121
43.04000 204.673
43.05000 201.949
43.06000 196.796
43.07000 191.827
43.08000 193.452
43.09000 198.377
43.10000 203.077
43.11000 199.239
43.12000 192.969
43.13000 187.508
43.14000 189.023
43.15000 192.143
43.16000 195.375
43.17000 199.210
43.18000 203.134
43.19000 206.255
43.20000 199.385
43.21000 193.133
43.22000 189.632
43.23000 192.811
43.24000 196.290
43.25000 199.033
43.26000 200.563
43.27000 202.074
43.28000 202.864
43.29000 197.759
43.30000 194.298
43.31000 190.473
43.32000 186.388
43.33000 182.450
43.34000 183.284
43.35000 186.425
43.36000 189.411
43.37000 187.234
43.38000 183.645
43.39000 180.837
43.40000 184.449
43.41000 189.484
43.42000 193.041
43.43000 188.949
43.44000 183.765
43.45000 179.675
43.46000 180.088
43.47000 180.723
43.48000 181.334
43.49000 181.888
43.50000 182.441
43.51000 185.539
43.52000 192.696
43.53000 199.906
43.54000 203.606
43.55000 200.378
43.56000 198.220
43.57000 197.625
43.58000 198.108
43.59000 198.551
43.60000 197.784
43.61000 196.454
43.62000 195.193
43.63000 193.511
43.64000 191.838
43.65000 189.902
43.66000 185.897
43.67000 181.451
43.68000 179.125
43.69000 187.356
43.70000 197.028
43.71000 204.592
43.72000 199.663
43.73000 194.935
43.74000 190.017
43.75000 184.672
43.76000 179.310
43.77000 176.296
43.78000 176.892
43.79000 177.527
43.80000 177.847
43.81000 183.211
43.82000 186.782
43.83000 189.144
43.84000 190.704
43.85000 192.370
43.86000 196.970
43.87000 202.892
43.88000 208.485
43.89000 203.885
43.90000 196.792
43.91000 190.183
43.92000 187.203
43.93000 184.967
43.94000 183.596
43.95000 186.367
43.96000 189.679
43.97000 192.246
43.98000 193.568
43.99000 194.544
44.00000 194.592
44.01000 192.611
44.02000 190.559
44.03000 190.493
44.04000 193.374
44.05000 196.282
44.06000 198.040
44.07000 198.681
44.08000 199.254
44.09000 194.022
44.10000 185.073
44.11000 176.379
44.12000 174.128
44.13000 174.679
44.14000 175.198
44.15000 184.568
44.16000 195.529
44.17000 204.814
44.18000 202.063
44.19000 196.934
44.20000 192.821
44.21000 193.396
44.22000 194.557
44.23000 195.449
44.24000 196.998
44.25000 198.259
44.26000 199.192
44.27000 199.429
44.28000 199.644
44.29000 199.538
44.30000 198.972
44.31000 198.402
44.32000 197.889
44.33000 197.428
44.34000 196.955
44.35000 195.561
44.36000 193.599
44.37000 191.894
44.38000 196.185
44.39000 202.996
44.40000 209.379
44.41000 208.030
44.42000 204.788
44.43000 201.205
44.44000 195.265
44.45000 188.878
44.46000 185.025
44.47000 192.424
44.48000 201.164
44.49000 207.817
44.50000 201.711
44.51000 196.235
44.52000 194.251
44.53000 199.386
44.54000 204.731
44.55000 207.263
44.56000 205.921
44.57000 204.555
44.58000 204.233
44.59000 204.846
44.60000 205.459
44.61000 206.111
44.62000 206.788
44.63000 207.598
44.64000 211.288
44.65000 216.146
44.66000 220.681
44.67000 214.919
44.68000 207.120
44.69000 201.190
44.70000 207.573
44.71000 216.205
44.72000 221.748
44.73000 214.091
44.74000 204.932
44.75000 198.026
44.76000 201.160
44.77000 204.108
44.78000 206.467
44.79000 207.662
44.80000 208.827
44.81000 213.142
44.82000 221.635
44.83000 230.142
44.84000 231.563
44.85000 226.886
44.86000 222.163
44.87000 214.837
44.88000 206.014
44.89000 197.711
44.90000 199.844
44.91000 206.067
44.92000 211.853
44.93000 215.876
44.94000 219.084
44.95000 222.097
44.96000 223.871
44.97000 225.428
44.98000 226.911
44.99000 228.083
45.00000 229.222
45.01000 230.072
45.02000 228.477
45.03000 227.122
45.04000 225.006
45.05000 221.445
45.06000 217.849
45.07000 215.953
45.08000 216.229
45.09000 216.513
45.10000 216.518
45.11000 216.293
45.12000 216.058
45.13000 215.368
45.14000 214.427
45.15000 213.503
45.16000 212.920
45.17000 212.465
45.18000 212.044
45.19000 214.573
45.20000 217.527
45.21000 219.228
45.22000 213.334
45.23000 206.163
45.24000 201.222
45.25000 205.137
45.26000 209.966
45.27000 213.537
45.28000 213.221
45.29000 212.810
45.30000 213.130
45.31000 214.792
45.32000 216.483
45.33000 215.116
45.34000 209.991
45.35000 204.864
45.36000 201.324
45.37000 199.057
45.38000 196.920
45.39000 200.444
45.40000 206.999
45.41000 213.243
45.42000 214.037
45.43000 212.839
45.44000 211.735
45.45000 209.262
45.46000 206.745
45.47000 204.579
45.48000 204.456
45.49000 204.663
45.50000 204.555
45.51000 203.245
45.52000 201.817
45.53000 200.772
45.54000 188.097
45.55000 177.852
45.56000 173.333
45.57000 178.951
45.58000 184.764
45.59000 188.339
45.60000 189.267
45.61000 190.189
45.62000 190.697
45.63000 190.887
45.64000 191.036
45.65000 189.520
45.66000 187.144
45.67000 184.893
45.68000 184.695
45.69000 185.221
45.70000 185.704
45.71000 180.462
45.72000 174.572
45.73000 170.109
45.74000 173.626
45.75000 178.379
45.76000 182.617
45.77000 184.958
45.78000 187.122
45.79000 188.690
45.80000 180.417
45.81000 173.700
45.82000 171.517
45.83000 177.079
45.84000 182.771
45.85000 183.572
45.86000 178.810
45.87000 174.058
45.88000 174.247
45.89000 178.062
45.90000 181.803
45.91000 182.878
45.92000 182.623
45.93000 182.119
45.94000 177.757
45.95000 172.082
45.96000 166.898
45.97000 169.747
45.98000 173.912
45.99000 178.426
46.00000 184.810
46.01000 191.471
46.02000 194.871
46.03000 186.661
46.04000 177.424
46.05000 170.805
46.06000 171.626
46.07000 172.507
46.08000 171.876
46.09000 168.750
46.10000 165.588
46.11000 164.940
46.12000 167.039
46.13000 169.131
46.14000 172.996
46.15000 178.075
46.16000 182.956
46.17000 181.398
46.18000 176.737
46.19000 172.321
46.20000 171.442
46.21000 171.726
46.22000 171.984
46.23000 173.616
46.24000 175.327
46.25000 176.439
46.26000 174.461
46.27000 172.042
46.28000 170.964
46.29000 174.488
46.30000 178.398
46.31000 181.170
46.32000 171.078
46.33000 163.001
46.34000 160.214
46.35000 165.838
46.36000 171.569
46.37000 173.897
46.38000 172.651
46.39000 171.411
46.40000 172.893
46.41000 176.205
46.42000 179.366
46.43000 178.040
46.44000 174.628
46.45000 171.374
46.46000 170.282
46.47000 169.875
46.48000 169.507
46.49000 172.514
46.50000 175.793
46.51000 178.898
46.52000 181.134
46.53000 183.251
46.54000 184.301
46.55000 181.811
46.56000 179.040
46.57000 177.098
46.58000 177.152
46.59000 177.250
46.60000 177.771
46.61000 178.941
46.62000 180.118
46.63000 176.582
46.64000 168.294
46.65000 160.057
46.66000 161.504
46.67000 169.253
46.68000 176.765
46.69000 177.798
46.70000 175.922
46.71000 174.122
46.72000 173.312
46.73000 172.807
46.74000 172.351
46.75000 174.021
46.76000 175.867
46.77000 176.864
46.78000 173.811
46.79000 170.231
46.80000 167.157
46.81000 165.700
46.82000 164.364
46.83000 163.438
46.84000 164.205
46.85000 164.827
46.86000 165.274
46.87000 165.462
46.88000 165.648
46.89000 164.835
46.90000 163.053
46.91000 161.284
46.92000 163.406
46.93000 167.936
46.94000 172.388
46.95000 174.872
46.96000 176.503
46.97000 177.980
46.98000 177.582
46.99000 176.631
47.00000 175.779
47.01000 175.523
47.02000 175.402
47.03000 174.935
47.04000 172.875
47.05000 170.617
47.06000 167.768
47.07000 163.098
47.08000 158.299
47.09000 155.012
47.10000 159.531
47.11000 163.102
47.12000 164.948
47.13000 164.336
47.14000 163.707
47.15000 165.207
47.16000 168.688
47.17000 172.139
47.18000 174.368
47.19000 175.817
47.20000 177.196
47.21000 176.970
47.22000 176.072
47.23000 175.006
47.24000 172.002
47.25000 168.446
47.26000 165.278
47.27000 165.994
47.28000 167.256
47.29000 167.433
47.30000 162.807
47.31000 157.611
47.32000 153.972
47.33000 154.971
47.34000 156.277
47.35000 157.162
47.36000 166.398
47.37000 173.460
47.38000 174.662
47.39000 167.819
47.40000 160.932
47.41000 158.794
47.42000 160.899
47.43000 162.982
47.44000 164.418
47.45000 165.445
47.46000 166.402
47.47000 165.859
47.48000 164.708
47.49000 163.656
47.50000 163.673
47.51000 163.985
47.52000 164.261
47.53000 163.985
47.54000 163.659
47.55000 163.984
47.56000 167.083
47.57000 170.495
47.58000 172.309
47.59000 169.524
47.60000 166.451
47.61000 164.398
47.62000 160.190
47.63000 157.028
47.64000 157.684
47.65000 163.389
47.66000 169.113
47.67000 171.905
47.68000 172.177
47.69000 172.446
47.70000 171.534
47.71000 169.984
47.72000 168.556
47.73000 169.582
47.74000 171.567
47.75000 173.380
47.76000 173.408
47.77000 172.964
47.78000 172.572
47.79000 166.661
47.80000 160.737
47.81000 155.643
47.82000 153.960
47.83000 152.645
47.84000 151.686
47.85000 151.715
47.86000 151.802
47.87000 151.859
47.88000 158.105
47.89000 162.818
47.90000 164.437
47.91000 162.116
47.92000 159.788
47.93000 160.244
47.94000 163.000
47.95000 165.721
47.96000 165.638
47.97000 164.048
47.98000 162.539
47.99000 162.550
48.00000 163.134
48.01000 163.502
48.02000 161.738
48.03000 159.428
48.04000 157.405
48.05000 156.896
48.06000 156.678
48.07000 156.805
48.08000 158.302
48.09000 159.939
48.10000 161.417
48.11000 162.470
48.12000 163.500
48.13000 164.170
48.14000 165.570
48.15000 166.608
48.16000 166.762
48.17000 165.832
48.18000 164.898
48.19000 163.749
48.20000 162.428
48.21000 161.127
48.22000 160.662
48.23000 160.644
48.24000 160.618
48.25000 160.474
48.26000 160.288
48.27000 160.088
48.28000 159.770
48.29000 159.422
48.30000 159.120
48.31000 155.866
48.32000 152.681
48.33000 150.296
48.34000 150.960
48.35000 151.923
48.36000 153.721
48.37000 157.682
48.38000 161.754
48.39000 164.371
48.40000 153.581
48.41000 145.525
48.42000 143.076
48.43000 147.238
48.44000 151.405
48.45000 154.267
48.46000 156.129
48.47000 157.961
48.48000 160.141
48.49000 162.425
48.50000 164.673
48.51000 166.332
48.52000 167.785
48.53000 168.478
48.54000 162.364
48.55000 154.633
48.56000 147.943
48.57000 149.750
48.58000 152.401
48.59000 153.937
48.60000 151.372
48.61000 148.425
48.62000 147.898
48.63000 153.420
48.64000 159.230
48.65000 162.914
48.66000 163.999
48.67000 164.755
48.68000 163.212
48.69000 159.062
48.70000 154.925
48.71000 153.708
48.72000 154.644
48.73000 155.562
48.74000 157.709
48.75000 160.370
48.76000 162.826
48.77000 162.122
48.78000 160.346
48.79000 158.778
48.80000 158.997
48.81000 159.624
48.82000 160.163
48.83000 154.025
48.84000 147.994
48.85000 144.096
48.86000 147.772
48.87000 152.114
48.88000 155.024
48.89000 154.476
48.90000 153.774
48.91000 153.336
48.92000 153.225
48.93000 153.149
48.94000 154.094
48.95000 156.152
48.96000 158.191
48.97000 157.480
48.98000 154.814
48.99000 152.203
49.00000 151.089
49.01000 150.710
49.02000 150.390
49.03000 150.928
49.04000 151.747
49.05000 152.136
49.06000 149.015
49.07000 145.119
49.08000 141.791
49.09000 147.852
49.10000 154.080
49.11000 158.282
49.12000 155.546
49.13000 152.231
49.14000 151.863
49.15000 158.362
49.16000 165.142
49.17000 169.320
49.18000 160.000
49.19000 153.190
49.20000 150.945
49.21000 153.479
49.22000 156.011
49.23000 158.249
49.24000 160.288
49.25000 162.280
49.26000 161.194
49.27000 158.785
49.28000 156.404
49.29000 154.395
49.30000 152.503
49.31000 150.953
49.32000 152.067
49.33000 153.745
49.34000 155.170
49.35000 153.206
49.36000 151.173
49.37000 150.151
49.38000 152.468
49.39000 155.048
49.40000 156.054
49.41000 153.512
49.42000 150.837
49.43000 149.213
49.44000 153.979
49.45000 157.428
49.46000 157.779
49.47000 155.015
49.48000 152.263
49.49000 150.669
49.50000 149.840
49.51000 149.031
49.52000 152.290
49.53000 157.142
49.54000 161.424
49.55000 158.374
49.56000 153.086
49.57000 148.817
49.58000 152.138
49.59000 157.008
49.60000 161.115
49.61000 163.801
49.62000 165.890
49.63000 166.404
49.64000 161.894
49.65000 157.010
49.66000 154.844
49.67000 158.583
49.68000 162.528
49.69000 164.887
49.70000 155.785
49.71000 149.255
49.72000 147.359
49.73000 149.934
49.74000 152.498
49.75000 154.220
49.76000 155.405
49.77000 156.558
49.78000 156.742
49.79000 156.519
49.80000 156.623
49.81000 160.711
49.82000 165.973
49.83000 169.872
49.84000 164.045
49.85000 156.310
49.86000 149.832
49.87000 147.099
49.88000 145.213
49.89000 144.528
49.90000 147.538
49.91000 150.809
49.92000 153.948
49.93000 156.812
49.94000 159.667
49.95000 161.348
49.96000 163.576
49.97000 165.151
49.98000 164.042
49.99000 160.448
50.00000 156.866
50.01000 154.126
50.02000 151.903
50.03000 149.746
50.04000 153.344
50.05000 159.037
50.06000 164.001
50.07000 160.593
50.08000 154.804
50.09000 150.091
50.10000 152.722
50.11000 156.739
50.12000 160.080
50.13000 156.680
50.14000 153.206
50.15000 151.197
50.16000 153.536
50.17000 156.163
50.18000 158.347
50.19000 159.636
50.20000 160.898
50.21000 161.630
50.22000 160.516
50.23000 159.727
50.24000 157.510
50.25000 154.022
50.26000 150.629
50.27000 153.112
50.28000 159.075
50.29000 164.845
50.30000 161.852
50.31000 155.684
50.32000 150.100
50.33000 150.885
50.34000 153.417
50.35000 156.150
50.36000 160.193
50.37000 164.473
50.38000 168.007
50.39000 166.150
50.40000 164.119
50.41000 162.812
50.42000 163.579
50.43000 164.475
50.44000 164.065
50.45000 161.099
50.46000 158.065
50.47000 156.337
50.48000 157.242
50.49000 157.880
50.50000 158.122
50.51000 158.023
50.52000 157.972
50.53000 160.497
50.54000 164.494
50.55000 168.350
50.56000 165.958
50.57000 161.413
50.58000 157.523
50.59000 160.411
50.60000 165.092
50.61000 169.683
50.62000 173.716
50.63000 177.652
50.64000 180.877
50.65000 179.025
50.66000 177.058
50.67000 175.125
50.68000 173.283
50.69000 171.446
50.70000 169.703
50.71000 168.136
50.72000 166.574
50.73000 165.698
50.74000 166.971
50.75000 167.852
50.76000 165.701
50.77000 161.053
50.78000 156.511
50.79000 157.071
50.80000 160.444
50.81000 163.690
50.82000 163.562
50.83000 162.252
50.84000 160.858
50.85000 158.645
50.86000 156.223
50.87000 154.441
50.88000 156.511
50.89000 159.225
50.90000 161.431
50.91000 156.637
50.92000 152.138
50.93000 149.317
50.94000 150.981
50.95000 152.889
50.96000 153.851
50.97000 153.085
50.98000 152.283
50.99000 151.842
51.00000 157.778
51.01000 161.861
51.02000 161.048
51.03000 156.353
51.04000 151.774
51.05000 152.142
51.06000 155.145
51.07000 158.025
51.08000 155.679
51.09000 151.711
51.10000 148.142
51.11000 148.303
51.12000 149.380
51.13000 149.748
51.14000 146.011
51.15000 141.615
51.16000 138.070
51.17000 145.132
51.18000 151.707
51.19000 156.753
51.20000 157.848
51.21000 158.743
51.22000 158.103
51.23000 154.763
51.24000 151.372
51.25000 149.539
51.26000 151.466
51.27000 152.786
51.28000 153.064
51.29000 152.549
51.30000 151.967
51.31000 148.768
51.32000 144.224
51.33000 139.879
51.34000 138.026
51.35000 137.115
51.36000 136.458
51.37000 138.082
51.38000 140.245
51.39000 141.584
51.40000 138.344
51.41000 134.399
51.42000 131.243
51.43000 135.450
51.44000 139.402
51.45000 142.463
51.46000 143.303
51.47000 144.038
51.48000 143.242
51.49000 139.846
51.50000 136.406
51.51000 134.581
51.52000 141.259
51.53000 145.788
51.54000 147.042
51.55000 145.888
51.56000 144.733
51.57000 143.517
51.58000 142.269
51.59000 141.080
51.60000 141.973
51.61000 143.456
51.62000 144.443
51.63000 141.209
51.64000 137.012
51.65000 134.322
51.66000 139.661
51.67000 146.184
51.68000 151.361
51.69000 150.278
51.70000 148.964
51.71000 147.768
51.72000 146.857
51.73000 145.959
51.74000 144.894
51.75000 143.557
51.76000 142.216
51.77000 141.518
51.78000 147.833
51.79000 152.063
51.80000 150.735
51.81000 145.469
51.82000 140.321
51.83000 138.932
51.84000 139.344
51.85000 139.735
51.86000 139.615
51.87000 139.350
51.88000 139.043
51.89000 138.395
51.90000 137.673
51.91000 137.355
51.92000 139.110
51.93000 141.157
51.94000 142.768
51.95000 138.566
51.96000 134.813
51.97000 133.354
51.98000 137.226
51.99000 141.315
52.00000 142.626
52.01000 139.549
52.02000 136.418
52.03000 134.819
52.04000 137.150
52.05000 138.724
52.06000 141.330
52.07000 144.641
52.08000 147.635
52.09000 141.379
52.10000 130.845
52.11000 120.872
52.12000 125.244
52.13000 133.433
52.14000 140.658
52.15000 140.399
52.16000 138.557
52.17000 136.856
52.18000 135.844
52.19000 134.926
52.20000 134.209
52.21000 135.586
52.22000 136.816
52.23000 137.620
52.24000 137.469
52.25000 137.283
52.26000 137.836
52.27000 139.516
52.28000 141.209
52.29000 142.055
52.30000 139.662
52.31000 138.078
52.32000 137.681
52.33000 138.065
52.34000 138.566
52.35000 142.242
52.36000 147.336
52.37000 152.141
52.38000 147.548
52.39000 140.716
52.40000 134.333
52.41000 131.295
52.42000 128.937
52.43000 127.640
52.44000 131.373
52.45000 135.756
52.46000 139.146
52.47000 141.823
52.48000 143.904
52.49000 145.186
52.50000 144.732
52.51000 144.219
52.52000 142.389
52.53000 138.624
52.54000 134.843
52.55000 133.268
52.56000 133.813
52.57000 134.390
52.58000 137.502
52.59000 142.223
52.60000 146.692
52.61000 144.900
52.62000 140.407
52.63000 136.185
52.64000 135.162
52.65000 135.086
52.66000 135.513
52.67000 139.504
52.68000 144.194
52.69000 147.353
52.70000 143.528
52.71000 138.840
52.72000 135.247
52.73000 135.325
52.74000 135.589
52.75000 137.210
52.76000 141.671
52.77000 146.222
52.78000 147.296
52.79000 143.448
52.80000 139.565
52.81000 137.840
52.82000 138.107
52.83000 138.368
52.84000 138.162
52.85000 137.671
52.86000 137.156
52.87000 136.101
52.88000 134.821
52.89000 133.622
52.90000 135.090
52.91000 137.112
52.92000 138.755
52.93000 137.819
52.94000 136.399
52.95000 135.358
52.96000 135.991
52.97000 136.820
52.98000 137.450
52.99000 137.707
53.00000 137.889
53.01000 138.404
53.02000 139.592
53.03000 140.799
53.04000 140.702
53.05000 138.826
53.06000 136.940
53.07000 135.930
53.08000 135.696
53.09000 135.502
53.10000 137.712
53.11000 141.340
53.12000 144.813
53.13000 144.983
53.14000 143.824
53.15000 142.744
53.16000 141.163
53.17000 139.607
53.18000 137.963
53.19000 135.738
53.20000 133.410
53.21000 132.232
53.22000 135.928
53.23000 140.173
53.24000 143.366
53.25000 143.889
53.26000 144.168
53.27000 143.430
53.28000 140.703
53.29000 137.926
53.30000 135.852
53.31000 134.702
53.32000 133.558
53.33000 134.352
53.34000 136.795
53.35000 139.256
53.36000 142.673
53.37000 146.636
53.38000 150.269
53.39000 147.380
53.40000 141.958
53.41000 136.923
53.42000 141.808
53.43000 148.571
53.44000 154.499
53.45000 155.197
53.46000 154.987
53.47000 153.975
53.48000 149.689
53.49000 145.053
53.50000 141.599
53.51000 139.165
53.52000 137.316
53.53000 137.705
53.54000 142.309
53.55000 147.011
53.56000 146.532
53.57000 139.497
53.58000 132.449
53.59000 131.531
53.60000 135.632
53.61000 139.631
53.62000 138.728
53.63000 135.130
53.64000 131.799
53.65000 133.376
53.66000 136.793
53.67000 139.954
53.68000 143.852
53.69000 147.521
53.70000 150.538
53.71000 149.639
53.72000 148.089
53.73000 146.659
53.74000 145.701
53.75000 144.791
53.76000 144.121
53.77000 141.598
53.78000 139.567
53.79000 139.206
53.80000 141.883
53.81000 144.623
53.82000 146.005
53.83000 145.732
53.84000 145.457
53.85000 142.342
53.86000 137.011
53.87000 131.819
53.88000 132.596
53.89000 136.540
53.90000 140.362
53.91000 142.059
53.92000 142.987
53.93000 143.841
53.94000 137.824
53.95000 130.936
53.96000 125.788
53.97000 130.658
53.98000 137.129
53.99000 141.860
54.00000 139.989
54.01000 137.479
54.02000 135.646
54.03000 135.100
54.04000 134.730
54.05000 134.290
54.06000 133.727
54.07000 133.162
54.08000 134.021
54.09000 136.549
54.10000 139.072
54.11000 138.219
54.12000 134.819
54.13000 131.461
54.14000 129.728
54.15000 128.828
54.16000 128.210
54.17000 132.157
54.18000 137.700
54.19000 142.782
54.20000 139.844
54.21000 135.542
54.22000 131.673
54.23000 130.199
54.24000 129.092
54.25000 128.706
54.26000 130.954
54.27000 133.445
54.28000 135.244
54.29000 136.483
54.30000 137.413
54.31000 137.893
54.32000 137.612
54.33000 137.318
54.34000 137.571
54.35000 138.441
54.36000 139.309
54.37000 139.430
54.38000 139.008
54.39000 138.568
54.40000 137.485
54.41000 136.084
54.42000 134.724
54.43000 133.994
54.44000 133.477
54.45000 133.006
54.46000 134.919
54.47000 137.097
54.48000 139.091
54.49000 140.110
54.50000 140.986
54.51000 141.837
54.52000 142.600
54.53000 143.355
54.54000 143.895
54.55000 140.273
54.56000 137.370
54.57000 136.299
54.58000 138.220
54.59000 140.183
54.60000 140.017
54.61000 137.545
54.62000 135.083
54.63000 133.516
54.64000 132.589
54.65000 131.827
54.66000 136.257
54.67000 143.167
54.68000 149.738
54.69000 151.475
54.70000 151.637
54.71000 151.783
54.72000 147.035
54.73000 141.895
54.74000 137.624
54.75000 137.796
54.76000 138.593
54.77000 139.232
54.78000 139.336
54.79000 139.396
54.80000 139.438
54.81000 141.166
54.82000 142.530
54.83000 143.124
54.84000 142.504
54.85000 141.868
54.86000 139.693
54.87000 135.917
54.88000 132.160
54.89000 132.587
54.90000 135.820
54.91000 139.136
54.92000 144.835
54.93000 151.633
54.94000 157.639
54.95000 152.958
54.96000 144.916
54.97000 137.650
54.98000 138.031
54.99000 139.784
55.00000 141.349
55.01000 141.988
55.02000 142.503
55.03000 143.517
55.04000 146.166
55.05000 148.943
55.06000 150.884
55.07000 152.212
55.08000 153.198
55.09000 151.897
55.10000 147.121
55.11000 142.310
55.12000 140.417
55.13000 141.439
55.14000 142.454
55.15000 143.659
55.16000 144.970
55.17000 146.360
55.18000 149.881
55.19000 154.352
55.20000 158.358
55.21000 156.463
55.22000 152.776
55.23000 149.462
55.24000 149.184
55.25000 149.480
55.26000 149.923
55.27000 151.062
55.28000 152.290
55.29000 153.284
55.30000 153.534
55.31000 153.730
55.32000 153.865
55.33000 155.181
55.34000 156.202
55.35000 156.833
55.36000 156.896
55.37000 156.953
55.38000 156.816
55.39000 156.492
55.40000 156.170
55.41000 157.964
55.42000 161.042
55.43000 164.237
55.44000 170.270
55.45000 177.524
55.46000 184.260
55.47000 184.749
55.48000 183.408
55.49000 182.210
55.50000 180.804
55.51000 179.542
55.52000 179.380
55.53000 184.222
55.54000 189.680
55.55000 193.644
55.56000 193.042
55.57000 192.122
55.58000 191.494
55.59000 190.591
55.60000 189.909
55.61000 191.749
55.62000 197.148
55.63000 202.571
55.64000 205.055
55.65000 204.836
55.66000 204.618
55.67000 207.817
55.68000 212.999
55.69000 218.150
55.70000 222.598
55.71000 226.756
55.72000 231.137
55.73000 238.074
55.74000 245.732
55.75000 252.545
55.76000 255.235
55.77000 256.900
55.78000 259.654
55.79000 267.179
55.80000 275.265
55.81000 282.931
55.82000 289.362
55.83000 295.711
55.84000 299.994
55.85000 310.578
55.86000 318.587
55.87000 326.621
55.88000 334.689
55.89000 342.747
55.90000 341.218
55.91000 331.207
55.92000 321.300
55.93000 320.120
55.94000 323.990
55.95000 327.823
55.96000 330.843
55.97000 333.538
55.98000 335.504
55.99000 329.588
56.00000 321.523
56.01000 314.388
56.02000 316.125
56.03000 319.007
56.04000 319.216
56.05000 308.138
56.06000 295.798
56.07000 285.911
56.08000 283.018
56.09000 280.556
56.10000 278.915
56.11000 275.573
56.12000 273.066
56.13000 271.384
56.14000 270.781
56.15000 270.178
56.16000 267.184
56.17000 262.156
56.18000 257.188
56.19000 249.859
56.20000 241.405
56.21000 233.006
56.22000 225.697
56.23000 218.810
56.24000 212.590
56.25000 213.229
56.26000 215.671
56.27000 217.818
56.28000 214.908
56.29000 211.650
56.30000 207.724
56.31000 201.081
56.32000 194.148
56.33000 187.207
56.34000 180.243
56.35000 173.278
56.36000 168.697
56.37000 174.841
56.38000 179.548
56.39000 180.867
56.40000 177.912
56.41000 174.941
56.42000 171.252
56.43000 166.976
56.44000 162.757
56.45000 161.622
56.46000 162.162
56.47000 162.630
56.48000 161.793
56.49000 160.467
56.50000 159.194
56.51000 158.433
56.52000 157.802
56.53000 157.250
56.54000 157.660
56.55000 158.148
56.56000 157.173
56.57000 150.460
56.58000 143.164
56.59000 138.050
56.60000 138.733
56.61000 139.729
56.62000 140.376
56.63000 140.016
56.64000 139.738
56.65000 141.167
56.66000 144.669
56.67000 148.162
56.68000 147.691
56.69000 144.096
56.70000 140.556
56.71000 136.927
56.72000 133.362
56.73000 129.977
56.74000 129.669
56.75000 130.474
56.76000 131.446
56.77000 133.976
56.78000 136.885
56.79000 139.414
56.80000 138.546
56.81000 137.343
56.82000 137.173
56.83000 140.911
56.84000 145.026
56.85000 144.885
56.86000 133.822
56.87000 122.210
56.88000 114.772
56.89000 125.096
56.90000 132.855
56.91000 134.761
56.92000 129.833
56.93000 124.908
56.94000 122.707
56.95000 122.571
56.96000 122.438
56.97000 126.576
56.98000 132.686
56.99000 138.248
57.00000 135.019
57.01000 128.723
57.02000 123.185
57.03000 124.353
57.04000 127.098
57.05000 129.469
57.06000 125.088
57.07000 120.491
57.08000 118.301
57.09000 124.888
57.10000 132.278
57.11000 136.446
57.12000 132.630
57.13000 128.441
57.14000 125.794
57.15000 127.663
57.16000 129.071
57.17000 128.207
57.18000 124.794
57.19000 121.402
57.20000 122.001
57.21000 125.514
57.22000 128.960
57.23000 130.179
57.24000 130.295
57.25000 130.399
57.26000 130.325
57.27000 130.192
57.28000 129.811
57.29000 127.327
57.30000 124.367
57.31000 121.826
57.32000 123.107
57.33000 124.664
57.34000 126.501
57.35000 129.325
57.36000 132.235
57.37000 132.428
57.38000 126.122
57.39000 119.534
57.40000 115.430
57.41000 123.824
57.42000 129.999
57.43000 130.530
57.44000 124.973
57.45000 119.453
57.46000 119.364
57.47000 123.096
57.48000 126.749
57.49000 126.216
57.50000 123.788
57.51000 121.479
57.52000 120.857
57.53000 120.784
57.54000 120.913
57.55000 122.677
57.56000 124.797
57.57000 126.606
57.58000 126.615
57.59000 126.411
57.60000 126.263
57.61000 126.307
57.62000 126.365
57.63000 125.959
57.64000 124.476
57.65000 122.951
57.66000 122.014
57.67000 120.037
57.68000 118.611
57.69000 118.827
57.70000 120.744
57.71000 122.646
57.72000 122.845
57.73000 121.889
57.74000 120.955
57.75000 121.081
57.76000 121.668
57.77000 122.242
57.78000 122.646
57.79000 122.996
57.80000 123.126
57.81000 121.550
57.82000 119.617
57.83000 117.979
57.84000 119.433
57.85000 120.998
57.86000 121.769
57.87000 119.936
57.88000 117.901
57.89000 117.227
57.90000 119.591
57.91000 122.068
57.92000 123.566
57.93000 123.301
57.94000 123.100
57.95000 124.636
57.96000 127.902
57.97000 131.133
57.98000 131.164
57.99000 129.101
58.00000 127.091
58.01000 127.040
58.02000 127.820
58.03000 128.569
58.04000 128.909
58.05000 129.127
58.06000 129.194
58.07000 128.159
58.08000 126.902
58.09000 125.843
58.10000 127.018
58.11000 128.238
58.12000 129.183
58.13000 129.265
58.14000 129.283
58.15000 128.415
58.16000 125.638
58.17000 122.796
58.18000 121.103
58.19000 124.178
58.20000 126.385
58.21000 128.189
58.22000 129.607
58.23000 131.005
58.24000 130.904
58.25000 129.857
58.26000 128.839
58.27000 125.417
58.28000 121.183
58.29000 117.483
58.30000 120.184
58.31000 124.754
58.32000 128.895
58.33000 130.013
58.34000 130.543
58.35000 130.986
58.36000 128.668
58.37000 126.462
58.38000 124.717
58.39000 124.376
58.40000 124.132
58.41000 122.767
58.42000 119.069
58.43000 115.300
58.44000 113.089
58.45000 120.512
58.46000 125.786
58.47000 125.686
58.48000 120.656
58.49000 115.686
58.50000 114.840
58.51000 116.503
58.52000 118.116
58.53000 119.414
58.54000 120.522
58.55000 121.453
58.56000 120.381
58.57000 118.744
58.58000 117.337
58.59000 117.480
58.60000 117.911
58.61000 118.270
58.62000 117.229
58.63000 116.233
58.64000 115.286
58.65000 114.484
58.66000 113.691
58.67000 114.109
58.68000 116.958
58.69000 119.876
58.70000 121.559
58.71000 125.210
58.72000 127.773
58.73000 127.950
58.74000 126.025
58.75000 124.116
58.76000 123.138
58.77000 122.706
58.78000 122.290
58.79000 120.856
58.80000 119.119
58.81000 117.703
58.82000 119.744
58.83000 122.723
58.84000 125.053
58.85000 123.172
58.86000 120.536
58.87000 118.364
58.88000 120.992
58.89000 123.594
58.90000 124.852
58.91000 122.293
58.92000 119.501
58.93000 119.174
58.94000 123.632
58.95000 128.213
58.96000 130.811
58.97000 122.895
58.98000 117.358
58.99000 115.049
59.00000 115.476
59.01000 115.885
59.02000 115.322
59.03000 114.208
59.04000 113.134
59.05000 117.421
59.06000 123.399
59.07000 128.535
59.08000 125.048
59.09000 119.302
59.10000 115.013
59.11000 119.777
59.12000 126.101
59.13000 131.272
59.14000 123.746
59.15000 116.478
59.16000 111.554
59.17000 113.061
59.18000 114.937
59.19000 115.570
59.20000 113.877
59.21000 112.130
59.22000 111.156
59.23000 106.424
59.24000 103.155
59.25000 105.237
59.26000 111.683
59.27000 118.008
59.28000 118.657
59.29000 116.203
59.30000 113.843
59.31000 118.126
59.32000 124.461
59.33000 130.405
59.34000 132.549
59.35000 133.735
59.36000 133.704
59.37000 126.435
59.38000 117.968
59.39000 111.097
59.40000 111.808
59.41000 113.013
59.42000 115.113
59.43000 119.586
59.44000 124.186
59.45000 126.577
59.46000 124.976
59.47000 123.293
59.48000 122.370
59.49000 124.462
59.50000 125.891
59.51000 123.684
59.52000 118.619
59.53000 113.665
59.54000 113.315
59.55000 115.394
59.56000 117.387
59.57000 117.571
59.58000 117.133
59.59000 116.876
59.60000 118.295
59.61000 120.121
59.62000 121.624
59.63000 121.283
59.64000 120.650
59.65000 120.140
59.66000 120.640
59.67000 121.124
59.68000 120.063
59.69000 115.046
59.70000 109.832
59.71000 107.179
59.72000 108.991
59.73000 110.884
59.74000 111.903
59.75000 117.428
59.76000 121.204
59.77000 123.888
59.78000 125.748
59.79000 127.534
59.80000 126.561
59.81000 124.183
59.82000 121.909
59.83000 118.574
59.84000 115.128
59.85000 112.004
59.86000 111.717
59.87000 112.096
59.88000 112.773
59.89000 115.090
59.90000 117.657
59.91000 119.707
59.92000 117.953
59.93000 116.255
59.94000 115.509
59.95000 117.113
59.96000 118.827
59.97000 120.236
59.98000 121.130
59.99000 122.017
60.00000 122.485
60.01000 125.994
60.02000 128.363
60.03000 127.989
60.04000 125.618
60.05000 123.202
60.06000 119.233
60.07000 114.500
60.08000 109.992
60.09000 111.898
60.10000 115.660
60.11000 118.973
60.12000 118.516
60.13000 117.207
60.14000 116.165
60.15000 116.526
60.16000 117.093
60.17000 117.541
60.18000 117.097
60.19000 116.678
60.20000 116.117
60.21000 115.217
60.22000 114.304
60.23000 115.930
60.24000 121.680
60.25000 127.488
60.26000 130.498
60.27000 125.220
60.28000 121.664
60.29000 118.906
60.30000 116.709
60.31000 114.558
60.32000 113.853
60.33000 113.834
60.34000 113.817
60.35000 113.886
60.36000 113.976
60.37000 114.334
60.38000 116.851
60.39000 119.837
60.40000 122.095
60.41000 120.656
60.42000 118.700
60.43000 117.164
60.44000 123.660
60.45000 129.385
60.46000 132.644
60.47000 130.221
60.48000 127.572
60.49000 124.395
60.50000 120.392
60.51000 116.380
60.52000 114.342
60.53000 121.345
60.54000 125.990
60.55000 125.216
60.56000 120.777
60.57000 116.440
60.58000 114.990
60.59000 114.864
60.60000 114.745
60.61000 115.444
60.62000 116.322
60.63000 117.236
60.64000 118.423
60.65000 119.668
60.66000 120.177
60.67000 117.099
60.68000 113.541
60.69000 110.771
60.70000 113.747
60.71000 116.471
60.72000 118.279
60.73000 118.052
60.74000 117.750
60.75000 118.071
60.76000 119.334
60.77000 120.607
60.78000 119.340
60.79000 115.555
60.80000 111.809
60.81000 111.644
60.82000 113.813
60.83000 115.955
60.84000 117.365
60.85000 118.452
60.86000 119.476
60.87000 120.185
60.88000 120.746
60.89000 121.445
60.90000 123.151
60.91000 125.059
60.92000 126.515
60.93000 125.843
60.94000 124.900
60.95000 124.172
60.96000 124.006
60.97000 123.906
60.98000 124.233
60.99000 125.476
61.00000 126.749
61.01000 126.822
61.02000 125.148
61.03000 123.460
61.04000 122.588
61.05000 122.495
61.06000 122.382
61.07000 120.759
61.08000 118.187
61.09000 115.831
61.10000 118.743
61.11000 123.906
61.12000 128.755
61.13000 129.415
61.14000 128.904
61.15000 128.367
61.16000 127.644
61.17000 126.885
61.18000 126.179
61.19000 125.711
61.20000 125.272
61.21000 124.936
61.22000 123.548
61.23000 122.396
61.24000 121.220
61.25000 119.992
61.26000 118.763
61.27000 118.489
61.28000 119.557
61.29000 120.634
61.30000 123.982
61.31000 129.403
61.32000 134.764
61.33000 136.039
61.34000 134.835
61.35000 133.388
61.36000 126.483
61.37000 117.326
61.38000 108.760
61.39000 111.478
61.40000 116.825
61.41000 121.746
61.42000 123.794
61.43000 125.307
61.44000 127.006
61.45000 129.515
61.46000 132.119
61.47000 134.091
61.48000 134.554
61.49000 134.840
61.50000 137.088
61.51000 143.265
61.52000 149.552
61.53000 158.102
61.54000 169.711
61.55000 181.331
61.56000 196.379
61.57000 214.413
61.58000 232.277
61.59000 240.056
61.60000 241.934
61.61000 244.455
61.62000 260.376
61.63000 281.641
61.64000 301.451
61.65000 302.415
61.66000 298.670
61.67000 294.823
61.68000 290.322
61.69000 285.704
61.70000 282.947
61.71000 288.001
61.72000 293.922
61.73000 298.365
61.74000 291.091
61.75000 284.851
61.76000 278.093
61.77000 270.331
61.78000 262.544
61.79000 249.059
61.80000 228.158
61.81000 207.245
61.82000 190.779
61.83000 178.101
61.84000 165.564
61.85000 160.317
61.86000 159.187
61.87000 157.778
61.88000 150.930
61.89000 141.990
61.90000 133.695
61.91000 131.654
61.92000 131.288
61.93000 130.688
61.94000 128.642
61.95000 126.346
61.96000 124.383
61.97000 123.767
61.98000 123.293
61.99000 122.941
62.00000 126.027
62.01000 128.579
62.02000 131.143
62.03000 133.731
62.04000 136.320
62.05000 137.342
62.06000 136.400
62.07000 135.454
62.08000 132.178
62.09000 127.028
62.10000 121.971
62.11000 121.226
62.12000 122.831
62.13000 124.390
62.14000 125.098
62.15000 125.491
62.16000 125.853
62.17000 128.522
62.18000 131.438
62.19000 133.718
62.20000 132.225
62.21000 130.110
62.22000 128.759
62.23000 130.389
62.24000 132.319
62.25000 133.738
62.26000 134.353
62.27000 134.796
62.28000 134.668
62.29000 133.510
62.30000 132.332
62.31000 131.553
62.32000 131.254
62.33000 130.958
62.34000 131.425
62.35000 132.486
62.36000 133.529
62.37000 133.862
62.38000 133.821
62.39000 133.754
62.40000 133.265
62.41000 132.623
62.42000 132.033
62.43000 133.420
62.44000 135.087
62.45000 136.712
62.46000 138.094
62.47000 139.437
62.48000 139.784
62.49000 136.386
62.50000 132.629
62.51000 129.894
62.52000 130.425
62.53000 130.959
62.54000 131.292
62.55000 131.278
62.56000 131.257
62.57000 132.224
62.58000 134.337
62.59000 136.446
62.60000 136.589
62.61000 135.261
62.62000 133.950
62.63000 133.307
62.64000 133.004
62.65000 132.773
62.66000 133.704
62.67000 135.038
62.68000 136.259
62.69000 136.370
62.70000 136.238
62.71000 136.534
62.72000 139.169
62.73000 142.160
62.74000 143.324
62.75000 137.872
62.76000 131.819
62.77000 127.459
62.78000 126.915
62.79000 126.633
62.80000 126.637
62.81000 127.119
62.82000 127.608
62.83000 129.448
62.84000 132.793
62.85000 136.128
62.86000 136.522
62.87000 134.796
62.88000 133.155
62.89000 134.420
62.90000 137.108
62.91000 139.536
62.92000 138.066
62.93000 135.292
62.94000 132.763
62.95000 131.071
62.96000 129.739
62.97000 128.980
62.98000 131.233
62.99000 133.924
63.00000 135.185
63.01000 131.451
63.02000 127.287
63.03000 124.319
63.04000 125.719
63.05000 126.929
63.06000 128.437
63.07000 130.428
63.08000 132.425
63.09000 133.595
63.10000 133.876
63.11000 134.157
63.12000 135.489
63.13000 137.535
63.14000 139.513
63.15000 139.367
63.16000 138.215
63.17000 137.181
63.18000 137.815
63.19000 138.988
63.20000 140.051
63.21000 138.826
63.22000 137.307
63.23000 136.150
63.24000 136.820
63.25000 137.744
63.26000 138.257
63.27000 137.379
63.28000 136.387
63.29000 135.689
63.30000 132.044
63.31000 129.191
63.32000 128.050
63.33000 129.582
63.34000 131.145
63.35000 131.402
63.36000 130.313
63.37000 129.230
63.38000 127.385
63.39000 125.055
63.40000 122.850
63.41000 124.181
63.42000 127.129
63.43000 130.151
63.44000 134.169
63.45000 138.496
63.46000 142.402
63.47000 142.789
63.48000 142.484
63.49000 141.694
63.50000 138.541
63.51000 135.073
63.52000 133.446
63.53000 137.810
63.54000 142.636
63.55000 145.999
63.56000 141.387
63.57000 137.688
63.58000 133.827
63.59000 129.723
63.60000 125.616
63.61000 125.650
63.62000 129.776
63.63000 133.875
63.64000 137.097
63.65000 139.708
63.66000 142.168
63.67000 140.663
63.68000 137.408
63.69000 134.168
63.70000 131.117
63.71000 128.123
63.72000 125.435
63.73000 131.040
63.74000 137.398
63.75000 142.938
63.76000 144.640
63.77000 145.854
63.78000 147.108
63.79000 148.486
63.80000 149.872
63.81000 150.827
63.82000 139.103
63.83000 129.982
63.84000 127.785
63.85000 135.633
63.86000 143.565
63.87000 148.635
63.88000 150.991
63.89000 153.328
63.90000 151.760
63.91000 147.815
63.92000 144.080
63.93000 145.422
63.94000 148.928
63.95000 151.872
63.96000 148.147
63.97000 142.485
63.98000 137.428
63.99000 135.944
64.00000 135.252
64.01000 135.944
64.02000 142.878
64.03000 150.570
64.04000 156.552
64.05000 157.347
64.06000 157.787
64.07000 158.086
64.08000 154.955
64.09000 152.538
64.10000 150.633
64.11000 149.445
64.12000 148.262
64.13000 149.040
64.14000 151.603
64.15000 154.143
64.16000 154.374
64.17000 153.234
64.18000 152.011
64.19000 148.936
64.20000 145.100
64.21000 141.679
64.22000 142.932
64.23000 145.495
64.24000 147.771
64.25000 149.693
64.26000 151.303
64.27000 152.456
64.28000 151.627
64.29000 150.567
64.30000 150.369
64.31000 152.692
64.32000 155.177
64.33000 156.849
64.34000 159.553
64.35000 161.584
64.36000 161.301
64.37000 157.903
64.38000 154.491
64.39000 153.161
64.40000 153.658
64.41000 154.148
64.42000 153.985
64.43000 153.452
64.44000 152.991
64.45000 154.037
64.46000 155.682
64.47000 157.387
64.48000 159.738
64.49000 162.264
64.50000 164.495
64.51000 163.879
64.52000 162.908
64.53000 161.856
64.54000 160.465
64.55000 159.036
64.56000 158.320
64.57000 159.616
64.58000 161.033
64.59000 161.974
64.60000 158.614
64.61000 156.051
64.62000 155.383
64.63000 157.176
64.64000 158.980
64.65000 161.875
64.66000 165.687
64.67000 169.453
64.68000 171.393
64.69000 172.282
64.70000 173.124
64.71000 173.051
64.72000 172.627
64.73000 172.465
64.74000 174.948
64.75000 178.120
64.76000 180.907
64.77000 178.424
64.78000 175.514
64.79000 172.869
64.80000 171.292
64.81000 169.828
64.82000 168.726
64.83000 168.613
64.84000 168.557
64.85000 168.520
64.86000 169.340
64.87000 169.956
64.88000 170.988
64.89000 172.538
64.90000 174.089
64.91000 175.670
64.92000 177.275
64.93000 178.858
64.94000 181.999
64.95000 185.874
64.96000 189.508
64.97000 188.796
64.98000 186.472
64.99000 184.753
65.00000 188.859
65.01000 194.427
65.02000 199.289
65.03000 193.605
65.04000 187.256
65.05000 182.880
65.06000 186.170
65.07000 190.228
65.08000 194.718
65.09000 200.346
65.10000 206.034
65.11000 209.714
65.12000 208.042
65.13000 206.740
65.14000 206.816
65.15000 208.545
65.16000 210.270
65.17000 209.544
65.18000 206.908
65.19000 204.313
65.20000 207.291
65.21000 213.008
65.22000 218.239
65.23000 215.256
65.24000 209.333
65.25000 204.501
65.26000 209.686
65.27000 217.294
65.28000 223.899
65.29000 226.948
65.30000 229.069
65.31000 231.166
65.32000 233.175
65.33000 235.175
65.34000 235.708
65.35000 232.509
65.36000 229.126
65.37000 226.967
65.38000 239.177
65.39000 248.246
65.40000 254.738
65.41000 258.250
65.42000 261.758
65.43000 265.261
65.44000 268.761
65.45000 272.200
65.46000 275.255
65.47000 278.018
65.48000 280.925
65.49000 286.098
65.50000 292.055
65.51000 297.365
65.52000 297.011
65.53000 295.336
65.54000 293.891
65.55000 301.040
65.56000 308.205
65.57000 314.162
65.58000 315.751
65.59000 316.945
65.60000 325.273
65.61000 351.129
65.62000 377.790
65.63000 394.572
65.64000 418.703
65.65000 436.246
65.66000 463.753
65.67000 502.335
65.68000 541.093
65.69000 606.789
65.70000 691.978
65.71000 775.505
65.72000 889.153
65.73000 1012.755
65.74000 1136.147
65.75000 1256.423
65.76000 1375.660
65.77000 1493.905
65.78000 1603.873
65.79000 1711.982
65.80000 1804.658
65.81000 1844.184
65.82000 1871.065
65.83000 1896.778
65.84000 1918.418
65.85000 1939.710
65.86000 1960.613
65.87000 1980.598
65.88000 2000.543
65.89000 2012.920
65.90000 1958.334
65.91000 1918.401
65.92000 1869.864
65.93000 1812.138
65.94000 1754.169
65.95000 1665.328
65.96000 1554.959
65.97000 1446.974
65.98000 1316.064
65.99000 1180.044
66.00000 1046.027
66.01000 940.074
66.02000 843.158
66.03000 749.312
66.04000 679.946
66.05000 615.871
66.06000 561.299
66.07000 518.339
66.08000 483.573
66.09000 452.299
66.10000 432.765
66.11000 414.183
66.12000 399.262
66.13000 392.725
66.14000 386.518
66.15000 382.722
66.16000 378.680
66.17000 375.785
66.18000 377.177
66.19000 382.965
66.20000 388.751
66.21000 394.300
66.22000 399.689
66.23000 404.949
66.24000 409.047
66.25000 412.460
66.26000 416.741
66.27000 432.481
66.28000 451.783
66.29000 471.850
66.30000 497.744
66.31000 524.850
66.32000 547.783
66.33000 572.083
66.34000 592.574
66.35000 609.876
66.36000 616.835
66.37000 623.000
66.38000 630.901
66.39000 642.644
66.40000 654.525
66.41000 661.683
66.42000 647.591
66.43000 637.415
66.44000 629.663
66.45000 624.300
66.46000 618.917
66.47000 611.837
66.48000 603.657
66.49000 595.690
66.50000 579.154
66.51000 559.795
66.52000 540.034
66.53000 515.246
66.54000 488.950
66.55000 463.940
66.56000 448.303
66.57000 434.543
66.58000 422.980
66.59000 409.297
66.60000 397.672
66.61000 387.469
66.62000 381.714
66.63000 376.281
66.64000 372.436
66.65000 371.985
66.66000 371.646
66.67000 371.445
66.68000 362.306
66.69000 355.789
66.70000 351.269
66.71000 348.637
66.72000 346.025
66.73000 344.972
66.74000 344.894
66.75000 344.818
66.76000 347.422
66.77000 350.977
66.78000 354.248
66.79000 354.159
66.80000 353.097
66.81000 352.018
66.82000 350.822
66.83000 349.603
66.84000 348.587
66.85000 351.287
66.86000 353.901
66.87000 357.358
66.88000 363.364
66.89000 369.545
66.90000 372.529
66.91000 368.921
66.92000 365.112
66.93000 362.889
66.94000 357.524
66.95000 353.738
66.96000 355.966
66.97000 363.655
66.98000 371.288
66.99000 375.235
67.00000 376.960
67.01000 378.630
67.02000 381.154
67.03000 383.874
67.04000 386.145
67.05000 383.380
67.06000 379.209
67.07000 376.312
67.08000 381.927
67.09000 389.117
67.10000 395.073
67.11000 394.432
67.12000 393.274
67.13000 393.016
67.14000 395.389
67.15000 397.930
67.16000 400.629
67.17000 403.643
67.18000 406.666
67.19000 408.403
67.20000 410.387
67.21000 411.774
67.22000 411.428
67.23000 409.568
67.24000 407.717
67.25000 406.333
67.26000 405.222
67.27000 404.148
67.28000 409.333
67.29000 416.563
67.30000 422.572
67.31000 415.597
67.32000 405.127
67.33000 396.228
67.34000 397.396
67.35000 400.354
67.36000 402.786
67.37000 406.539
67.38000 409.744
67.39000 412.657
67.40000 414.753
67.41000 416.799
67.42000 417.975
67.43000 417.478
67.44000 416.939
67.45000 416.635
67.46000 430.610
67.47000 440.340
67.48000 436.611
67.49000 421.583
67.50000 406.836
67.51000 406.475
67.52000 414.189
67.53000 421.622
67.54000 427.523
67.55000 432.517
67.56000 437.233
67.57000 439.138
67.58000 440.314
67.59000 441.854
67.60000 445.629
67.61000 449.785
67.62000 453.178
67.63000 458.979
67.64000 463.933
67.65000 466.047
67.66000 460.439
67.67000 454.397
67.68000 450.651
67.69000 451.169
67.70000 451.782
67.71000 452.122
67.72000 460.941
67.73000 467.044
67.74000 470.892
67.75000 472.917
67.76000 474.865
67.77000 473.297
67.78000 469.824
67.79000 466.486
67.80000 469.184
67.81000 473.799
67.82000 478.441
67.83000 483.336
67.84000 488.294
67.85000 491.932
67.86000 487.785
67.87000 482.363
67.88000 477.971
67.89000 479.931
67.90000 482.043
67.91000 486.068
67.92000 495.116
67.93000 504.429
67.94000 509.685
67.95000 507.677
67.96000 505.523
67.97000 504.349
67.98000 516.571
67.99000 524.933
68.00000 520.110
68.01000 505.036
68.02000 490.371
68.03000 492.473
68.04000 503.341
68.05000 513.752
68.06000 516.293
68.07000 516.044
68.08000 515.327
68.09000 510.338
68.10000 504.318
68.11000 501.070
68.12000 513.516
68.13000 528.427
68.14000 540.408
68.15000 542.478
68.16000 543.394
68.17000 545.278
68.18000 549.620
68.19000 554.082
68.20000 555.922
68.21000 553.231
68.22000 550.459
68.23000 548.974
68.24000 567.771
68.25000 580.574
68.26000 585.364
68.27000 584.152
68.28000 582.931
68.29000 581.354
68.30000 579.596
68.31000 577.918
68.32000 582.800
68.33000 589.435
68.34000 596.197
68.35000 604.053
68.36000 612.163
68.37000 619.848
68.38000 625.220
68.39000 630.243
68.40000 634.246
68.41000 639.569
68.42000 643.959
68.43000 649.654
68.44000 658.544
68.45000 667.580
68.46000 673.359
68.47000 673.707
68.48000 673.970
68.49000 674.109
68.50000 707.409
68.51000 729.934
68.52000 741.773
68.53000 745.904
68.54000 750.391
68.55000 766.766
68.56000 788.938
68.57000 810.039
68.58000 826.101
68.59000 839.417
68.60000 853.776
68.61000 876.808
68.62000 901.780
68.63000 929.690
68.64000 972.958
68.65000 1018.441
68.66000 1054.391
68.67000 1090.590
68.68000 1119.675
68.69000 1151.899
68.70000 1191.547
68.71000 1231.509
68.72000 1278.613
68.73000 1337.209
68.74000 1395.958
68.75000 1426.253
68.76000 1465.623
68.77000 1492.276
68.78000 1535.637
68.79000 1590.614
68.80000 1645.472
68.81000 1696.713
68.82000 1746.251
68.83000 1793.238
68.84000 1868.698
68.85000 1946.702
68.86000 2029.284
68.87000 2148.231
68.88000 2275.013
68.89000 2432.783
68.90000 2746.334
68.91000 3081.399
68.92000 3343.985
68.93000 4497.036
68.94000 5476.035
68.95000 6860.959
68.96000 9173.051
68.97000 11521.363
68.98000 14315.659
68.99000 17801.986
69.00000 21296.256
69.01000 23062.557
69.02000 28100.777
69.03000 31465.934
69.04000 34206.113
69.05000 36527.504
69.06000 38819.391
69.07000 40285.855
69.08000 41377.180
69.09000 42408.625
69.10000 43043.844
69.11000 43514.441
69.12000 44009.188
69.13000 44687.313
69.14000 45403.457
69.15000 46119.703
69.16000 46836.410
69.17000 47553.184
69.18000 48110.023
69.19000 47550.781
69.20000 47038.172
69.21000 45873.316
69.22000 43269.816
69.23000 40614.598
69.24000 37822.570
69.25000 34825.867
69.26000 31827.215
69.27000 29454.463
69.28000 27695.852
69.29000 25942.807
69.30000 24680.189
69.31000 23734.432
69.32000 22803.859
69.33000 22264.221
69.34000 21896.154
69.35000 21549.555
69.36000 21125.479
69.37000 20716.365
69.38000 20224.709
69.39000 19133.520
69.40000 17922.748
69.41000 16591.063
69.42000 14696.613
69.43000 12731.102
69.44000 11217.754
69.45000 9138.649
69.46000 7460.475
69.47000 5996.436
69.48000 4988.482
69.49000 3995.558
69.50000 3205.616
69.51000 2708.411
69.52000 2213.615
69.53000 1875.782
69.54000 1685.891
69.55000 1496.903
69.56000 1376.068
69.57000 1297.699
69.58000 1219.933
69.59000 1156.499
69.60000 1099.139
69.61000 1045.329
69.62000 1002.141
69.63000 965.585
69.64000 929.378
69.65000 895.592
69.66000 862.270
69.67000 831.522
69.68000 812.305
69.69000 794.479
69.70000 780.879
69.71000 765.210
69.72000 752.754
69.73000 739.513
69.74000 724.659
69.75000 709.757
69.76000 693.226
69.77000 674.430
69.78000 655.627
69.79000 642.106
69.80000 633.375
69.81000 624.711
69.82000 620.397
69.83000 618.697
69.84000 616.773
69.85000 609.929
69.86000 601.071
69.87000 592.794
69.88000 580.280
69.89000 567.855
69.90000 555.797
69.91000 546.181
69.92000 537.015
69.93000 529.903
69.94000 531.653
69.95000 534.423
69.96000 536.516
69.97000 530.845
69.98000 526.009
69.99000 520.078
70.00000 511.971
