20.00000 472.273
20.01000 478.729
20.02000 486.108
20.03000 490.859
20.04000 485.273
20.05000 478.633
20.06000 473.736
20.07000 471.803
20.08000 470.430
20.09000 468.501
20.10000 465.560
20.11000 462.599
20.12000 461.787
20.13000 463.596
20.14000 465.407
20.15000 471.735
20.16000 481.585
20.17000 491.038
20.18000 483.532
20.19000 467.024
20.20000 451.296
20.21000 449.023
20.22000 451.624
20.23000 454.019
20.24000 455.832
20.25000 457.325
20.26000 458.914
20.27000 461.051
20.28000 463.275
20.29000 464.802
20.30000 463.679
20.31000 462.300
20.32000 461.293
20.33000 462.157
20.34000 462.895
20.35000 461.705
20.36000 457.132
20.37000 452.496
20.38000 451.260
20.39000 454.008
20.40000 456.754
20.41000 459.236
20.42000 461.502
20.43000 463.693
20.44000 462.986
20.45000 460.794
20.46000 458.611
20.47000 456.563
20.48000 454.562
20.49000 452.728
20.50000 453.976
20.51000 455.735
20.52000 458.651
20.53000 467.960
20.54000 478.249
20.55000 485.435
20.56000 481.266
20.57000 476.053
20.58000 472.286
20.59000 468.055
20.60000 464.793
20.61000 461.814
20.62000 459.313
20.63000 456.820
20.64000 458.542
20.65000 465.011
20.66000 471.463
20.67000 469.569
20.68000 461.623
20.69000 453.807
20.70000 450.500
20.71000 449.424
20.72000 448.621
20.73000 451.973
20.74000 456.727
20.75000 461.065
20.76000 462.108
20.77000 462.369
20.78000 462.099
20.79000 459.010
20.80000 455.507
20.81000 452.989
20.82000 453.942
20.83000 455.198
20.84000 456.096
20.85000 466.594
20.86000 474.926
20.87000 479.064
20.88000 476.350
20.89000 473.539
20.90000 471.273
20.91000 469.599
20.92000 467.932
20.93000 462.917
20.94000 455.612
20.95000 448.612
20.96000 451.254
20.97000 458.503
20.98000 464.845
20.99000 458.236
21.00000 447.406
21.01000 437.571
21.02000 434.210
21.03000 432.492
21.04000 431.265
21.05000 432.539
21.06000 434.165
21.07000 435.642
21.08000 436.607
21.09000 437.530
21.10000 438.183
21.11000 446.385
21.12000 452.845
21.13000 457.561
21.14000 459.529
21.15000 461.462
21.16000 463.614
21.17000 465.993
21.18000 468.359
21.19000 463.102
21.20000 452.785
21.21000 442.682
21.22000 438.814
21.23000 437.822
21.24000 437.393
21.25000 444.564
21.26000 454.126
21.27000 462.766
21.28000 458.662
21.29000 452.691
21.30000 448.431
21.31000 452.583
21.32000 457.867
21.33000 462.795
21.34000 466.552
21.35000 470.218
21.36000 472.780
21.37000 467.277
21.38000 462.891
21.39000 459.127
21.40000 456.307
21.41000 453.497
21.42000 456.650
21.43000 465.757
21.44000 474.805
21.45000 471.201
21.46000 459.467
21.47000 447.989
21.48000 443.352
21.49000 441.762
21.50000 440.736
21.51000 446.877
21.52000 455.195
21.53000 462.673
21.54000 463.189
21.55000 462.405
21.56000 461.440
21.57000 459.616
21.58000 457.682
21.59000 456.758
21.60000 459.037
21.61000 461.553
21.62000 463.291
21.63000 468.173
21.64000 471.923
21.65000 474.010
21.66000 473.660
21.67000 473.287
21.68000 468.217
21.69000 458.643
21.70000 449.142
21.71000 450.768
21.72000 459.289
21.73000 467.552
21.74000 469.456
21.75000 468.626
21.76000 468.104
21.77000 471.294
21.78000 475.572
21.79000 479.398
21.80000 490.293
21.81000 500.994
21.82000 507.540
21.83000 495.173
21.84000 480.479
21.85000 470.936
21.86000 477.152
21.87000 484.465
21.88000 489.458
21.89000 473.809
21.90000 461.623
21.91000 460.835
21.92000 476.141
21.93000 491.558
21.94000 498.499
21.95000 497.637
21.96000 496.782
21.97000 497.081
21.98000 498.066
21.99000 499.394
22.00000 508.540
22.01000 520.934
22.02000 532.083
22.03000 529.048
22.04000 522.005
22.05000 515.739
22.06000 519.447
22.07000 524.289
22.08000 526.938
22.09000 519.969
22.10000 511.870
22.11000 509.214
22.12000 522.624
22.13000 537.088
22.14000 546.844
22.15000 524.752
22.16000 507.639
22.17000 497.363
22.18000 496.386
22.19000 495.462
22.20000 494.428
22.21000 493.297
22.22000 492.178
22.23000 490.080
22.24000 487.465
22.25000 484.759
22.26000 480.120
22.27000 474.706
22.28000 470.369
22.29000 477.669
22.30000 488.141
22.31000 497.405
22.32000 487.248
22.33000 475.445
22.34000 463.546
22.35000 451.245
22.36000 438.899
22.37000 432.432
22.38000 442.724
22.39000 454.048
22.40000 461.592
22.41000 467.543
22.42000 471.917
22.43000 473.311
22.44000 470.800
22.45000 468.269
22.46000 463.738
22.47000 457.508
22.48000 451.350
22.49000 446.044
22.50000 441.339
22.51000 437.158
22.52000 443.264
22.53000 453.355
22.54000 462.350
22.55000 460.083
22.56000 454.855
22.57000 450.256
22.58000 440.117
22.59000 430.567
22.60000 423.000
22.61000 423.508
22.62000 424.878
22.63000 426.874
22.64000 430.596
22.65000 434.417
22.66000 436.931
22.67000 433.045
22.68000 430.074
22.69000 426.391
22.70000 421.808
22.71000 417.227
22.72000 414.902
22.73000 414.422
22.74000 413.950
22.75000 422.263
22.76000 435.033
22.77000 447.154
22.78000 447.385
22.79000 443.168
22.80000 438.784
22.81000 432.771
22.82000 426.345
22.83000 420.724
22.84000 423.263
22.85000 426.599
22.86000 429.514
22.87000 430.779
22.88000 431.876
22.89000 431.848
22.90000 428.834
22.91000 425.658
22.92000 423.597
22.93000 418.133
22.94000 414.080
22.95000 414.425
22.96000 420.108
22.97000 425.785
22.98000 426.254
22.99000 422.619
23.00000 419.040
23.01000 425.950
23.02000 438.033
23.03000 449.300
23.04000 446.555
23.05000 438.749
23.06000 430.795
23.07000 421.460
23.08000 411.787
23.09000 403.379
23.10000 408.281
23.11000 414.272
23.12000 419.269
23.13000 420.503
23.14000 421.374
23.15000 423.859
23.16000 430.486
23.17000 437.321
23.18000 441.699
23.19000 438.948
23.20000 436.849
23.21000 434.075
23.22000 430.515
23.23000 426.947
23.24000 421.866
23.25000 415.639
23.26000 409.517
23.27000 413.411
23.28000 422.122
23.29000 430.396
23.30000 431.653
23.31000 430.463
23.32000 429.095
23.33000 426.159
23.34000 422.854
23.35000 419.998
23.36000 424.556
23.37000 429.388
23.38000 433.567
23.39000 435.362
23.40000 436.939
23.41000 438.593
23.42000 440.439
23.43000 442.294
23.44000 443.466
23.45000 434.996
23.46000 428.746
23.47000 427.776
23.48000 432.735
23.49000 437.637
23.50000 432.192
23.51000 419.188
23.52000 406.431
23.53000 412.815
23.54000 428.066
23.55000 441.970
23.56000 435.535
23.57000 422.253
23.58000 410.989
23.59000 416.779
23.60000 426.435
23.61000 434.725
23.62000 443.606
23.63000 451.187
23.64000 455.327
23.65000 447.364
23.66000 438.349
23.67000 433.008
23.68000 436.458
23.69000 440.291
23.70000 442.678
23.71000 435.792
23.72000 430.736
23.73000 430.846
23.74000 436.529
23.75000 442.204
23.76000 446.457
23.77000 449.707
23.78000 452.889
23.79000 459.663
23.80000 467.811
23.81000 475.099
23.82000 470.150
23.83000 461.225
23.84000 453.742
23.85000 457.901
23.86000 464.599
23.87000 470.314
23.88000 476.248
23.89000 481.268
23.90000 485.298
23.91000 485.966
23.92000 486.357
23.93000 487.381
23.94000 489.869
23.95000 492.416
23.96000 493.979
23.97000 487.215
23.98000 482.296
23.99000 477.480
24.00000 472.770
24.01000 468.164
24.02000 475.050
24.03000 489.734
24.04000 504.078
24.05000 498.141
24.06000 483.530
24.07000 469.864
24.08000 468.879
24.09000 471.871
24.10000 474.778
24.11000 477.029
24.12000 479.142
24.13000 480.933
24.14000 476.166
24.15000 471.434
24.16000 465.568
24.17000 455.990
24.18000 446.123
24.19000 438.920
24.20000 437.666
24.21000 436.632
24.22000 436.006
24.23000 435.212
24.24000 434.644
24.25000 433.371
24.26000 431.395
24.27000 429.431
24.28000 428.618
24.29000 428.558
24.30000 428.499
24.31000 425.145
24.32000 420.549
24.33000 416.649
24.34000 421.574
24.35000 429.169
24.36000 435.667
24.37000 434.077
24.38000 430.853
24.39000 428.138
24.40000 415.514
24.41000 403.923
24.42000 397.548
24.43000 407.651
24.44000 418.965
24.45000 425.701
24.46000 422.568
24.47000 419.099
24.48000 417.034
24.49000 413.987
24.50000 411.823
24.51000 409.513
24.52000 407.062
24.53000 404.670
24.54000 406.817
24.55000 411.830
24.56000 416.702
24.57000 418.949
24.58000 420.015
24.59000 420.871
24.60000 419.219
24.61000 416.835
24.62000 414.068
24.63000 408.590
24.64000 402.587
24.65000 397.568
24.66000 400.671
24.67000 404.074
24.68000 406.656
24.69000 406.734
24.70000 406.639
24.71000 405.459
24.72000 402.025
24.73000 398.520
24.74000 396.465
24.75000 399.680
24.76000 401.970
24.77000 403.052
24.78000 403.024
24.79000 402.961
24.80000 400.466
24.81000 396.490
24.82000 392.635
24.83000 399.731
24.84000 410.752
24.85000 420.207
24.86000 411.882
24.87000 398.547
24.88000 387.641
24.89000 393.150
24.90000 401.726
24.91000 408.844
24.92000 401.595
24.93000 394.214
24.94000 390.479
24.95000 397.479
24.96000 405.179
24.97000 409.640
24.98000 407.594
24.99000 405.363
25.00000 404.077
25.01000 408.577
25.02000 411.749
25.03000 412.667
25.04000 411.597
25.05000 410.549
25.06000 410.812
25.07000 411.844
25.08000 412.842
25.09000 411.986
25.10000 410.476
25.11000 408.778
25.12000 405.046
25.13000 400.761
25.14000 397.187
25.15000 398.221
25.16000 400.082
25.17000 401.615
25.18000 394.675
25.19000 388.188
25.20000 382.715
25.21000 380.130
25.22000 377.722
25.23000 378.292
25.24000 384.639
25.25000 391.133
25.26000 394.818
25.27000 384.182
25.28000 376.747
25.29000 376.864
25.30000 383.387
25.31000 389.766
25.32000 388.608
25.33000 383.180
25.34000 377.946
25.35000 381.573
25.36000 388.204
25.37000 394.077
25.38000 392.206
25.39000 388.304
25.40000 386.080
25.41000 394.270
25.42000 404.257
25.43000 412.423
25.44000 400.139
25.45000 388.298
25.46000 382.047
25.47000 391.134
25.48000 401.102
25.49000 403.779
25.50000 392.804
25.51000 381.515
25.52000 375.219
25.53000 383.495
25.54000 389.246
25.55000 391.801
25.56000 391.749
25.57000 391.763
25.58000 394.937
25.59000 399.839
25.60000 404.553
25.61000 398.649
25.62000 389.406
25.63000 380.752
25.64000 377.823
25.65000 376.341
25.66000 375.971
25.67000 382.220
25.68000 389.565
25.69000 395.526
25.70000 398.302
25.71000 400.303
25.72000 399.936
25.73000 393.292
25.74000 386.312
25.75000 384.718
25.76000 392.863
25.77000 401.207
25.78000 405.780
25.79000 403.270
25.80000 401.523
25.81000 397.015
25.82000 390.337
25.83000 383.768
25.84000 381.799
25.85000 382.257
25.86000 382.695
25.87000 386.280
25.88000 390.685
25.89000 394.400
25.90000 391.731
25.91000 387.507
25.92000 382.992
25.93000 376.817
25.94000 370.379
25.95000 365.195
25.96000 376.574
25.97000 387.099
25.98000 392.755
25.99000 385.948
26.00000 378.517
26.01000 374.138
26.02000 375.080
26.03000 376.118
26.04000 376.678
26.05000 375.305
26.06000 374.379
26.07000 376.287
26.08000 380.339
26.09000 384.503
26.10000 392.896
26.11000 403.444
26.12000 413.525
26.13000 406.672
26.14000 394.823
26.15000 383.875
26.16000 380.888
26.17000 379.767
26.18000 379.152
26.19000 381.315
26.20000 383.901
26.21000 385.966
26.22000 382.844
26.23000 379.941
26.24000 376.935
26.25000 373.675
26.26000 370.403
26.27000 368.815
26.28000 370.062
26.29000 371.354
26.30000 372.037
26.31000 380.267
26.32000 385.834
26.33000 386.982
26.34000 384.912
26.35000 382.957
26.36000 384.940
26.37000 388.859
26.38000 392.593
26.39000 390.812
26.40000 387.446
26.41000 384.038
26.42000 380.275
26.43000 376.431
26.44000 373.755
26.45000 377.244
26.46000 381.633
26.47000 385.109
26.48000 385.205
26.49000 385.046
26.50000 385.075
26.51000 385.551
26.52000 386.046
26.53000 383.534
26.54000 376.142
26.55000 368.681
26.56000 364.815
26.57000 369.377
26.58000 372.439
26.59000 373.081
26.60000 372.024
26.61000 370.919
26.62000 368.298
26.63000 364.957
26.64000 361.786
26.65000 365.307
26.66000 370.559
26.67000 374.793
26.68000 370.846
26.69000 365.118
26.70000 361.428
26.71000 368.081
26.72000 376.178
26.73000 382.538
26.74000 384.320
26.75000 385.445
26.76000 387.190
26.77000 390.366
26.78000 393.598
26.79000 394.682
26.80000 392.401
26.81000 390.079
26.82000 388.899
26.83000 383.674
26.84000 380.175
26.85000 376.976
26.86000 373.981
26.87000 371.053
26.88000 370.030
26.89000 369.880
26.90000 369.739
26.91000 372.302
26.92000 375.435
26.93000 378.637
26.94000 382.368
26.95000 386.210
26.96000 388.890
26.97000 385.897
26.98000 382.146
26.99000 379.225
27.00000 376.444
27.01000 374.238
27.02000 370.269
27.03000 362.378
27.04000 354.344
27.05000 352.382
27.06000 359.591
27.07000 366.893
27.08000 369.504
27.09000 367.464
27.10000 365.418
27.11000 362.885
27.12000 360.033
27.13000 357.224
27.14000 355.534
27.15000 354.339
27.16000 353.212
27.17000 357.511
27.18000 362.947
27.19000 367.833
27.20000 368.683
27.21000 368.720
27.22000 369.705
27.23000 375.147
27.24000 381.159
27.25000 385.799
27.26000 378.438
27.27000 371.908
27.28000 366.623
27.29000 364.013
27.30000 361.493
27.31000 362.098
27.32000 367.250
27.33000 372.440
27.34000 371.003
27.35000 363.258
27.36000 355.601
27.37000 354.895
27.38000 358.560
27.39000 362.062
27.40000 361.616
27.41000 359.481
27.42000 357.477
27.43000 360.848
27.44000 365.351
27.45000 369.379
27.46000 370.076
27.47000 370.128
27.48000 369.929
27.49000 368.596
27.50000 367.124
27.51000 365.999
27.52000 360.839
27.53000 356.550
27.54000 356.374
27.55000 364.735
27.56000 373.359
27.57000 377.982
27.58000 376.990
27.59000 375.960
27.60000 372.249
27.61000 366.090
27.62000 359.993
27.63000 358.159
27.64000 358.909
27.65000 359.601
27.66000 358.993
27.67000 357.847
27.68000 356.775
27.69000 365.025
27.70000 374.897
27.71000 382.837
27.72000 377.769
27.73000 370.277
27.74000 364.410
27.75000 365.618
27.76000 367.649
27.77000 369.189
27.78000 365.348
27.79000 362.059
27.80000 358.824
27.81000 355.698
27.82000 352.576
27.83000 350.500
27.84000 349.841
27.85000 349.190
27.86000 356.654
27.87000 371.231
27.88000 385.564
27.89000 385.499
27.90000 377.008
27.91000 368.799
27.92000 366.489
27.93000 366.530
27.94000 366.569
27.95000 359.831
27.96000 352.074
27.97000 346.125
27.98000 351.845
27.99000 359.653
28.00000 365.940
28.01000 365.842
28.02000 365.034
28.03000 364.428
28.04000 363.942
28.05000 363.568
28.06000 365.663
28.07000 372.535
28.08000 379.529
28.09000 381.699
28.10000 377.590
28.11000 373.460
28.12000 368.665
28.13000 363.322
28.14000 358.046
28.15000 356.243
28.16000 356.401
28.17000 356.645
28.18000 358.574
28.19000 361.151
28.20000 363.542
28.21000 362.069
28.22000 359.832
28.23000 357.572
28.24000 355.171
28.25000 352.746
28.26000 351.154
28.27000 352.926
28.28000 355.055
28.29000 356.636
28.30000 358.479
28.31000 359.923
28.32000 360.569
28.33000 359.728
28.34000 358.852
28.35000 356.965
28.36000 353.811
28.37000 350.657
28.38000 355.985
28.39000 368.164
28.40000 380.140
28.41000 382.728
28.42000 380.198
28.43000 377.394
28.44000 369.620
28.45000 359.998
28.46000 351.109
28.47000 346.134
28.48000 342.554
28.49000 340.084
28.50000 344.203
28.51000 349.408
28.52000 354.292
28.53000 357.922
28.54000 361.425
28.55000 364.002
28.56000 356.445
28.57000 350.179
28.58000 346.611
28.59000 347.903
28.60000 349.294
28.61000 351.653
28.62000 355.179
28.63000 358.701
28.64000 357.904
28.65000 353.750
28.66000 349.670
28.67000 348.710
28.68000 349.390
28.69000 349.868
28.70000 346.897
28.71000 342.687
28.72000 338.815
28.73000 344.746
28.74000 352.170
28.75000 358.443
28.76000 358.146
28.77000 356.810
28.78000 357.138
28.79000 363.720
28.80000 370.899
28.81000 376.127
28.82000 361.117
28.83000 348.786
28.84000 340.369
28.85000 338.761
28.86000 337.276
28.87000 335.193
28.88000 332.416
28.89000 329.645
28.90000 330.720
28.91000 334.665
28.92000 338.731
28.93000 347.337
28.94000 358.250
28.95000 368.366
28.96000 365.824
28.97000 358.892
28.98000 352.546
28.99000 349.999
29.00000 348.524
29.01000 347.776
29.02000 351.015
29.03000 354.858
29.04000 356.030
29.05000 347.519
29.06000 338.128
29.07000 331.361
29.08000 341.193
29.09000 349.313
29.10000 355.291
29.11000 357.676
29.12000 360.004
29.13000 357.730
29.14000 350.322
29.15000 342.936
29.16000 338.804
29.17000 337.050
29.18000 335.371
29.19000 336.248
29.20000 338.379
29.21000 340.367
29.22000 340.214
29.23000 339.344
29.24000 338.551
29.25000 342.680
29.26000 347.321
29.27000 351.706
29.28000 354.746
29.29000 357.590
29.30000 360.685
29.31000 364.658
29.32000 368.706
29.33000 371.592
29.34000 369.595
29.35000 367.914
29.36000 362.103
29.37000 349.605
29.38000 337.017
29.39000 332.360
29.40000 336.205
29.41000 340.036
29.42000 337.519
29.43000 330.636
29.44000 324.151
29.45000 330.015
29.46000 341.727
29.47000 352.723
29.48000 353.646
29.49000 351.316
29.50000 349.202
29.51000 345.537
29.52000 342.007
29.53000 340.186
29.54000 347.021
29.55000 355.060
29.56000 359.970
29.57000 354.327
29.58000 347.825
29.59000 343.241
29.60000 340.633
29.61000 338.715
29.62000 339.884
29.63000 345.874
29.64000 351.921
29.65000 355.312
29.66000 355.969
29.67000 356.623
29.68000 352.026
29.69000 343.994
29.70000 336.279
29.71000 337.607
29.72000 343.069
29.73000 348.430
29.74000 352.444
29.75000 356.039
29.76000 359.283
29.77000 361.044
29.78000 362.320
29.79000 363.456
29.80000 363.911
29.81000 364.275
29.82000 366.282
29.83000 373.635
29.84000 381.400
29.85000 386.811
29.86000 383.390
29.87000 380.566
29.88000 376.493
29.89000 370.541
29.90000 364.570
29.91000 362.080
29.92000 363.029
29.93000 363.972
29.94000 367.099
29.95000 371.578
29.96000 376.135
29.97000 382.733
29.98000 390.232
29.99000 397.056
30.00000 395.422
30.01000 391.242
30.02000 387.490
30.03000 379.437
30.04000 371.637
30.05000 366.372
30.06000 372.981
30.07000 381.102
30.08000 388.401
30.09000 393.121
30.10000 397.653
30.11000 400.776
30.12000 390.381
30.13000 382.237
30.14000 376.110
30.15000 372.911
30.16000 369.737
30.17000 370.084
30.18000 373.773
30.19000 377.432
30.20000 375.251
30.21000 369.512
30.22000 364.059
30.23000 365.518
30.24000 369.924
30.25000 373.967
30.26000 373.711
30.27000 372.206
30.28000 370.862
30.29000 376.611
30.30000 382.812
30.31000 387.307
30.32000 384.107
30.33000 379.971
30.34000 374.326
30.35000 364.100
30.36000 353.561
30.37000 346.387
30.38000 356.423
30.39000 364.312
30.40000 370.131
30.41000 373.052
30.42000 375.953
30.43000 376.551
30.44000 375.051
30.45000 373.564
30.46000 369.748
30.47000 364.629
30.48000 359.718
30.49000 359.458
30.50000 361.113
30.51000 363.060
30.52000 368.290
30.53000 374.439
30.54000 379.901
30.55000 373.555
30.56000 366.150
30.57000 361.188
30.58000 366.833
30.59000 373.709
30.60000 377.387
30.61000 371.705
30.62000 365.420
30.63000 361.193
30.64000 362.763
30.65000 364.050
30.66000 364.125
30.67000 362.569
30.68000 361.007
30.69000 362.303
30.70000 366.102
30.71000 369.860
30.72000 368.146
30.73000 363.350
30.74000 358.708
30.75000 357.249
30.76000 357.057
30.77000 357.982
30.78000 370.841
30.79000 386.924
30.80000 401.131
30.81000 395.232
30.82000 387.042
30.83000 380.686
30.84000 382.003
30.85000 384.169
30.86000 385.216
30.87000 383.104
30.88000 380.801
30.89000 379.272
30.90000 392.907
30.91000 403.268
30.92000 411.226
30.93000 416.065
30.94000 420.880
30.95000 419.786
30.96000 413.712
30.97000 407.713
30.98000 415.746
30.99000 431.276
31.00000 446.456
31.01000 454.866
31.02000 460.676
31.03000 466.088
31.04000 467.465
31.05000 467.790
31.06000 468.075
31.07000 490.246
31.08000 512.528
31.09000 532.986
31.10000 546.091
31.11000 558.421
31.12000 575.092
31.13000 603.608
31.14000 632.796
31.15000 651.932
31.16000 682.954
31.17000 705.962
31.18000 725.431
31.19000 740.478
31.20000 755.544
31.21000 782.879
31.22000 820.159
31.23000 856.922
31.24000 886.920
31.25000 912.501
31.26000 938.593
31.27000 973.881
31.28000 1012.579
31.29000 1049.496
31.30000 1069.226
31.31000 1084.641
31.32000 1098.103
31.33000 1120.500
31.34000 1140.925
31.35000 1163.256
31.36000 1192.991
31.37000 1223.468
31.38000 1245.917
31.39000 1247.218
31.40000 1247.396
31.41000 1247.512
31.42000 1236.444
31.43000 1228.184
31.44000 1209.254
31.45000 1177.496
31.46000 1145.705
31.47000 1112.040
31.48000 1076.913
31.49000 1042.337
31.50000 1024.141
31.51000 1014.837
31.52000 1004.617
31.53000 978.942
31.54000 947.734
31.55000 916.520
31.56000 885.252
31.57000 853.971
31.58000 826.817
31.59000 777.588
31.60000 732.673
31.61000 693.598
31.62000 676.403
31.63000 661.292
31.64000 643.331
31.65000 618.119
31.66000 592.550
31.67000 576.228
31.68000 541.065
31.69000 515.240
31.70000 498.120
31.71000 491.066
31.72000 484.028
31.73000 477.643
31.74000 471.748
31.75000 465.957
31.76000 456.991
31.77000 446.778
31.78000 436.683
31.79000 428.452
31.80000 420.865
31.81000 412.927
31.82000 401.911
31.83000 390.178
31.84000 380.055
31.85000 378.941
31.86000 379.152
31.87000 378.017
31.88000 372.023
31.89000 365.589
31.90000 362.568
31.91000 367.930
31.92000 373.676
31.93000 377.294
31.94000 368.957
31.95000 362.789
31.96000 359.977
31.97000 360.895
31.98000 361.801
31.99000 360.306
32.00000 357.073
32.01000 353.903
32.02000 353.416
32.03000 354.211
32.04000 354.526
32.05000 347.702
32.06000 338.496
32.07000 331.154
32.08000 339.377
32.09000 351.096
32.10000 361.141
32.11000 363.331
32.12000 364.220
32.13000 364.795
32.14000 364.277
32.15000 363.665
32.16000 360.702
32.17000 352.162
32.18000 343.385
32.19000 337.937
32.20000 338.375
32.21000 338.748
32.22000 340.923
32.23000 345.022
32.24000 349.060
32.25000 345.103
32.26000 335.569
32.27000 326.242
32.28000 325.311
32.29000 328.223
32.30000 330.921
32.31000 330.625
32.32000 329.365
32.33000 328.085
32.34000 326.644
32.35000 325.169
32.36000 323.912
32.37000 330.257
32.38000 336.478
32.39000 342.545
32.40000 348.096
32.41000 353.606
32.42000 353.988
32.43000 342.625
32.44000 330.799
32.45000 323.565
32.46000 331.973
32.47000 338.120
32.48000 338.514
32.49000 333.005
32.50000 327.504
32.51000 322.763
32.52000 318.534
32.53000 314.406
32.54000 310.155
32.55000 306.035
32.56000 302.670
32.57000 309.280
32.58000 318.990
32.59000 326.686
32.60000 319.020
32.61000 308.158
32.62000 298.968
32.63000 303.661
32.64000 309.131
32.65000 314.320
32.66000 318.598
32.67000 322.807
32.68000 325.866
32.69000 326.382
32.70000 326.806
32.71000 327.062
32.72000 316.070
32.73000 308.169
32.74000 309.210
32.75000 319.054
32.76000 328.814
32.77000 331.072
32.78000 328.467
32.79000 325.930
32.80000 334.759
32.81000 347.945
32.82000 361.524
32.83000 380.022
32.84000 399.995
32.85000 419.182
32.86000 432.631
32.87000 444.932
32.88000 455.268
32.89000 470.619
32.90000 483.938
32.91000 496.557
32.92000 506.982
32.93000 517.248
32.94000 523.920
32.95000 522.911
32.96000 521.646
32.97000 520.896
32.98000 529.053
32.99000 534.875
33.00000 536.375
33.01000 533.790
33.02000 531.072
33.03000 518.178
33.04000 498.924
33.05000 480.218
33.06000 460.453
33.07000 441.250
33.08000 422.627
33.09000 410.868
33.10000 401.096
33.11000 390.666
33.12000 375.646
33.13000 359.742
33.14000 346.472
33.15000 330.786
33.16000 317.533
33.17000 307.265
33.18000 306.021
33.19000 305.392
33.20000 304.923
33.21000 304.784
33.22000 304.656
33.23000 304.581
33.24000 296.935
33.25000 291.524
33.26000 290.615
33.27000 293.797
33.28000 296.936
33.29000 297.250
33.30000 295.861
33.31000 294.515
33.32000 293.979
33.33000 293.786
33.34000 293.696
33.35000 294.760
33.36000 296.146
33.37000 297.395
33.38000 297.728
33.39000 297.892
33.40000 298.028
33.41000 292.021
33.42000 286.475
33.43000 282.497
33.44000 283.092
33.45000 283.980
33.46000 285.139
33.47000 286.835
33.48000 288.546
33.49000 289.530
33.50000 289.788
33.51000 289.969
33.52000 293.087
33.53000 298.769
33.54000 304.286
33.55000 300.276
33.56000 290.723
33.57000 281.491
33.58000 284.864
33.59000 292.760
33.60000 300.055
33.61000 300.966
33.62000 300.159
33.63000 299.460
33.64000 299.458
33.65000 299.580
33.66000 299.680
33.67000 301.285
33.68000 302.740
33.69000 303.633
33.70000 302.939
33.71000 302.149
33.72000 300.570
33.73000 297.471
33.74000 294.334
33.75000 292.561
33.76000 292.217
33.77000 291.983
33.78000 291.935
33.79000 292.046
33.80000 292.207
33.81000 294.994
33.82000 299.255
33.83000 303.361
33.84000 305.139
33.85000 305.973
33.86000 306.715
33.87000 306.527
33.88000 306.098
33.89000 305.309
33.90000 302.307
33.91000 298.928
33.92000 296.170
33.93000 293.038
33.94000 290.443
33.95000 289.333
33.96000 292.262
33.97000 295.418
33.98000 296.319
33.99000 293.032
34.00000 289.652
34.01000 287.775
34.02000 299.821
34.03000 308.165
34.04000 313.302
34.05000 315.848
34.06000 318.317
34.07000 317.257
34.08000 314.285
34.09000 311.430
34.10000 308.697
34.11000 306.180
34.12000 303.558
34.13000 299.930
34.14000 296.050
34.15000 294.033
34.16000 303.008
34.17000 313.783
34.18000 322.510
34.19000 332.048
34.20000 339.881
34.21000 343.364
34.22000 335.421
34.23000 326.876
34.24000 321.396
34.25000 321.409
34.26000 321.531
34.27000 321.598
34.28000 328.791
34.29000 333.727
34.30000 334.946
34.31000 333.274
34.32000 331.609
34.33000 330.213
34.34000 328.957
34.35000 327.753
34.36000 327.671
34.37000 327.967
34.38000 327.710
34.39000 322.389
34.40000 315.847
34.41000 310.749
34.42000 313.832
34.43000 318.200
34.44000 321.710
34.45000 324.508
34.46000 326.722
34.47000 326.732
34.48000 321.151
34.49000 315.296
34.50000 312.049
34.51000 313.314
34.52000 314.658
34.53000 315.378
34.54000 316.904
34.55000 317.925
34.56000 314.776
34.57000 308.503
34.58000 302.357
34.59000 300.909
34.60000 301.833
34.61000 302.715
34.62000 306.527
34.63000 311.008
34.64000 314.485
34.65000 309.215
34.66000 301.913
34.67000 295.399
34.68000 293.176
34.69000 291.600
34.70000 290.344
34.71000 285.021
34.72000 280.431
34.73000 278.820
34.74000 284.507
34.75000 290.527
34.76000 293.293
34.77000 290.631
34.78000 287.886
34.79000 286.442
34.80000 283.309
34.81000 281.190
34.82000 280.093
34.83000 279.732
34.84000 279.464
34.85000 282.271
34.86000 286.577
34.87000 290.676
34.88000 289.612
34.89000 287.038
34.90000 284.744
34.91000 284.777
34.92000 285.330
34.93000 284.844
34.94000 278.919
34.95000 272.210
34.96000 266.908
34.97000 267.689
34.98000 268.733
34.99000 269.189
35.00000 268.256
35.01000 267.263
35.02000 267.731
35.03000 270.549
35.04000 273.399
35.05000 274.868
35.06000 272.690
35.07000 271.257
35.08000 274.158
35.09000 280.073
35.10000 285.694
35.11000 282.342
35.12000 274.767
35.13000 267.581
35.14000 265.728
35.15000 265.599
35.16000 265.489
35.17000 265.530
35.18000 265.602
35.19000 265.452
35.20000 264.179
35.21000 262.752
35.22000 261.633
35.23000 260.161
35.24000 258.961
35.25000 259.267
35.26000 263.014
35.27000 266.896
35.28000 267.631
35.29000 263.485
35.30000 259.282
35.31000 257.158
35.32000 259.527
35.33000 261.099
35.34000 261.391
35.35000 260.824
35.36000 260.438
35.37000 265.099
35.38000 272.055
35.39000 278.629
35.40000 279.350
35.41000 278.346
35.42000 277.221
35.43000 275.167
35.44000 272.921
35.45000 271.100
35.46000 271.332
35.47000 271.835
35.48000 272.226
35.49000 266.868
35.50000 262.256
35.51000 258.266
35.52000 255.647
35.53000 253.078
35.54000 252.356
35.55000 254.400
35.56000 256.471
35.57000 259.377
35.58000 263.102
35.59000 266.779
35.60000 266.206
35.61000 262.886
35.62000 259.518
35.63000 254.911
35.64000 249.759
35.65000 244.908
35.66000 250.608
35.67000 258.710
35.68000 265.335
35.69000 261.229
35.70000 254.983
35.71000 250.332
35.72000 253.104
35.73000 256.814
35.74000 259.670
35.75000 259.870
35.76000 259.876
35.77000 258.611
35.78000 254.634
35.79000 250.569
35.80000 250.913
35.81000 257.618
35.82000 264.373
35.83000 266.378
35.84000 263.908
35.85000 261.479
35.86000 262.193
35.87000 264.865
35.88000 267.316
35.89000 264.499
35.90000 259.449
35.91000 254.712
35.92000 255.556
35.93000 257.791
35.94000 259.628
35.95000 258.693
35.96000 257.227
35.97000 255.280
35.98000 251.182
35.99000 246.823
36.00000 243.498
36.01000 249.919
36.02000 255.498
36.03000 260.664
36.04000 264.981
36.05000 269.272
36.06000 270.411
36.07000 267.171
36.08000 263.903
36.09000 260.291
36.10000 256.371
36.11000 252.534
36.12000 254.040
36.13000 258.760
36.14000 263.191
36.15000 261.282
36.16000 256.776
36.17000 252.566
36.18000 253.472
36.19000 255.586
36.20000 256.950
36.21000 253.320
36.22000 248.768
36.23000 245.896
36.24000 250.270
36.25000 255.477
36.26000 259.413
36.27000 253.619
36.28000 248.589
36.29000 248.215
36.30000 257.087
36.31000 266.211
36.32000 267.978
36.33000 259.893
36.34000 251.763
36.35000 249.898
36.36000 253.480
36.37000 256.998
36.38000 256.883
36.39000 254.660
36.40000 252.701
36.41000 256.150
36.42000 261.737
36.43000 266.936
36.44000 261.304
36.45000 253.586
36.46000 246.786
36.47000 245.846
36.48000 245.944
36.49000 247.148
36.50000 252.952
36.51000 259.261
36.52000 263.984
36.53000 254.294
36.54000 246.060
36.55000 241.568
36.56000 244.252
36.57000 247.113
36.58000 248.676
36.59000 248.567
36.60000 248.451
36.61000 249.456
36.62000 251.394
36.63000 253.236
36.64000 250.191
36.65000 244.411
36.66000 238.838
36.67000 237.222
36.68000 237.118
36.69000 237.021
36.70000 242.101
36.71000 247.881
36.72000 252.544
36.73000 250.378
36.74000 247.049
36.75000 244.644
36.76000 245.939
36.77000 247.621
36.78000 248.868
36.79000 254.898
36.80000 259.788
36.81000 263.614
36.82000 265.469
36.83000 267.281
36.84000 266.436
36.85000 262.291
36.86000 258.144
36.87000 255.302
36.88000 253.519
36.89000 251.825
36.90000 254.172
36.91000 258.703
36.92000 263.165
36.93000 266.399
36.94000 269.180
36.95000 271.746
36.96000 271.511
36.97000 270.674
36.98000 270.104
36.99000 271.107
37.00000 272.366
37.01000 271.505
37.02000 262.454
37.03000 252.589
37.04000 245.350
37.05000 256.100
37.06000 265.136
37.07000 270.111
37.08000 267.832
37.09000 265.410
37.10000 263.199
37.11000 261.241
37.12000 259.288
37.13000 260.210
37.14000 263.344
37.15000 266.349
37.16000 264.130
37.17000 259.187
37.18000 254.511
37.19000 254.291
37.20000 255.658
37.21000 256.913
37.22000 252.910
37.23000 248.208
37.24000 244.674
37.25000 247.725
37.26000 251.807
37.27000 254.274
37.28000 250.724
37.29000 246.605
37.30000 243.615
37.31000 252.387
37.32000 259.573
37.33000 261.703
37.34000 255.115
37.35000 248.375
37.36000 248.460
37.37000 256.385
37.38000 264.295
37.39000 262.665
37.40000 253.975
37.41000 245.561
37.42000 247.270
37.43000 254.075
37.44000 260.219
37.45000 256.004
37.46000 248.229
37.47000 241.119
37.48000 247.493
37.49000 255.936
37.50000 263.058
37.51000 263.024
37.52000 261.916
37.53000 260.351
37.54000 257.143
37.55000 253.787
37.56000 251.375
37.57000 251.306
37.58000 251.334
37.59000 252.051
37.60000 253.915
37.61000 255.797
37.62000 254.749
37.63000 250.465
37.64000 246.196
37.65000 244.365
37.66000 244.290
37.67000 244.333
37.68000 248.334
37.69000 254.258
37.70000 259.555
37.71000 255.629
37.72000 248.642
37.73000 242.283
37.74000 239.101
37.75000 236.913
37.76000 235.412
37.77000 237.496
37.78000 240.096
37.79000 242.719
37.80000 245.422
37.81000 248.133
37.82000 250.059
37.83000 250.253
37.84000 250.344
37.85000 251.514
37.86000 254.412
37.87000 257.333
37.88000 254.985
37.89000 247.045
37.90000 239.142
37.91000 236.711
37.92000 238.058
37.93000 239.399
37.94000 240.585
37.95000 241.699
37.96000 243.079
37.97000 248.165
37.98000 254.436
37.99000 260.117
38.00000 262.994
38.01000 264.999
38.02000 265.169
38.03000 256.144
38.04000 245.853
38.05000 238.410
38.06000 240.485
38.07000 243.326
38.08000 245.322
38.09000 254.804
38.10000 262.207
38.11000 266.799
38.12000 267.041
38.13000 267.233
38.14000 265.161
38.15000 260.781
38.16000 256.427
38.17000 255.443
38.18000 256.696
38.19000 257.713
38.20000 252.191
38.21000 243.706
38.22000 236.276
38.23000 242.680
38.24000 253.357
38.25000 262.981
38.26000 262.022
38.27000 259.261
38.28000 257.492
38.29000 260.504
38.30000 264.145
38.31000 268.411
38.32000 274.689
38.33000 281.120
38.34000 285.590
38.35000 289.539
38.36000 292.501
38.37000 295.781
38.38000 299.536
38.39000 303.296
38.40000 306.267
38.41000 308.467
38.42000 310.651
38.43000 318.185
38.44000 328.994
38.45000 339.966
38.46000 355.124
38.47000 372.114
38.48000 388.991
38.49000 404.464
38.50000 419.519
38.51000 433.018
38.52000 453.177
38.53000 471.948
38.54000 490.880
38.55000 510.555
38.56000 530.324
38.57000 551.417
38.58000 576.631
38.59000 602.141
38.60000 619.662
38.61000 654.859
38.62000 681.684
38.63000 706.849
38.64000 729.627
38.65000 752.385
38.66000 776.259
38.67000 801.180
38.68000 825.896
38.69000 842.141
38.70000 852.923
38.71000 863.206
38.72000 861.699
38.73000 855.208
38.74000 849.121
38.75000 847.759
38.76000 847.757
38.77000 847.755
38.78000 829.631
38.79000 810.848
38.80000 791.657
38.81000 770.647
38.82000 749.417
38.83000 725.482
38.84000 693.414
38.85000 660.796
38.86000 638.660
38.87000 624.163
38.88000 613.519
38.89000 595.775
38.90000 568.194
38.91000 540.550
38.92000 513.078
38.93000 485.761
38.94000 458.706
38.95000 439.150
38.96000 424.401
38.97000 409.495
38.98000 391.175
38.99000 371.461
39.00000 352.472
39.01000 341.531
39.02000 332.824
39.03000 325.100
39.04000 319.117
39.05000 314.212
39.06000 308.117
39.07000 296.907
39.08000 285.110
39.09000 275.717
39.10000 273.298
39.11000 271.321
39.12000 269.996
39.13000 259.988
39.14000 252.386
39.15000 250.075
39.16000 254.826
39.17000 259.604
39.18000 256.961
39.19000 247.880
39.20000 238.900
39.21000 236.158
39.22000 237.003
39.23000 237.753
39.24000 236.566
39.25000 234.615
39.26000 232.869
39.27000 233.285
39.28000 234.281
39.29000 235.159
39.30000 240.379
39.31000 245.543
39.32000 249.035
39.33000 245.596
39.34000 241.400
39.35000 238.879
39.36000 241.048
39.37000 243.497
39.38000 245.118
39.39000 244.268
39.40000 243.596
39.41000 241.707
39.42000 238.254
39.43000 234.800
39.44000 233.607
39.45000 234.300
39.46000 234.984
39.47000 228.951
39.48000 219.424
39.49000 210.552
39.50000 214.092
39.51000 222.356
39.52000 230.371
39.53000 235.882
39.54000 240.747
39.55000 245.014
39.56000 239.712
39.57000 233.766
39.58000 229.314
39.59000 230.835
39.60000 232.977
39.61000 233.935
39.62000 231.691
39.63000 229.268
39.64000 227.685
39.65000 230.897
39.66000 233.334
39.67000 232.187
39.68000 226.608
39.69000 221.024
39.70000 217.861
39.71000 216.641
39.72000 215.439
39.73000 218.403
39.74000 223.460
39.75000 228.231
39.76000 227.928
39.77000 225.760
39.78000 223.873
39.79000 224.667
39.80000 226.127
39.81000 227.401
39.82000 225.823
39.83000 224.077
39.84000 222.134
39.85000 219.431
39.86000 216.653
39.87000 216.030
39.88000 221.037
39.89000 226.337
39.90000 229.754
39.91000 227.582
39.92000 225.916
39.93000 222.920
39.94000 218.340
39.95000 213.771
39.96000 212.666
39.97000 214.238
39.98000 215.785
39.99000 215.822
40.00000 215.096
40.01000 214.371
40.02000 213.646
40.03000 212.920
40.04000 212.652
40.05000 216.530
40.06000 221.401
40.07000 225.624
40.08000 223.689
40.09000 221.225
40.10000 219.350
40.11000 219.658
40.12000 220.171
40.13000 218.575
40.14000 211.655
40.15000 204.478
40.16000 199.912
40.17000 211.069
40.18000 219.371
40.19000 222.995
40.20000 221.260
40.21000 219.516
40.22000 217.271
40.23000 214.652
40.24000 212.081
40.25000 213.262
40.26000 216.219
40.27000 219.215
40.28000 222.830
40.29000 226.656
40.30000 230.578
40.31000 235.329
40.32000 240.271
40.33000 244.529
40.34000 236.982
40.35000 229.092
40.36000 223.129
40.37000 224.071
40.38000 225.628
40.39000 226.734
40.40000 226.743
40.41000 226.702
40.42000 226.676
40.43000 219.189
40.44000 213.697
40.45000 211.208
40.46000 212.025
40.47000 212.839
40.48000 212.984
40.49000 212.648
40.50000 212.319
40.51000 208.227
40.52000 202.535
40.53000 197.367
40.54000 199.869
40.55000 204.908
40.56000 209.861
40.57000 214.096
40.58000 218.171
40.59000 221.659
40.60000 220.478
40.61000 218.918
40.62000 216.913
40.63000 213.367
40.64000 209.691
40.65000 207.810
40.66000 210.154
40.67000 212.674
40.68000 214.232
40.69000 213.931
40.70000 213.696
40.71000 211.934
40.72000 208.556
40.73000 205.209
40.74000 205.692
40.75000 208.822
40.76000 211.882
40.77000 211.309
40.78000 209.129
40.79000 206.993
40.80000 205.458
40.81000 204.115
40.82000 203.499
40.83000 208.615
40.84000 214.958
40.85000 220.352
40.86000 212.513
40.87000 204.406
40.88000 199.157
40.89000 203.434
40.90000 208.473
40.91000 213.045
40.92000 216.554
40.93000 220.023
40.94000 222.137
40.95000 218.874
40.96000 216.499
40.97000 215.016
40.98000 214.440
40.99000 213.878
41.00000 214.709
41.01000 216.468
41.02000 218.185
41.03000 215.971
41.04000 212.158
41.05000 208.762
41.06000 210.793
41.07000 214.497
41.08000 217.426
41.09000 214.507
41.10000 210.382
41.11000 206.899
41.12000 202.846
41.13000 199.395
41.14000 197.685
41.15000 201.574
41.16000 205.886
41.17000 208.576
41.18000 207.706
41.19000 206.710
41.20000 206.112
41.21000 201.382
41.22000 197.993
41.23000 198.547
41.24000 202.944
41.25000 207.314
41.26000 209.332
41.27000 209.841
41.28000 210.336
41.29000 209.666
41.30000 208.544
41.31000 207.709
41.32000 210.407
41.33000 214.157
41.34000 217.201
41.35000 215.161
41.36000 212.113
41.37000 209.557
41.38000 203.403
41.39000 197.905
41.40000 194.457
41.41000 197.371
41.42000 200.739
41.43000 203.102
41.44000 203.335
41.45000 203.499
41.46000 203.597
41.47000 202.672
41.48000 202.014
41.49000 203.553
41.50000 207.149
41.51000 210.685
41.52000 209.861
41.53000 206.335
41.54000 202.911
41.55000 203.363
41.56000 205.343
41.57000 206.887
41.58000 203.361
41.59000 198.380
41.60000 194.344
41.61000 196.832
41.62000 200.564
41.63000 203.672
41.64000 210.457
41.65000 216.444
41.66000 219.956
41.67000 216.058
41.68000 211.661
41.69000 208.394
41.70000 207.439
41.71000 206.552
41.72000 206.036
41.73000 205.202
41.74000 204.615
41.75000 204.147
41.76000 203.786
41.77000 203.429
41.78000 203.348
41.79000 203.432
41.80000 203.514
41.81000 202.985
41.82000 202.251
41.83000 201.811
41.84000 204.626
41.85000 208.341
41.86000 210.703
41.87000 204.117
41.88000 195.892
41.89000 189.091
41.90000 195.373
41.91000 201.786
41.92000 205.920
41.93000 203.462
41.94000 200.587
41.95000 200.791
41.96000 207.076
41.97000 213.524
41.98000 217.212
41.99000 207.341
42.00000 200.408
42.01000 199.005
42.02000 202.384
42.03000 205.751
42.04000 208.530
42.05000 210.970
42.06000 213.325
42.07000 214.415
42.08000 214.972
42.09000 215.084
42.10000 210.515
42.11000 204.696
42.12000 200.368
42.13000 205.484
42.14000 212.263
42.15000 217.828
42.16000 215.597
42.17000 213.070
42.18000 211.246
42.19000 211.387
42.20000 211.644
42.21000 213.101
42.22000 216.844
42.23000 220.641
42.24000 222.778
42.25000 216.460
42.26000 212.056
42.27000 209.266
42.28000 207.817
42.29000 206.349
42.30000 203.911
42.31000 200.933
42.32000 198.065
42.33000 201.716
42.34000 207.468
42.35000 212.523
42.36000 210.637
42.37000 206.964
42.38000 203.729
42.39000 203.149
42.40000 203.017
42.41000 202.910
42.42000 200.714
42.43000 198.742
42.44000 198.122
42.45000 201.146
42.46000 204.372
42.47000 204.341
42.48000 198.318
42.49000 192.164
42.50000 188.762
42.51000 196.425
42.52000 201.721
42.53000 203.383
42.54000 202.137
42.55000 201.000
42.56000 204.697
42.57000 210.988
42.58000 217.029
42.59000 214.100
42.60000 208.285
42.61000 202.957
42.62000 202.236
42.63000 202.658
42.64000 203.402
42.65000 206.026
42.66000 208.954
42.67000 211.321
42.68000 211.183
42.69000 210.869
42.70000 210.335
42.71000 209.226
42.72000 208.088
42.73000 205.667
42.74000 200.971
42.75000 196.230
42.76000 193.655
42.77000 198.108
42.78000 201.155
42.79000 200.611
42.80000 197.300
42.81000 194.097
42.82000 195.189
42.83000 198.506
42.84000 201.682
42.85000 202.502
42.86000 202.489
42.87000 202.749
42.88000 205.482
42.89000 208.805
42.90000 211.503
42.91000 210.697
42.92000 209.347
42.93000 208.264
42.94000 205.841
42.95000 203.778
42.96000 201.638
42.97000 199.306
42.98000 196.964
42.99000 194.798
43.00000 192.930
43.01000 191.068
43.02000 190.075
43.03000 194.184
43.04000 196.976
43.05000 197.771
43.06000 197.082
43.07000 196.386
43.08000 195.451
43.09000 194.394
43.10000 193.386
43.11000 191.442
43.12000 189.340
43.13000 187.612
43.14000 189.103
43.15000 191.335
43.16000 193.828
43.17000 197.731
43.18000 201.845
43.19000 205.117
43.20000 200.439
43.21000 196.100
43.22000 193.702
43.23000 196.015
43.24000 198.540
43.25000 198.046
43.26000 192.561
43.27000 187.002
43.28000 184.093
43.29000 191.353
43.30000 196.254
43.31000 198.665
43.32000 199.298
43.33000 199.870
43.34000 198.507
43.35000 196.207
43.36000 194.021
43.37000 191.506
43.38000 189.080
43.39000 187.149
43.40000 189.284
43.41000 192.320
43.42000 194.685
43.43000 193.571
43.44000 191.961
43.45000 190.691
43.46000 188.150
43.47000 186.025
43.48000 184.013
43.49000 182.265
43.50000 180.527
43.51000 179.490
43.52000 179.570
43.53000 179.664
43.54000 179.712
43.55000 185.097
43.56000 188.698
43.57000 189.770
43.58000 189.100
43.59000 188.511
43.60000 190.347
43.61000 193.316
43.62000 196.129
43.63000 192.968
43.64000 188.305
43.65000 184.597
43.66000 188.387
43.67000 193.777
43.68000 198.223
43.69000 197.960
43.70000 197.055
43.71000 196.347
43.72000 190.236
43.73000 185.013
43.74000 183.845
43.75000 191.857
43.76000 200.221
43.77000 205.187
43.78000 204.925
43.79000 204.606
43.80000 204.445
43.81000 201.619
43.82000 199.744
43.83000 199.137
43.84000 199.372
43.85000 199.530
43.86000 197.564
43.87000 194.641
43.88000 191.881
43.89000 190.655
43.90000 189.962
43.91000 189.133
43.92000 187.282
43.93000 185.220
43.94000 184.149
43.95000 187.824
43.96000 192.119
43.97000 195.449
43.98000 194.839
43.99000 194.120
44.00000 193.489
44.01000 193.053
44.02000 192.624
44.03000 194.837
44.04000 200.970
44.05000 207.138
44.06000 207.892
44.07000 203.386
44.08000 198.926
44.09000 198.305
44.10000 200.142
44.11000 201.756
44.12000 197.734
44.13000 191.259
44.14000 185.168
44.15000 187.953
44.16000 192.902
44.17000 197.152
44.18000 196.380
44.19000 194.616
44.20000 193.191
44.21000 193.334
44.22000 193.672
44.23000 193.932
44.24000 190.209
44.25000 187.042
44.26000 185.273
44.27000 186.460
44.28000 187.741
44.29000 187.788
44.30000 186.071
44.31000 184.340
44.32000 186.658
44.33000 192.749
44.34000 198.775
44.35000 200.029
44.36000 198.336
44.37000 196.655
44.38000 195.259
44.39000 193.983
44.40000 192.787
44.41000 190.372
44.42000 187.857
44.43000 186.659
44.44000 194.518
44.45000 204.099
44.46000 212.022
44.47000 212.587
44.48000 212.276
44.49000 212.039
44.50000 206.471
44.51000 201.810
44.52000 200.306
44.53000 205.241
44.54000 210.365
44.55000 212.503
44.56000 210.530
44.57000 208.533
44.58000 204.283
44.59000 198.021
44.60000 191.908
44.61000 195.223
44.62000 204.157
44.63000 212.788
44.64000 214.870
44.65000 214.294
44.66000 213.757
44.67000 210.899
44.68000 207.728
44.69000 205.128
44.70000 206.293
44.71000 208.145
44.72000 209.686
44.73000 209.897
44.74000 209.957
44.75000 210.003
44.76000 215.249
44.77000 219.614
44.78000 222.141
44.79000 221.053
44.80000 219.869
44.81000 217.697
44.82000 214.214
44.83000 210.728
44.84000 213.090
44.85000 220.478
44.86000 227.787
44.87000 230.733
44.88000 231.171
44.89000 231.464
44.90000 228.864
44.91000 225.129
44.92000 221.657
44.93000 223.363
44.94000 226.146
44.95000 227.910
44.96000 223.238
44.97000 217.436
44.98000 214.035
44.99000 220.519
45.00000 228.074
45.01000 233.717
45.02000 232.817
45.03000 231.815
45.04000 230.561
45.05000 228.827
45.06000 227.082
45.07000 230.165
45.08000 239.416
45.09000 248.679
45.10000 249.269
45.11000 242.690
45.12000 236.162
45.13000 232.163
45.14000 229.567
45.15000 226.777
45.16000 220.346
45.17000 212.537
45.18000 205.308
45.19000 211.516
45.20000 220.196
45.21000 227.695
45.22000 228.038
45.23000 227.175
45.24000 226.197
45.25000 224.764
45.26000 223.284
45.27000 222.189
45.28000 223.506
45.29000 224.631
45.30000 224.331
45.31000 221.417
45.32000 218.446
45.33000 216.630
45.34000 216.233
45.35000 215.840
45.36000 214.213
45.37000 211.611
45.38000 209.048
45.39000 208.170
45.40000 208.195
45.41000 208.129
45.42000 206.489
45.43000 204.272
45.44000 202.229
45.45000 206.684
45.46000 212.112
45.47000 215.935
45.48000 210.430
45.49000 203.417
45.50000 198.502
45.51000 201.615
45.52000 205.515
45.53000 208.370
45.54000 199.520
45.55000 192.226
45.56000 188.341
45.57000 190.491
45.58000 192.758
45.59000 194.626
45.60000 196.023
45.61000 197.416
45.62000 197.649
45.63000 196.994
45.64000 196.363
45.65000 196.684
45.66000 197.495
45.67000 198.268
45.68000 198.390
45.69000 198.284
45.70000 198.187
45.71000 198.846
45.72000 199.593
45.73000 199.454
45.74000 194.357
45.75000 188.492
45.76000 183.874
45.77000 183.858
45.78000 184.271
45.79000 184.571
45.80000 187.231
45.81000 189.360
45.82000 188.315
45.83000 181.847
45.84000 175.287
45.85000 173.282
45.86000 176.459
45.87000 179.631
45.88000 184.305
45.89000 190.047
45.90000 195.552
45.91000 192.663
45.92000 185.585
45.93000 178.723
45.94000 175.190
45.95000 172.792
45.96000 170.602
45.97000 172.130
45.98000 174.244
45.99000 176.695
46.00000 180.952
46.01000 185.478
46.02000 187.700
46.03000 181.724
46.04000 175.023
46.05000 170.221
46.06000 171.788
46.07000 173.203
46.08000 172.491
46.09000 168.274
46.10000 164.006
46.11000 166.491
46.12000 176.359
46.13000 186.191
46.14000 187.018
46.15000 181.481
46.16000 176.058
46.17000 174.373
46.18000 174.487
46.19000 174.713
46.20000 176.551
46.21000 178.919
46.22000 181.071
46.23000 178.781
46.24000 175.888
46.25000 172.746
46.26000 168.318
46.27000 163.708
46.28000 160.523
46.29000 162.233
46.30000 164.354
46.31000 165.857
46.32000 173.178
46.33000 178.928
46.34000 180.234
46.35000 174.478
46.36000 168.632
46.37000 166.847
46.38000 169.328
46.39000 171.797
46.40000 173.795
46.41000 175.450
46.42000 176.950
46.43000 173.876
46.44000 168.675
46.45000 163.921
46.46000 165.294
46.47000 168.611
46.48000 171.612
46.49000 170.929
46.50000 169.637
46.51000 169.329
46.52000 173.899
46.53000 179.133
46.54000 182.744
46.55000 180.978
46.56000 178.787
46.57000 177.251
46.58000 173.861
46.59000 171.244
46.60000 172.211
46.61000 178.672
46.62000 185.193
46.63000 185.619
46.64000 179.898
46.65000 174.212
46.66000 170.663
46.67000 168.559
46.68000 166.510
46.69000 165.946
46.70000 166.049
46.71000 166.309
46.72000 168.604
46.73000 171.521
46.74000 174.147
46.75000 177.036
46.76000 179.615
46.77000 181.325
46.78000 178.879
46.79000 175.892
46.80000 174.029
46.81000 175.758
46.82000 177.755
46.83000 179.140
46.84000 176.383
46.85000 174.199
46.86000 172.463
46.87000 171.387
46.88000 170.318
46.89000 172.271
46.90000 177.151
46.91000 181.995
46.92000 180.025
46.93000 173.808
46.94000 167.956
46.95000 171.256
46.96000 178.526
46.97000 185.289
46.98000 185.860
46.99000 184.600
47.00000 183.472
47.01000 180.726
47.02000 178.052
47.03000 174.955
47.04000 169.920
47.05000 164.643
47.06000 161.040
47.07000 162.601
47.08000 164.527
47.09000 165.846
47.10000 164.167
47.11000 162.837
47.12000 161.859
47.13000 161.383
47.14000 160.910
47.15000 160.888
47.16000 161.285
47.17000 161.679
47.18000 161.668
47.19000 161.412
47.20000 161.271
47.21000 163.798
47.22000 167.442
47.23000 170.920
47.24000 172.482
47.25000 173.498
47.26000 174.402
47.27000 169.388
47.28000 164.055
47.29000 159.383
47.30000 157.632
47.31000 156.227
47.32000 156.018
47.33000 159.366
47.34000 162.952
47.35000 165.378
47.36000 155.987
47.37000 148.734
47.38000 148.441
47.39000 157.701
47.40000 167.013
47.41000 167.661
47.42000 160.568
47.43000 153.546
47.44000 156.613
47.45000 165.478
47.46000 173.807
47.47000 170.584
47.48000 162.688
47.49000 155.190
47.50000 152.060
47.51000 150.131
47.52000 148.422
47.53000 149.285
47.54000 150.436
47.55000 151.731
47.56000 153.638
47.57000 155.614
47.58000 157.960
47.59000 161.372
47.60000 164.850
47.61000 167.174
47.62000 162.350
47.63000 158.635
47.64000 157.290
47.65000 159.080
47.66000 160.881
47.67000 160.140
47.68000 157.217
47.69000 154.327
47.70000 151.435
47.71000 148.610
47.72000 146.146
47.73000 150.884
47.74000 158.437
47.75000 165.271
47.76000 164.625
47.77000 161.997
47.78000 159.681
47.79000 155.446
47.80000 151.508
47.81000 149.293
47.82000 154.156
47.83000 159.783
47.84000 163.431
47.85000 161.582
47.86000 159.411
47.87000 157.979
47.88000 163.531
47.89000 167.746
47.90000 167.502
47.91000 161.579
47.92000 155.645
47.93000 154.273
47.94000 156.671
47.95000 159.037
47.96000 159.474
47.97000 158.860
47.98000 158.208
47.99000 156.829
48.00000 155.176
48.01000 153.979
48.02000 157.289
48.03000 161.751
48.04000 165.659
48.05000 163.918
48.06000 161.611
48.07000 159.307
48.08000 157.010
48.09000 154.714
48.10000 154.393
48.11000 159.368
48.12000 164.635
48.13000 168.064
48.14000 163.654
48.15000 160.298
48.16000 158.752
48.17000 159.425
48.18000 160.105
48.19000 161.105
48.20000 162.359
48.21000 163.595
48.22000 163.619
48.23000 163.014
48.24000 162.449
48.25000 162.557
48.26000 162.910
48.27000 162.692
48.28000 157.096
48.29000 150.174
48.30000 144.147
48.31000 149.188
48.32000 155.015
48.33000 159.524
48.34000 159.009
48.35000 158.002
48.36000 158.415
48.37000 162.506
48.38000 166.784
48.39000 169.534
48.40000 168.262
48.41000 167.278
48.42000 164.195
48.43000 158.637
48.44000 153.104
48.45000 154.184
48.46000 160.326
48.47000 166.367
48.48000 164.335
48.49000 158.345
48.50000 152.699
48.51000 152.684
48.52000 154.650
48.53000 156.461
48.54000 156.880
48.55000 156.968
48.56000 157.044
48.57000 156.101
48.58000 155.166
48.59000 154.938
48.60000 157.317
48.61000 159.938
48.62000 160.900
48.63000 157.717
48.64000 154.336
48.65000 152.192
48.66000 161.838
48.67000 168.979
48.68000 168.661
48.69000 159.887
48.70000 151.138
48.71000 148.392
48.72000 150.072
48.73000 151.721
48.74000 153.567
48.75000 155.443
48.76000 157.349
48.77000 159.711
48.78000 162.228
48.79000 164.313
48.80000 162.706
48.81000 160.255
48.82000 158.147
48.83000 158.640
48.84000 159.384
48.85000 159.611
48.86000 158.006
48.87000 156.239
48.88000 154.425
48.89000 152.499
48.90000 150.568
48.91000 149.361
48.92000 153.307
48.93000 156.208
48.94000 157.389
48.95000 156.697
48.96000 155.986
48.97000 152.881
48.98000 148.073
48.99000 143.364
49.00000 144.465
49.01000 148.206
49.02000 151.547
49.03000 149.117
49.04000 144.795
49.05000 140.782
49.06000 139.294
49.07000 138.361
49.08000 137.564
49.09000 145.785
49.10000 153.789
49.11000 159.135
49.12000 155.384
49.13000 150.873
49.14000 147.948
49.15000 148.717
49.16000 149.638
49.17000 150.205
49.18000 158.120
49.19000 163.867
49.20000 166.439
49.21000 165.688
49.22000 164.928
49.23000 163.108
49.24000 160.563
49.25000 158.075
49.26000 158.772
49.27000 160.855
49.28000 162.630
49.29000 160.213
49.30000 156.470
49.31000 153.036
49.32000 152.016
49.33000 151.507
49.34000 151.076
49.35000 153.262
49.36000 155.393
49.37000 156.868
49.38000 156.173
49.39000 155.307
49.40000 154.257
49.41000 152.794
49.42000 151.315
49.43000 150.418
49.44000 146.937
49.45000 144.433
49.46000 145.585
49.47000 150.411
49.48000 155.194
49.49000 155.816
49.50000 153.693
49.51000 151.623
49.52000 152.244
49.53000 153.988
49.54000 155.381
49.55000 152.276
49.56000 147.797
49.57000 143.674
49.58000 142.207
49.59000 141.283
49.60000 140.503
49.61000 142.575
49.62000 144.614
49.63000 146.386
49.64000 147.305
49.65000 148.161
49.66000 150.650
49.67000 156.687
49.68000 162.846
49.69000 166.529
49.70000 156.290
49.71000 148.936
49.72000 146.631
49.73000 149.195
49.74000 151.712
49.75000 150.335
49.76000 146.481
49.77000 142.732
49.78000 143.530
49.79000 146.161
49.80000 148.488
49.81000 147.109
49.82000 144.639
49.83000 143.030
49.84000 147.559
49.85000 153.293
49.86000 158.095
49.87000 155.775
49.88000 153.113
49.89000 150.922
49.90000 150.182
49.91000 149.544
49.92000 149.937
49.93000 152.495
49.94000 155.121
49.95000 156.668
49.96000 150.349
49.97000 145.852
49.98000 145.417
49.99000 148.746
50.00000 152.032
50.01000 152.190
50.02000 150.429
50.03000 148.720
50.04000 147.765
50.05000 147.159
50.06000 146.819
50.07000 149.540
50.08000 153.131
50.09000 155.778
50.10000 151.979
50.11000 146.964
50.12000 142.793
50.13000 140.102
50.14000 138.019
50.15000 138.558
50.16000 146.881
50.17000 155.720
50.18000 160.520
50.19000 157.134
50.20000 153.512
50.21000 151.413
50.22000 148.348
50.23000 146.198
50.24000 149.583
50.25000 157.897
50.26000 166.017
50.27000 162.173
50.28000 151.245
50.29000 140.670
50.30000 144.319
50.31000 153.189
50.32000 161.303
50.33000 161.161
50.34000 158.756
50.35000 156.559
50.36000 155.720
50.37000 155.127
50.38000 154.638
50.39000 148.705
50.40000 143.312
50.41000 140.144
50.42000 143.359
50.43000 146.970
50.44000 149.152
50.45000 148.536
50.46000 147.847
50.47000 147.455
50.48000 151.093
50.49000 153.642
50.50000 155.668
50.51000 157.247
50.52000 158.784
50.53000 158.110
50.54000 156.173
50.55000 154.303
50.56000 156.170
50.57000 159.298
50.58000 162.374
50.59000 164.910
50.60000 167.302
50.61000 169.257
50.62000 168.468
50.63000 167.201
50.64000 166.163
50.65000 163.443
50.66000 161.065
50.67000 159.785
50.68000 161.547
50.69000 163.487
50.70000 164.894
50.71000 165.297
50.72000 165.676
50.73000 165.888
50.74000 162.696
50.75000 160.477
50.76000 158.957
50.77000 158.013
50.78000 157.123
50.79000 158.800
50.80000 161.894
50.81000 164.871
50.82000 163.248
50.83000 160.104
50.84000 157.030
50.85000 154.650
50.86000 152.447
50.87000 151.134
50.88000 155.175
50.89000 160.113
50.90000 164.127
50.91000 160.894
50.92000 157.650
50.93000 155.577
50.94000 156.634
50.95000 157.862
50.96000 157.702
50.97000 155.010
50.98000 152.265
50.99000 150.753
51.00000 152.869
51.01000 154.332
51.02000 155.676
51.03000 156.926
51.04000 158.057
51.05000 154.082
51.06000 147.389
51.07000 140.967
51.08000 142.711
51.09000 147.112
51.10000 151.159
51.11000 151.891
51.12000 151.808
51.13000 151.663
51.14000 151.160
51.15000 150.599
51.16000 150.147
51.17000 149.505
51.18000 148.969
51.19000 149.053
51.20000 150.737
51.21000 152.502
51.22000 153.271
51.23000 152.287
51.24000 151.269
51.25000 150.719
51.26000 152.730
51.27000 154.095
51.28000 152.352
51.29000 148.237
51.30000 144.211
51.31000 143.689
51.32000 144.966
51.33000 146.188
51.34000 144.211
51.35000 141.326
51.36000 138.698
51.37000 138.364
51.38000 138.572
51.39000 138.778
51.40000 138.974
51.41000 139.168
51.42000 139.323
51.43000 140.308
51.44000 141.167
51.45000 141.543
51.46000 140.718
51.47000 139.836
51.48000 139.006
51.49000 138.261
51.50000 137.518
51.51000 137.124
51.52000 132.362
51.53000 129.148
51.54000 130.891
51.55000 136.277
51.56000 141.554
51.57000 143.012
51.58000 142.574
51.59000 142.157
51.60000 142.483
51.61000 143.018
51.62000 143.274
51.63000 141.154
51.64000 138.492
51.65000 136.855
51.66000 140.685
51.67000 145.321
51.68000 149.001
51.69000 148.654
51.70000 148.091
51.71000 146.489
51.72000 142.389
51.73000 138.179
51.74000 135.366
51.75000 134.841
51.76000 134.350
51.77000 134.094
51.78000 133.430
51.79000 132.992
51.80000 134.034
51.81000 136.125
51.82000 138.195
51.83000 139.601
51.84000 140.690
51.85000 141.724
51.86000 143.801
51.87000 146.034
51.88000 147.741
51.89000 145.168
51.90000 141.655
51.91000 139.328
51.92000 143.078
51.93000 147.687
51.94000 151.315
51.95000 151.585
51.96000 151.579
51.97000 149.699
51.98000 143.465
51.99000 137.054
52.00000 134.165
52.01000 136.843
52.02000 139.590
52.03000 140.992
52.04000 143.122
52.05000 144.540
52.06000 144.448
52.07000 143.327
52.08000 142.120
52.09000 138.408
52.10000 133.535
52.11000 128.922
52.12000 129.703
52.13000 131.987
52.14000 134.636
52.15000 140.113
52.16000 146.188
52.17000 150.138
52.18000 143.610
52.19000 135.666
52.20000 129.467
52.21000 132.304
52.22000 135.133
52.23000 136.774
52.24000 135.751
52.25000 134.628
52.26000 134.897
52.27000 137.289
52.28000 139.704
52.29000 140.912
52.30000 142.009
52.31000 142.740
52.32000 143.499
52.33000 144.277
52.34000 144.953
52.35000 142.937
52.36000 139.718
52.37000 136.680
52.38000 134.248
52.39000 132.186
52.40000 130.425
52.41000 130.890
52.42000 131.808
52.43000 132.772
52.44000 133.959
52.45000 135.175
52.46000 136.115
52.47000 137.767
52.48000 139.120
52.49000 138.760
52.50000 134.689
52.51000 130.491
52.52000 130.391
52.53000 136.313
52.54000 142.288
52.55000 142.917
52.56000 138.406
52.57000 133.962
52.58000 134.878
52.59000 139.196
52.60000 143.338
52.61000 143.115
52.62000 141.010
52.63000 139.031
52.64000 138.863
52.65000 139.195
52.66000 139.436
52.67000 139.026
52.68000 138.490
52.69000 137.674
52.70000 135.588
52.71000 133.345
52.72000 131.625
52.73000 127.125
52.74000 123.416
52.75000 123.944
52.76000 133.339
52.77000 143.012
52.78000 146.000
52.79000 139.522
52.80000 132.976
52.81000 128.789
52.82000 126.782
52.83000 124.845
52.84000 127.790
52.85000 133.723
52.86000 139.410
52.87000 139.491
52.88000 137.237
52.89000 135.127
52.90000 133.225
52.91000 131.549
52.92000 130.713
52.93000 135.594
52.94000 141.550
52.95000 146.187
52.96000 145.020
52.97000 143.169
52.98000 141.763
52.99000 139.593
53.00000 137.848
53.01000 136.878
53.02000 137.473
53.03000 138.113
53.04000 136.890
53.05000 133.125
53.06000 129.347
53.07000 130.655
53.08000 136.471
53.09000 142.197
53.10000 142.379
53.11000 139.289
53.12000 136.360
53.13000 136.868
53.14000 138.759
53.15000 140.522
53.16000 142.288
53.17000 143.889
53.18000 145.582
53.19000 147.877
53.20000 150.282
53.21000 151.976
53.22000 150.658
53.23000 149.003
53.24000 147.757
53.25000 147.386
53.26000 147.137
53.27000 146.096
53.28000 143.508
53.29000 140.879
53.30000 141.244
53.31000 145.542
53.32000 149.855
53.33000 150.626
53.34000 148.380
53.35000 146.207
53.36000 147.957
53.37000 151.942
53.38000 155.632
53.39000 153.514
53.40000 149.140
53.41000 145.077
53.42000 145.091
53.43000 146.073
53.44000 147.005
53.45000 147.629
53.46000 148.198
53.47000 148.837
53.48000 149.763
53.49000 150.719
53.50000 151.432
53.51000 153.509
53.52000 155.187
53.53000 155.870
53.54000 154.678
53.55000 153.443
53.56000 151.438
53.57000 148.458
53.58000 145.478
53.59000 143.810
53.60000 143.220
53.61000 142.660
53.62000 143.566
53.63000 145.277
53.64000 146.814
53.65000 145.143
53.66000 142.269
53.67000 139.611
53.68000 139.862
53.69000 140.751
53.70000 141.511
53.71000 141.491
53.72000 141.342
53.73000 141.340
53.74000 141.912
53.75000 142.543
53.76000 143.008
53.77000 140.665
53.78000 138.732
53.79000 138.158
53.80000 140.054
53.81000 142.002
53.82000 142.327
53.83000 140.678
53.84000 139.028
53.85000 139.959
53.86000 142.915
53.87000 145.773
53.88000 144.423
53.89000 140.839
53.90000 137.410
53.91000 136.652
53.92000 136.861
53.93000 137.053
53.94000 132.829
53.95000 128.083
53.96000 124.535
53.97000 127.886
53.98000 132.340
53.99000 136.361
54.00000 138.739
54.01000 140.958
54.02000 142.578
54.03000 141.331
54.04000 140.258
54.05000 138.902
54.06000 137.051
54.07000 135.190
54.08000 135.020
54.09000 136.829
54.10000 138.637
54.11000 139.896
54.12000 140.732
54.13000 141.521
54.14000 140.492
54.15000 138.532
54.16000 136.785
54.17000 138.471
54.18000 141.358
54.19000 144.004
54.20000 145.740
54.21000 147.094
54.22000 147.629
54.23000 143.637
54.24000 138.952
54.25000 135.581
54.26000 137.019
54.27000 138.900
54.28000 140.258
54.29000 139.650
54.30000 139.113
54.31000 138.664
54.32000 138.365
54.33000 138.068
54.34000 138.872
54.35000 140.915
54.36000 142.953
54.37000 141.443
54.38000 137.368
54.39000 133.350
54.40000 131.355
54.41000 130.359
54.42000 129.244
54.43000 126.313
54.44000 122.769
54.45000 119.535
54.46000 124.789
54.47000 131.159
54.48000 136.728
54.49000 138.033
54.50000 138.712
54.51000 139.251
54.52000 139.295
54.53000 139.295
54.54000 139.295
54.55000 138.884
54.56000 138.557
54.57000 138.951
54.58000 140.524
54.59000 142.113
54.60000 142.965
54.61000 143.017
54.62000 143.069
54.63000 140.166
54.64000 135.229
54.65000 130.503
54.66000 132.494
54.67000 137.693
54.68000 142.575
54.69000 142.934
54.70000 141.819
54.71000 140.807
54.72000 137.483
54.73000 134.100
54.74000 131.938
54.75000 136.015
54.76000 140.970
54.77000 144.575
54.78000 143.590
54.79000 142.224
54.80000 141.259
54.81000 142.669
54.82000 143.813
54.83000 145.063
54.84000 146.481
54.85000 147.901
54.86000 149.098
54.87000 150.062
54.88000 151.022
54.89000 149.268
54.90000 145.711
54.91000 142.316
54.92000 143.605
54.93000 147.053
54.94000 150.096
54.95000 147.670
54.96000 143.524
54.97000 139.777
54.98000 139.165
54.99000 139.208
55.00000 139.377
55.01000 140.172
55.02000 141.051
55.03000 142.026
55.04000 143.320
55.05000 144.638
55.06000 145.560
55.07000 144.883
55.08000 144.326
55.09000 144.342
55.10000 145.227
55.11000 146.121
55.12000 147.777
55.13000 150.193
55.14000 152.593
55.15000 151.927
55.16000 149.287
55.17000 146.551
55.18000 141.227
55.19000 134.752
55.20000 129.017
55.21000 132.709
55.22000 139.262
55.23000 145.153
55.24000 147.126
55.25000 148.158
55.26000 149.388
55.27000 151.550
55.28000 153.832
55.29000 155.809
55.30000 156.819
55.31000 157.757
55.32000 158.405
55.33000 153.041
55.34000 148.854
55.35000 147.782
55.36000 151.272
55.37000 154.803
55.38000 158.758
55.39000 163.120
55.40000 167.450
55.41000 171.674
55.42000 175.761
55.43000 179.652
55.44000 178.729
55.45000 175.736
55.46000 172.872
55.47000 171.567
55.48000 170.718
55.49000 169.959
55.50000 175.969
55.51000 182.359
55.52000 188.486
55.53000 193.408
55.54000 198.183
55.55000 202.272
55.56000 204.264
55.57000 206.109
55.58000 207.369
55.59000 207.570
55.60000 207.696
55.61000 212.677
55.62000 224.510
55.63000 236.390
55.64000 242.676
55.65000 243.814
55.66000 244.942
55.67000 253.965
55.68000 267.537
55.69000 280.917
55.70000 289.920
55.71000 297.105
55.72000 304.099
55.73000 308.912
55.74000 313.108
55.75000 316.841
55.76000 337.631
55.77000 358.455
55.78000 376.693
55.79000 383.597
55.80000 389.170
55.81000 397.180
55.82000 412.384
55.83000 428.059
55.84000 438.632
55.85000 448.901
55.86000 456.536
55.87000 464.421
55.88000 472.649
55.89000 480.879
55.90000 489.969
55.91000 499.820
55.92000 509.570
55.93000 513.007
55.94000 512.733
55.95000 512.474
55.96000 512.537
55.97000 512.729
55.98000 512.022
55.99000 501.585
56.00000 488.495
56.01000 476.916
56.02000 478.460
56.03000 481.837
56.04000 483.643
56.05000 478.813
56.06000 473.240
56.07000 465.410
56.08000 451.144
56.09000 436.483
56.10000 426.716
56.11000 415.870
56.12000 407.821
56.13000 399.046
56.14000 389.320
56.15000 379.582
56.16000 365.777
56.17000 348.512
56.18000 331.451
56.19000 322.136
56.20000 317.342
56.21000 312.194
56.22000 300.088
56.23000 285.289
56.24000 270.827
56.25000 259.828
56.26000 249.739
56.27000 240.865
56.28000 236.414
56.29000 233.241
56.30000 230.755
56.31000 231.059
56.32000 231.661
56.33000 230.728
56.34000 225.571
56.35000 220.171
56.36000 216.620
56.37000 200.613
56.38000 188.616
56.39000 183.218
56.40000 186.144
56.41000 189.084
56.42000 186.514
56.43000 179.435
56.44000 172.451
56.45000 170.150
56.46000 170.407
56.47000 170.449
56.48000 166.544
56.49000 161.163
56.50000 156.292
56.51000 156.409
56.52000 157.790
56.53000 158.997
56.54000 154.127
56.55000 149.090
56.56000 145.014
56.57000 144.707
56.58000 144.783
56.59000 145.540
56.60000 148.106
56.61000 150.770
56.62000 152.499
56.63000 147.818
56.64000 144.291
56.65000 142.600
56.66000 143.136
56.67000 143.680
56.68000 144.987
56.69000 146.895
56.70000 148.774
56.71000 149.321
56.72000 149.169
56.73000 148.871
56.74000 146.068
56.75000 142.359
56.76000 138.811
56.77000 136.757
56.78000 135.068
56.79000 133.599
56.80000 130.895
56.81000 128.421
56.82000 126.816
56.83000 128.497
56.84000 130.496
56.85000 131.828
56.86000 131.449
56.87000 130.984
56.88000 130.686
56.89000 133.139
56.90000 134.962
56.91000 137.192
56.92000 139.895
56.93000 142.573
56.94000 139.512
56.95000 132.098
56.96000 124.811
56.97000 124.263
56.98000 127.060
56.99000 129.584
57.00000 127.725
57.01000 124.337
57.02000 121.447
57.03000 122.966
57.04000 125.523
57.05000 127.732
57.06000 128.706
57.07000 129.374
57.08000 129.817
57.09000 129.438
57.10000 128.984
57.11000 129.910
57.12000 134.254
57.13000 138.757
57.14000 141.602
57.15000 129.185
57.16000 120.010
57.17000 117.256
57.18000 121.711
57.19000 126.150
57.20000 126.889
57.21000 124.927
57.22000 123.002
57.23000 121.774
57.24000 120.921
57.25000 120.259
57.26000 122.477
57.27000 125.664
57.28000 128.710
57.29000 130.564
57.30000 132.148
57.31000 133.507
57.32000 130.278
57.33000 126.980
57.34000 124.864
57.35000 126.905
57.36000 129.307
57.37000 130.282
57.38000 127.841
57.39000 125.251
57.40000 123.638
57.41000 127.085
57.42000 129.620
57.43000 130.364
57.44000 129.177
57.45000 127.984
57.46000 126.149
57.47000 123.863
57.48000 121.624
57.49000 121.622
57.50000 122.643
57.51000 123.708
57.52000 125.398
57.53000 127.293
57.54000 129.095
57.55000 130.157
57.56000 131.058
57.57000 131.827
57.58000 129.265
57.59000 126.715
57.60000 125.429
57.61000 128.434
57.62000 131.792
57.63000 133.185
57.64000 130.035
57.65000 126.703
57.66000 124.658
57.67000 129.231
57.68000 132.566
57.69000 131.594
57.70000 126.160
57.71000 120.763
57.72000 119.666
57.73000 121.484
57.74000 123.260
57.75000 123.319
57.76000 122.619
57.77000 121.712
57.78000 118.030
57.79000 113.478
57.80000 109.417
57.81000 109.142
57.82000 109.663
57.83000 110.103
57.84000 116.660
57.85000 122.841
57.86000 126.594
57.87000 122.399
57.88000 117.586
57.89000 115.170
57.90000 118.105
57.91000 121.239
57.92000 123.134
57.93000 122.425
57.94000 121.901
57.95000 122.569
57.96000 124.423
57.97000 126.282
57.98000 128.573
57.99000 131.146
58.00000 133.653
58.01000 129.510
58.02000 122.741
58.03000 116.491
58.04000 116.832
58.05000 119.168
58.06000 121.420
58.07000 123.062
58.08000 124.581
58.09000 125.859
58.10000 123.463
58.11000 121.072
58.12000 119.400
58.13000 120.003
58.14000 120.773
58.15000 120.863
58.16000 119.485
58.17000 118.058
58.18000 117.208
58.19000 114.389
58.20000 112.380
58.21000 113.744
58.22000 118.329
58.23000 122.879
58.24000 124.726
58.25000 124.869
58.26000 125.008
58.27000 125.354
58.28000 125.769
58.29000 126.067
58.30000 124.961
58.31000 123.447
58.32000 122.394
58.33000 124.605
58.34000 127.450
58.35000 129.828
58.36000 133.057
58.37000 135.825
58.38000 136.886
58.39000 132.744
58.40000 128.242
58.41000 124.083
58.42000 120.638
58.43000 117.215
58.44000 115.209
58.45000 115.879
58.46000 116.364
58.47000 116.156
58.48000 115.313
58.49000 114.490
58.50000 115.049
58.51000 116.448
58.52000 117.806
58.53000 117.213
58.54000 115.886
58.55000 114.814
58.56000 116.630
58.57000 119.259
58.58000 121.633
58.59000 122.277
58.60000 122.598
58.61000 122.865
58.62000 119.413
58.63000 116.201
58.64000 114.638
58.65000 117.933
58.66000 121.544
58.67000 123.967
58.68000 124.005
58.69000 123.976
58.70000 123.958
58.71000 124.506
58.72000 124.891
58.73000 124.337
58.74000 122.953
58.75000 121.577
58.76000 120.598
58.77000 119.853
58.78000 119.132
58.79000 116.311
58.80000 112.854
58.81000 109.738
58.82000 110.288
58.83000 111.833
58.84000 113.235
58.85000 113.700
58.86000 113.997
58.87000 114.242
58.88000 111.160
58.89000 108.318
58.90000 107.511
58.91000 112.485
58.92000 117.812
58.93000 119.836
58.94000 115.454
58.95000 110.907
58.96000 108.328
58.97000 113.505
58.98000 117.131
58.99000 119.601
59.00000 121.090
59.01000 122.536
59.02000 121.702
59.03000 119.575
59.04000 117.524
59.05000 118.813
59.06000 121.237
59.07000 123.379
59.08000 122.632
59.09000 121.128
59.10000 119.884
59.11000 120.252
59.12000 120.899
59.13000 121.428
59.14000 119.978
59.15000 118.619
59.16000 117.661
59.17000 117.805
59.18000 118.012
59.19000 118.255
59.20000 118.567
59.21000 118.881
59.22000 119.055
59.23000 116.769
59.24000 115.184
59.25000 114.863
59.26000 115.571
59.27000 116.287
59.28000 117.418
59.29000 118.776
59.30000 120.081
59.31000 123.014
59.32000 126.331
59.33000 129.215
59.34000 127.888
59.35000 125.497
59.36000 123.605
59.37000 124.688
59.38000 126.263
59.39000 127.541
59.40000 121.099
59.41000 115.210
59.42000 111.623
59.43000 114.133
59.44000 116.970
59.45000 116.594
59.46000 110.408
59.47000 104.104
59.48000 100.649
59.49000 106.617
59.50000 110.730
59.51000 113.385
59.52000 114.896
59.53000 116.383
59.54000 116.899
59.55000 116.902
59.56000 116.905
59.57000 115.409
59.58000 113.509
59.59000 111.758
59.60000 111.390
59.61000 111.359
59.62000 111.325
59.63000 111.273
59.64000 111.218
59.65000 111.174
59.66000 113.213
59.67000 115.031
59.68000 116.712
59.69000 118.043
59.70000 119.358
59.71000 119.048
59.72000 115.907
59.73000 112.714
59.74000 110.996
59.75000 119.050
59.76000 124.543
59.77000 125.539
59.78000 123.134
59.79000 120.684
59.80000 116.487
59.81000 111.401
59.82000 106.540
59.83000 109.481
59.84000 114.738
59.85000 119.443
59.86000 119.264
59.87000 117.940
59.88000 116.943
59.89000 117.748
59.90000 118.827
59.91000 119.689
59.92000 122.106
59.93000 124.173
59.94000 124.305
59.95000 119.657
59.96000 114.786
59.97000 112.428
59.98000 114.300
59.99000 116.239
60.00000 117.263
60.01000 123.287
60.02000 127.338
60.03000 124.536
60.04000 116.743
60.05000 109.185
60.06000 109.664
60.07000 114.095
60.08000 118.317
60.09000 119.948
60.10000 120.654
60.11000 121.212
60.12000 120.518
60.13000 119.542
60.14000 118.655
60.15000 118.235
60.16000 117.884
60.17000 117.606
60.18000 120.160
60.19000 122.411
60.20000 123.004
60.21000 119.643
60.22000 116.111
60.23000 113.107
60.24000 110.961
60.25000 108.826
60.26000 107.720
60.27000 113.813
60.28000 117.894
60.29000 117.815
60.30000 114.817
60.31000 111.916
60.32000 112.033
60.33000 113.583
60.34000 115.055
60.35000 114.043
60.36000 112.368
60.37000 110.827
60.38000 110.373
60.39000 110.155
60.40000 110.323
60.41000 112.449
60.42000 114.847
60.43000 116.731
60.44000 117.010
60.45000 117.128
60.46000 117.124
60.47000 116.837
60.48000 116.539
60.49000 114.653
60.50000 110.278
60.51000 105.874
60.52000 103.637
60.53000 112.849
60.54000 118.997
60.55000 122.285
60.56000 123.638
60.57000 124.990
60.58000 126.313
60.59000 127.622
60.60000 128.860
60.61000 125.389
60.62000 120.844
60.63000 117.128
60.64000 119.784
60.65000 123.775
60.66000 126.482
60.67000 122.925
60.68000 118.532
60.69000 115.111
60.70000 116.934
60.71000 118.710
60.72000 119.788
60.73000 119.316
60.74000 118.786
60.75000 118.855
60.76000 119.829
60.77000 120.812
60.78000 120.720
60.79000 119.564
60.80000 118.408
60.81000 117.226
60.82000 116.029
60.83000 114.931
60.84000 116.424
60.85000 119.065
60.86000 121.554
60.87000 116.529
60.88000 109.852
60.89000 104.597
60.90000 109.780
60.91000 117.066
60.92000 122.963
60.93000 122.340
60.94000 120.883
60.95000 119.759
60.96000 117.718
60.97000 116.048
60.98000 117.008
60.99000 123.622
61.00000 130.427
61.01000 132.911
61.02000 129.105
61.03000 125.247
61.04000 121.845
61.05000 118.880
61.06000 115.949
61.07000 115.748
61.08000 117.265
61.09000 118.764
61.10000 119.847
61.11000 120.753
61.12000 121.604
61.13000 122.648
61.14000 123.652
61.15000 124.564
61.16000 124.831
61.17000 124.974
61.18000 124.520
61.19000 121.362
61.20000 117.875
61.21000 115.209
61.22000 118.307
61.23000 121.064
61.24000 122.890
61.25000 122.784
61.26000 122.618
61.27000 121.503
61.28000 119.056
61.29000 116.601
61.30000 117.297
61.31000 120.872
61.32000 124.385
61.33000 123.687
61.34000 120.434
61.35000 117.439
61.36000 120.234
61.37000 125.419
61.38000 130.270
61.39000 130.022
61.40000 128.496
61.41000 127.297
61.42000 128.292
61.43000 129.696
61.44000 130.281
61.45000 127.301
61.46000 123.906
61.47000 121.334
61.48000 130.112
61.49000 137.581
61.50000 144.079
61.51000 148.634
61.52000 153.134
61.53000 162.891
61.54000 179.752
61.55000 196.643
61.56000 208.298
61.57000 215.339
61.58000 222.463
61.59000 234.475
61.60000 249.346
61.61000 263.927
61.62000 272.459
61.63000 278.577
61.64000 284.278
61.65000 285.247
61.66000 284.965
61.67000 285.717
61.68000 293.139
61.69000 301.755
61.70000 307.084
61.71000 298.615
61.72000 288.613
61.73000 281.109
61.74000 280.129
61.75000 279.673
61.76000 274.852
61.77000 261.588
61.78000 248.109
61.79000 234.587
61.80000 221.007
61.81000 207.440
61.82000 196.448
61.83000 187.654
61.84000 178.748
61.85000 163.997
61.86000 145.944
61.87000 128.695
61.88000 127.050
61.89000 131.413
61.90000 135.461
61.91000 133.717
61.92000 130.782
61.93000 128.317
61.94000 128.760
61.95000 129.702
61.96000 130.306
61.97000 129.544
61.98000 128.637
61.99000 127.963
62.00000 129.741
62.01000 131.231
62.02000 133.269
62.03000 136.328
62.04000 139.411
62.05000 139.440
62.06000 135.644
62.07000 131.842
62.08000 132.514
62.09000 136.808
62.10000 140.987
62.11000 139.788
62.12000 135.658
62.13000 131.447
62.14000 125.759
62.15000 119.522
62.16000 113.760
62.17000 115.574
62.18000 118.913
62.19000 121.764
62.20000 121.714
62.21000 121.186
62.22000 120.816
62.23000 121.060
62.24000 121.367
62.25000 121.592
62.26000 122.232
62.27000 122.743
62.28000 124.545
62.29000 128.670
62.30000 132.843
62.31000 133.422
62.32000 129.669
62.33000 125.914
62.34000 124.827
62.35000 125.824
62.36000 126.892
62.37000 130.945
62.38000 136.569
62.39000 141.862
62.40000 141.549
62.41000 139.224
62.42000 137.086
62.43000 134.004
62.44000 131.046
62.45000 128.636
62.46000 129.349
62.47000 130.555
62.48000 131.170
62.49000 129.561
62.50000 127.740
62.51000 126.414
62.52000 127.468
62.53000 128.371
62.54000 129.251
62.55000 130.092
62.56000 130.932
62.57000 130.603
62.58000 128.921
62.59000 127.241
62.60000 126.576
62.61000 126.677
62.62000 126.789
62.63000 127.303
62.64000 128.021
62.65000 128.563
62.66000 126.299
62.67000 123.063
62.68000 120.101
62.69000 123.004
62.70000 126.808
62.71000 129.784
62.72000 128.234
62.73000 125.997
62.74000 125.772
62.75000 132.839
62.76000 140.568
62.77000 146.137
62.78000 142.501
62.79000 139.389
62.80000 136.833
62.81000 135.209
62.82000 133.600
62.83000 130.082
62.84000 124.435
62.85000 118.807
62.86000 120.693
62.87000 127.971
62.88000 135.093
62.89000 136.905
62.90000 136.112
62.91000 135.253
62.92000 133.394
62.93000 131.201
62.94000 129.202
62.95000 132.618
62.96000 136.724
62.97000 140.219
62.98000 140.497
62.99000 140.307
63.00000 139.935
63.01000 138.929
63.02000 137.868
63.03000 137.112
63.04000 133.220
63.05000 130.150
63.06000 130.146
63.07000 135.103
63.08000 140.128
63.09000 139.508
63.10000 132.840
63.11000 126.200
63.12000 125.401
63.13000 128.653
63.14000 131.712
63.15000 128.782
63.16000 123.018
63.17000 117.891
63.18000 121.733
63.19000 128.473
63.20000 134.585
63.21000 133.945
63.22000 132.089
63.23000 131.068
63.24000 134.275
63.25000 138.070
63.26000 139.774
63.27000 134.423
63.28000 128.498
63.29000 124.321
63.30000 126.625
63.31000 128.566
63.32000 128.274
63.33000 124.494
63.34000 120.674
63.35000 123.305
63.36000 132.576
63.37000 141.797
63.38000 142.694
63.39000 138.039
63.40000 133.466
63.41000 131.222
63.42000 130.044
63.43000 129.039
63.44000 130.339
63.45000 132.358
63.46000 134.180
63.47000 136.295
63.48000 138.206
63.49000 139.182
63.50000 135.602
63.51000 131.416
63.52000 129.337
63.53000 134.116
63.54000 139.424
63.55000 143.123
63.56000 141.474
63.57000 140.082
63.58000 140.607
63.59000 144.019
63.60000 147.459
63.61000 146.605
63.62000 141.509
63.63000 136.447
63.64000 138.289
63.65000 144.524
63.66000 150.411
63.67000 147.194
63.68000 139.959
63.69000 133.224
63.70000 132.777
63.71000 134.220
63.72000 135.516
63.73000 136.411
63.74000 137.124
63.75000 137.444
63.76000 135.927
63.77000 134.175
63.78000 132.843
63.79000 132.825
63.80000 132.902
63.81000 132.955
63.82000 137.734
63.83000 141.440
63.84000 143.034
63.85000 141.564
63.86000 140.070
63.87000 143.398
63.88000 151.301
63.89000 159.141
63.90000 157.130
63.91000 149.085
63.92000 141.208
63.93000 137.387
63.94000 135.296
63.95000 133.518
63.96000 135.454
63.97000 138.468
63.98000 141.160
63.99000 141.751
64.00000 141.912
64.01000 142.087
64.02000 142.325
64.03000 142.570
64.04000 143.108
64.05000 144.535
64.06000 146.023
64.07000 147.035
64.08000 151.117
64.09000 154.236
64.10000 156.727
64.11000 158.339
64.12000 159.945
64.13000 159.261
64.14000 156.491
64.15000 153.747
64.16000 149.771
64.17000 145.145
64.18000 140.811
64.19000 142.990
64.20000 147.852
64.21000 152.322
64.22000 152.388
64.23000 151.221
64.24000 150.185
64.25000 149.849
64.26000 149.670
64.27000 149.468
64.28000 149.165
64.29000 148.850
64.30000 148.814
64.31000 149.590
64.32000 150.419
64.33000 150.977
64.34000 151.695
64.35000 152.233
64.36000 153.664
64.37000 156.299
64.38000 158.940
64.39000 160.753
64.40000 161.842
64.41000 162.919
64.42000 159.183
64.43000 152.788
64.44000 146.720
64.45000 147.425
64.46000 150.822
64.47000 154.091
64.48000 155.993
64.49000 157.526
64.50000 158.880
64.51000 157.592
64.52000 156.073
64.53000 154.938
64.54000 155.408
64.55000 156.055
64.56000 156.972
64.57000 158.649
64.58000 160.372
64.59000 161.516
64.60000 163.143
64.61000 164.355
64.62000 163.811
64.63000 160.988
64.64000 158.163
64.65000 159.809
64.66000 165.219
64.67000 170.564
64.68000 172.738
64.69000 173.118
64.70000 173.341
64.71000 170.537
64.72000 166.572
64.73000 163.063
64.74000 164.179
64.75000 166.500
64.76000 168.538
64.77000 170.949
64.78000 173.075
64.79000 174.909
64.80000 175.560
64.81000 176.087
64.82000 175.647
64.83000 172.572
64.84000 169.347
64.85000 167.233
64.86000 175.475
64.87000 181.706
64.88000 185.321
64.89000 185.665
64.90000 185.992
64.91000 183.051
64.92000 177.462
64.93000 171.951
64.94000 173.834
64.95000 179.569
64.96000 185.004
64.97000 185.043
64.98000 183.082
64.99000 181.527
65.00000 183.877
65.01000 187.208
65.02000 190.117
65.03000 190.792
65.04000 191.056
65.05000 190.814
65.06000 188.603
65.07000 186.196
65.08000 186.271
65.09000 192.885
65.10000 199.846
65.11000 204.350
65.12000 208.620
65.13000 211.739
65.14000 212.361
65.15000 209.982
65.16000 207.601
65.17000 206.517
65.18000 206.445
65.19000 206.373
65.20000 207.561
65.21000 209.352
65.22000 211.202
65.23000 214.053
65.24000 217.262
65.25000 220.369
65.26000 222.541
65.27000 224.487
65.28000 226.176
65.29000 225.581
65.30000 224.768
65.31000 225.160
65.32000 230.067
65.33000 235.404
65.34000 240.495
65.35000 244.960
65.36000 249.395
65.37000 252.225
65.38000 256.303
65.39000 259.285
65.40000 261.790
65.41000 263.745
65.42000 265.723
65.43000 272.659
65.44000 283.319
65.45000 293.793
65.46000 294.291
65.47000 289.894
65.48000 286.051
65.49000 290.958
65.50000 298.890
65.51000 306.241
65.52000 308.509
65.53000 309.592
65.54000 310.526
65.55000 313.754
65.56000 316.785
65.57000 320.892
65.58000 328.878
65.59000 337.216
65.60000 346.967
65.61000 360.187
65.62000 373.567
65.63000 381.989
65.64000 414.679
65.65000 438.606
65.66000 470.376
65.67000 510.861
65.68000 551.568
65.69000 626.446
65.70000 726.052
65.71000 823.713
65.72000 933.948
65.73000 1046.004
65.74000 1158.658
65.75000 1280.215
65.76000 1404.741
65.77000 1525.432
65.78000 1614.092
65.79000 1695.562
65.80000 1765.401
65.81000 1829.655
65.82000 1883.235
65.83000 1926.836
65.84000 1935.653
65.85000 1941.489
65.86000 1947.061
65.87000 1952.008
65.88000 1956.928
65.89000 1959.981
65.90000 1921.582
65.91000 1893.545
65.92000 1842.949
65.93000 1768.260
65.94000 1693.396
65.95000 1596.979
65.96000 1485.533
65.97000 1376.494
65.98000 1247.957
65.99000 1115.766
66.00000 985.704
66.01000 885.452
66.02000 794.800
66.03000 707.122
66.04000 643.165
66.05000 584.335
66.06000 534.230
66.07000 493.060
66.08000 459.488
66.09000 430.858
66.10000 418.839
66.11000 408.169
66.12000 398.441
66.13000 390.871
66.14000 383.385
66.15000 378.807
66.16000 375.900
66.17000 373.834
66.18000 370.408
66.19000 365.587
66.20000 360.810
66.21000 360.624
66.22000 363.523
66.23000 366.353
66.24000 375.343
66.25000 386.629
66.26000 398.520
66.27000 418.418
66.28000 440.804
66.29000 463.524
66.30000 488.786
66.31000 514.576
66.32000 536.396
66.33000 550.687
66.34000 561.812
66.35000 573.555
66.36000 587.304
66.37000 601.207
66.38000 611.841
66.39000 615.242
66.40000 618.381
66.41000 620.272
66.42000 621.471
66.43000 622.319
66.44000 621.012
66.45000 617.583
66.46000 614.099
66.47000 605.745
66.48000 594.233
66.49000 583.022
66.50000 568.063
66.51000 552.230
66.52000 535.930
66.53000 513.795
66.54000 489.908
66.55000 467.279
66.56000 453.815
66.57000 442.185
66.58000 432.413
66.59000 410.546
66.60000 391.050
66.61000 374.822
66.62000 368.828
66.63000 363.575
66.64000 357.214
66.65000 348.489
66.66000 339.684
66.67000 334.461
66.68000 334.903
66.69000 335.249
66.70000 339.797
66.71000 348.317
66.72000 356.774
66.73000 360.526
66.74000 361.337
66.75000 362.125
66.76000 358.793
66.77000 353.963
66.78000 349.144
66.79000 344.446
66.80000 339.782
66.81000 336.044
66.82000 338.758
66.83000 342.715
66.84000 346.016
66.85000 346.937
66.86000 347.462
66.87000 346.980
66.88000 343.452
66.89000 339.716
66.90000 339.510
66.91000 346.587
66.92000 353.884
66.93000 358.144
66.94000 351.763
66.95000 347.228
66.96000 348.406
66.97000 354.772
66.98000 361.117
66.99000 366.074
67.00000 370.192
67.01000 374.183
67.02000 373.084
67.03000 370.066
67.04000 367.670
67.05000 372.234
67.06000 378.741
67.07000 383.902
67.08000 380.062
67.09000 374.558
67.10000 369.997
67.11000 369.465
67.12000 369.409
67.13000 370.707
67.14000 375.957
67.15000 381.461
67.16000 386.471
67.17000 390.499
67.18000 394.500
67.19000 396.799
67.20000 395.877
67.21000 395.219
67.22000 392.592
67.23000 388.246
67.24000 383.998
67.25000 385.403
67.26000 390.096
67.27000 394.631
67.28000 390.905
67.29000 384.302
67.30000 378.530
67.31000 381.586
67.32000 387.019
67.33000 392.031
67.34000 394.346
67.35000 396.181
67.36000 397.690
67.37000 406.570
67.38000 414.535
67.39000 420.101
67.40000 418.906
67.41000 417.305
67.42000 415.468
67.43000 413.178
67.44000 410.876
67.45000 409.576
67.46000 405.619
67.47000 402.864
67.48000 402.179
67.49000 403.230
67.50000 404.321
67.51000 407.418
67.52000 411.640
67.53000 415.710
67.54000 418.520
67.55000 420.708
67.56000 422.914
67.57000 425.307
67.58000 427.748
67.59000 430.826
67.60000 437.813
67.61000 445.468
67.62000 451.715
67.63000 449.096
67.64000 446.193
67.65000 445.764
67.66000 452.065
67.67000 458.746
67.68000 458.752
67.69000 446.369
67.70000 433.709
67.71000 426.679
67.72000 435.644
67.73000 441.873
67.74000 449.112
67.75000 457.166
67.76000 464.954
67.77000 460.614
67.78000 449.703
67.79000 439.220
67.80000 446.859
67.81000 460.282
67.82000 472.622
67.83000 474.554
67.84000 473.882
67.85000 473.701
67.86000 476.421
67.87000 479.615
67.88000 482.202
67.89000 483.610
67.90000 484.661
67.91000 484.632
67.92000 481.766
67.93000 478.751
67.94000 480.051
67.95000 489.078
67.96000 498.259
67.97000 503.268
67.98000 496.325
67.99000 491.546
68.00000 487.968
68.01000 485.326
68.02000 482.826
68.03000 486.150
68.04000 492.519
68.05000 498.620
68.06000 503.034
68.07000 506.589
68.08000 510.489
68.09000 517.537
68.10000 525.346
68.11000 532.422
68.12000 535.354
68.13000 537.635
68.14000 539.467
68.15000 545.592
68.16000 550.887
68.17000 552.849
68.18000 546.361
68.19000 539.458
68.20000 534.993
68.21000 534.746
68.22000 534.572
68.23000 534.479
68.24000 549.792
68.25000 560.209
68.26000 561.867
68.27000 556.964
68.28000 552.451
68.29000 562.302
68.30000 579.405
68.31000 595.737
68.32000 598.832
68.33000 597.470
68.34000 596.421
68.35000 598.099
68.36000 600.410
68.37000 602.941
68.38000 606.673
68.39000 610.585
68.40000 613.703
68.41000 619.972
68.42000 625.258
68.43000 630.769
68.44000 636.831
68.45000 642.918
68.46000 652.329
68.47000 667.283
68.48000 682.323
68.49000 690.230
68.50000 691.809
68.51000 692.933
68.52000 702.785
68.53000 718.935
68.54000 734.911
68.55000 745.066
68.56000 752.384
68.57000 759.348
68.58000 785.689
68.59000 816.036
68.60000 845.809
68.61000 870.805
68.62000 894.731
68.63000 921.006
68.64000 959.560
68.65000 999.885
68.66000 1031.758
68.67000 1079.898
68.68000 1119.667
68.69000 1159.390
68.70000 1199.003
68.71000 1238.611
68.72000 1280.772
68.73000 1327.040
68.74000 1373.363
68.75000 1397.250
68.76000 1454.398
68.77000 1492.970
68.78000 1540.612
68.79000 1594.561
68.80000 1648.176
68.81000 1691.570
68.82000 1730.153
68.83000 1766.750
68.84000 1826.522
68.85000 1888.494
68.86000 1959.989
68.87000 2107.139
68.88000 2270.588
68.89000 2461.866
68.90000 2793.055
68.91000 3143.566
68.92000 3418.257
68.93000 4633.593
68.94000 5665.609
68.95000 7090.570
68.96000 9413.045
68.97000 11770.583
68.98000 14563.698
68.99000 18032.695
69.00000 21509.453
69.01000 23266.900
69.02000 28106.057
69.03000 31337.486
69.04000 33888.621
69.05000 35983.895
69.06000 38053.773
69.07000 39412.969
69.08000 40449.172
69.09000 41428.523
69.10000 42112.063
69.11000 42655.621
69.12000 43219.035
69.13000 43933.207
69.14000 44678.633
69.15000 45387.262
69.16000 45917.934
69.17000 46425.098
69.18000 46819.102
69.19000 46022.785
69.20000 45317.094
69.21000 44008.949
69.22000 41371.984
69.23000 38687.250
69.24000 36015.637
69.25000 33363.664
69.26000 30711.906
69.27000 28482.039
69.28000 26666.156
69.29000 24856.791
69.30000 23621.666
69.31000 22757.557
69.32000 21909.555
69.33000 21476.281
69.34000 21225.021
69.35000 20988.416
69.36000 20543.008
69.37000 20078.457
69.38000 19527.568
69.39000 18349.588
69.40000 17046.527
69.41000 15645.351
69.42000 13787.517
69.43000 11872.018
69.44000 10397.178
69.45000 8528.541
69.46000 7026.789
69.47000 5687.755
69.48000 4695.293
69.49000 3714.252
69.50000 2952.126
69.51000 2505.715
69.52000 2061.891
69.53000 1765.324
69.54000 1607.544
69.55000 1450.395
69.56000 1340.748
69.57000 1260.701
69.58000 1181.011
69.59000 1109.796
69.60000 1042.174
69.61000 978.738
69.62000 940.246
69.63000 911.734
69.64000 883.997
69.65000 861.652
69.66000 840.340
69.67000 818.489
69.68000 794.228
69.69000 769.675
69.70000 750.943
69.71000 727.627
69.72000 709.013
69.73000 695.583
69.74000 692.818
69.75000 690.372
69.76000 681.129
69.77000 662.438
69.78000 643.692
69.79000 629.899
69.80000 620.600
69.81000 611.408
69.82000 609.224
69.83000 611.253
69.84000 612.741
69.85000 602.332
69.86000 587.052
69.87000 572.774
69.88000 552.857
69.89000 533.361
69.90000 516.870
69.91000 520.396
69.92000 527.612
69.93000 531.862
69.94000 523.319
69.95000 513.303
69.96000 505.733
69.97000 508.144
69.98000 510.533
69.99000 508.043
70.00000 495.864
