20.00000 460.298
20.01000 459.422
20.02000 458.420
20.03000 457.861
20.04000 459.045
20.05000 460.407
20.06000 461.411
20.07000 464.904
20.08000 467.714
20.09000 469.753
20.10000 470.390
20.11000 470.997
20.12000 473.149
20.13000 477.180
20.14000 481.208
20.15000 481.723
20.16000 479.475
20.17000 477.190
20.18000 473.380
20.19000 468.761
20.20000 464.472
20.21000 465.874
20.22000 469.338
20.23000 472.528
20.24000 472.487
20.25000 471.743
20.26000 470.148
20.27000 463.654
20.28000 456.377
20.29000 452.010
20.30000 458.687
20.31000 466.434
20.32000 472.089
20.33000 468.774
20.34000 465.869
20.35000 461.396
20.36000 454.171
20.37000 446.894
20.38000 448.848
20.39000 461.616
20.40000 474.367
20.41000 475.466
20.42000 467.747
20.43000 460.253
20.44000 461.367
20.45000 466.893
20.46000 472.179
20.47000 473.587
20.48000 473.638
20.49000 473.686
20.50000 465.965
20.51000 457.454
20.52000 450.629
20.53000 453.129
20.54000 457.059
20.55000 460.417
20.56000 461.685
20.57000 462.761
20.58000 463.538
20.59000 462.950
20.60000 462.450
20.61000 461.342
20.62000 459.206
20.63000 457.052
20.64000 456.969
20.65000 459.219
20.66000 461.463
20.67000 462.706
20.68000 463.211
20.69000 463.658
20.70000 462.069
20.71000 459.473
20.72000 456.951
20.73000 455.570
20.74000 454.574
20.75000 453.665
20.76000 459.417
20.77000 465.863
20.78000 471.178
20.79000 470.487
20.80000 468.913
20.81000 466.809
20.82000 462.838
20.83000 458.703
20.84000 455.748
20.85000 463.191
20.86000 469.219
20.87000 471.981
20.88000 469.408
20.89000 466.759
20.90000 461.025
20.91000 451.954
20.92000 442.920
20.93000 447.231
20.94000 460.826
20.95000 473.998
20.96000 473.726
20.97000 467.032
20.98000 461.281
20.99000 469.015
21.00000 481.145
21.01000 492.160
21.02000 488.767
21.03000 482.986
21.04000 477.804
21.05000 475.690
21.06000 474.007
21.07000 471.098
21.08000 464.016
21.09000 456.588
21.10000 451.338
21.11000 453.208
21.12000 454.847
21.13000 458.424
21.14000 465.057
21.15000 471.727
21.16000 471.718
21.17000 464.764
21.18000 457.846
21.19000 455.534
21.20000 456.346
21.21000 457.166
21.22000 458.200
21.23000 459.331
21.24000 460.188
21.25000 457.340
21.26000 453.327
21.27000 449.700
21.28000 454.736
21.29000 460.770
21.30000 465.672
21.31000 465.014
21.32000 463.606
21.33000 462.341
21.34000 461.543
21.35000 460.781
21.36000 460.248
21.37000 471.595
21.38000 480.503
21.39000 483.298
21.40000 476.806
21.41000 470.217
21.42000 465.314
21.43000 462.095
21.44000 458.895
21.45000 456.040
21.46000 453.449
21.47000 450.954
21.48000 451.007
21.49000 452.195
21.50000 453.788
21.51000 460.535
21.52000 468.848
21.53000 476.321
21.54000 476.460
21.55000 475.280
21.56000 474.303
21.57000 474.291
21.58000 474.404
21.59000 474.727
21.60000 475.717
21.61000 476.757
21.62000 477.476
21.63000 473.241
21.64000 469.930
21.65000 467.235
21.66000 465.444
21.67000 463.660
21.68000 466.418
21.69000 473.529
21.70000 480.586
21.71000 485.149
21.72000 488.083
21.73000 490.773
21.74000 487.455
21.75000 481.552
21.76000 475.863
21.77000 472.742
21.78000 470.373
21.79000 468.255
21.80000 471.035
21.81000 474.293
21.82000 477.990
21.83000 483.688
21.84000 489.632
21.85000 493.715
21.86000 492.103
21.87000 490.095
21.88000 488.723
21.89000 485.450
21.90000 482.958
21.91000 482.242
21.92000 484.035
21.93000 485.847
21.94000 490.898
21.95000 498.931
21.96000 506.893
21.97000 510.008
21.98000 510.161
21.99000 510.238
22.00000 508.551
22.01000 506.132
22.02000 503.666
22.03000 500.652
22.04000 497.484
22.05000 494.666
22.06000 503.342
22.07000 512.745
22.08000 519.617
22.09000 515.397
22.10000 509.874
22.11000 506.196
22.12000 507.962
22.13000 510.086
22.14000 511.518
22.15000 500.684
22.16000 492.363
22.17000 490.904
22.18000 498.780
22.19000 506.704
22.20000 507.880
22.21000 503.087
22.22000 498.343
22.23000 495.090
22.24000 492.769
22.25000 490.541
22.26000 490.301
22.27000 490.858
22.28000 490.496
22.29000 480.188
22.30000 467.170
22.31000 455.654
22.32000 456.833
22.33000 459.829
22.34000 463.018
22.35000 467.018
22.36000 471.109
22.37000 474.539
22.38000 476.086
22.39000 477.518
22.40000 478.471
22.41000 469.486
22.42000 462.645
22.43000 460.215
22.44000 463.563
22.45000 466.931
22.46000 467.058
22.47000 464.429
22.48000 461.831
22.49000 461.126
22.50000 461.487
22.51000 461.756
22.52000 460.201
22.53000 457.939
22.54000 455.600
22.55000 452.466
22.56000 449.123
22.57000 446.182
22.58000 448.449
22.59000 451.176
22.60000 453.838
22.61000 456.237
22.62000 458.609
22.63000 457.452
22.64000 446.586
22.65000 435.160
22.66000 427.645
22.67000 435.825
22.68000 442.116
22.69000 447.222
22.70000 450.836
22.71000 454.429
22.72000 451.515
22.73000 443.276
22.74000 435.148
22.75000 432.122
22.76000 431.899
22.77000 431.724
22.78000 432.427
22.79000 433.458
22.80000 434.671
22.81000 437.666
22.82000 441.113
22.83000 444.127
22.84000 444.813
22.85000 445.071
22.86000 444.040
22.87000 437.959
22.88000 431.365
22.89000 427.455
22.90000 430.680
22.91000 434.289
22.92000 436.632
22.93000 428.548
22.94000 422.469
22.95000 421.472
22.96000 426.641
22.97000 431.815
22.98000 434.074
22.99000 434.035
23.00000 433.998
23.01000 432.575
23.02000 430.486
23.03000 428.836
23.04000 434.730
23.05000 443.348
23.06000 450.889
23.07000 448.409
23.08000 443.482
23.09000 439.199
23.10000 443.083
23.11000 447.507
23.12000 449.553
23.13000 442.608
23.14000 434.796
23.15000 430.616
23.16000 435.761
23.17000 441.375
23.18000 444.971
23.19000 452.588
23.20000 458.190
23.21000 457.928
23.22000 450.819
23.23000 443.715
23.24000 439.900
23.25000 438.579
23.26000 437.282
23.27000 433.798
23.28000 429.352
23.29000 425.129
23.30000 424.513
23.31000 425.155
23.32000 426.503
23.33000 434.118
23.34000 443.206
23.35000 451.060
23.36000 449.437
23.37000 446.830
23.38000 444.266
23.39000 441.858
23.40000 439.464
23.41000 439.362
23.42000 444.938
23.43000 450.781
23.44000 454.471
23.45000 453.927
23.46000 453.483
23.47000 448.815
23.48000 439.406
23.49000 430.036
23.50000 427.862
23.51000 430.945
23.52000 433.969
23.53000 436.084
23.54000 437.691
23.55000 439.256
23.56000 440.183
23.57000 440.895
23.58000 442.188
23.59000 448.390
23.60000 455.704
23.61000 461.984
23.62000 462.112
23.63000 461.459
23.64000 459.915
23.65000 455.235
23.66000 450.283
23.67000 447.218
23.68000 448.670
23.69000 450.318
23.70000 451.344
23.71000 464.319
23.72000 473.790
23.73000 477.290
23.74000 474.348
23.75000 471.423
23.76000 471.180
23.77000 472.825
23.78000 474.436
23.79000 479.564
23.80000 486.098
23.81000 492.482
23.82000 496.720
23.83000 500.262
23.84000 503.640
23.85000 505.698
23.86000 507.467
23.87000 508.977
23.88000 514.180
23.89000 518.996
23.90000 521.829
23.91000 517.933
23.92000 513.483
23.93000 510.713
23.94000 511.826
23.95000 513.094
23.96000 513.872
23.97000 515.858
23.98000 517.292
23.99000 514.925
24.00000 508.620
24.01000 502.389
24.02000 504.506
24.03000 512.286
24.04000 519.886
24.05000 524.704
24.06000 528.090
24.07000 530.746
24.08000 523.605
24.09000 513.390
24.10000 503.948
24.11000 500.458
24.12000 498.218
24.13000 496.320
24.14000 490.607
24.15000 485.392
24.16000 482.621
24.17000 487.854
24.18000 493.709
24.19000 493.613
24.20000 480.233
24.21000 466.361
24.22000 457.971
24.23000 453.159
24.24000 449.756
24.25000 452.163
24.26000 460.350
24.27000 468.385
24.28000 462.320
24.29000 447.031
24.30000 432.132
24.31000 431.560
24.32000 437.084
24.33000 442.191
24.34000 442.007
24.35000 440.221
24.36000 438.717
24.37000 439.290
24.38000 440.284
24.39000 441.120
24.40000 438.247
24.41000 435.455
24.42000 432.280
24.43000 427.898
24.44000 423.428
24.45000 419.738
24.46000 417.727
24.47000 415.774
24.48000 414.611
24.49000 417.718
24.50000 419.945
24.51000 419.037
24.52000 415.134
24.53000 411.271
24.54000 410.568
24.55000 411.858
24.56000 413.111
24.57000 415.615
24.58000 418.505
24.59000 420.732
24.60000 415.010
24.61000 406.967
24.62000 399.496
24.63000 396.065
24.64000 393.419
24.65000 391.208
24.66000 400.788
24.67000 409.943
24.68000 415.422
24.69000 409.688
24.70000 403.178
24.71000 399.724
24.72000 402.631
24.73000 405.736
24.74000 407.556
24.75000 415.760
24.76000 421.570
24.77000 424.326
24.78000 424.281
24.79000 424.159
24.80000 418.734
24.81000 410.082
24.82000 401.693
24.83000 398.944
24.84000 398.553
24.85000 398.060
24.86000 396.397
24.87000 394.406
24.88000 392.967
24.89000 395.261
24.90000 398.252
24.91000 400.734
24.92000 403.987
24.93000 406.751
24.94000 406.631
24.95000 398.023
24.96000 388.862
24.97000 384.871
24.98000 391.268
24.99000 397.958
25.00000 401.818
25.01000 406.622
25.02000 409.987
25.03000 410.499
25.04000 408.496
25.05000 406.596
25.06000 410.837
25.07000 418.684
25.08000 426.273
25.09000 422.816
25.10000 415.383
25.11000 408.437
25.12000 406.743
25.13000 406.477
25.14000 406.325
25.15000 406.915
25.16000 407.639
25.17000 408.234
25.18000 405.965
25.19000 403.835
25.20000 403.295
25.21000 407.273
25.22000 411.529
25.23000 413.134
25.24000 409.596
25.25000 405.928
25.26000 403.846
25.27000 400.139
25.28000 397.563
25.29000 400.491
25.30000 408.089
25.31000 415.488
25.32000 412.441
25.33000 403.477
25.34000 394.832
25.35000 396.940
25.36000 402.829
25.37000 407.925
25.38000 404.912
25.39000 399.773
25.40000 394.713
25.41000 390.150
25.42000 385.673
25.43000 382.011
25.44000 394.036
25.45000 405.250
25.46000 412.553
25.47000 409.124
25.48000 405.080
25.49000 400.413
25.50000 394.581
25.51000 388.722
25.52000 385.453
25.53000 383.355
25.54000 381.916
25.55000 385.058
25.56000 391.935
25.57000 398.651
25.58000 397.770
25.59000 392.735
25.60000 387.893
25.61000 390.365
25.62000 395.237
25.63000 399.705
25.64000 400.244
25.65000 399.790
25.66000 398.667
25.67000 393.550
25.68000 387.772
25.69000 383.083
25.70000 391.506
25.71000 399.454
25.72000 405.385
25.73000 405.972
25.74000 406.272
25.75000 404.577
25.76000 399.276
25.77000 393.901
25.78000 390.955
25.79000 395.823
25.80000 399.179
25.81000 401.419
25.82000 402.783
25.83000 404.223
25.84000 408.888
25.85000 415.255
25.86000 421.358
25.87000 414.601
25.88000 403.969
25.89000 394.385
25.90000 394.516
25.91000 397.013
25.92000 397.872
25.93000 389.365
25.94000 379.371
25.95000 371.324
25.96000 375.683
25.97000 380.188
25.98000 383.288
25.99000 382.792
26.00000 382.116
26.01000 381.625
26.02000 381.454
26.03000 381.290
26.04000 381.201
26.05000 387.811
26.06000 392.325
26.07000 394.736
26.08000 395.556
26.09000 396.271
26.10000 392.997
26.11000 387.691
26.12000 382.620
26.13000 381.069
26.14000 380.763
26.15000 380.286
26.16000 378.289
26.17000 375.936
26.18000 373.586
26.19000 371.253
26.20000 368.922
26.21000 367.061
26.22000 379.543
26.23000 390.683
26.24000 398.202
26.25000 396.772
26.26000 394.927
26.27000 392.939
26.28000 390.711
26.29000 388.480
26.30000 387.301
26.31000 385.043
26.32000 383.515
26.33000 383.106
26.34000 383.511
26.35000 383.832
26.36000 381.264
26.37000 377.276
26.38000 373.477
26.39000 379.024
26.40000 387.070
26.41000 394.156
26.42000 393.156
26.43000 390.328
26.44000 387.715
26.45000 386.234
26.46000 384.918
26.47000 383.876
26.48000 375.638
26.49000 368.516
26.50000 366.330
26.51000 375.924
26.52000 386.027
26.53000 389.781
26.54000 383.227
26.55000 376.528
26.56000 373.057
26.57000 382.820
26.58000 389.391
26.59000 393.350
26.60000 395.476
26.61000 397.424
26.62000 393.825
26.63000 387.591
26.64000 381.673
26.65000 379.300
26.66000 378.172
26.67000 377.265
26.68000 378.141
26.69000 379.406
26.70000 381.768
26.71000 389.702
26.72000 398.415
26.73000 405.257
26.74000 388.569
26.75000 373.674
26.76000 365.665
26.77000 373.527
26.78000 382.023
26.79000 386.657
26.80000 385.243
26.81000 383.758
26.82000 383.003
26.83000 382.831
26.84000 382.685
26.85000 379.228
26.86000 373.531
26.87000 367.973
26.88000 366.393
26.89000 366.638
26.90000 366.870
26.91000 368.960
26.92000 371.417
26.93000 373.091
26.94000 368.760
26.95000 363.173
26.96000 359.847
26.97000 367.569
26.98000 376.767
26.99000 383.929
27.00000 377.349
27.01000 371.261
27.02000 368.155
27.03000 371.685
27.04000 375.458
27.05000 375.778
27.06000 370.884
27.07000 365.937
27.08000 366.161
27.09000 371.512
27.10000 376.848
27.11000 380.719
27.12000 383.634
27.13000 386.487
27.14000 387.690
27.15000 388.163
27.16000 388.609
27.17000 383.953
27.18000 378.280
27.19000 373.132
27.20000 371.843
27.21000 371.332
27.22000 370.210
27.23000 366.218
27.24000 361.859
27.25000 358.495
27.26000 366.880
27.27000 374.206
27.28000 378.065
27.29000 374.471
27.30000 370.626
27.31000 368.232
27.32000 367.949
27.33000 367.683
27.34000 366.224
27.35000 363.629
27.36000 361.134
27.37000 366.565
27.38000 376.980
27.39000 386.956
27.40000 386.298
27.41000 381.094
27.42000 376.206
27.43000 370.294
27.44000 364.630
27.45000 360.222
27.46000 364.636
27.47000 370.760
27.48000 376.688
27.49000 381.731
27.50000 386.666
27.51000 390.440
27.52000 380.453
27.53000 371.826
27.54000 366.378
27.55000 367.527
27.56000 368.878
27.57000 368.593
27.58000 366.010
27.59000 363.413
27.60000 364.516
27.61000 369.001
27.62000 373.450
27.63000 375.432
27.64000 375.917
27.65000 376.352
27.66000 375.674
27.67000 374.535
27.68000 373.470
27.69000 364.111
27.70000 353.494
27.71000 345.708
27.72000 356.986
27.73000 371.813
27.74000 382.722
27.75000 376.552
27.76000 368.394
27.77000 362.213
27.78000 365.213
27.79000 368.035
27.80000 370.143
27.81000 370.819
27.82000 371.455
27.83000 370.632
27.84000 367.838
27.85000 365.034
27.86000 362.273
27.87000 359.554
27.88000 356.905
27.89000 358.484
27.90000 362.535
27.91000 366.363
27.92000 365.531
27.93000 362.840
27.94000 360.334
27.95000 359.870
27.96000 359.951
27.97000 360.151
27.98000 361.123
27.99000 362.233
28.00000 363.220
28.01000 363.693
28.02000 364.109
28.03000 364.422
28.04000 368.249
28.05000 371.407
28.06000 372.359
28.07000 369.045
28.08000 365.622
28.09000 364.624
28.10000 366.782
28.11000 368.950
28.12000 369.615
28.13000 369.011
28.14000 368.432
28.15000 369.207
28.16000 370.746
28.17000 372.087
28.18000 369.588
28.19000 365.609
28.20000 361.917
28.21000 360.215
28.22000 359.150
28.23000 358.457
28.24000 360.067
28.25000 362.072
28.26000 364.235
28.27000 367.036
28.28000 369.905
28.29000 372.036
28.30000 364.984
28.31000 359.093
28.32000 356.418
28.33000 359.748
28.34000 363.214
28.35000 365.055
28.36000 364.858
28.37000 364.655
28.38000 362.028
28.39000 357.446
28.40000 352.984
28.41000 354.102
28.42000 358.261
28.43000 362.218
28.44000 362.520
28.45000 361.462
28.46000 360.485
28.47000 364.956
28.48000 370.197
28.49000 374.224
28.50000 371.041
28.51000 366.668
28.52000 362.456
28.53000 358.867
28.54000 355.341
28.55000 352.748
28.56000 344.327
28.57000 337.573
28.58000 338.517
28.59000 353.339
28.60000 368.443
28.61000 371.868
28.62000 361.209
28.63000 350.541
28.64000 352.207
28.65000 363.469
28.66000 374.366
28.67000 370.056
28.68000 357.746
28.69000 346.225
28.70000 348.080
28.71000 354.738
28.72000 360.862
28.73000 358.871
28.74000 355.333
28.75000 351.767
28.76000 348.043
28.77000 344.295
28.78000 342.623
28.79000 348.753
28.80000 355.630
28.81000 360.637
28.82000 361.144
28.83000 361.362
28.84000 360.093
28.85000 356.237
28.86000 352.334
28.87000 349.589
28.88000 348.185
28.89000 346.787
28.90000 347.574
28.91000 349.990
28.92000 352.496
28.93000 358.364
28.94000 365.941
28.95000 372.584
28.96000 364.377
28.97000 351.022
28.98000 338.795
28.99000 345.598
29.00000 355.610
29.01000 363.370
29.02000 358.795
29.03000 352.348
29.04000 347.198
29.05000 346.751
29.06000 346.731
29.07000 346.716
29.08000 346.084
29.09000 345.578
29.10000 345.023
29.11000 344.387
29.12000 343.749
29.13000 347.918
29.14000 357.446
29.15000 366.945
29.16000 368.396
29.17000 364.042
29.18000 359.632
29.19000 353.320
29.20000 346.075
29.21000 339.409
29.22000 341.405
29.23000 346.300
29.24000 350.760
29.25000 351.565
29.26000 351.549
29.27000 351.394
29.28000 350.507
29.29000 349.514
29.30000 349.499
29.31000 352.900
29.32000 356.596
29.33000 359.230
29.34000 361.232
29.35000 362.737
29.36000 364.964
29.37000 368.358
29.38000 371.769
29.39000 367.880
29.40000 356.167
29.41000 344.505
29.42000 344.305
29.43000 352.041
29.44000 359.549
29.45000 359.983
29.46000 357.069
29.47000 354.200
29.48000 351.966
29.49000 349.936
29.50000 348.096
29.51000 348.559
29.52000 349.409
29.53000 350.077
29.54000 349.826
29.55000 349.446
29.56000 349.959
29.57000 353.479
29.58000 357.244
29.59000 359.898
29.60000 355.806
29.61000 352.499
29.62000 351.337
29.63000 353.526
29.64000 355.755
29.65000 353.511
29.66000 346.663
29.67000 339.852
29.68000 336.254
29.69000 334.840
29.70000 333.611
29.71000 337.662
29.72000 344.127
29.73000 350.067
29.74000 349.040
29.75000 345.841
29.76000 342.954
29.77000 346.905
29.78000 351.629
29.79000 355.329
29.80000 354.042
29.81000 352.091
29.82000 351.016
29.83000 352.791
29.84000 354.787
29.85000 356.178
29.86000 360.119
29.87000 363.162
29.88000 367.168
29.89000 372.623
29.90000 378.093
29.91000 382.068
29.92000 384.568
29.93000 387.051
29.94000 387.432
29.95000 386.461
29.96000 385.510
29.97000 385.060
29.98000 384.833
29.99000 384.361
30.00000 380.816
30.01000 376.346
30.02000 372.333
30.03000 372.164
30.04000 372.692
30.05000 373.312
30.06000 374.367
30.07000 375.477
30.08000 375.422
30.09000 371.704
30.10000 367.719
30.11000 364.974
30.12000 363.195
30.13000 361.884
30.14000 362.797
30.15000 366.938
30.16000 371.106
30.17000 374.811
30.18000 378.077
30.19000 381.317
30.20000 382.078
30.21000 381.297
30.22000 380.399
30.23000 376.663
30.24000 371.716
30.25000 366.778
30.26000 361.936
30.27000 357.122
30.28000 352.822
30.29000 356.851
30.30000 361.760
30.31000 365.032
30.32000 360.919
30.33000 355.908
30.34000 354.834
30.35000 365.696
30.36000 377.377
30.37000 385.329
30.38000 383.002
30.39000 381.030
30.40000 379.585
30.41000 378.880
30.42000 378.178
30.43000 376.063
30.44000 372.658
30.45000 369.284
30.46000 362.422
30.47000 353.629
30.48000 345.213
30.49000 345.188
30.50000 348.618
30.51000 352.458
30.52000 360.905
30.53000 370.642
30.54000 379.292
30.55000 372.413
30.56000 363.947
30.57000 357.476
30.58000 359.667
30.59000 362.863
30.60000 363.443
30.61000 356.368
30.62000 348.800
30.63000 343.711
30.64000 349.815
30.65000 354.581
30.66000 358.332
30.67000 360.713
30.68000 363.090
30.69000 368.210
30.70000 375.733
30.71000 383.175
30.72000 390.152
30.73000 396.706
30.74000 402.920
30.75000 402.108
30.76000 398.500
30.77000 395.034
30.78000 393.065
30.79000 391.501
30.80000 390.120
30.81000 398.902
30.82000 408.050
30.83000 416.321
30.84000 420.923
30.85000 425.119
30.86000 426.568
30.87000 420.257
30.88000 413.475
30.89000 408.972
30.90000 410.145
30.91000 411.117
30.92000 415.120
30.93000 423.056
30.94000 431.007
30.95000 438.100
30.96000 444.471
30.97000 450.764
30.98000 453.353
30.99000 453.843
31.00000 454.660
31.01000 461.788
31.02000 471.339
31.03000 480.918
31.04000 490.786
31.05000 500.729
31.06000 509.462
31.07000 524.324
31.08000 538.001
31.09000 553.476
31.10000 576.195
31.11000 599.678
31.12000 617.636
31.13000 620.523
31.14000 622.555
31.15000 623.887
31.16000 658.751
31.17000 684.944
31.18000 709.390
31.19000 731.655
31.20000 753.903
31.21000 772.712
31.22000 788.733
31.23000 804.531
31.24000 825.400
31.25000 848.359
31.26000 872.155
31.27000 911.045
31.28000 955.531
31.29000 996.667
31.30000 1005.486
31.31000 1006.193
31.32000 1006.810
31.33000 1021.756
31.34000 1036.563
31.35000 1050.522
31.36000 1061.183
31.37000 1071.513
31.38000 1081.416
31.39000 1090.196
31.40000 1098.916
31.41000 1104.557
31.42000 1081.859
31.43000 1064.839
31.44000 1048.608
31.45000 1033.324
31.46000 1017.985
31.47000 987.140
31.48000 944.198
31.49000 901.928
31.50000 883.204
31.51000 877.030
31.52000 870.253
31.53000 853.317
31.54000 832.744
31.55000 811.480
31.56000 783.880
31.57000 754.747
31.58000 729.458
31.59000 695.361
31.60000 665.124
31.61000 638.237
31.62000 623.906
31.63000 610.771
31.64000 595.179
31.65000 573.336
31.66000 551.185
31.67000 537.045
31.68000 539.459
31.69000 541.431
31.70000 531.295
31.71000 507.158
31.72000 483.067
31.73000 471.698
31.74000 469.890
31.75000 468.113
31.76000 462.482
31.77000 455.157
31.78000 447.713
31.79000 438.375
31.80000 428.383
31.81000 418.656
31.82000 411.257
31.83000 404.401
31.84000 398.486
31.85000 396.405
31.86000 395.132
31.87000 393.840
31.88000 392.481
31.89000 391.117
31.90000 390.273
31.91000 390.711
31.92000 391.206
31.93000 391.519
31.94000 389.634
31.95000 388.246
31.96000 385.342
31.97000 380.753
31.98000 376.164
31.99000 371.847
32.00000 367.726
32.01000 363.685
32.02000 362.366
32.03000 362.376
32.04000 362.648
32.05000 366.809
32.06000 372.267
32.07000 376.403
32.08000 369.491
32.09000 360.100
32.10000 352.048
32.11000 350.210
32.12000 349.417
32.13000 347.715
32.14000 342.844
32.15000 337.701
32.16000 336.470
32.17000 344.519
32.18000 352.963
32.19000 358.204
32.20000 351.751
32.21000 346.993
32.22000 345.337
32.23000 346.994
32.24000 348.631
32.25000 347.583
32.26000 344.662
32.27000 341.804
32.28000 342.128
32.29000 343.880
32.30000 345.233
32.31000 340.989
32.32000 334.941
32.33000 330.503
32.34000 338.908
32.35000 350.089
32.36000 359.612
32.37000 355.732
32.38000 350.908
32.39000 346.407
32.40000 342.992
32.41000 339.665
32.42000 338.608
32.43000 342.753
32.44000 347.102
32.45000 349.762
32.46000 329.901
32.47000 315.501
32.48000 309.440
32.49000 311.937
32.50000 314.433
32.51000 316.920
32.52000 319.401
32.53000 321.823
32.54000 319.323
32.55000 314.786
32.56000 310.832
32.57000 314.594
32.58000 320.756
32.59000 326.359
32.60000 327.713
32.61000 328.183
32.62000 328.580
32.63000 336.074
32.64000 343.135
32.65000 346.562
32.66000 338.197
32.67000 328.928
32.68000 323.507
32.69000 326.602
32.70000 330.004
32.71000 332.055
32.72000 332.222
32.73000 332.328
32.74000 329.777
32.75000 324.609
32.76000 319.503
32.77000 319.957
32.78000 324.014
32.79000 327.966
32.80000 337.268
32.81000 348.381
32.82000 360.052
32.83000 378.678
32.84000 399.392
32.85000 419.037
32.86000 430.887
32.87000 441.178
32.88000 449.826
32.89000 465.265
32.90000 478.846
32.91000 491.418
32.92000 500.831
32.93000 510.015
32.94000 517.151
32.95000 519.909
32.96000 522.522
32.97000 524.072
32.98000 535.421
32.99000 543.506
33.00000 542.999
33.01000 534.371
33.02000 525.749
33.03000 517.693
33.04000 509.990
33.05000 502.507
33.06000 486.562
33.07000 467.998
33.08000 449.272
33.09000 428.629
33.10000 407.430
33.11000 387.921
33.12000 380.203
33.13000 374.754
33.14000 370.207
33.15000 359.596
33.16000 350.186
33.17000 340.844
33.18000 331.708
33.19000 322.586
33.20000 316.326
33.21000 315.971
33.22000 315.796
33.23000 315.693
33.24000 305.303
33.25000 297.950
33.26000 297.708
33.27000 303.927
33.28000 310.062
33.29000 310.651
33.30000 307.895
33.31000 305.224
33.32000 304.732
33.33000 305.114
33.34000 305.592
33.35000 307.153
33.36000 309.017
33.37000 310.202
33.38000 306.851
33.39000 302.661
33.40000 299.190
33.41000 305.086
33.42000 310.848
33.43000 313.801
33.44000 308.562
33.45000 302.796
33.46000 298.595
33.47000 297.509
33.48000 296.509
33.49000 295.934
33.50000 292.690
33.51000 290.418
33.52000 294.890
33.53000 305.249
33.54000 315.392
33.55000 313.050
33.56000 303.443
33.57000 294.159
33.58000 293.192
33.59000 295.390
33.60000 297.822
33.61000 302.746
33.62000 308.342
33.63000 312.749
33.64000 309.544
33.65000 304.986
33.66000 301.238
33.67000 299.720
33.68000 298.674
33.69000 295.960
33.70000 288.548
33.71000 280.852
33.72000 278.922
33.73000 288.076
33.74000 297.507
33.75000 302.835
33.76000 301.231
33.77000 300.096
33.78000 298.784
33.79000 297.323
33.80000 295.943
33.81000 298.695
33.82000 303.768
33.83000 308.656
33.84000 304.768
33.85000 297.957
33.86000 292.711
33.87000 303.268
33.88000 317.928
33.89000 330.105
33.90000 327.020
33.91000 321.330
33.92000 316.685
33.93000 307.349
33.94000 299.309
33.95000 295.711
33.96000 304.198
33.97000 313.366
33.98000 318.330
33.99000 315.488
34.00000 312.471
34.01000 310.796
34.02000 312.985
34.03000 314.495
34.04000 312.230
34.05000 306.915
34.06000 301.715
34.07000 301.773
34.08000 304.678
34.09000 307.470
34.10000 313.699
34.11000 320.720
34.12000 326.641
34.13000 321.988
34.14000 314.689
34.15000 308.533
34.16000 309.121
34.17000 310.813
34.18000 312.184
34.19000 314.502
34.20000 316.466
34.21000 318.516
34.22000 320.789
34.23000 323.074
34.24000 324.172
34.25000 323.142
34.26000 322.070
34.27000 321.485
34.28000 317.494
34.29000 314.758
34.30000 314.639
34.31000 316.555
34.32000 318.485
34.33000 320.993
34.34000 323.804
34.35000 326.497
34.36000 325.361
34.37000 323.026
34.38000 321.311
34.39000 325.256
34.40000 330.566
34.41000 333.732
34.42000 324.758
34.43000 313.876
34.44000 305.132
34.45000 305.740
34.46000 306.953
34.47000 308.085
34.48000 309.013
34.49000 309.931
34.50000 310.385
34.51000 310.038
34.52000 309.676
34.53000 309.482
34.54000 310.167
34.55000 310.637
34.56000 311.570
34.57000 312.850
34.58000 314.139
34.59000 315.770
34.60000 317.575
34.61000 319.298
34.62000 314.497
34.63000 307.948
34.64000 301.966
34.65000 300.936
34.66000 301.057
34.67000 300.965
34.68000 299.715
34.69000 298.291
34.70000 297.156
34.71000 297.091
34.72000 297.115
34.73000 298.743
34.74000 304.299
34.75000 310.034
34.76000 312.524
34.77000 309.600
34.78000 306.593
34.79000 305.012
34.80000 286.978
34.81000 274.791
34.82000 269.865
34.83000 270.179
34.84000 270.613
34.85000 275.057
34.86000 281.456
34.87000 287.547
34.88000 290.043
34.89000 291.248
34.90000 292.081
34.91000 289.833
34.92000 286.895
34.93000 284.305
34.94000 283.531
34.95000 283.021
34.96000 282.617
34.97000 282.838
34.98000 283.058
34.99000 282.227
35.00000 278.906
35.01000 275.480
35.02000 275.709
35.03000 281.818
35.04000 288.006
35.05000 291.197
35.06000 282.208
35.07000 276.166
35.08000 271.874
35.09000 268.799
35.10000 265.887
35.11000 267.920
35.12000 272.280
35.13000 276.416
35.14000 278.614
35.15000 280.068
35.16000 281.246
35.17000 280.240
35.18000 278.762
35.19000 276.363
35.20000 269.331
35.21000 261.659
35.22000 255.647
35.23000 259.306
35.24000 262.856
35.25000 266.004
35.26000 268.237
35.27000 270.435
35.28000 273.624
35.29000 278.354
35.30000 283.101
35.31000 285.501
35.32000 272.010
35.33000 263.050
35.34000 261.179
35.35000 264.059
35.36000 266.948
35.37000 270.101
35.38000 273.374
35.39000 276.468
35.40000 268.715
35.41000 258.508
35.42000 249.934
35.43000 253.772
35.44000 260.184
35.45000 265.720
35.46000 267.024
35.47000 267.767
35.48000 268.345
35.49000 259.599
35.50000 252.076
35.51000 246.968
35.52000 247.188
35.53000 247.599
35.54000 250.291
35.55000 256.393
35.56000 262.528
35.57000 267.163
35.58000 270.326
35.59000 273.436
35.60000 271.954
35.61000 267.506
35.62000 263.065
35.63000 258.843
35.64000 254.716
35.65000 250.830
35.66000 256.476
35.67000 264.249
35.68000 270.569
35.69000 266.332
35.70000 259.988
35.71000 255.516
35.72000 259.753
35.73000 265.090
35.74000 269.200
35.75000 264.202
35.76000 259.726
35.77000 258.622
35.78000 264.700
35.79000 271.015
35.80000 272.411
35.81000 266.712
35.82000 260.957
35.83000 256.851
35.84000 254.302
35.85000 251.759
35.86000 249.754
35.87000 248.085
35.88000 246.621
35.89000 250.055
35.90000 255.566
35.91000 260.735
35.92000 259.341
35.93000 256.346
35.94000 254.205
35.95000 258.005
35.96000 262.945
35.97000 265.990
35.98000 260.543
35.99000 254.072
36.00000 249.136
36.01000 248.903
36.02000 248.972
36.03000 249.258
36.04000 249.994
36.05000 250.742
36.06000 250.087
36.07000 247.480
36.08000 244.862
36.09000 245.540
36.10000 249.201
36.11000 252.840
36.12000 255.084
36.13000 256.489
36.14000 257.833
36.15000 257.807
36.16000 257.221
36.17000 256.674
36.18000 258.954
36.19000 261.737
36.20000 263.910
36.21000 262.016
36.22000 259.372
36.23000 257.210
36.24000 257.126
36.25000 257.280
36.26000 257.397
36.27000 263.645
36.28000 268.851
36.29000 269.277
36.30000 260.207
36.31000 250.879
36.32000 245.756
36.33000 246.266
36.34000 246.804
36.35000 252.714
36.36000 263.282
36.37000 273.665
36.38000 273.419
36.39000 267.008
36.40000 260.828
36.41000 259.369
36.42000 259.775
36.43000 260.154
36.44000 258.838
36.45000 257.237
36.46000 254.796
36.47000 246.986
36.48000 238.225
36.49000 232.189
36.50000 237.483
36.51000 244.021
36.52000 248.915
36.53000 246.652
36.54000 244.552
36.55000 245.776
36.56000 253.371
36.57000 261.123
36.58000 263.265
36.59000 258.172
36.60000 253.057
36.61000 249.207
36.62000 246.424
36.63000 243.713
36.64000 244.644
36.65000 247.612
36.66000 250.519
36.67000 252.247
36.68000 253.525
36.69000 254.710
36.70000 257.937
36.71000 261.317
36.72000 263.783
36.73000 260.652
36.74000 256.569
36.75000 252.648
36.76000 249.377
36.77000 246.173
36.78000 243.799
36.79000 251.900
36.80000 258.648
36.81000 260.701
36.82000 254.067
36.83000 247.241
36.84000 247.364
36.85000 256.111
36.86000 264.868
36.87000 268.856
36.88000 269.001
36.89000 269.079
36.90000 266.146
36.91000 261.585
36.92000 257.356
36.93000 259.027
36.94000 262.874
36.95000 266.423
36.96000 267.211
36.97000 267.299
36.98000 267.043
36.99000 264.761
37.00000 262.148
37.01000 260.291
37.02000 261.348
37.03000 262.696
37.04000 263.684
37.05000 265.744
37.06000 267.380
37.07000 269.891
37.08000 273.968
37.09000 278.076
37.10000 279.991
37.11000 279.286
37.12000 278.578
37.13000 274.157
37.14000 266.898
37.15000 259.683
37.16000 254.256
37.17000 249.761
37.18000 245.637
37.19000 247.701
37.20000 251.967
37.21000 255.886
37.22000 253.911
37.23000 250.883
37.24000 248.482
37.25000 249.622
37.26000 251.315
37.27000 252.894
37.28000 254.047
37.29000 255.159
37.30000 255.967
37.31000 252.416
37.32000 249.522
37.33000 249.643
37.34000 254.964
37.35000 260.375
37.36000 259.869
37.37000 252.567
37.38000 245.277
37.39000 244.832
37.40000 249.464
37.41000 253.935
37.42000 252.530
37.43000 248.166
37.44000 244.158
37.45000 245.731
37.46000 249.221
37.47000 252.412
37.48000 254.735
37.49000 256.621
37.50000 258.355
37.51000 259.263
37.52000 260.046
37.53000 260.150
37.54000 257.812
37.55000 255.256
37.56000 253.419
37.57000 254.202
37.58000 254.892
37.59000 254.308
37.60000 251.604
37.61000 248.868
37.62000 250.422
37.63000 256.713
37.64000 262.983
37.65000 263.201
37.66000 259.103
37.67000 255.074
37.68000 253.293
37.69000 252.605
37.70000 252.105
37.71000 254.378
37.72000 257.571
37.73000 260.477
37.74000 256.837
37.75000 252.323
37.76000 248.656
37.77000 249.407
37.78000 250.792
37.79000 252.254
37.80000 253.979
37.81000 255.725
37.82000 256.967
37.83000 251.738
37.84000 247.549
37.85000 244.341
37.86000 242.707
37.87000 241.093
37.88000 242.258
37.89000 246.372
37.90000 250.466
37.91000 250.519
37.92000 247.801
37.93000 245.115
37.94000 243.398
37.95000 242.135
37.96000 241.281
37.97000 246.112
37.98000 252.763
37.99000 258.788
38.00000 261.424
38.01000 263.107
38.02000 264.247
38.03000 262.672
38.04000 260.724
38.05000 258.414
38.06000 254.900
38.07000 251.289
38.08000 248.750
38.09000 248.623
38.10000 248.597
38.11000 249.904
38.12000 253.274
38.13000 256.668
38.14000 257.596
38.15000 256.011
38.16000 254.435
38.17000 255.220
38.18000 257.552
38.19000 259.877
38.20000 262.043
38.21000 264.136
38.22000 266.176
38.23000 267.515
38.24000 268.638
38.25000 269.650
38.26000 273.252
38.27000 276.883
38.28000 279.982
38.29000 280.513
38.30000 280.705
38.31000 281.842
38.32000 286.025
38.33000 290.439
38.34000 293.506
38.35000 297.176
38.36000 299.957
38.37000 303.052
38.38000 306.613
38.39000 310.179
38.40000 315.031
38.41000 321.141
38.42000 327.208
38.43000 335.408
38.44000 344.833
38.45000 354.459
38.46000 369.223
38.47000 386.235
38.48000 403.335
38.49000 421.514
38.50000 440.015
38.51000 456.604
38.52000 469.894
38.53000 480.933
38.54000 495.038
38.55000 523.368
38.56000 553.488
38.57000 577.828
38.58000 584.178
38.59000 589.237
38.60000 592.712
38.61000 630.153
38.62000 659.061
38.63000 683.564
38.64000 701.732
38.65000 719.849
38.66000 730.628
38.67000 734.517
38.68000 738.373
38.69000 746.428
38.70000 756.898
38.71000 767.007
38.72000 768.594
38.73000 766.579
38.74000 764.069
38.75000 755.770
38.76000 745.805
38.77000 736.917
38.78000 705.890
38.79000 675.213
38.80000 649.819
38.81000 648.024
38.82000 649.064
38.83000 646.610
38.84000 633.654
38.85000 619.988
38.86000 610.713
38.87000 562.501
38.88000 525.669
38.89000 496.466
38.90000 477.835
38.91000 459.272
38.92000 441.207
38.93000 423.590
38.94000 406.143
38.95000 387.923
38.96000 369.626
38.97000 351.572
38.98000 338.841
38.99000 328.283
39.00000 317.712
39.01000 306.993
39.02000 296.233
39.03000 286.688
39.04000 283.385
39.05000 281.517
39.06000 279.461
39.07000 276.595
39.08000 273.637
39.09000 270.725
39.10000 267.950
39.11000 265.184
39.12000 263.330
39.13000 257.376
39.14000 252.875
39.15000 250.304
39.16000 250.310
39.17000 250.330
39.18000 251.033
39.19000 252.327
39.20000 253.607
39.21000 247.296
39.22000 236.844
39.23000 226.839
39.24000 225.945
39.25000 228.641
39.26000 231.305
39.27000 233.623
39.28000 235.849
39.29000 237.813
39.30000 238.024
39.31000 237.939
39.32000 238.368
39.33000 240.930
39.34000 243.725
39.35000 246.279
39.36000 248.157
39.37000 249.995
39.38000 251.211
39.39000 251.396
39.40000 251.513
39.41000 252.052
39.42000 253.133
39.43000 254.210
39.44000 252.423
39.45000 248.246
39.46000 244.123
39.47000 242.103
39.48000 241.279
39.49000 240.444
39.50000 239.403
39.51000 238.283
39.52000 237.187
39.53000 236.335
39.54000 235.545
39.55000 234.853
39.56000 234.079
39.57000 233.404
39.58000 233.130
39.59000 234.463
39.60000 235.962
39.61000 237.440
39.62000 238.859
39.63000 240.275
39.64000 241.200
39.65000 244.226
39.66000 246.481
39.67000 248.451
39.68000 250.067
39.69000 251.669
39.70000 249.168
39.71000 243.370
39.72000 237.656
39.73000 235.340
39.74000 234.868
39.75000 234.442
39.76000 234.817
39.77000 235.487
39.78000 235.890
39.79000 233.751
39.80000 230.980
39.81000 228.563
39.82000 230.384
39.83000 232.530
39.84000 234.373
39.85000 235.053
39.86000 235.617
39.87000 235.682
39.88000 234.442
39.89000 233.133
39.90000 232.290
39.91000 231.815
39.92000 231.474
39.93000 230.227
39.94000 227.900
39.95000 225.582
39.96000 225.855
39.97000 228.129
39.98000 230.366
39.99000 229.151
40.00000 226.238
40.01000 223.308
40.02000 220.110
40.03000 216.816
40.04000 214.038
40.05000 215.939
40.06000 218.962
40.07000 221.581
40.08000 225.995
40.09000 229.991
40.10000 232.372
40.11000 228.759
40.12000 224.581
40.13000 221.516
40.14000 221.256
40.15000 221.132
40.16000 221.053
40.17000 219.268
40.18000 217.950
40.19000 217.268
40.20000 217.315
40.21000 217.391
40.22000 222.859
40.23000 232.342
40.24000 241.654
40.25000 239.931
40.26000 232.924
40.27000 226.161
40.28000 223.222
40.29000 221.594
40.30000 220.337
40.31000 222.296
40.32000 224.997
40.33000 227.324
40.34000 228.494
40.35000 229.338
40.36000 229.661
40.37000 228.116
40.38000 226.404
40.39000 224.269
40.40000 221.103
40.41000 217.891
40.42000 215.876
40.43000 221.725
40.44000 226.037
40.45000 226.792
40.46000 223.632
40.47000 220.480
40.48000 218.786
40.49000 218.138
40.50000 217.502
40.51000 213.694
40.52000 208.549
40.53000 204.157
40.54000 210.781
40.55000 221.049
40.56000 230.042
40.57000 228.513
40.58000 224.643
40.59000 221.331
40.60000 215.149
40.61000 209.587
40.62000 206.122
40.63000 209.903
40.64000 214.296
40.65000 217.260
40.66000 216.864
40.67000 216.328
40.68000 215.997
40.69000 218.390
40.70000 220.136
40.71000 219.334
40.72000 215.837
40.73000 212.352
40.74000 210.408
40.75000 209.528
40.76000 208.668
40.77000 205.961
40.78000 202.535
40.79000 199.298
40.80000 198.651
40.81000 198.831
40.82000 199.424
40.83000 203.268
40.84000 207.808
40.85000 211.668
40.86000 212.610
40.87000 213.065
40.88000 213.446
40.89000 213.583
40.90000 213.701
40.91000 214.357
40.92000 216.235
40.93000 218.159
40.94000 219.332
40.95000 215.080
40.96000 211.998
40.97000 212.273
40.98000 215.957
40.99000 219.603
41.00000 219.375
41.01000 216.565
41.02000 213.823
41.03000 213.079
41.04000 213.231
41.05000 213.146
41.06000 209.977
41.07000 205.858
41.08000 202.628
41.09000 206.104
41.10000 210.962
41.11000 215.065
41.12000 213.673
41.13000 211.907
41.14000 210.797
41.15000 211.798
41.16000 212.958
41.17000 214.044
41.18000 214.967
41.19000 215.884
41.20000 216.434
41.21000 218.686
41.22000 220.297
41.23000 215.470
41.24000 204.369
41.25000 193.401
41.26000 193.922
41.27000 201.821
41.28000 209.510
41.29000 211.030
41.30000 209.914
41.31000 209.229
41.32000 213.849
41.33000 220.045
41.34000 225.223
41.35000 223.053
41.36000 219.426
41.37000 216.384
41.38000 211.907
41.39000 208.031
41.40000 204.960
41.41000 204.386
41.42000 203.989
41.43000 202.790
41.44000 199.891
41.45000 196.937
41.46000 195.191
41.47000 201.140
41.48000 205.384
41.49000 208.503
41.50000 210.567
41.51000 212.600
41.52000 212.371
41.53000 210.741
41.54000 209.158
41.55000 211.341
41.56000 214.920
41.57000 217.741
41.58000 211.723
41.59000 203.171
41.60000 195.705
41.61000 195.739
41.62000 197.201
41.63000 198.420
41.64000 205.458
41.65000 211.865
41.66000 215.219
41.67000 209.423
41.68000 203.012
41.69000 199.133
41.70000 200.434
41.71000 201.888
41.72000 202.733
41.73000 207.490
41.74000 210.846
41.75000 211.249
41.76000 208.998
41.77000 206.798
41.78000 207.930
41.79000 211.054
41.80000 214.078
41.81000 212.275
41.82000 208.711
41.83000 205.538
41.84000 206.679
41.85000 209.014
41.86000 210.550
41.87000 206.805
41.88000 202.093
41.89000 198.196
41.90000 204.267
41.91000 210.212
41.92000 216.493
41.93000 223.749
41.94000 231.066
41.95000 232.567
41.96000 222.586
41.97000 212.297
41.98000 206.410
41.99000 210.489
42.00000 213.370
42.01000 214.686
42.02000 214.649
42.03000 214.593
42.04000 213.524
42.05000 211.871
42.06000 210.275
42.07000 207.495
42.08000 204.437
42.09000 202.073
42.10000 206.992
42.11000 213.855
42.12000 219.652
42.13000 218.689
42.14000 216.536
42.15000 214.769
42.16000 217.099
42.17000 219.378
42.18000 220.240
42.19000 217.147
42.20000 213.819
42.21000 211.674
42.22000 211.781
42.23000 211.944
42.24000 212.035
42.25000 215.409
42.26000 217.758
42.27000 219.199
42.28000 219.886
42.29000 220.595
42.30000 222.469
42.31000 224.990
42.32000 227.418
42.33000 223.796
42.34000 218.240
42.35000 213.849
42.36000 221.077
42.37000 231.296
42.38000 239.388
42.39000 234.550
42.40000 227.527
42.41000 221.807
42.42000 210.484
42.43000 200.757
42.44000 195.707
42.45000 203.265
42.46000 211.522
42.47000 217.741
42.48000 220.209
42.49000 222.596
42.50000 223.916
42.51000 221.308
42.52000 219.498
42.53000 216.537
42.54000 212.654
42.55000 208.899
42.56000 210.816
42.57000 215.780
42.58000 220.546
42.59000 213.614
42.60000 203.121
42.61000 193.655
42.62000 193.950
42.63000 196.665
42.64000 199.283
42.65000 201.334
42.66000 203.294
42.67000 204.878
42.68000 204.132
42.69000 203.338
42.70000 203.011
42.71000 203.899
42.72000 204.851
42.73000 206.149
42.74000 208.065
42.75000 209.992
42.76000 211.039
42.77000 206.678
42.78000 203.703
42.79000 205.999
42.80000 212.358
42.81000 218.507
42.82000 216.298
42.83000 209.757
42.84000 203.496
42.85000 201.552
42.86000 201.164
42.87000 200.671
42.88000 199.232
42.89000 197.569
42.90000 195.911
42.91000 194.288
42.92000 192.671
42.93000 191.374
42.94000 190.341
42.95000 189.524
42.96000 190.149
42.97000 194.397
42.98000 198.820
42.99000 203.824
43.00000 209.825
43.01000 215.843
43.02000 219.052
43.03000 212.795
43.04000 208.543
43.05000 207.880
43.06000 209.878
43.07000 211.797
43.08000 210.833
43.09000 208.426
43.10000 206.130
43.11000 203.870
43.12000 201.783
43.13000 199.996
43.14000 200.798
43.15000 202.196
43.16000 202.763
43.17000 198.853
43.18000 194.277
43.19000 190.637
43.20000 196.227
43.21000 201.393
43.22000 205.218
43.23000 205.786
43.24000 206.209
43.25000 204.998
43.26000 201.087
43.27000 197.136
43.28000 195.068
43.29000 198.460
43.30000 200.742
43.31000 200.569
43.32000 198.642
43.33000 196.715
43.34000 194.769
43.35000 192.814
43.36000 190.955
43.37000 193.975
43.38000 198.257
43.39000 201.619
43.40000 197.426
43.41000 191.557
43.42000 187.148
43.43000 190.296
43.44000 194.522
43.45000 197.856
43.46000 196.518
43.47000 195.130
43.48000 194.947
43.49000 197.590
43.50000 200.351
43.51000 202.207
43.52000 202.619
43.53000 203.012
43.54000 203.214
43.55000 202.702
43.56000 202.341
43.57000 199.995
43.58000 196.283
43.59000 192.615
43.60000 190.261
43.61000 188.521
43.62000 186.872
43.63000 188.276
43.64000 190.464
43.65000 192.419
43.66000 192.540
43.67000 192.269
43.68000 191.813
43.69000 190.433
43.70000 188.928
43.71000 187.751
43.72000 194.495
43.73000 200.383
43.74000 204.590
43.75000 204.991
43.76000 205.246
43.77000 202.752
43.78000 196.028
43.79000 189.259
43.80000 185.854
43.81000 190.328
43.82000 193.265
43.83000 191.049
43.84000 185.411
43.85000 180.045
43.86000 182.118
43.87000 187.542
43.88000 192.665
43.89000 194.443
43.90000 195.132
43.91000 195.410
43.92000 192.599
43.93000 189.154
43.94000 186.518
43.95000 187.756
43.96000 189.500
43.97000 190.853
43.98000 191.845
43.99000 192.612
44.00000 193.485
44.01000 194.588
44.02000 195.699
44.03000 194.463
44.04000 189.749
44.05000 185.002
44.06000 181.871
44.07000 180.307
44.08000 178.776
44.09000 179.934
44.10000 182.814
44.11000 185.683
44.12000 188.251
44.13000 190.690
44.14000 192.984
44.15000 195.170
44.16000 197.139
44.17000 198.421
44.18000 194.764
44.19000 190.132
44.20000 186.772
44.21000 189.276
44.22000 192.512
44.23000 194.999
44.24000 198.708
44.25000 201.710
44.26000 202.611
44.27000 199.076
44.28000 195.398
44.29000 195.154
44.30000 199.817
44.31000 204.518
44.32000 203.347
44.33000 196.704
44.34000 190.158
44.35000 190.729
44.36000 195.696
44.37000 200.521
44.38000 202.057
44.39000 202.210
44.40000 202.354
44.41000 204.865
44.42000 207.767
44.43000 209.942
44.44000 207.122
44.45000 203.353
44.46000 200.140
44.47000 199.389
44.48000 198.931
44.49000 198.583
44.50000 202.350
44.51000 205.531
44.52000 206.468
44.53000 202.828
44.54000 199.055
44.55000 200.722
44.56000 209.881
44.57000 219.083
44.58000 221.750
44.59000 218.561
44.60000 215.410
44.61000 214.684
44.62000 215.401
44.63000 216.077
44.64000 215.870
44.65000 215.304
44.66000 214.776
44.67000 214.883
44.68000 215.138
44.69000 215.755
44.70000 218.751
44.71000 222.181
44.72000 224.658
44.73000 223.058
44.74000 220.995
44.75000 219.439
44.76000 215.247
44.77000 211.835
44.78000 210.220
44.79000 212.143
44.80000 214.160
44.81000 215.462
44.82000 215.813
44.83000 216.160
44.84000 217.246
44.85000 218.968
44.86000 220.712
44.87000 223.743
44.88000 227.515
44.89000 231.154
44.90000 232.144
44.91000 232.096
44.92000 232.050
44.93000 233.138
44.94000 234.392
44.95000 235.112
44.96000 232.462
44.97000 229.222
44.98000 226.790
44.99000 227.686
45.00000 228.944
45.01000 229.883
45.02000 227.600
45.03000 225.673
45.04000 225.598
45.05000 229.044
45.06000 232.573
45.07000 233.907
45.08000 232.437
45.09000 230.958
45.10000 228.653
45.11000 225.673
45.12000 222.791
45.13000 224.722
45.14000 229.325
45.15000 233.416
45.16000 227.917
45.17000 218.790
45.18000 210.340
45.19000 206.818
45.20000 204.789
45.21000 203.585
45.22000 207.383
45.23000 212.023
45.24000 216.159
45.25000 218.293
45.26000 220.220
45.27000 221.644
45.28000 225.198
45.29000 228.046
45.30000 227.312
45.31000 220.009
45.32000 212.564
45.33000 208.845
45.34000 209.707
45.35000 210.579
45.36000 212.648
45.37000 215.657
45.38000 218.600
45.39000 218.622
45.40000 217.081
45.41000 215.551
45.42000 214.213
45.43000 212.946
45.44000 211.778
45.45000 210.076
45.46000 208.433
45.47000 207.585
45.48000 211.352
45.49000 215.866
45.50000 218.025
45.51000 211.174
45.52000 203.439
45.53000 197.777
45.54000 198.853
45.55000 199.951
45.56000 201.039
45.57000 202.106
45.58000 203.174
45.59000 200.619
45.60000 193.779
45.61000 186.947
45.62000 186.464
45.63000 190.831
45.64000 195.141
45.65000 197.240
45.66000 198.196
45.67000 198.984
45.68000 196.999
45.69000 194.036
45.70000 191.317
45.71000 194.328
45.72000 198.231
45.73000 201.131
45.74000 198.433
45.75000 194.867
45.76000 191.624
45.77000 189.574
45.78000 187.635
45.79000 186.231
45.80000 187.311
45.81000 188.232
45.82000 187.758
45.83000 184.903
45.84000 182.008
45.85000 179.248
45.86000 176.641
45.87000 174.043
45.88000 175.078
45.89000 178.772
45.90000 182.393
45.91000 183.450
45.92000 183.227
45.93000 183.025
45.94000 183.132
45.95000 183.345
45.96000 183.540
45.97000 180.412
45.98000 176.958
45.99000 173.903
46.00000 172.996
46.01000 172.408
46.02000 171.593
46.03000 169.973
46.04000 168.281
46.05000 167.069
46.06000 170.854
46.07000 173.916
46.08000 176.182
46.09000 177.137
46.10000 178.072
46.11000 178.731
46.12000 179.088
46.13000 179.443
46.14000 177.052
46.15000 172.746
46.16000 168.593
46.17000 169.445
46.18000 172.707
46.19000 175.782
46.20000 176.149
46.21000 175.625
46.22000 175.149
46.23000 177.293
46.24000 179.701
46.25000 181.975
46.26000 183.559
46.27000 185.044
46.28000 185.495
46.29000 182.393
46.30000 178.993
46.31000 176.583
46.32000 176.449
46.33000 176.418
46.34000 176.896
46.35000 178.182
46.36000 179.478
46.37000 180.256
46.38000 180.491
46.39000 180.724
46.40000 178.046
46.41000 173.422
46.42000 169.011
46.43000 170.921
46.44000 175.773
46.45000 180.371
46.46000 181.499
46.47000 181.527
46.48000 181.551
46.49000 182.586
46.50000 183.686
46.51000 184.204
46.52000 181.836
46.53000 179.075
46.54000 177.279
46.55000 178.677
46.56000 180.329
46.57000 181.486
46.58000 184.753
46.59000 187.284
46.60000 187.700
46.61000 184.873
46.62000 182.011
46.63000 180.163
46.64000 179.338
46.65000 178.518
46.66000 177.453
46.67000 176.241
46.68000 175.137
46.69000 176.939
46.70000 180.048
46.71000 182.640
46.72000 178.570
46.73000 172.460
46.74000 166.960
46.75000 173.002
46.76000 180.370
46.77000 185.329
46.78000 178.785
46.79000 170.744
46.80000 164.714
46.81000 165.115
46.82000 165.998
46.83000 166.609
46.84000 168.799
46.85000 170.489
46.86000 171.474
46.87000 171.419
46.88000 171.354
46.89000 172.606
46.90000 175.134
46.91000 177.644
46.92000 178.596
46.93000 178.553
46.94000 178.488
46.95000 177.867
46.96000 177.003
46.97000 176.196
46.98000 176.079
46.99000 176.165
47.00000 176.242
47.01000 176.858
47.02000 177.487
47.03000 178.713
47.04000 182.677
47.05000 186.981
47.06000 187.875
47.07000 178.244
47.08000 167.869
47.09000 160.765
47.10000 167.956
47.11000 173.683
47.12000 174.204
47.13000 167.308
47.14000 160.358
47.15000 159.356
47.16000 163.885
47.17000 168.374
47.18000 167.452
47.19000 163.278
47.20000 159.337
47.21000 160.832
47.22000 164.603
47.23000 167.885
47.24000 165.524
47.25000 161.554
47.26000 158.018
47.27000 161.818
47.28000 166.328
47.29000 170.244
47.30000 171.532
47.31000 172.508
47.32000 173.207
47.33000 173.081
47.34000 172.900
47.35000 172.778
47.36000 167.891
47.37000 164.147
47.38000 161.550
47.39000 160.525
47.40000 159.512
47.41000 160.736
47.42000 163.959
47.43000 167.151
47.44000 166.239
47.45000 162.962
47.46000 160.013
47.47000 164.116
47.48000 171.071
47.49000 177.126
47.50000 173.313
47.51000 166.786
47.52000 161.005
47.53000 162.607
47.54000 165.156
47.55000 167.161
47.56000 166.850
47.57000 166.276
47.58000 164.952
47.59000 161.471
47.60000 157.854
47.61000 155.437
47.62000 164.620
47.63000 171.652
47.64000 171.397
47.65000 161.504
47.66000 151.579
47.67000 150.706
47.68000 157.608
47.69000 164.432
47.70000 167.013
47.71000 167.159
47.72000 167.110
47.73000 163.182
47.74000 157.740
47.75000 152.962
47.76000 155.096
47.77000 159.064
47.78000 162.559
47.79000 162.703
47.80000 162.322
47.81000 161.690
47.82000 160.022
47.83000 158.241
47.84000 158.359
47.85000 163.745
47.86000 169.440
47.87000 173.198
47.88000 164.349
47.89000 157.603
47.90000 154.035
47.91000 154.512
47.92000 155.002
47.93000 154.921
47.94000 154.369
47.95000 153.824
47.96000 154.977
47.97000 157.013
47.98000 159.076
47.99000 161.644
48.00000 164.402
48.01000 166.593
48.02000 163.170
48.03000 158.312
48.04000 154.057
48.05000 157.249
48.06000 161.059
48.07000 164.276
48.08000 165.146
48.09000 165.775
48.10000 166.102
48.11000 165.621
48.12000 165.095
48.13000 164.753
48.14000 164.975
48.15000 165.147
48.16000 164.443
48.17000 162.666
48.18000 160.890
48.19000 160.405
48.20000 160.944
48.21000 161.476
48.22000 160.981
48.23000 159.969
48.24000 159.208
48.25000 162.815
48.26000 168.013
48.27000 172.325
48.28000 168.302
48.29000 162.224
48.30000 156.933
48.31000 158.679
48.32000 161.139
48.33000 163.282
48.34000 164.221
48.35000 165.042
48.36000 165.855
48.37000 166.649
48.38000 167.441
48.39000 167.951
48.40000 163.692
48.41000 160.520
48.42000 157.496
48.43000 154.645
48.44000 151.808
48.45000 151.889
48.46000 154.204
48.47000 156.482
48.48000 158.635
48.49000 160.656
48.50000 162.699
48.51000 165.101
48.52000 167.629
48.53000 169.457
48.54000 165.004
48.55000 159.059
48.56000 153.915
48.57000 158.912
48.58000 164.492
48.59000 168.038
48.60000 164.101
48.61000 159.470
48.62000 157.327
48.63000 161.405
48.64000 165.780
48.65000 168.554
48.66000 161.105
48.67000 155.577
48.68000 152.289
48.69000 151.543
48.70000 150.808
48.71000 151.727
48.72000 153.864
48.73000 155.962
48.74000 156.014
48.75000 155.083
48.76000 154.215
48.77000 154.319
48.78000 154.752
48.79000 155.214
48.80000 155.919
48.81000 156.679
48.82000 157.333
48.83000 161.616
48.84000 165.695
48.85000 169.026
48.86000 169.697
48.87000 170.134
48.88000 167.895
48.89000 159.193
48.90000 150.206
48.91000 144.589
48.92000 149.252
48.93000 152.726
48.94000 154.542
48.95000 154.551
48.96000 154.555
48.97000 153.974
48.98000 152.977
48.99000 152.001
49.00000 151.471
49.01000 151.169
49.02000 150.879
49.03000 150.774
49.04000 150.730
49.05000 150.876
49.06000 152.582
49.07000 154.631
49.08000 156.382
49.09000 158.205
49.10000 159.750
49.11000 161.096
49.12000 161.766
49.13000 162.379
49.14000 161.886
49.15000 158.817
49.16000 155.642
49.17000 153.686
49.18000 149.814
49.19000 147.019
49.20000 147.917
49.21000 152.682
49.22000 157.437
49.23000 160.973
49.24000 163.674
49.25000 166.314
49.26000 162.722
49.27000 156.512
49.28000 150.581
49.29000 148.454
49.30000 147.531
49.31000 146.767
49.32000 147.243
49.33000 147.981
49.34000 148.609
49.35000 153.538
49.36000 158.162
49.37000 161.938
49.38000 162.909
49.39000 163.660
49.40000 162.477
49.41000 156.941
49.42000 151.241
49.43000 147.781
49.44000 156.304
49.45000 162.479
49.46000 161.474
49.47000 153.255
49.48000 145.097
49.49000 142.948
49.50000 144.764
49.51000 146.535
49.52000 149.295
49.53000 152.353
49.54000 155.056
49.55000 153.187
49.56000 149.921
49.57000 147.271
49.58000 149.205
49.59000 152.075
49.60000 154.495
49.61000 161.762
49.62000 168.356
49.63000 173.513
49.64000 174.092
49.65000 174.330
49.66000 171.198
49.67000 160.739
49.68000 150.026
49.69000 143.621
49.70000 155.042
49.71000 163.259
49.72000 165.806
49.73000 162.882
49.74000 159.949
49.75000 156.255
49.76000 152.077
49.77000 148.013
49.78000 146.057
49.79000 145.065
49.80000 144.211
49.81000 145.055
49.82000 146.400
49.83000 147.782
49.84000 149.441
49.85000 151.154
49.86000 152.588
49.87000 150.296
49.88000 148.007
49.89000 147.738
49.90000 153.682
49.91000 160.063
49.92000 162.579
49.93000 156.981
49.94000 151.126
49.95000 147.679
49.96000 145.172
49.97000 143.410
49.98000 145.419
49.99000 150.921
50.00000 156.357
50.01000 157.101
50.02000 154.965
50.03000 152.893
50.04000 150.569
50.05000 148.266
50.06000 146.273
50.07000 147.864
50.08000 150.474
50.09000 153.109
50.10000 155.914
50.11000 158.751
50.12000 161.111
50.13000 159.905
50.14000 158.559
50.15000 157.643
50.16000 158.006
50.17000 158.454
50.18000 157.822
50.19000 155.001
50.20000 152.116
50.21000 150.446
50.22000 157.639
50.23000 162.718
50.24000 163.595
50.25000 160.731
50.26000 157.894
50.27000 156.687
50.28000 156.445
50.29000 156.211
50.30000 156.686
50.31000 157.404
50.32000 158.050
50.33000 157.911
50.34000 157.557
50.35000 156.981
50.36000 154.953
50.37000 152.661
50.38000 150.769
50.39000 153.733
50.40000 156.625
50.41000 159.313
50.42000 161.414
50.43000 163.478
50.44000 165.518
50.45000 167.510
50.46000 169.501
50.47000 170.635
50.48000 166.884
50.49000 164.255
50.50000 162.914
50.51000 162.678
50.52000 162.420
50.53000 161.004
50.54000 158.925
50.55000 156.919
50.56000 160.766
50.57000 166.534
50.58000 171.581
50.59000 169.165
50.60000 164.775
50.61000 160.231
50.62000 154.716
50.63000 149.032
50.64000 144.375
50.65000 151.599
50.66000 158.570
50.67000 164.049
50.68000 165.399
50.69000 166.508
50.70000 168.433
50.71000 171.899
50.72000 175.401
50.73000 177.363
50.74000 172.983
50.75000 169.938
50.76000 169.009
50.77000 169.825
50.78000 170.596
50.79000 169.261
50.80000 166.764
50.81000 164.361
50.82000 164.033
50.83000 164.457
50.84000 164.722
50.85000 163.411
50.86000 161.699
50.87000 159.824
50.88000 156.975
50.89000 153.962
50.90000 151.512
50.91000 151.990
50.92000 152.624
50.93000 153.806
50.94000 156.453
50.95000 159.180
50.96000 161.991
50.97000 164.955
50.98000 167.923
50.99000 169.556
51.00000 158.740
51.01000 151.286
51.02000 149.034
51.03000 150.906
51.04000 152.819
51.05000 156.477
51.06000 161.066
51.07000 165.467
51.08000 162.557
51.09000 157.355
51.10000 152.588
51.11000 151.900
51.12000 152.215
51.13000 152.195
51.14000 150.242
51.15000 147.980
51.16000 146.154
51.17000 149.559
51.18000 152.738
51.19000 156.009
51.20000 159.515
51.21000 163.033
51.22000 163.107
51.23000 157.121
51.24000 151.022
51.25000 147.724
51.26000 156.936
51.27000 163.236
51.28000 164.837
51.29000 162.853
51.30000 160.842
51.31000 157.785
51.32000 154.191
51.33000 150.753
51.34000 149.521
51.35000 149.094
51.36000 148.488
51.37000 146.278
51.38000 143.688
51.39000 141.611
51.40000 142.380
51.41000 143.588
51.42000 144.554
51.43000 142.010
51.44000 139.691
51.45000 138.076
51.46000 138.217
51.47000 138.441
51.48000 138.153
51.49000 136.995
51.50000 135.823
51.51000 135.201
51.52000 132.093
51.53000 130.004
51.54000 132.630
51.55000 138.722
51.56000 144.624
51.57000 143.823
51.58000 139.697
51.59000 135.764
51.60000 135.166
51.61000 135.660
51.62000 136.598
51.63000 141.325
51.64000 146.917
51.65000 151.401
51.66000 149.974
51.67000 147.676
51.68000 145.852
51.69000 145.602
51.70000 145.512
51.71000 144.775
51.72000 142.478
51.73000 140.113
51.74000 138.886
51.75000 139.525
51.76000 140.190
51.77000 140.537
51.78000 139.396
51.79000 138.614
51.80000 136.484
51.81000 133.398
51.82000 130.478
51.83000 132.880
51.84000 137.831
51.85000 142.535
51.86000 142.413
51.87000 140.843
51.88000 139.574
51.89000 140.752
51.90000 142.469
51.91000 143.562
51.92000 141.460
51.93000 138.907
51.94000 136.898
51.95000 135.435
51.96000 134.300
51.97000 134.565
51.98000 138.083
51.99000 141.734
52.00000 144.289
52.01000 145.111
52.02000 145.911
52.03000 146.320
52.04000 147.739
52.05000 148.667
52.06000 146.789
52.07000 142.995
52.08000 139.311
52.09000 138.836
52.10000 139.845
52.11000 140.800
52.12000 140.844
52.13000 140.620
52.14000 140.458
52.15000 140.766
52.16000 141.175
52.17000 141.014
52.18000 138.048
52.19000 134.703
52.20000 132.094
52.21000 129.551
52.22000 127.529
52.23000 127.670
52.24000 132.666
52.25000 137.845
52.26000 140.563
52.27000 139.529
52.28000 138.455
52.29000 137.918
52.30000 143.363
52.31000 146.957
52.32000 146.948
52.33000 144.569
52.34000 142.172
52.35000 139.319
52.36000 136.261
52.37000 133.377
52.38000 133.809
52.39000 135.130
52.40000 136.689
52.41000 140.010
52.42000 143.688
52.43000 145.989
52.44000 141.755
52.45000 136.676
52.46000 132.748
52.47000 131.870
52.48000 131.352
52.49000 131.625
52.50000 133.612
52.51000 135.657
52.52000 136.818
52.53000 136.680
52.54000 136.530
52.55000 136.809
52.56000 137.502
52.57000 138.171
52.58000 136.936
52.59000 134.492
52.60000 132.223
52.61000 134.274
52.62000 138.188
52.63000 141.866
52.64000 142.111
52.65000 141.414
52.66000 140.865
52.67000 141.370
52.68000 142.082
52.69000 143.024
52.70000 145.017
52.71000 147.140
52.72000 148.767
52.73000 145.663
52.74000 142.950
52.75000 141.749
52.76000 143.713
52.77000 145.777
52.78000 146.818
52.79000 146.411
52.80000 145.993
52.81000 146.813
52.82000 148.775
52.83000 150.655
52.84000 146.757
52.85000 139.321
52.86000 132.175
52.87000 131.620
52.88000 133.812
52.89000 135.865
52.90000 137.476
52.91000 138.828
52.92000 140.698
52.93000 146.097
52.94000 152.160
52.95000 156.551
52.96000 153.589
52.97000 149.760
52.98000 146.853
52.99000 144.440
53.00000 142.570
53.01000 140.899
53.02000 139.632
53.03000 138.377
53.04000 137.998
53.05000 138.816
53.06000 139.640
53.07000 141.296
53.08000 143.690
53.09000 146.029
53.10000 145.090
53.11000 142.214
53.12000 139.479
53.13000 139.726
53.14000 141.171
53.15000 142.519
53.16000 142.129
53.17000 141.345
53.18000 140.910
53.19000 142.749
53.20000 145.000
53.21000 146.746
53.22000 146.357
53.23000 145.727
53.24000 145.253
53.25000 144.110
53.26000 143.184
53.27000 142.747
53.28000 143.267
53.29000 143.811
53.30000 143.553
53.31000 142.242
53.32000 140.927
53.33000 142.322
53.34000 146.022
53.35000 149.666
53.36000 150.327
53.37000 149.290
53.38000 148.264
53.39000 147.485
53.40000 146.801
53.41000 146.166
53.42000 148.130
53.43000 150.519
53.44000 152.872
53.45000 154.998
53.46000 157.085
53.47000 158.105
53.48000 154.773
53.49000 150.976
53.50000 148.147
53.51000 146.659
53.52000 145.560
53.53000 144.646
53.54000 144.077
53.55000 143.517
53.56000 142.361
53.57000 140.451
53.58000 138.542
53.59000 137.961
53.60000 138.469
53.61000 139.024
53.62000 141.805
53.63000 145.809
53.64000 149.524
53.65000 147.919
53.66000 144.319
53.67000 140.989
53.68000 139.733
53.69000 139.079
53.70000 138.684
53.71000 139.848
53.72000 141.270
53.73000 142.179
53.74000 141.065
53.75000 139.746
53.76000 138.772
53.77000 138.713
53.78000 138.705
53.79000 138.709
53.80000 138.736
53.81000 138.762
53.82000 137.561
53.83000 134.865
53.84000 132.171
53.85000 133.100
53.86000 136.874
53.87000 140.542
53.88000 139.662
53.89000 136.370
53.90000 133.421
53.91000 136.391
53.92000 141.506
53.93000 146.215
53.94000 144.363
53.95000 141.269
53.96000 139.042
53.97000 141.809
53.98000 145.375
53.99000 147.266
54.00000 142.804
54.01000 137.727
54.02000 134.020
54.03000 141.515
54.04000 147.729
54.05000 152.088
54.06000 153.194
54.07000 154.240
54.08000 153.255
54.09000 149.891
54.10000 146.533
54.11000 141.409
54.12000 134.985
54.13000 128.753
54.14000 129.948
54.15000 134.946
54.16000 139.663
54.17000 139.829
54.18000 138.403
54.19000 137.096
54.20000 138.423
54.21000 140.158
54.22000 141.313
54.23000 139.262
54.24000 136.719
54.25000 134.659
54.26000 134.367
54.27000 134.237
54.28000 134.143
54.29000 133.910
54.30000 133.726
54.31000 134.932
54.32000 138.494
54.33000 142.094
54.34000 145.191
54.35000 147.724
54.36000 150.247
54.37000 151.191
54.38000 150.979
54.39000 150.709
54.40000 148.396
54.41000 145.074
54.42000 141.965
54.43000 142.108
54.44000 143.349
54.45000 144.481
54.46000 142.041
54.47000 139.156
54.48000 136.836
54.49000 137.526
54.50000 138.657
54.51000 140.241
54.52000 143.423
54.53000 146.745
54.54000 149.119
54.55000 141.185
54.56000 134.787
54.57000 131.330
54.58000 132.679
54.59000 134.096
54.60000 135.390
54.61000 136.552
54.62000 137.709
54.63000 141.371
54.64000 146.748
54.65000 151.905
54.66000 150.091
54.67000 144.947
54.68000 140.182
54.69000 140.814
54.70000 143.206
54.71000 145.378
54.72000 146.709
54.73000 147.722
54.74000 147.931
54.75000 144.028
54.76000 139.546
54.77000 136.730
54.78000 139.582
54.79000 142.902
54.80000 145.249
54.81000 145.752
54.82000 146.078
54.83000 144.312
54.84000 139.249
54.85000 134.146
54.86000 132.273
54.87000 133.758
54.88000 135.237
54.89000 136.969
54.90000 138.852
54.91000 140.657
54.92000 140.228
54.93000 138.767
54.94000 137.553
54.95000 139.651
54.96000 142.790
54.97000 145.627
54.98000 148.415
54.99000 150.858
55.00000 152.611
55.01000 150.972
55.02000 148.877
55.03000 147.746
55.04000 149.779
55.05000 152.060
55.06000 153.654
55.07000 149.736
55.08000 146.621
55.09000 145.280
55.10000 146.631
55.11000 148.011
55.12000 149.285
55.13000 150.454
55.14000 151.615
55.15000 150.584
55.16000 148.150
55.17000 145.708
55.18000 143.021
55.19000 140.226
55.20000 137.878
55.21000 141.222
55.22000 146.295
55.23000 150.855
55.24000 152.672
55.25000 153.777
55.26000 154.947
55.27000 156.427
55.28000 157.947
55.29000 159.891
55.30000 163.177
55.31000 166.563
55.32000 168.902
55.33000 163.154
55.34000 158.626
55.35000 157.898
55.36000 162.736
55.37000 167.622
55.38000 168.982
55.39000 166.964
55.40000 164.962
55.41000 166.384
55.42000 169.911
55.43000 173.413
55.44000 176.284
55.45000 178.883
55.46000 181.601
55.47000 185.751
55.48000 190.321
55.49000 194.408
55.50000 196.798
55.51000 198.593
55.52000 200.205
55.53000 200.989
55.54000 201.670
55.55000 202.547
55.56000 204.019
55.57000 205.532
55.58000 206.566
55.59000 213.209
55.60000 218.309
55.61000 224.129
55.62000 230.966
55.63000 237.808
55.64000 240.906
55.65000 240.556
55.66000 240.210
55.67000 241.454
55.68000 243.625
55.69000 246.124
55.70000 256.071
55.71000 269.111
55.72000 281.733
55.73000 289.593
55.74000 296.107
55.75000 301.901
55.76000 302.896
55.77000 302.979
55.78000 303.803
55.79000 307.878
55.80000 312.334
55.81000 316.887
55.82000 321.726
55.83000 326.585
55.84000 329.862
55.85000 341.699
55.86000 350.688
55.87000 358.054
55.88000 363.212
55.89000 368.352
55.90000 367.892
55.91000 362.476
55.92000 357.117
55.93000 354.740
55.94000 354.133
55.95000 353.927
55.96000 362.178
55.97000 373.821
55.98000 383.839
55.99000 376.291
56.00000 363.956
56.01000 353.043
56.02000 354.846
56.03000 358.384
56.04000 358.469
56.05000 343.974
56.06000 327.847
56.07000 315.071
56.08000 311.844
56.09000 309.205
56.10000 307.447
56.11000 320.085
56.12000 329.714
56.13000 327.795
56.14000 310.750
56.15000 293.642
56.16000 279.757
56.17000 268.612
56.18000 257.599
56.19000 257.616
56.20000 263.743
56.21000 269.473
56.22000 267.391
56.23000 262.283
56.24000 256.855
56.25000 248.130
56.26000 238.538
56.27000 230.101
56.28000 223.842
56.29000 218.780
56.30000 214.123
56.31000 211.115
56.32000 208.284
56.33000 204.373
56.34000 197.493
56.35000 190.441
56.36000 185.804
56.37000 186.657
56.38000 187.379
56.39000 186.139
56.40000 182.425
56.41000 178.708
56.42000 177.110
56.43000 177.247
56.44000 177.381
56.45000 175.220
56.46000 171.893
56.47000 168.671
56.48000 167.354
56.49000 166.750
56.50000 165.902
56.51000 162.676
56.52000 158.847
56.53000 155.498
56.54000 152.805
56.55000 150.592
56.56000 148.514
56.57000 146.970
56.58000 145.480
56.59000 144.508
56.60000 144.912
56.61000 145.391
56.62000 145.702
56.63000 145.101
56.64000 144.648
56.65000 144.588
56.66000 145.004
56.67000 145.420
56.68000 145.460
56.69000 145.205
56.70000 144.954
56.71000 144.655
56.72000 144.341
56.73000 144.073
56.74000 144.592
56.75000 145.395
56.76000 146.188
56.77000 146.895
56.78000 147.581
56.79000 148.178
56.80000 141.059
56.81000 133.939
56.82000 129.092
56.83000 132.839
56.84000 137.416
56.85000 139.547
56.86000 135.406
56.87000 130.948
56.88000 128.093
56.89000 132.655
56.90000 136.077
56.91000 136.073
56.92000 132.068
56.93000 128.071
56.94000 127.040
56.95000 128.257
56.96000 129.453
56.97000 131.805
56.98000 134.650
56.99000 137.375
57.00000 138.163
57.01000 138.276
57.02000 138.283
57.03000 137.353
57.04000 136.203
57.05000 135.210
57.06000 137.039
57.07000 138.958
57.08000 139.274
57.09000 133.742
57.10000 127.674
57.11000 123.805
57.12000 125.388
57.13000 127.226
57.14000 128.386
57.15000 128.408
57.16000 128.411
57.17000 128.893
57.18000 129.915
57.19000 130.949
57.20000 133.984
57.21000 138.481
57.22000 142.892
57.23000 142.521
57.24000 139.891
57.25000 137.405
57.26000 137.094
57.27000 137.516
57.28000 137.851
57.29000 137.454
57.30000 136.892
57.31000 136.409
57.32000 132.587
57.33000 128.942
57.34000 126.754
57.35000 129.688
57.36000 133.068
57.37000 133.487
57.38000 126.822
57.39000 119.850
57.40000 115.508
57.41000 121.407
57.42000 125.762
57.43000 128.311
57.44000 128.911
57.45000 129.503
57.46000 129.203
57.47000 128.274
57.48000 127.365
57.49000 128.347
57.50000 130.156
57.51000 131.880
57.52000 132.392
57.53000 132.511
57.54000 132.283
57.55000 129.252
57.56000 125.609
57.57000 122.502
57.58000 126.696
57.59000 131.088
57.60000 134.130
57.61000 132.593
57.62000 130.679
57.63000 129.963
57.64000 132.012
57.65000 134.173
57.66000 135.499
57.67000 131.391
57.68000 128.400
57.69000 125.428
57.70000 122.476
57.71000 119.554
57.72000 119.926
57.73000 122.532
57.74000 125.078
57.75000 127.419
57.76000 129.570
57.77000 131.650
57.78000 132.779
57.79000 133.610
57.80000 134.003
57.81000 131.021
57.82000 127.330
57.83000 124.201
57.84000 123.599
57.85000 123.379
57.86000 124.365
57.87000 129.305
57.88000 134.552
57.89000 135.996
57.90000 128.954
57.91000 121.599
57.92000 117.150
57.93000 118.698
57.94000 119.845
57.95000 123.991
57.96000 131.121
57.97000 138.178
57.98000 138.444
57.99000 134.269
58.00000 130.200
58.01000 127.802
58.02000 126.221
58.03000 124.734
58.04000 124.429
58.05000 124.483
58.06000 124.468
58.07000 123.945
58.08000 123.319
58.09000 122.793
58.10000 125.832
58.11000 128.749
58.12000 130.168
58.13000 126.852
58.14000 123.189
58.15000 120.152
58.16000 118.464
58.17000 116.822
58.18000 115.844
58.19000 118.691
58.20000 120.732
58.21000 123.565
58.22000 127.155
58.23000 130.693
58.24000 130.147
58.25000 127.026
58.26000 123.992
58.27000 122.667
58.28000 122.104
58.29000 121.582
58.30000 121.560
58.31000 121.683
58.32000 121.902
58.33000 122.794
58.34000 123.818
58.35000 124.673
58.36000 118.570
58.37000 112.795
58.38000 110.252
58.39000 117.567
58.40000 125.565
58.41000 129.968
58.42000 126.891
58.43000 123.582
58.44000 121.642
58.45000 114.487
58.46000 109.425
58.47000 110.548
58.48000 117.346
58.49000 124.065
58.50000 125.347
58.51000 123.323
58.52000 121.360
58.53000 121.208
58.54000 121.773
58.55000 122.070
58.56000 119.317
58.57000 115.705
58.58000 112.637
58.59000 113.240
58.60000 114.528
58.61000 115.598
58.62000 119.254
58.63000 122.527
58.64000 124.888
58.65000 124.563
58.66000 124.063
58.67000 121.930
58.68000 116.515
58.69000 111.007
58.70000 107.830
58.71000 112.493
58.72000 115.788
58.73000 116.230
58.74000 114.159
58.75000 112.145
58.76000 113.604
58.77000 117.101
58.78000 120.483
58.79000 120.686
58.80000 119.678
58.81000 118.584
58.82000 116.561
58.83000 114.286
58.84000 112.255
58.85000 111.808
58.86000 111.644
58.87000 111.510
58.88000 112.621
58.89000 113.650
58.90000 114.140
58.91000 113.098
58.92000 111.962
58.93000 112.694
58.94000 117.046
58.95000 121.490
58.96000 124.012
58.97000 117.925
58.98000 113.666
58.99000 112.823
59.00000 114.874
59.01000 116.935
59.02000 119.457
59.03000 122.241
59.04000 124.926
59.05000 125.954
59.06000 126.319
59.07000 126.428
59.08000 123.909
59.09000 120.702
59.10000 117.857
59.11000 117.261
59.12000 117.052
59.13000 116.881
59.14000 120.696
59.15000 124.168
59.16000 125.915
59.17000 122.928
59.18000 119.670
59.19000 118.136
59.20000 119.832
59.21000 121.601
59.22000 122.588
59.23000 120.180
59.24000 118.507
59.25000 117.377
59.26000 116.689
59.27000 116.070
59.28000 118.616
59.29000 122.892
59.30000 127.005
59.31000 125.262
59.32000 121.583
59.33000 118.008
59.34000 115.447
59.35000 113.143
59.36000 111.625
59.37000 114.795
59.38000 118.741
59.39000 121.943
59.40000 121.559
59.41000 120.950
59.42000 120.579
59.43000 120.839
59.44000 121.132
59.45000 120.791
59.46000 119.301
59.47000 117.788
59.48000 116.959
59.49000 121.281
59.50000 124.245
59.51000 122.452
59.52000 116.925
59.53000 111.528
59.54000 111.576
59.55000 114.497
59.56000 117.297
59.57000 119.471
59.58000 121.291
59.59000 122.888
59.60000 122.423
59.61000 121.456
59.62000 120.183
59.63000 117.155
59.64000 113.849
59.65000 111.188
59.66000 113.357
59.67000 115.494
59.68000 117.294
59.69000 118.233
59.70000 119.130
59.71000 119.016
59.72000 117.141
59.73000 115.233
59.74000 114.206
59.75000 115.114
59.76000 115.731
59.77000 115.115
59.78000 113.568
59.79000 112.104
59.80000 113.765
59.81000 117.019
59.82000 120.128
59.83000 120.929
59.84000 120.929
59.85000 120.900
59.86000 120.618
59.87000 120.277
59.88000 119.732
59.89000 118.074
59.90000 116.247
59.91000 114.787
59.92000 116.763
59.93000 118.612
59.94000 120.453
59.95000 122.271
59.96000 124.089
59.97000 124.558
59.98000 122.758
59.99000 120.922
60.00000 119.953
60.01000 121.342
60.02000 122.280
60.03000 122.064
60.04000 121.008
60.05000 119.916
60.06000 117.615
60.07000 114.719
60.08000 111.960
60.09000 108.596
60.10000 105.291
60.11000 102.872
60.12000 107.917
60.13000 114.647
60.14000 120.241
60.15000 119.830
60.16000 118.543
60.17000 117.524
60.18000 113.034
60.19000 109.183
60.20000 108.316
60.21000 114.565
60.22000 121.122
60.23000 123.499
60.24000 119.092
60.25000 114.590
60.26000 112.258
60.27000 115.299
60.28000 117.342
60.29000 118.110
60.30000 117.983
60.31000 117.887
60.32000 118.739
60.33000 120.041
60.34000 121.276
60.35000 121.880
60.36000 122.247
60.37000 122.428
60.38000 121.102
60.39000 119.449
60.40000 118.328
60.41000 119.911
60.42000 121.870
60.43000 123.409
60.44000 119.500
60.45000 116.014
60.46000 114.187
60.47000 116.181
60.48000 118.327
60.49000 120.335
60.50000 122.125
60.51000 123.912
60.52000 124.820
60.53000 121.961
60.54000 120.040
60.55000 117.630
60.56000 114.889
60.57000 112.261
60.58000 112.874
60.59000 114.973
60.60000 116.959
60.61000 115.790
60.62000 113.810
60.63000 112.429
60.64000 115.655
60.65000 119.846
60.66000 122.903
60.67000 120.422
60.68000 117.201
60.69000 114.694
60.70000 118.262
60.71000 121.479
60.72000 122.837
60.73000 120.061
60.74000 117.132
60.75000 114.456
60.76000 112.159
60.77000 109.865
60.78000 111.733
60.79000 117.725
60.80000 123.672
60.81000 125.539
60.82000 124.744
60.83000 123.940
60.84000 122.885
60.85000 121.720
60.86000 120.621
60.87000 118.199
60.88000 115.616
60.89000 113.721
60.90000 116.883
60.91000 121.064
60.92000 124.112
60.93000 121.842
60.94000 118.892
60.95000 116.616
60.96000 118.293
60.97000 119.851
60.98000 120.550
60.99000 119.401
61.00000 118.191
61.01000 119.922
61.02000 125.934
61.03000 131.982
61.04000 133.201
61.05000 129.825
61.06000 126.474
61.07000 125.132
61.08000 125.053
61.09000 125.060
61.10000 127.171
61.11000 130.180
61.12000 133.006
61.13000 131.276
61.14000 128.488
61.15000 125.782
61.16000 123.652
61.17000 121.633
61.18000 119.866
61.19000 119.240
61.20000 118.753
61.21000 118.380
61.22000 122.529
61.23000 126.047
61.24000 128.700
61.25000 129.559
61.26000 130.362
61.27000 130.260
61.28000 128.888
61.29000 127.507
61.30000 126.662
61.31000 126.308
61.32000 125.944
61.33000 124.987
61.34000 123.670
61.35000 122.502
61.36000 124.656
61.37000 128.182
61.38000 131.481
61.39000 130.542
61.40000 128.609
61.41000 127.515
61.42000 132.075
61.43000 137.688
61.44000 141.476
61.45000 137.318
61.46000 132.234
61.47000 128.382
61.48000 135.539
61.49000 141.717
61.50000 147.691
61.51000 153.254
61.52000 158.806
61.53000 165.732
61.54000 174.517
61.55000 183.306
61.56000 195.707
61.57000 211.259
61.58000 226.729
61.59000 237.352
61.60000 245.139
61.61000 252.919
61.62000 260.535
61.63000 268.087
61.64000 275.123
61.65000 273.718
61.66000 270.378
61.67000 268.032
61.68000 272.091
61.69000 277.296
61.70000 281.367
61.71000 280.681
61.72000 279.466
61.73000 278.555
61.74000 278.992
61.75000 279.397
61.76000 276.343
61.77000 266.598
61.78000 256.684
61.79000 244.311
61.80000 228.736
61.81000 213.162
61.82000 198.826
61.83000 185.568
61.84000 172.404
61.85000 164.088
61.86000 158.511
61.87000 152.993
61.88000 148.626
61.89000 144.703
61.90000 141.064
61.91000 135.529
61.92000 130.098
61.93000 126.083
61.94000 130.833
61.95000 137.089
61.96000 142.357
61.97000 143.625
61.98000 144.470
61.99000 145.097
62.00000 138.648
62.01000 133.320
62.02000 132.170
62.03000 138.821
62.04000 145.649
62.05000 149.870
62.06000 150.825
62.07000 151.768
62.08000 148.753
62.09000 142.543
62.10000 136.405
62.11000 133.625
62.12000 132.676
62.13000 131.604
62.14000 128.290
62.15000 124.143
62.16000 120.312
62.17000 123.630
62.18000 128.222
62.19000 132.349
62.20000 133.710
62.21000 134.614
62.22000 135.034
62.23000 133.564
62.24000 131.903
62.25000 130.682
62.26000 128.400
62.27000 126.591
62.28000 125.754
62.29000 126.670
62.30000 127.622
62.31000 126.944
62.32000 124.301
62.33000 121.658
62.34000 123.157
62.35000 127.871
62.36000 132.458
62.37000 131.764
62.38000 128.294
62.39000 125.018
62.40000 125.056
62.41000 126.283
62.42000 127.412
62.43000 126.526
62.44000 125.298
62.45000 124.675
62.46000 127.506
62.47000 130.884
62.48000 132.247
62.49000 126.044
62.50000 119.117
62.51000 114.073
62.52000 123.226
62.53000 130.816
62.54000 134.356
62.55000 130.854
62.56000 127.226
62.57000 128.667
62.58000 135.987
62.59000 143.296
62.60000 146.884
62.61000 147.663
62.62000 148.327
62.63000 144.651
62.64000 138.771
62.65000 133.210
62.66000 132.736
62.67000 134.024
62.68000 135.203
62.69000 136.272
62.70000 137.200
62.71000 137.902
62.72000 137.369
62.73000 136.650
62.74000 135.273
62.75000 131.515
62.76000 127.540
62.77000 124.677
62.78000 128.522
62.79000 131.705
62.80000 133.641
62.81000 133.487
62.82000 133.299
62.83000 132.110
62.84000 129.803
62.85000 127.504
62.86000 128.039
62.87000 130.608
62.88000 133.071
62.89000 131.951
62.90000 129.073
62.91000 126.390
62.92000 126.616
62.93000 127.816
62.94000 128.909
62.95000 127.609
62.96000 125.980
62.97000 124.986
62.98000 127.340
62.99000 130.180
63.00000 132.754
63.01000 134.396
63.02000 135.959
63.03000 137.072
63.04000 133.004
63.05000 129.734
63.06000 128.007
63.07000 128.778
63.08000 129.583
63.09000 129.836
63.10000 129.498
63.11000 129.161
63.12000 130.811
63.13000 133.819
63.14000 136.741
63.15000 137.003
63.16000 136.007
63.17000 135.245
63.18000 137.792
63.19000 141.408
63.20000 144.686
63.21000 140.295
63.22000 134.953
63.23000 130.087
63.24000 127.626
63.25000 125.499
63.26000 124.737
63.27000 128.577
63.28000 132.794
63.29000 135.765
63.30000 130.048
63.31000 125.452
63.32000 124.630
63.33000 129.701
63.34000 134.842
63.35000 135.845
63.36000 132.588
63.37000 129.350
63.38000 129.167
63.39000 131.021
63.40000 132.818
63.41000 133.020
63.42000 132.494
63.43000 131.921
63.44000 130.721
63.45000 129.327
63.46000 128.069
63.47000 132.570
63.48000 137.581
63.49000 140.752
63.50000 134.969
63.51000 127.994
63.52000 123.942
63.53000 129.403
63.54000 135.597
63.55000 139.913
63.56000 133.615
63.57000 128.569
63.58000 127.082
63.59000 130.950
63.60000 134.871
63.61000 136.855
63.62000 136.924
63.63000 136.993
63.64000 137.259
63.65000 137.647
63.66000 138.041
63.67000 138.583
63.68000 139.191
63.69000 139.618
63.70000 137.783
63.71000 135.268
63.72000 133.009
63.73000 133.844
63.74000 135.117
63.75000 136.350
63.76000 137.396
63.77000 138.419
63.78000 140.071
63.79000 143.699
63.80000 147.471
63.81000 150.070
63.82000 146.894
63.83000 144.366
63.84000 141.251
63.85000 137.286
63.86000 133.315
63.87000 134.652
63.88000 141.023
63.89000 147.343
63.90000 146.315
63.91000 140.780
63.92000 135.511
63.93000 136.675
63.94000 140.582
63.95000 144.244
63.96000 144.996
63.97000 144.904
63.98000 144.822
63.99000 146.035
64.00000 147.311
64.01000 147.754
64.02000 144.447
64.03000 140.683
64.04000 139.057
64.05000 143.907
64.06000 149.202
64.07000 152.807
64.08000 161.273
64.09000 167.708
64.10000 168.171
64.11000 160.281
64.12000 152.337
64.13000 147.313
64.14000 144.950
64.15000 142.609
64.16000 142.273
64.17000 143.132
64.18000 144.066
64.19000 146.668
64.20000 149.957
64.21000 153.257
64.22000 156.673
64.23000 160.122
64.24000 163.185
64.25000 156.599
64.26000 149.335
64.27000 143.828
64.28000 145.957
64.29000 148.971
64.30000 150.529
64.31000 147.829
64.32000 144.853
64.33000 142.853
64.34000 145.823
64.35000 148.133
64.36000 147.976
64.37000 144.495
64.38000 141.002
64.39000 142.530
64.40000 148.456
64.41000 154.319
64.42000 158.809
64.43000 162.415
64.44000 165.767
64.45000 163.840
64.46000 159.815
64.47000 156.148
64.48000 156.313
64.49000 157.511
64.50000 158.570
64.51000 161.299
64.52000 163.911
64.53000 165.789
64.54000 164.592
64.55000 163.055
64.56000 162.019
64.57000 162.399
64.58000 162.865
64.59000 163.174
64.60000 167.932
64.61000 171.532
64.62000 171.605
64.63000 167.103
64.64000 162.587
64.65000 161.218
64.66000 162.499
64.67000 163.765
64.68000 163.707
64.69000 162.925
64.70000 162.334
64.71000 165.427
64.72000 169.934
64.73000 174.135
64.74000 175.229
64.75000 175.515
64.76000 175.766
64.77000 171.721
64.78000 167.611
64.79000 164.755
64.80000 166.953
64.81000 169.683
64.82000 171.213
64.83000 169.468
64.84000 167.537
64.85000 166.271
64.86000 168.136
64.87000 169.560
64.88000 172.999
64.89000 178.957
64.90000 184.909
64.91000 185.947
64.92000 183.001
64.93000 180.097
64.94000 181.554
64.95000 185.274
64.96000 188.919
64.97000 191.208
64.98000 192.995
64.99000 194.914
65.00000 198.121
65.01000 201.651
65.02000 204.734
65.03000 203.375
65.04000 201.588
65.05000 201.104
65.06000 205.685
65.07000 210.773
65.08000 213.777
65.09000 211.288
65.10000 208.509
65.11000 206.711
65.12000 210.371
65.13000 213.129
65.14000 211.535
65.15000 204.709
65.16000 197.904
65.17000 199.371
65.18000 207.293
65.19000 215.090
65.20000 219.841
65.21000 222.895
65.22000 225.812
65.23000 226.399
65.24000 226.153
65.25000 226.359
65.26000 230.713
65.27000 236.071
65.28000 240.721
65.29000 240.438
65.30000 239.533
65.31000 239.100
65.32000 240.434
65.33000 241.936
65.34000 244.371
65.35000 249.182
65.36000 254.111
65.37000 257.256
65.38000 254.349
65.39000 252.155
65.40000 251.859
65.41000 253.758
65.42000 255.681
65.43000 262.047
65.44000 271.751
65.45000 281.285
65.46000 278.909
65.47000 270.789
65.48000 263.481
65.49000 269.013
65.50000 278.982
65.51000 288.319
65.52000 292.118
65.53000 294.626
65.54000 296.790
65.55000 299.233
65.56000 301.341
65.57000 307.113
65.58000 326.121
65.59000 346.327
65.60000 361.886
65.61000 366.035
65.62000 369.660
65.63000 371.941
65.64000 400.845
65.65000 422.059
65.66000 452.700
65.67000 493.818
65.68000 535.078
65.69000 597.509
65.70000 675.261
65.71000 751.495
65.72000 854.210
65.73000 965.572
65.74000 1078.106
65.75000 1208.079
65.76000 1343.871
65.77000 1475.174
65.78000 1568.992
65.79000 1654.397
65.80000 1727.609
65.81000 1802.328
65.82000 1865.614
65.83000 1919.389
65.84000 1940.021
65.85000 1957.811
65.86000 1972.205
65.87000 1978.542
65.88000 1984.536
65.89000 1988.256
65.90000 1941.850
65.91000 1907.968
65.92000 1861.920
65.93000 1802.880
65.94000 1743.633
65.95000 1658.257
65.96000 1554.662
65.97000 1453.304
65.98000 1325.562
65.99000 1191.016
66.00000 1058.365
66.01000 952.261
66.02000 854.706
66.03000 759.348
66.04000 681.518
66.05000 607.475
66.06000 544.414
66.07000 507.270
66.08000 479.063
66.09000 452.796
66.10000 433.056
66.11000 413.844
66.12000 398.230
66.13000 390.855
66.14000 383.805
66.15000 379.493
66.16000 375.393
66.17000 372.461
66.18000 367.544
66.19000 360.590
66.20000 353.717
66.21000 355.345
66.22000 362.688
66.23000 369.856
66.24000 381.605
66.25000 394.840
66.26000 408.702
66.27000 430.861
66.28000 455.597
66.29000 479.483
66.30000 496.879
66.31000 512.926
66.32000 526.502
66.33000 540.504
66.34000 552.271
66.35000 565.392
66.36000 582.909
66.37000 600.764
66.38000 616.400
66.39000 627.128
66.40000 637.679
66.41000 644.035
66.42000 635.869
66.43000 629.957
66.44000 619.483
66.45000 604.518
66.46000 589.685
66.47000 586.632
66.48000 591.213
66.49000 595.674
66.50000 581.373
66.51000 559.869
66.52000 538.465
66.53000 518.310
66.54000 498.529
66.55000 478.366
66.56000 455.414
66.57000 431.905
66.58000 412.151
66.59000 410.942
66.60000 411.893
66.61000 409.408
66.62000 396.164
66.63000 382.141
66.64000 369.170
66.65000 358.448
66.66000 347.801
66.67000 341.485
66.68000 351.439
66.69000 358.576
66.70000 364.804
66.71000 370.171
66.72000 375.435
66.73000 372.753
66.74000 365.104
66.75000 357.673
66.76000 352.620
66.77000 348.781
66.78000 345.368
66.79000 346.983
66.80000 350.054
66.81000 352.699
66.82000 352.380
66.83000 351.490
66.84000 350.748
66.85000 351.412
66.86000 352.103
66.87000 353.146
66.88000 355.251
66.89000 357.428
66.90000 359.996
66.91000 363.370
66.92000 366.769
66.93000 368.754
66.94000 369.294
66.95000 369.667
66.96000 370.315
66.97000 371.211
66.98000 372.096
66.99000 372.230
67.00000 371.910
67.01000 371.600
67.02000 374.230
67.03000 377.862
67.04000 380.785
67.05000 375.778
67.06000 368.557
67.07000 362.683
67.08000 365.815
67.09000 370.614
67.10000 374.589
67.11000 385.802
67.12000 395.750
67.13000 400.350
67.14000 389.348
67.15000 377.345
67.16000 367.512
67.17000 362.000
67.18000 356.607
67.19000 353.509
67.20000 374.265
67.21000 388.853
67.22000 391.244
67.23000 382.987
67.24000 374.865
67.25000 374.560
67.26000 378.802
67.27000 382.901
67.28000 392.918
67.29000 404.577
67.30000 415.004
67.31000 412.335
67.32000 406.139
67.33000 400.542
67.34000 398.780
67.35000 397.700
67.36000 396.811
67.37000 396.930
67.38000 397.120
67.39000 398.377
67.40000 402.641
67.41000 407.087
67.42000 409.867
67.43000 409.447
67.44000 408.947
67.45000 408.664
67.46000 402.948
67.47000 398.966
67.48000 399.176
67.49000 402.904
67.50000 406.627
67.51000 410.085
67.52000 413.395
67.53000 416.584
67.54000 417.437
67.55000 417.398
67.56000 418.189
67.57000 427.365
67.58000 438.718
67.59000 448.371
67.60000 447.583
67.61000 445.013
67.62000 442.915
67.63000 445.036
67.64000 447.134
67.65000 447.841
67.66000 444.770
67.67000 441.485
67.68000 441.774
67.69000 448.697
67.70000 455.768
67.71000 459.694
67.72000 453.304
67.73000 448.877
67.74000 447.444
67.75000 448.432
67.76000 449.624
67.77000 460.100
67.78000 475.604
67.79000 490.502
67.80000 489.882
67.81000 483.933
67.82000 478.714
67.83000 480.510
67.84000 484.061
67.85000 486.022
67.86000 478.605
67.87000 469.653
67.88000 462.403
67.89000 473.343
67.90000 483.729
67.91000 492.296
67.92000 496.082
67.93000 499.616
67.94000 500.134
67.95000 495.248
67.96000 490.254
67.97000 487.529
67.98000 500.257
67.99000 508.992
68.00000 511.196
68.01000 508.320
68.02000 505.522
68.03000 505.883
68.04000 507.896
68.05000 509.825
68.06000 515.759
68.07000 522.627
68.08000 529.041
68.09000 531.304
68.10000 532.565
68.11000 533.818
68.12000 535.024
68.13000 536.224
68.14000 537.187
68.15000 536.843
68.16000 536.463
68.17000 539.437
68.18000 550.917
68.19000 562.815
68.20000 566.034
68.21000 554.251
68.22000 542.204
68.23000 535.751
68.24000 542.108
68.25000 546.470
68.26000 553.443
68.27000 562.373
68.28000 571.225
68.29000 577.242
68.30000 581.826
68.31000 586.203
68.32000 591.062
68.33000 595.731
68.34000 600.480
68.35000 605.926
68.36000 611.534
68.37000 616.586
68.38000 618.615
68.39000 620.188
68.40000 621.442
68.41000 627.344
68.42000 632.444
68.43000 635.504
68.44000 633.570
68.45000 631.407
68.46000 634.114
68.47000 644.939
68.48000 655.891
68.49000 661.648
68.50000 679.295
68.51000 691.251
68.52000 701.077
68.53000 709.366
68.54000 718.031
68.55000 739.272
68.56000 766.643
68.57000 792.694
68.58000 806.685
68.59000 815.922
68.60000 827.670
68.61000 860.311
68.62000 897.628
68.63000 933.068
68.64000 958.702
68.65000 982.922
68.66000 1002.065
68.67000 1056.711
68.68000 1103.022
68.69000 1149.419
68.70000 1196.018
68.71000 1242.625
68.72000 1286.583
68.73000 1326.277
68.74000 1365.915
68.75000 1386.354
68.76000 1461.215
68.77000 1511.549
68.78000 1549.367
68.79000 1578.484
68.80000 1608.078
68.81000 1652.262
68.82000 1703.314
68.83000 1751.735
68.84000 1832.199
68.85000 1915.872
68.86000 2002.377
68.87000 2111.377
68.88000 2225.222
68.89000 2367.815
68.90000 2654.926
68.91000 2961.995
68.92000 3202.642
68.93000 4241.831
68.94000 5123.896
68.95000 6387.431
68.96000 8522.268
68.97000 10691.143
68.98000 13329.586
68.99000 16696.654
69.00000 20072.088
69.01000 21778.318
69.02000 26776.873
69.03000 30115.871
69.04000 32869.863
69.05000 35231.848
69.06000 37564.473
69.07000 39075.602
69.08000 40213.375
69.09000 41288.723
69.10000 42031.527
69.11000 42619.059
69.12000 43212.145
69.13000 43847.414
69.14000 44491.434
69.15000 45148.242
69.16000 45866.922
69.17000 46593.773
69.18000 47158.445
69.19000 46738.254
69.20000 46344.215
69.21000 45334.211
69.22000 42965.566
69.23000 40548.082
69.24000 37874.133
69.25000 34816.480
69.26000 31755.146
69.27000 29345.650
69.28000 27575.742
69.29000 25810.932
69.30000 24494.996
69.31000 23469.074
69.32000 22460.830
69.33000 21907.650
69.34000 21554.188
69.35000 21221.340
69.36000 20767.547
69.37000 20319.361
69.38000 19809.965
69.39000 18855.994
69.40000 17813.350
69.41000 16631.770
69.42000 14803.546
69.43000 12893.668
69.44000 11423.156
69.45000 9390.115
69.46000 7748.590
69.47000 6292.691
69.48000 5232.155
69.49000 4184.647
69.50000 3343.317
69.51000 2799.332
69.52000 2257.797
69.53000 1897.710
69.54000 1708.632
69.55000 1520.359
69.56000 1392.837
69.57000 1303.169
69.58000 1214.431
69.59000 1147.813
69.60000 1090.571
69.61000 1036.871
69.62000 986.839
69.63000 942.221
69.64000 899.929
69.65000 873.816
69.66000 850.806
69.67000 828.205
69.68000 807.438
69.69000 786.892
69.70000 771.217
69.71000 757.414
69.72000 746.640
69.73000 731.717
69.74000 708.261
69.75000 684.549
69.76000 668.339
69.77000 662.556
69.78000 656.843
69.79000 651.589
69.80000 646.756
69.81000 641.822
69.82000 630.349
69.83000 614.946
69.84000 599.791
69.85000 590.117
69.86000 582.686
69.87000 575.742
69.88000 570.485
69.89000 566.141
69.90000 561.859
69.91000 557.994
69.92000 554.205
69.93000 548.706
69.94000 535.823
69.95000 522.091
69.96000 511.712
69.97000 508.029
69.98000 505.476
69.99000 502.837
70.00000 500.026
