20.00000 474.511
20.01000 477.820
20.02000 481.603
20.03000 483.831
20.04000 479.943
20.05000 475.433
20.06000 472.106
20.07000 476.568
20.08000 480.352
20.09000 479.396
20.10000 469.821
20.11000 460.066
20.12000 454.389
20.13000 453.677
20.14000 452.978
20.15000 456.653
20.16000 463.749
20.17000 470.741
20.18000 473.295
20.19000 473.492
20.20000 473.691
20.21000 473.932
20.22000 474.188
20.23000 474.423
20.24000 474.392
20.25000 474.306
20.26000 474.136
20.27000 473.482
20.28000 472.750
20.29000 470.411
20.30000 461.980
20.31000 452.958
20.32000 446.372
20.33000 463.498
20.34000 477.625
20.35000 483.776
20.36000 475.932
20.37000 467.828
20.38000 461.652
20.39000 457.735
20.40000 453.832
20.41000 454.130
20.42000 457.603
20.43000 461.173
20.44000 468.499
20.45000 477.750
20.46000 486.200
20.47000 481.706
20.48000 472.685
20.49000 464.417
20.50000 468.783
20.51000 475.328
20.52000 480.569
20.53000 478.598
20.54000 475.521
20.55000 472.021
20.56000 466.977
20.57000 461.791
20.58000 458.044
20.59000 460.333
20.60000 462.306
20.61000 464.159
20.62000 465.807
20.63000 467.452
20.64000 464.289
20.65000 455.712
20.66000 447.158
20.67000 451.981
20.68000 466.489
20.69000 480.500
20.70000 477.234
20.71000 465.420
20.72000 454.550
20.73000 458.019
20.74000 466.329
20.75000 473.912
20.76000 463.924
20.77000 451.521
20.78000 440.796
20.79000 438.989
20.80000 438.493
20.81000 439.444
20.82000 445.502
20.83000 452.005
20.84000 456.654
20.85000 456.510
20.86000 456.241
20.87000 457.257
20.88000 460.374
20.89000 463.521
20.90000 464.037
20.91000 461.705
20.92000 459.382
20.93000 456.688
20.94000 453.762
20.95000 450.922
20.96000 450.825
20.97000 452.037
20.98000 453.594
20.99000 460.070
21.00000 468.150
21.01000 475.487
21.02000 465.283
21.03000 452.879
21.04000 444.274
21.05000 455.088
21.06000 468.633
21.07000 479.454
21.08000 481.004
21.09000 481.787
21.10000 482.340
21.11000 473.348
21.12000 466.227
21.13000 460.289
21.14000 456.218
21.15000 452.170
21.16000 451.941
21.17000 455.683
21.18000 459.406
21.19000 461.220
21.20000 461.727
21.21000 462.298
21.22000 464.710
21.23000 467.970
21.24000 471.025
21.25000 471.315
21.26000 470.735
21.27000 470.211
21.28000 464.996
21.29000 459.540
21.30000 455.569
21.31000 458.900
21.32000 463.213
21.33000 464.037
21.34000 453.405
21.35000 441.877
21.36000 433.820
21.37000 439.878
21.38000 444.853
21.39000 449.803
21.40000 454.716
21.41000 459.629
21.42000 460.106
21.43000 456.154
21.44000 452.227
21.45000 446.977
21.46000 440.946
21.47000 435.283
21.48000 439.401
21.49000 447.878
21.50000 456.027
21.51000 460.022
21.52000 462.754
21.53000 465.211
21.54000 460.318
21.55000 454.730
21.56000 451.961
21.57000 462.530
21.58000 474.817
21.59000 482.527
21.60000 475.733
21.61000 467.869
21.62000 462.435
21.63000 456.316
21.64000 451.697
21.65000 449.176
21.66000 449.727
21.67000 450.304
21.68000 455.731
21.69000 465.805
21.70000 475.802
21.71000 482.743
21.72000 487.666
21.73000 492.285
21.74000 489.405
21.75000 483.299
21.76000 477.359
21.77000 473.396
21.78000 470.012
21.79000 466.987
21.80000 472.857
21.81000 479.488
21.82000 484.339
21.83000 481.084
21.84000 476.832
21.85000 475.077
21.86000 480.959
21.87000 487.372
21.88000 491.751
21.89000 503.164
21.90000 511.864
21.91000 514.525
21.92000 508.662
21.93000 502.742
21.94000 506.442
21.95000 518.997
21.96000 531.440
21.97000 533.558
21.98000 529.455
21.99000 525.739
22.00000 530.840
22.01000 539.602
22.02000 547.927
22.03000 551.256
22.04000 553.173
22.05000 554.879
22.06000 544.416
22.07000 533.351
22.08000 524.176
22.09000 523.287
22.10000 523.370
22.11000 525.507
22.12000 533.704
22.13000 542.298
22.14000 548.095
22.15000 538.883
22.16000 531.711
22.17000 525.596
22.18000 520.921
22.19000 516.255
22.20000 513.126
22.21000 511.355
22.22000 509.603
22.23000 509.272
22.24000 509.767
22.25000 510.164
22.26000 508.504
22.27000 506.018
22.28000 503.591
22.29000 501.815
22.30000 500.215
22.31000 498.800
22.32000 488.845
22.33000 478.909
22.34000 473.726
22.35000 488.613
22.36000 505.746
22.37000 514.039
22.38000 497.129
22.39000 478.667
22.40000 466.367
22.41000 470.056
22.42000 473.091
22.43000 472.095
22.44000 465.818
22.45000 459.525
22.46000 458.082
22.47000 460.768
22.48000 463.421
22.49000 467.883
22.50000 473.237
22.51000 478.062
22.52000 472.497
22.53000 462.907
22.54000 454.496
22.55000 458.206
22.56000 465.102
22.57000 471.168
22.58000 466.831
22.59000 461.549
22.60000 456.852
22.61000 454.533
22.62000 452.467
22.63000 448.383
22.64000 438.741
22.65000 428.779
22.66000 422.227
22.67000 415.821
22.68000 411.107
22.69000 415.322
22.70000 430.801
22.71000 446.296
22.72000 453.620
22.73000 454.254
22.74000 454.880
22.75000 451.045
22.76000 444.935
22.77000 438.945
22.78000 435.152
22.79000 432.181
22.80000 429.464
22.81000 429.221
22.82000 429.606
22.83000 429.942
22.84000 432.823
22.85000 435.653
22.86000 437.072
22.87000 432.960
22.88000 428.286
22.89000 425.258
22.90000 426.605
22.91000 428.188
22.92000 429.216
22.93000 419.483
22.94000 412.190
22.95000 413.911
22.96000 426.574
22.97000 439.235
22.98000 444.351
22.99000 443.522
23.00000 442.707
23.01000 440.436
23.02000 437.487
23.03000 434.670
23.04000 434.112
23.05000 434.370
23.06000 434.223
23.07000 430.308
23.08000 425.473
23.09000 421.269
23.10000 423.189
23.11000 425.659
23.12000 425.873
23.13000 417.555
23.14000 408.413
23.15000 402.304
23.16000 403.979
23.17000 406.046
23.18000 407.370
23.19000 426.069
23.20000 439.924
23.21000 441.730
23.22000 429.468
23.23000 417.232
23.24000 415.143
23.25000 420.751
23.26000 426.264
23.27000 425.761
23.28000 422.303
23.29000 418.849
23.30000 415.437
23.31000 412.039
23.32000 409.531
23.33000 414.898
23.34000 422.117
23.35000 428.356
23.36000 431.980
23.37000 434.718
23.38000 435.045
23.39000 426.577
23.40000 417.303
23.41000 409.385
23.42000 404.827
23.43000 400.426
23.44000 397.646
23.45000 408.693
23.46000 416.859
23.47000 419.357
23.48000 415.492
23.49000 411.681
23.50000 417.773
23.51000 431.101
23.52000 444.175
23.53000 444.985
23.54000 439.935
23.55000 435.016
23.56000 432.074
23.57000 429.798
23.58000 428.076
23.59000 431.033
23.60000 435.050
23.61000 438.499
23.62000 438.640
23.63000 438.349
23.64000 439.368
23.65000 444.992
23.66000 451.016
23.67000 451.885
23.68000 440.416
23.69000 428.411
23.70000 420.933
23.71000 432.231
23.72000 440.563
23.73000 445.841
23.74000 447.823
23.75000 449.783
23.76000 448.966
23.77000 446.193
23.78000 443.479
23.79000 442.470
23.80000 442.281
23.81000 441.935
23.82000 439.358
23.83000 436.055
23.84000 434.393
23.85000 445.968
23.86000 460.432
23.87000 472.771
23.88000 468.130
23.89000 462.220
23.90000 458.229
23.91000 460.749
23.92000 463.805
23.93000 465.951
23.94000 465.992
23.95000 465.949
23.96000 465.923
23.97000 466.009
23.98000 466.071
23.99000 466.701
24.00000 467.919
24.01000 469.113
24.02000 467.637
24.03000 464.350
24.04000 461.139
24.05000 461.399
24.06000 463.175
24.07000 464.717
24.08000 463.109
24.09000 460.513
24.10000 458.711
24.11000 463.033
24.12000 468.642
24.13000 473.395
24.14000 473.876
24.15000 473.799
24.16000 471.048
24.17000 459.540
24.18000 447.350
24.19000 438.156
24.20000 435.645
24.21000 433.382
24.22000 432.014
24.23000 454.552
24.24000 470.788
24.25000 471.957
24.26000 458.138
24.27000 444.379
24.28000 436.280
24.29000 431.885
24.30000 427.601
24.31000 433.344
24.32000 443.070
24.33000 451.497
24.34000 443.458
24.35000 430.436
24.36000 418.826
24.37000 417.625
24.38000 418.529
24.39000 419.290
24.40000 414.617
24.41000 410.139
24.42000 407.172
24.43000 408.980
24.44000 411.139
24.45000 413.882
24.46000 417.884
24.47000 421.929
24.48000 424.338
24.49000 417.388
24.50000 412.406
24.51000 409.161
24.52000 407.575
24.53000 406.003
24.54000 405.532
24.55000 405.756
24.56000 405.973
24.57000 411.269
24.58000 418.374
24.59000 424.771
24.60000 422.682
24.61000 418.114
24.62000 413.772
24.63000 411.027
24.64000 408.594
24.65000 406.559
24.66000 404.861
24.67000 403.484
24.68000 401.820
24.69000 399.278
24.70000 396.674
24.71000 396.787
24.72000 402.554
24.73000 408.496
24.74000 411.980
24.75000 411.291
24.76000 410.786
24.77000 410.391
24.78000 410.098
24.79000 409.775
24.80000 407.389
24.81000 403.746
24.82000 400.214
24.83000 406.413
24.84000 416.104
24.85000 424.736
24.86000 421.335
24.87000 414.545
24.88000 408.647
24.89000 408.789
24.90000 410.059
24.91000 411.113
24.92000 403.833
24.93000 397.010
24.94000 393.324
24.95000 398.878
24.96000 405.033
24.97000 408.379
24.98000 406.077
24.99000 403.616
25.00000 402.196
25.01000 397.466
25.02000 394.143
25.03000 392.844
25.04000 393.330
25.05000 393.825
25.06000 394.812
25.07000 396.087
25.08000 397.320
25.09000 398.778
25.10000 400.239
25.11000 401.177
25.12000 396.490
25.13000 390.274
25.14000 385.599
25.15000 390.904
25.16000 398.002
25.17000 403.850
25.18000 401.637
25.19000 399.076
25.20000 398.930
25.21000 405.647
25.22000 412.783
25.23000 416.093
25.24000 411.979
25.25000 407.676
25.26000 405.234
25.27000 389.414
25.28000 378.379
25.29000 378.913
25.30000 389.260
25.31000 399.556
25.32000 407.145
25.33000 413.201
25.34000 419.042
25.35000 412.565
25.36000 401.997
25.37000 392.248
25.38000 390.864
25.39000 391.673
25.40000 392.863
25.41000 396.424
25.42000 400.394
25.43000 403.641
25.44000 400.518
25.45000 397.406
25.46000 393.423
25.47000 387.051
25.48000 380.542
25.49000 376.105
25.50000 375.547
25.51000 375.078
25.52000 374.817
25.53000 381.673
25.54000 386.419
25.55000 385.514
25.56000 379.998
25.57000 374.709
25.58000 380.060
25.59000 391.227
25.60000 401.965
25.61000 400.181
25.62000 394.133
25.63000 389.290
25.64000 396.163
25.65000 405.995
25.66000 413.840
25.67000 409.840
25.68000 403.879
25.69000 399.041
25.70000 401.502
25.71000 404.109
25.72000 404.446
25.73000 398.764
25.74000 392.759
25.75000 390.572
25.76000 395.284
25.77000 400.138
25.78000 402.798
25.79000 391.993
25.80000 384.566
25.81000 383.954
25.82000 388.696
25.83000 393.329
25.84000 393.429
25.85000 391.137
25.86000 388.940
25.87000 389.377
25.88000 390.672
25.89000 391.776
25.90000 391.111
25.91000 390.016
25.92000 388.765
25.93000 386.620
25.94000 384.334
25.95000 382.493
25.96000 388.609
25.97000 394.193
25.98000 397.461
25.99000 394.798
26.00000 391.840
26.01000 389.377
26.02000 387.780
26.03000 386.198
26.04000 385.347
26.05000 380.010
26.06000 376.371
26.07000 375.388
26.08000 376.414
26.09000 377.402
26.10000 376.971
26.11000 375.816
26.12000 374.712
26.13000 379.068
26.14000 384.885
26.15000 389.334
26.16000 381.709
26.17000 371.252
26.18000 362.405
26.19000 362.404
26.20000 363.750
26.21000 364.825
26.22000 369.937
26.23000 374.364
26.24000 375.892
26.25000 370.258
26.26000 364.291
26.27000 362.247
26.28000 366.808
26.29000 371.474
26.30000 373.939
26.31000 372.746
26.32000 371.969
26.33000 377.047
26.34000 386.390
26.35000 395.292
26.36000 389.051
26.37000 375.363
26.38000 362.325
26.39000 364.466
26.40000 371.172
26.41000 377.151
26.42000 377.018
26.43000 375.504
26.44000 374.441
26.45000 375.763
26.46000 377.433
26.47000 378.755
26.48000 380.824
26.49000 382.539
26.50000 382.082
26.51000 376.445
26.52000 370.584
26.53000 370.175
26.54000 378.621
26.55000 387.190
26.56000 391.631
26.57000 382.897
26.58000 377.051
26.59000 377.777
26.60000 383.115
26.61000 388.200
26.62000 385.405
26.63000 378.868
26.64000 372.662
26.65000 367.393
26.66000 362.811
26.67000 359.217
26.68000 363.560
26.69000 369.629
26.70000 374.927
26.71000 376.309
26.72000 377.143
26.73000 377.798
26.74000 380.154
26.75000 382.150
26.76000 385.633
26.77000 392.540
26.78000 399.584
26.79000 398.283
26.80000 383.913
26.81000 369.386
26.82000 362.005
26.83000 366.902
26.84000 370.175
26.85000 372.285
26.86000 373.608
26.87000 374.914
26.88000 375.743
26.89000 376.352
26.90000 376.928
26.91000 380.088
26.92000 383.736
26.93000 386.474
26.94000 382.228
26.95000 376.520
26.96000 371.984
26.97000 373.178
26.98000 375.138
26.99000 376.665
27.00000 381.039
27.01000 384.699
27.02000 385.944
27.03000 381.814
27.04000 377.486
27.05000 375.759
27.06000 377.958
27.07000 380.198
27.08000 377.604
27.09000 370.218
27.10000 362.895
27.11000 361.421
27.12000 363.761
27.13000 366.051
27.14000 367.026
27.15000 367.419
27.16000 367.790
27.17000 362.598
27.18000 356.306
27.19000 351.626
27.20000 358.777
27.21000 368.312
27.22000 374.806
27.23000 367.013
27.24000 357.394
27.25000 349.972
27.26000 358.862
27.27000 366.854
27.28000 371.203
27.29000 367.719
27.30000 363.971
27.31000 360.899
27.32000 358.810
27.33000 356.729
27.34000 359.540
27.35000 367.006
27.36000 374.428
27.37000 378.448
27.38000 380.330
27.39000 381.863
27.40000 374.958
27.41000 364.446
27.42000 354.574
27.43000 355.815
27.44000 359.898
27.45000 364.312
27.46000 371.058
27.47000 378.255
27.48000 382.299
27.49000 372.077
27.50000 360.114
27.51000 350.966
27.52000 364.650
27.53000 376.686
27.54000 383.571
27.55000 379.770
27.56000 375.640
27.57000 373.978
27.58000 375.782
27.59000 377.609
27.60000 377.272
27.61000 374.959
27.62000 372.680
27.63000 372.761
27.64000 374.273
27.65000 375.679
27.66000 374.721
27.67000 372.786
27.68000 370.977
27.69000 373.396
27.70000 376.672
27.71000 379.154
27.72000 376.284
27.73000 372.418
27.74000 367.817
27.75000 360.015
27.76000 351.840
27.77000 345.647
27.78000 348.739
27.79000 351.639
27.80000 354.059
27.81000 355.517
27.82000 356.948
27.83000 355.917
27.84000 351.557
27.85000 347.181
27.86000 345.104
27.87000 345.047
27.88000 345.106
27.89000 352.011
27.90000 362.921
27.91000 373.327
27.92000 373.212
27.93000 368.900
27.94000 364.884
27.95000 364.318
27.96000 364.652
27.97000 365.782
27.98000 372.056
27.99000 379.251
28.00000 383.663
28.01000 376.397
28.02000 367.834
28.03000 361.408
28.04000 361.869
28.05000 362.557
28.06000 359.976
28.07000 351.071
28.08000 342.007
28.09000 338.926
28.10000 343.635
28.11000 348.373
28.12000 353.715
28.13000 359.554
28.14000 365.214
28.15000 361.486
28.16000 352.456
28.17000 343.831
28.18000 343.053
28.19000 345.298
28.20000 347.380
28.21000 347.642
28.22000 347.450
28.23000 347.693
28.24000 350.632
28.25000 354.033
28.26000 356.886
28.27000 357.517
28.28000 357.913
28.29000 358.207
28.30000 355.991
28.31000 354.157
28.32000 350.074
28.33000 341.790
28.34000 333.412
28.35000 333.585
28.36000 344.476
28.37000 355.385
28.38000 360.011
28.39000 359.530
28.40000 359.026
28.41000 357.451
28.42000 355.293
28.43000 353.106
28.44000 350.384
28.45000 347.464
28.46000 344.766
28.47000 346.303
28.48000 348.640
28.49000 350.340
28.50000 348.259
28.51000 345.555
28.52000 342.888
28.53000 340.369
28.54000 337.865
28.55000 336.023
28.56000 350.658
28.57000 362.661
28.58000 366.087
28.59000 354.055
28.60000 341.709
28.61000 337.857
28.62000 344.248
28.63000 350.648
28.64000 353.865
28.65000 354.587
28.66000 355.272
28.67000 354.442
28.68000 352.815
28.69000 350.987
28.70000 345.751
28.71000 339.291
28.72000 333.349
28.73000 333.945
28.74000 335.896
28.75000 337.449
28.76000 336.735
28.77000 335.663
28.78000 335.662
28.79000 339.687
28.80000 344.098
28.81000 347.310
28.82000 350.203
28.83000 352.417
28.84000 354.520
28.85000 356.428
28.86000 358.333
28.87000 354.134
28.88000 342.853
28.89000 331.593
28.90000 330.378
28.91000 336.692
28.92000 342.926
28.93000 346.165
28.94000 347.884
28.95000 349.604
28.96000 351.356
28.97000 353.119
28.98000 354.733
28.99000 356.697
29.00000 358.518
29.01000 359.963
29.02000 359.348
29.03000 358.421
29.04000 357.557
29.05000 356.926
29.06000 356.315
29.07000 355.875
29.08000 353.360
29.09000 351.359
29.10000 350.277
29.11000 350.734
29.12000 351.215
29.13000 351.383
29.14000 351.201
29.15000 351.019
29.16000 353.673
29.17000 358.346
29.18000 362.834
29.19000 361.036
29.20000 356.155
29.21000 351.263
29.22000 346.199
29.23000 341.076
29.24000 336.408
29.25000 336.288
29.26000 337.088
29.27000 338.005
29.28000 339.534
29.29000 341.152
29.30000 343.183
29.31000 346.657
29.32000 350.256
29.33000 352.822
29.34000 352.304
29.35000 351.809
29.36000 349.241
29.37000 343.319
29.38000 337.351
29.39000 337.172
29.40000 343.198
29.41000 349.199
29.42000 349.960
29.43000 347.086
29.44000 344.400
29.45000 347.546
29.46000 353.453
29.47000 358.906
29.48000 357.979
29.49000 354.990
29.50000 352.279
29.51000 347.525
29.52000 342.941
29.53000 340.180
29.54000 346.650
29.55000 354.405
29.56000 360.618
29.57000 361.634
29.58000 362.226
29.59000 362.644
29.60000 354.977
29.61000 348.920
29.62000 345.616
29.63000 346.613
29.64000 347.661
29.65000 347.696
29.66000 346.688
29.67000 345.687
29.68000 346.523
29.69000 348.573
29.70000 350.668
29.71000 354.030
29.72000 357.970
29.73000 361.431
29.74000 358.522
29.75000 353.628
29.76000 349.211
29.77000 351.283
29.78000 354.292
29.79000 356.867
29.80000 357.327
29.81000 357.505
29.82000 358.219
29.83000 360.680
29.84000 363.275
29.85000 365.084
29.86000 368.465
29.87000 371.059
29.88000 373.044
29.89000 374.111
29.90000 375.169
29.91000 374.693
29.92000 372.700
29.93000 370.720
29.94000 370.157
29.95000 370.511
29.96000 370.940
29.97000 373.333
29.98000 376.594
29.99000 379.629
30.00000 379.820
30.01000 379.157
30.02000 378.561
30.03000 377.272
30.04000 376.023
30.05000 374.914
30.06000 374.463
30.07000 374.095
30.08000 373.997
30.09000 374.747
30.10000 375.559
30.11000 376.118
30.12000 371.763
30.13000 368.371
30.14000 363.261
30.15000 355.659
30.16000 348.039
30.17000 348.906
30.18000 357.827
30.19000 366.677
30.20000 365.719
30.21000 358.734
30.22000 351.930
30.23000 349.464
30.24000 348.847
30.25000 348.515
30.26000 351.561
30.27000 355.589
30.28000 359.186
30.29000 359.686
30.30000 359.601
30.31000 357.598
30.32000 346.949
30.33000 335.249
30.34000 328.253
30.35000 335.519
30.36000 343.762
30.37000 349.374
30.38000 343.322
30.39000 338.535
30.40000 337.816
30.41000 342.787
30.42000 347.794
30.43000 346.697
30.44000 340.036
30.45000 333.437
30.46000 336.817
30.47000 346.044
30.48000 354.916
30.49000 355.848
30.50000 353.512
30.51000 351.496
30.52000 353.085
30.53000 355.684
30.54000 357.992
30.55000 358.933
30.56000 359.530
30.57000 358.803
30.58000 352.330
30.59000 345.191
30.60000 340.183
30.61000 341.415
30.62000 343.049
30.63000 344.148
30.64000 354.436
30.65000 362.271
30.66000 365.890
30.67000 363.827
30.68000 361.732
30.69000 357.865
30.70000 352.447
30.71000 347.086
30.72000 349.998
30.73000 357.561
30.74000 364.604
30.75000 360.886
30.76000 352.889
30.77000 345.638
30.78000 346.355
30.79000 349.225
30.80000 351.760
30.81000 354.890
30.82000 357.685
30.83000 360.342
30.84000 362.425
30.85000 364.444
30.86000 367.321
30.87000 372.620
30.88000 378.067
30.89000 381.684
30.90000 391.100
30.91000 398.169
30.92000 401.164
30.93000 398.873
30.94000 396.567
30.95000 397.585
30.96000 401.404
30.97000 405.177
30.98000 406.624
30.99000 406.758
31.00000 407.276
31.01000 415.200
31.02000 425.968
31.03000 436.707
31.04000 447.151
31.05000 457.518
31.06000 466.625
31.07000 487.690
31.08000 507.559
31.09000 526.919
31.10000 544.228
31.11000 561.320
31.12000 578.706
31.13000 596.893
31.14000 615.126
31.15000 627.079
31.16000 674.592
31.17000 710.120
31.18000 736.994
31.19000 753.056
31.20000 769.124
31.21000 799.426
31.22000 841.267
31.23000 882.526
31.24000 909.134
31.25000 927.255
31.26000 945.717
31.27000 970.344
31.28000 997.256
31.29000 1023.828
31.30000 1047.113
31.31000 1069.572
31.32000 1089.185
31.33000 1112.328
31.34000 1132.633
31.35000 1150.556
31.36000 1159.224
31.37000 1166.965
31.38000 1174.192
31.39000 1180.065
31.40000 1185.865
31.41000 1189.618
31.42000 1140.674
31.43000 1104.100
31.44000 1073.498
31.45000 1050.076
31.46000 1026.663
31.47000 1001.656
31.48000 975.406
31.49000 949.567
31.50000 918.712
31.51000 886.268
31.52000 854.364
31.53000 831.556
31.54000 812.004
31.55000 791.462
31.56000 761.815
31.57000 729.964
31.58000 702.316
31.59000 672.905
31.60000 647.607
31.61000 622.044
31.62000 595.493
31.63000 568.847
31.64000 545.241
31.65000 529.368
31.66000 513.877
31.67000 503.989
31.68000 496.284
31.69000 490.707
31.70000 482.548
31.71000 471.404
31.72000 460.269
31.73000 451.814
31.74000 445.373
31.75000 439.045
31.76000 431.552
31.77000 423.745
31.78000 415.884
31.79000 407.165
31.80000 398.150
31.81000 389.378
31.82000 382.740
31.83000 376.600
31.84000 371.302
31.85000 365.112
31.86000 359.746
31.87000 356.800
31.88000 362.597
31.89000 369.185
31.90000 373.171
31.91000 370.765
31.92000 368.065
31.93000 366.365
31.94000 363.656
31.95000 361.684
31.96000 358.952
31.97000 355.373
31.98000 351.797
31.99000 348.792
32.00000 346.199
32.01000 343.656
32.02000 338.448
32.03000 332.179
32.04000 326.844
32.05000 335.403
32.06000 348.597
32.07000 359.607
32.08000 352.372
32.09000 341.040
32.10000 331.326
32.11000 331.550
32.12000 332.955
32.13000 332.768
32.14000 327.035
32.15000 320.827
32.16000 316.894
32.17000 318.358
32.18000 320.052
32.19000 321.103
32.20000 334.319
32.21000 343.948
32.22000 345.051
32.23000 337.049
32.24000 329.072
32.25000 324.658
32.26000 322.729
32.27000 320.842
32.28000 322.422
32.29000 325.509
32.30000 328.241
32.31000 325.997
32.32000 322.150
32.33000 319.027
32.34000 321.682
32.35000 325.587
32.36000 328.912
32.37000 326.227
32.38000 323.269
32.39000 321.220
32.40000 322.232
32.41000 323.492
32.42000 324.622
32.43000 325.456
32.44000 326.279
32.45000 326.782
32.46000 325.071
32.47000 323.828
32.48000 320.262
32.49000 314.311
32.50000 308.409
32.51000 307.561
32.52000 310.111
32.53000 312.600
32.54000 314.062
32.55000 315.011
32.56000 315.717
32.57000 313.198
32.58000 309.677
32.59000 306.560
32.60000 306.530
32.61000 307.141
32.62000 307.658
32.63000 306.805
32.64000 305.940
32.65000 305.002
32.66000 303.834
32.67000 302.647
32.68000 302.630
32.69000 305.202
32.70000 307.867
32.71000 309.473
32.72000 300.689
32.73000 294.365
32.74000 295.910
32.75000 305.201
32.76000 314.440
32.77000 318.909
32.78000 320.288
32.79000 321.632
32.80000 329.335
32.81000 339.347
32.82000 349.947
32.83000 367.875
32.84000 388.003
32.85000 407.437
32.86000 421.818
32.87000 435.187
32.88000 446.421
32.89000 452.485
32.90000 456.991
32.91000 464.499
32.92000 481.410
32.93000 499.002
32.94000 510.163
32.95000 507.585
32.96000 504.551
32.97000 502.752
32.98000 505.236
32.99000 507.019
33.00000 505.842
33.01000 501.868
33.02000 497.861
33.03000 491.269
33.04000 483.061
33.05000 475.088
33.06000 453.873
33.07000 428.374
33.08000 404.285
33.09000 396.871
33.10000 394.284
33.11000 390.445
33.12000 377.869
33.13000 363.611
33.14000 351.713
33.15000 344.149
33.16000 338.310
33.17000 331.731
33.18000 322.913
33.19000 313.942
33.20000 307.415
33.21000 305.931
33.22000 304.600
33.23000 303.823
33.24000 308.639
33.25000 312.051
33.26000 310.447
33.27000 304.286
33.28000 298.187
33.29000 296.144
33.30000 296.547
33.31000 296.937
33.32000 295.742
33.33000 293.995
33.34000 292.785
33.35000 297.589
33.36000 304.074
33.37000 309.057
33.38000 304.010
33.39000 297.106
33.40000 291.387
33.41000 283.629
33.42000 277.030
33.43000 274.159
33.44000 282.170
33.45000 290.878
33.46000 295.096
33.47000 290.372
33.48000 285.401
33.49000 282.545
33.50000 282.472
33.51000 282.430
33.52000 280.769
33.53000 277.695
33.54000 274.690
33.55000 275.695
33.56000 279.033
33.57000 282.258
33.58000 283.197
33.59000 283.227
33.60000 283.081
33.61000 281.061
33.62000 278.535
33.63000 276.969
33.64000 281.547
33.65000 287.218
33.66000 291.882
33.67000 287.849
33.68000 283.747
33.69000 282.491
33.70000 289.255
33.71000 296.502
33.72000 300.833
33.73000 299.556
33.74000 298.140
33.75000 297.339
33.76000 293.329
33.77000 290.536
33.78000 289.947
33.79000 291.208
33.80000 292.445
33.81000 292.475
33.82000 291.827
33.83000 291.203
33.84000 294.795
33.85000 299.687
33.86000 303.835
33.87000 300.465
33.88000 295.144
33.89000 290.581
33.90000 290.677
33.91000 291.569
33.92000 292.297
33.93000 293.392
33.94000 294.320
33.95000 295.817
33.96000 298.861
33.97000 301.992
33.98000 302.693
33.99000 298.883
34.00000 294.971
34.01000 292.799
34.02000 296.474
34.03000 299.017
34.04000 298.748
34.05000 296.208
34.06000 293.826
34.07000 298.619
34.08000 307.301
34.09000 315.643
34.10000 314.192
34.11000 309.445
34.12000 305.763
34.13000 312.311
34.14000 321.421
34.15000 328.382
34.16000 322.678
34.17000 314.898
34.18000 308.597
34.19000 312.657
34.20000 316.805
34.21000 319.728
34.22000 319.435
34.23000 318.972
34.24000 315.900
34.25000 308.152
34.26000 300.310
34.27000 296.032
34.28000 303.031
34.29000 307.847
34.30000 310.989
34.31000 312.828
34.32000 314.618
34.33000 314.349
34.34000 313.003
34.35000 311.714
34.36000 312.241
34.37000 313.336
34.38000 314.767
34.39000 319.268
34.40000 324.508
34.41000 328.031
34.42000 321.822
34.43000 314.085
34.44000 307.867
34.45000 320.564
34.46000 332.310
34.47000 338.605
34.48000 331.075
34.49000 322.866
34.50000 317.817
34.51000 318.234
34.52000 318.748
34.53000 319.023
34.54000 313.582
34.55000 309.886
34.56000 310.237
34.57000 313.621
34.58000 316.811
34.59000 312.880
34.60000 305.353
34.61000 298.165
34.62000 295.565
34.63000 294.619
34.64000 293.294
34.65000 288.665
34.66000 283.269
34.67000 279.732
34.68000 286.307
34.69000 294.406
34.70000 300.861
34.71000 291.295
34.72000 282.414
34.73000 276.802
34.74000 279.198
34.75000 281.960
34.76000 285.335
34.77000 289.732
34.78000 294.145
34.79000 296.466
34.80000 285.720
34.81000 278.489
34.82000 280.676
34.83000 289.659
34.84000 298.246
34.85000 293.613
34.86000 282.534
34.87000 271.989
34.88000 269.917
34.89000 270.609
34.90000 271.764
34.91000 276.780
34.92000 282.661
34.93000 286.974
34.94000 283.091
34.95000 278.026
34.96000 274.022
34.97000 275.911
34.98000 277.831
34.99000 280.849
35.00000 286.460
35.01000 292.181
35.02000 296.374
35.03000 298.107
35.04000 299.808
35.05000 300.685
35.06000 272.169
35.07000 253.072
35.08000 248.718
35.09000 254.614
35.10000 260.446
35.11000 264.316
35.12000 267.262
35.13000 270.056
35.14000 273.663
35.15000 277.230
35.16000 279.748
35.17000 273.934
35.18000 266.325
35.19000 259.912
35.20000 259.517
35.21000 259.954
35.22000 260.296
35.23000 258.539
35.24000 256.999
35.25000 256.296
35.26000 257.506
35.27000 258.791
35.28000 258.427
35.29000 255.503
35.30000 252.550
35.31000 251.057
35.32000 266.386
35.33000 276.573
35.34000 279.452
35.35000 277.434
35.36000 275.256
35.37000 268.633
35.38000 259.990
35.39000 251.821
35.40000 253.607
35.41000 258.081
35.42000 262.474
35.43000 266.254
35.44000 269.905
35.45000 273.177
35.46000 274.607
35.47000 275.794
35.48000 276.716
35.49000 269.217
35.50000 262.741
35.51000 256.762
35.52000 251.880
35.53000 247.038
35.54000 246.901
35.55000 253.804
35.56000 260.775
35.57000 263.530
35.58000 262.148
35.59000 260.827
35.60000 264.810
35.61000 272.221
35.62000 279.110
35.63000 272.556
35.64000 260.101
35.65000 248.372
35.66000 245.439
35.67000 245.163
35.68000 245.512
35.69000 250.405
35.70000 256.205
35.71000 261.469
35.72000 264.240
35.73000 266.696
35.74000 268.587
35.75000 267.636
35.76000 266.720
35.77000 265.045
35.78000 261.752
35.79000 258.404
35.80000 256.923
35.81000 258.134
35.82000 259.367
35.83000 257.699
35.84000 253.299
35.85000 248.943
35.86000 247.918
35.87000 248.968
35.88000 250.129
35.89000 253.923
35.90000 258.832
35.91000 263.438
35.92000 264.506
35.93000 264.548
35.94000 263.708
35.95000 256.731
35.96000 248.577
35.97000 242.797
35.98000 247.652
35.99000 253.791
36.00000 258.474
36.01000 257.753
36.02000 256.895
36.03000 255.317
36.04000 252.261
36.05000 249.160
36.06000 250.805
36.07000 259.048
36.08000 267.331
36.09000 267.514
36.10000 260.370
36.11000 253.300
36.12000 251.061
36.13000 251.727
36.14000 252.372
36.15000 252.541
36.16000 252.516
36.17000 252.492
36.18000 251.007
36.19000 249.289
36.20000 248.036
36.21000 249.880
36.22000 252.295
36.23000 253.847
36.24000 251.675
36.25000 249.075
36.26000 247.109
36.27000 251.179
36.28000 254.672
36.29000 257.612
36.30000 259.453
36.31000 261.264
36.32000 261.662
36.33000 260.168
36.34000 258.666
36.35000 256.061
36.36000 252.504
36.37000 248.976
36.38000 247.112
36.39000 246.212
36.40000 245.521
36.41000 249.104
36.42000 254.375
36.43000 259.282
36.44000 259.350
36.45000 258.238
36.46000 257.357
36.47000 257.953
36.48000 258.812
36.49000 259.373
36.50000 258.699
36.51000 257.890
36.52000 257.284
36.53000 263.610
36.54000 268.870
36.55000 270.893
36.56000 266.712
36.57000 262.378
36.58000 258.238
36.59000 254.349
36.60000 250.465
36.61000 248.208
36.62000 247.314
36.63000 246.433
36.64000 246.163
36.65000 246.235
36.66000 246.386
36.67000 248.037
36.68000 250.261
36.69000 252.322
36.70000 248.245
36.71000 243.145
36.72000 239.522
36.73000 244.937
36.74000 251.890
36.75000 256.885
36.76000 254.028
36.77000 250.352
36.78000 247.627
36.79000 250.075
36.80000 252.202
36.81000 254.156
36.82000 255.790
36.83000 257.418
36.84000 260.547
36.85000 265.543
36.86000 270.535
36.87000 268.199
36.88000 259.993
36.89000 251.970
36.90000 252.170
36.91000 256.812
36.92000 261.435
36.93000 265.725
36.94000 269.892
36.95000 273.737
36.96000 272.899
36.97000 271.100
36.98000 269.101
36.99000 265.924
37.00000 262.553
37.01000 260.939
37.02000 266.106
37.03000 271.948
37.04000 276.234
37.05000 269.097
37.06000 263.119
37.07000 259.684
37.08000 260.792
37.09000 261.990
37.10000 262.150
37.11000 261.070
37.12000 259.991
37.13000 260.843
37.14000 263.180
37.15000 265.486
37.16000 266.521
37.17000 266.894
37.18000 266.925
37.19000 261.241
37.20000 253.524
37.21000 246.434
37.22000 249.883
37.23000 255.223
37.24000 259.407
37.25000 257.070
37.26000 253.712
37.27000 251.346
37.28000 252.675
37.29000 254.353
37.30000 255.572
37.31000 252.979
37.32000 250.843
37.33000 249.720
37.34000 250.344
37.35000 250.998
37.36000 252.216
37.37000 254.080
37.38000 255.939
37.39000 259.276
37.40000 263.684
37.41000 267.835
37.42000 262.552
37.43000 252.520
37.44000 242.948
37.45000 240.592
37.46000 240.715
37.47000 240.828
37.48000 248.185
37.49000 256.217
37.50000 262.756
37.51000 261.205
37.52000 258.440
37.53000 255.618
37.54000 252.587
37.55000 249.538
37.56000 247.347
37.57000 246.683
37.58000 246.227
37.59000 245.039
37.60000 242.632
37.61000 240.206
37.62000 240.142
37.63000 242.686
37.64000 245.222
37.65000 248.379
37.66000 251.948
37.67000 255.302
37.68000 251.480
37.69000 244.170
37.70000 237.246
37.71000 236.021
37.72000 236.686
37.73000 237.290
37.74000 239.899
37.75000 242.603
37.76000 245.222
37.77000 247.393
37.78000 249.500
37.79000 251.329
37.80000 252.196
37.81000 252.981
37.82000 253.539
37.83000 245.633
37.84000 239.342
37.85000 235.844
37.86000 236.825
37.87000 237.865
37.88000 239.450
37.89000 241.613
37.90000 243.765
37.91000 242.483
37.92000 238.861
37.93000 235.539
37.94000 241.292
37.95000 251.304
37.96000 260.311
37.97000 255.373
37.98000 245.970
37.99000 237.452
38.00000 240.468
38.01000 245.309
38.02000 248.860
38.03000 245.943
38.04000 242.137
38.05000 240.242
38.06000 244.740
38.07000 249.751
38.08000 253.274
38.09000 255.966
38.10000 257.980
38.11000 258.392
38.12000 256.324
38.13000 254.227
38.14000 253.975
38.15000 255.601
38.16000 257.218
38.17000 257.068
38.18000 255.755
38.19000 254.478
38.20000 254.178
38.21000 254.323
38.22000 254.791
38.23000 259.501
38.24000 265.523
38.25000 270.950
38.26000 269.145
38.27000 266.248
38.28000 264.408
38.29000 267.662
38.30000 271.585
38.31000 276.499
38.32000 284.606
38.33000 292.956
38.34000 298.759
38.35000 299.052
38.36000 299.124
38.37000 304.436
38.38000 317.563
38.39000 330.765
38.40000 344.031
38.41000 357.360
38.42000 370.596
38.43000 388.966
38.44000 410.305
38.45000 431.239
38.46000 441.848
38.47000 447.938
38.48000 454.937
38.49000 473.191
38.50000 494.802
38.51000 514.179
38.52000 548.835
38.53000 581.772
38.54000 614.792
38.55000 648.195
38.56000 681.647
38.57000 712.823
38.58000 736.911
38.59000 760.490
38.60000 776.686
38.61000 807.643
38.62000 831.218
38.63000 854.632
38.64000 877.815
38.65000 900.996
38.66000 924.020
38.67000 946.896
38.68000 969.585
38.69000 982.835
38.70000 990.087
38.71000 997.553
38.72000 1010.076
38.73000 1024.736
38.74000 1037.925
38.75000 1033.879
38.76000 1024.875
38.77000 1016.844
38.78000 980.010
38.79000 943.172
38.80000 909.037
38.81000 886.979
38.82000 866.373
38.83000 846.976
38.84000 831.213
38.85000 815.696
38.86000 805.165
38.87000 743.165
38.88000 695.768
38.89000 658.083
38.90000 633.854
38.91000 609.711
38.92000 584.372
38.93000 557.955
38.94000 531.791
38.95000 507.730
38.96000 485.399
38.97000 462.965
38.98000 438.255
38.99000 412.616
39.00000 388.145
39.01000 376.630
39.02000 368.711
39.03000 361.687
39.04000 338.648
39.05000 316.140
39.06000 295.017
39.07000 279.849
39.08000 265.364
39.09000 254.556
39.10000 254.416
39.11000 254.954
39.12000 255.314
39.13000 241.872
39.14000 231.619
39.15000 225.667
39.16000 225.456
39.17000 225.277
39.18000 226.938
39.19000 230.197
39.20000 233.420
39.21000 237.636
39.22000 242.313
39.23000 246.759
39.24000 246.493
39.25000 244.370
39.26000 242.204
39.27000 239.590
39.28000 236.856
39.29000 234.443
39.30000 237.894
39.31000 241.763
39.32000 244.693
39.33000 243.734
39.34000 242.349
39.35000 241.377
39.36000 241.559
39.37000 241.809
39.38000 241.975
39.39000 238.047
39.40000 235.073
39.41000 233.474
39.42000 233.642
39.43000 233.814
39.44000 232.945
39.45000 231.207
39.46000 229.490
39.47000 225.469
39.48000 220.300
39.49000 215.537
39.50000 218.466
39.51000 224.323
39.52000 230.095
39.53000 235.009
39.54000 239.703
39.55000 243.819
39.56000 238.218
39.57000 231.994
39.58000 226.537
39.59000 224.144
39.60000 222.070
39.61000 221.721
39.62000 226.037
39.63000 230.613
39.64000 233.603
39.65000 235.293
39.66000 236.513
39.67000 235.847
39.68000 232.848
39.69000 229.848
39.70000 228.958
39.71000 229.762
39.72000 230.555
39.73000 229.395
39.74000 227.249
39.75000 224.952
39.76000 219.997
39.77000 214.065
39.78000 209.135
39.79000 213.751
39.80000 220.742
39.81000 226.838
39.82000 228.587
39.83000 229.478
39.84000 229.627
39.85000 226.923
39.86000 223.936
39.87000 222.186
39.88000 223.665
39.89000 225.312
39.90000 226.375
39.91000 225.898
39.92000 225.528
39.93000 224.792
39.94000 223.620
39.95000 222.452
39.96000 222.377
39.97000 223.146
39.98000 223.903
39.99000 225.066
40.00000 226.397
40.01000 227.547
40.02000 225.703
40.03000 222.796
40.04000 219.861
40.05000 216.674
40.06000 213.426
40.07000 210.611
40.08000 215.214
40.09000 220.117
40.10000 224.221
40.11000 225.362
40.12000 226.224
40.13000 225.771
40.14000 222.004
40.15000 218.075
40.16000 215.576
40.17000 223.400
40.18000 229.213
40.19000 229.777
40.20000 224.332
40.21000 218.883
40.22000 213.859
40.23000 209.151
40.24000 204.528
40.25000 208.658
40.26000 216.884
40.27000 224.537
40.28000 223.266
40.29000 218.937
40.30000 215.514
40.31000 219.923
40.32000 226.140
40.33000 231.495
40.34000 222.822
40.35000 213.694
40.36000 206.935
40.37000 208.661
40.38000 211.144
40.39000 212.527
40.40000 211.233
40.41000 209.818
40.42000 208.930
40.43000 211.051
40.44000 212.617
40.45000 212.690
40.46000 211.123
40.47000 209.568
40.48000 210.057
40.49000 212.014
40.50000 213.931
40.51000 211.842
40.52000 207.965
40.53000 204.370
40.54000 204.923
40.55000 206.848
40.56000 208.646
40.57000 209.402
40.58000 209.925
40.59000 210.372
40.60000 214.853
40.61000 219.119
40.62000 222.630
40.63000 223.530
40.64000 224.208
40.65000 222.909
40.66000 216.959
40.67000 210.814
40.68000 207.015
40.69000 208.675
40.70000 209.920
40.71000 210.773
40.72000 211.213
40.73000 211.647
40.74000 211.439
40.75000 210.787
40.76000 210.150
40.77000 210.554
40.78000 211.408
40.79000 212.016
40.80000 209.215
40.81000 205.326
40.82000 201.652
40.83000 199.668
40.84000 198.046
40.85000 196.667
40.86000 199.980
40.87000 203.301
40.88000 206.686
40.89000 210.279
40.90000 213.889
40.91000 214.826
40.92000 209.690
40.93000 204.320
40.94000 201.048
40.95000 205.673
40.96000 209.042
40.97000 208.513
40.98000 204.029
40.99000 199.582
41.00000 198.833
41.01000 200.549
41.02000 202.223
41.03000 204.425
41.04000 206.757
41.05000 209.034
41.06000 210.600
41.07000 211.947
41.08000 212.789
41.09000 209.816
41.10000 206.058
41.11000 202.883
41.12000 199.900
41.13000 197.426
41.14000 196.190
41.15000 198.936
41.16000 201.982
41.17000 203.788
41.18000 202.872
41.19000 201.860
41.20000 201.253
41.21000 210.766
41.22000 217.593
41.23000 217.668
41.24000 211.162
41.25000 204.712
41.26000 203.051
41.27000 204.468
41.28000 205.846
41.29000 206.006
41.30000 205.651
41.31000 205.687
41.32000 210.524
41.33000 216.790
41.34000 221.975
41.35000 219.368
41.36000 215.218
41.37000 211.736
41.38000 215.324
41.39000 219.048
41.40000 221.383
41.41000 219.406
41.42000 217.123
41.43000 215.206
41.44000 214.069
41.45000 212.956
41.46000 212.299
41.47000 205.936
41.48000 201.410
41.49000 199.463
41.50000 199.929
41.51000 200.379
41.52000 199.587
41.53000 198.025
41.54000 196.509
41.55000 194.677
41.56000 192.812
41.57000 191.454
41.58000 196.009
41.59000 202.260
41.60000 207.065
41.61000 201.891
41.62000 194.815
41.63000 188.920
41.64000 192.919
41.65000 197.213
41.66000 201.475
41.67000 205.645
41.68000 209.808
41.69000 211.235
41.70000 207.067
41.71000 202.733
41.72000 200.213
41.73000 207.077
41.74000 211.937
41.75000 213.153
41.76000 211.091
41.77000 209.018
41.78000 206.268
41.79000 203.112
41.80000 200.056
41.81000 199.555
41.82000 200.064
41.83000 200.861
41.84000 204.839
41.85000 209.697
41.86000 213.705
41.87000 212.094
41.88000 209.453
41.89000 207.269
41.90000 206.803
41.91000 206.580
41.92000 206.620
41.93000 207.420
41.94000 208.268
41.95000 208.563
41.96000 207.765
41.97000 206.938
41.98000 206.465
41.99000 199.852
42.00000 195.218
42.01000 194.066
42.02000 195.923
42.03000 197.789
42.04000 200.120
42.05000 202.719
42.06000 205.229
42.07000 206.327
42.08000 206.839
42.09000 207.744
42.10000 212.774
42.11000 218.904
42.12000 224.076
42.13000 223.167
42.14000 221.189
42.15000 219.565
42.16000 217.841
42.17000 216.416
42.18000 215.424
42.19000 215.643
42.20000 215.934
42.21000 215.238
42.22000 212.661
42.23000 210.039
42.24000 208.564
42.25000 204.171
42.26000 201.120
42.27000 200.484
42.28000 201.858
42.29000 203.179
42.30000 201.904
42.31000 199.184
42.32000 196.566
42.33000 196.237
42.34000 196.745
42.35000 197.526
42.36000 201.030
42.37000 205.234
42.38000 208.396
42.39000 205.212
42.40000 200.957
42.41000 197.491
42.42000 201.806
42.43000 205.991
42.44000 208.737
42.45000 207.603
42.46000 206.254
42.47000 206.920
42.48000 211.296
42.49000 215.752
42.50000 218.216
42.51000 206.542
42.52000 198.483
42.53000 197.000
42.54000 200.782
42.55000 204.547
42.56000 207.587
42.57000 210.237
42.58000 212.781
42.59000 211.885
42.60000 209.866
42.61000 207.997
42.62000 207.543
42.63000 207.439
42.64000 207.861
42.65000 211.350
42.66000 215.337
42.67000 218.560
42.68000 209.101
42.69000 200.391
42.70000 195.030
42.71000 198.387
42.72000 202.195
42.73000 202.921
42.74000 198.172
42.75000 193.317
42.76000 190.680
42.77000 196.868
42.78000 201.113
42.79000 203.511
42.80000 204.487
42.81000 205.411
42.82000 204.257
42.83000 202.027
42.84000 199.892
42.85000 195.260
42.86000 190.120
42.87000 185.557
42.88000 186.208
42.89000 188.104
42.90000 190.603
42.91000 196.479
42.92000 202.880
42.93000 208.014
42.94000 205.831
42.95000 203.510
42.96000 201.793
42.97000 201.598
42.98000 201.475
42.99000 199.123
43.00000 192.952
43.01000 186.714
43.02000 183.389
43.03000 186.015
43.04000 187.812
43.05000 190.235
43.06000 193.121
43.07000 195.980
43.08000 197.860
43.09000 199.251
43.10000 200.578
43.11000 202.163
43.12000 203.715
43.13000 205.103
43.14000 205.072
43.15000 204.715
43.16000 204.204
43.17000 202.867
43.18000 201.407
43.19000 200.245
43.20000 197.335
43.21000 194.866
43.22000 191.599
43.23000 186.396
43.24000 181.106
43.25000 179.411
43.26000 183.657
43.27000 187.991
43.28000 190.259
43.29000 186.686
43.30000 184.289
43.31000 185.502
43.32000 189.296
43.33000 192.950
43.34000 192.069
43.35000 188.995
43.36000 186.071
43.37000 191.875
43.38000 199.902
43.39000 206.790
43.40000 204.309
43.41000 199.751
43.42000 195.982
43.43000 196.300
43.44000 197.201
43.45000 197.913
43.46000 200.404
43.47000 202.522
43.48000 203.351
43.49000 201.155
43.50000 198.834
43.51000 196.336
43.52000 193.555
43.53000 190.772
43.54000 189.343
43.55000 191.845
43.56000 193.498
43.57000 191.606
43.58000 187.272
43.59000 182.999
43.60000 180.579
43.61000 179.023
43.62000 177.549
43.63000 183.701
43.64000 191.604
43.65000 198.340
43.66000 195.910
43.67000 191.524
43.68000 188.476
43.69000 192.092
43.70000 196.618
43.71000 200.158
43.72000 193.367
43.73000 187.289
43.74000 183.763
43.75000 186.017
43.76000 188.492
43.77000 188.382
43.78000 184.298
43.79000 180.169
43.80000 178.093
43.81000 186.978
43.82000 192.848
43.83000 192.145
43.84000 187.079
43.85000 182.126
43.86000 180.289
43.87000 179.856
43.88000 179.447
43.89000 183.869
43.90000 189.289
43.91000 194.167
43.92000 194.981
43.93000 194.959
43.94000 194.397
43.95000 191.248
43.96000 187.761
43.97000 185.058
43.98000 192.474
43.99000 198.972
44.00000 201.409
44.01000 194.967
44.02000 188.212
44.03000 185.349
44.04000 188.254
44.05000 191.212
44.06000 195.087
44.07000 199.853
44.08000 204.527
44.09000 201.432
44.10000 193.361
44.11000 185.514
44.12000 183.324
44.13000 183.595
44.14000 183.850
44.15000 187.804
44.16000 192.419
44.17000 195.844
44.18000 190.713
44.19000 183.893
44.20000 178.380
44.21000 178.895
44.22000 180.162
44.23000 181.135
44.24000 184.549
44.25000 187.385
44.26000 188.429
44.27000 185.688
44.28000 182.826
44.29000 183.472
44.30000 189.131
44.31000 194.828
44.32000 197.087
44.33000 196.142
44.34000 195.224
44.35000 196.351
44.36000 198.740
44.37000 200.942
44.38000 198.764
44.39000 194.746
44.40000 190.980
44.41000 192.165
44.42000 194.532
44.43000 196.800
44.44000 198.379
44.45000 199.827
44.46000 201.280
44.47000 202.758
44.48000 204.240
44.49000 205.367
44.50000 209.048
44.51000 212.080
44.52000 214.323
44.53000 214.960
44.54000 215.550
44.55000 212.371
44.56000 204.002
44.57000 195.605
44.58000 192.390
44.59000 193.820
44.60000 195.270
44.61000 198.045
44.62000 201.608
44.63000 205.102
44.64000 207.085
44.65000 208.455
44.66000 209.734
44.67000 209.201
44.68000 208.265
44.69000 208.386
44.70000 215.476
44.71000 223.837
44.72000 230.434
44.73000 229.488
44.74000 227.684
44.75000 226.324
44.76000 226.644
44.77000 226.976
44.78000 225.767
44.79000 221.521
44.80000 217.195
44.81000 216.873
44.82000 221.861
44.83000 226.871
44.84000 230.767
44.85000 233.696
44.86000 236.574
44.87000 236.642
44.88000 235.095
44.89000 233.961
44.90000 241.152
44.91000 251.606
44.92000 261.325
44.93000 260.525
44.94000 257.276
44.95000 254.495
44.96000 254.670
44.97000 255.364
44.98000 255.980
44.99000 256.276
45.00000 256.537
45.01000 256.731
45.02000 258.411
45.03000 259.788
45.04000 263.366
45.05000 271.128
45.06000 278.990
45.07000 277.418
45.08000 263.798
45.09000 250.149
45.10000 245.100
45.11000 247.172
45.12000 249.284
45.13000 253.328
45.14000 258.443
45.15000 263.105
45.16000 259.283
45.17000 252.250
45.18000 245.738
45.19000 241.612
45.20000 238.451
45.21000 235.931
45.22000 237.289
45.23000 239.301
45.24000 241.184
45.25000 242.553
45.26000 243.869
45.27000 244.843
45.28000 246.264
45.29000 247.385
45.30000 245.628
45.31000 238.592
45.32000 231.443
45.33000 227.659
45.34000 228.011
45.35000 228.374
45.36000 228.638
45.37000 228.823
45.38000 228.877
45.39000 223.213
45.40000 214.488
45.41000 206.263
45.42000 206.791
45.43000 210.519
45.44000 213.955
45.45000 214.118
45.46000 213.539
45.47000 212.863
45.48000 211.619
45.49000 210.282
45.50000 208.727
45.51000 206.333
45.52000 203.856
45.53000 202.043
45.54000 207.308
45.55000 211.652
45.56000 213.657
45.57000 211.518
45.58000 209.299
45.59000 207.128
45.60000 205.013
45.61000 202.904
45.62000 198.424
45.63000 192.163
45.64000 186.176
45.65000 191.020
45.66000 201.462
45.67000 211.372
45.68000 212.555
45.69000 210.659
45.70000 208.918
45.71000 204.171
45.72000 199.300
45.73000 194.681
45.74000 191.467
45.75000 188.471
45.76000 186.405
45.77000 187.769
45.78000 189.453
45.79000 190.673
45.80000 194.427
45.81000 197.404
45.82000 197.848
45.83000 193.967
45.84000 190.012
45.85000 188.064
45.86000 188.397
45.87000 188.732
45.88000 189.343
45.89000 190.151
45.90000 190.897
45.91000 189.396
45.92000 186.773
45.93000 184.283
45.94000 183.841
45.95000 184.098
45.96000 184.332
45.97000 185.332
45.98000 186.376
45.99000 187.429
46.00000 188.528
46.01000 189.634
46.02000 189.809
46.03000 186.673
46.04000 183.244
46.05000 180.787
46.06000 178.935
46.07000 177.541
46.08000 176.436
46.09000 175.807
46.10000 175.185
46.11000 175.633
46.12000 177.250
46.13000 178.861
46.14000 179.649
46.15000 179.846
46.16000 180.127
46.17000 183.101
46.18000 187.373
46.19000 191.068
46.20000 186.392
46.21000 178.964
46.22000 172.211
46.23000 170.801
46.24000 170.598
46.25000 169.951
46.26000 167.010
46.27000 163.743
46.28000 161.897
46.29000 164.931
46.30000 168.373
46.31000 170.813
46.32000 173.460
46.33000 175.479
46.34000 178.163
46.35000 181.906
46.36000 185.662
46.37000 183.677
46.38000 175.662
46.39000 167.686
46.40000 165.517
46.41000 167.317
46.42000 169.150
46.43000 171.977
46.44000 175.268
46.45000 178.164
46.46000 175.679
46.47000 171.486
46.48000 167.693
46.49000 171.237
46.50000 175.731
46.51000 179.864
46.52000 182.204
46.53000 184.301
46.54000 185.376
46.55000 183.071
46.56000 180.498
46.57000 178.694
46.58000 179.965
46.59000 181.016
46.60000 181.418
46.61000 180.829
46.62000 180.228
46.63000 178.126
46.64000 174.508
46.65000 170.913
46.66000 170.995
46.67000 173.477
46.68000 175.869
46.69000 175.822
46.70000 174.680
46.71000 173.646
46.72000 174.016
46.73000 174.815
46.74000 175.535
46.75000 175.177
46.76000 174.671
46.77000 174.056
46.78000 172.926
46.79000 171.729
46.80000 171.474
46.81000 174.236
46.82000 177.223
46.83000 179.292
46.84000 177.082
46.85000 175.306
46.86000 173.061
46.87000 170.122
46.88000 167.177
46.89000 166.525
46.90000 168.092
46.91000 169.648
46.92000 169.419
46.93000 168.074
46.94000 166.625
46.95000 162.588
46.96000 157.428
46.97000 153.025
46.98000 157.869
46.99000 165.446
47.00000 172.231
47.01000 169.473
47.02000 165.425
47.03000 162.024
47.04000 161.593
47.05000 161.532
47.06000 161.435
47.07000 161.227
47.08000 161.011
47.09000 160.864
47.10000 164.078
47.11000 166.566
47.12000 166.856
47.13000 164.013
47.14000 161.148
47.15000 160.516
47.16000 161.961
47.17000 163.393
47.18000 166.148
47.19000 169.651
47.20000 172.960
47.21000 171.790
47.22000 168.743
47.23000 165.828
47.24000 164.430
47.25000 163.465
47.26000 162.605
47.27000 161.565
47.28000 160.631
47.29000 160.283
47.30000 162.526
47.31000 165.076
47.32000 165.798
47.33000 161.071
47.34000 155.981
47.35000 152.538
47.36000 156.818
47.37000 160.174
47.38000 161.916
47.39000 161.443
47.40000 160.959
47.41000 163.584
47.42000 168.988
47.43000 174.338
47.44000 173.323
47.45000 168.631
47.46000 164.215
47.47000 165.750
47.48000 169.692
47.49000 173.084
47.50000 170.446
47.51000 166.148
47.52000 162.342
47.53000 160.511
47.54000 159.239
47.55000 158.829
47.56000 162.095
47.57000 165.777
47.58000 168.866
47.59000 170.248
47.60000 171.523
47.61000 172.375
47.62000 168.684
47.63000 165.860
47.64000 163.712
47.65000 162.459
47.66000 161.211
47.67000 160.734
47.68000 160.919
47.69000 161.102
47.70000 160.248
47.71000 158.835
47.72000 157.340
47.73000 154.221
47.74000 150.466
47.75000 146.963
47.76000 146.077
47.77000 145.885
47.78000 145.715
47.79000 154.232
47.80000 162.877
47.81000 168.992
47.82000 164.715
47.83000 159.317
47.84000 156.296
47.85000 159.878
47.86000 163.847
47.87000 166.466
47.88000 163.295
47.89000 160.856
47.90000 157.217
47.91000 152.051
47.92000 146.890
47.93000 146.157
47.94000 149.085
47.95000 151.974
47.96000 153.281
47.97000 153.701
47.98000 154.055
47.99000 153.199
48.00000 151.885
48.01000 150.952
48.02000 153.783
48.03000 157.577
48.04000 160.900
48.05000 159.900
48.06000 158.419
48.07000 156.585
48.08000 153.348
48.09000 149.968
48.10000 148.394
48.11000 151.663
48.12000 155.198
48.13000 157.501
48.14000 158.324
48.15000 158.905
48.16000 159.911
48.17000 161.439
48.18000 162.956
48.19000 160.830
48.20000 155.808
48.21000 150.859
48.22000 147.678
48.23000 145.505
48.24000 143.627
48.25000 146.872
48.26000 151.983
48.27000 156.564
48.28000 156.157
48.29000 154.520
48.30000 153.096
48.31000 148.536
48.32000 144.211
48.33000 141.243
48.34000 143.450
48.35000 146.162
48.36000 148.940
48.37000 151.889
48.38000 154.846
48.39000 156.746
48.40000 156.376
48.41000 156.074
48.42000 156.068
48.43000 156.410
48.44000 156.755
48.45000 157.475
48.46000 158.484
48.47000 159.476
48.48000 159.423
48.49000 158.850
48.50000 158.058
48.51000 153.695
48.52000 148.075
48.53000 143.393
48.54000 147.125
48.55000 152.855
48.56000 157.814
48.57000 156.438
48.58000 154.438
48.59000 153.076
48.60000 154.065
48.61000 155.272
48.62000 156.671
48.63000 158.548
48.64000 160.448
48.65000 161.653
48.66000 155.271
48.67000 150.549
48.68000 148.472
48.69000 149.396
48.70000 150.324
48.71000 151.680
48.72000 153.352
48.73000 154.993
48.74000 153.984
48.75000 151.741
48.76000 149.717
48.77000 151.058
48.78000 153.542
48.79000 155.820
48.80000 156.344
48.81000 156.467
48.82000 156.572
48.83000 156.020
48.84000 155.471
48.85000 154.813
48.86000 153.768
48.87000 152.689
48.88000 152.385
48.89000 153.950
48.90000 155.598
48.91000 156.629
48.92000 149.407
48.93000 144.110
48.94000 142.837
48.95000 145.951
48.96000 149.059
48.97000 151.173
48.98000 152.581
48.99000 153.959
49.00000 152.638
49.01000 150.121
49.02000 148.060
49.03000 152.594
49.04000 159.289
49.05000 164.941
49.06000 162.076
49.07000 157.335
49.08000 153.283
49.09000 153.859
49.10000 154.897
49.11000 155.765
49.12000 156.053
49.13000 156.292
49.14000 158.244
49.15000 164.190
49.16000 170.300
49.17000 174.065
49.18000 164.166
49.19000 156.940
49.20000 154.783
49.21000 157.932
49.22000 161.054
49.23000 160.894
49.24000 158.485
49.25000 156.132
49.26000 155.653
49.27000 156.029
49.28000 155.994
49.29000 150.381
49.30000 143.003
49.31000 136.544
49.32000 137.247
49.33000 139.468
49.34000 141.354
49.35000 145.323
49.36000 148.889
49.37000 151.439
49.38000 150.636
49.39000 149.567
49.40000 148.722
49.41000 148.378
49.42000 148.054
49.43000 147.857
49.44000 152.937
49.45000 156.602
49.46000 157.251
49.47000 154.870
49.48000 152.504
49.49000 151.717
49.50000 151.971
49.51000 152.220
49.52000 152.543
49.53000 152.884
49.54000 152.994
49.55000 150.144
49.56000 146.390
49.57000 143.258
49.58000 144.757
49.59000 147.202
49.60000 149.263
49.61000 151.050
49.62000 152.512
49.63000 153.858
49.64000 154.833
49.65000 155.781
49.66000 155.796
49.67000 153.781
49.68000 151.697
49.69000 150.450
49.70000 148.296
49.71000 146.761
49.72000 143.416
49.73000 138.322
49.74000 133.330
49.75000 136.668
49.76000 145.306
49.77000 153.710
49.78000 155.052
49.79000 153.422
49.80000 151.954
49.81000 152.436
49.82000 153.494
49.83000 154.218
49.84000 152.561
49.85000 150.437
49.86000 148.659
49.87000 150.083
49.88000 151.597
49.89000 151.728
49.90000 147.606
49.91000 143.185
49.92000 140.554
49.93000 141.682
49.94000 142.928
49.95000 143.662
49.96000 147.002
49.97000 149.371
49.98000 149.197
49.99000 146.666
50.00000 144.208
50.01000 147.009
50.02000 153.038
50.03000 158.888
50.04000 159.647
50.05000 158.350
50.06000 156.927
50.07000 154.047
50.08000 150.753
50.09000 148.150
50.10000 150.263
50.11000 153.265
50.12000 155.761
50.13000 152.878
50.14000 149.966
50.15000 147.616
50.16000 146.937
50.17000 146.368
50.18000 147.634
50.19000 152.616
50.20000 157.706
50.21000 160.654
50.22000 158.721
50.23000 157.346
50.24000 156.553
50.25000 156.278
50.26000 156.012
50.27000 156.292
50.28000 156.896
50.29000 157.480
50.30000 157.808
50.31000 158.022
50.32000 158.153
50.33000 157.384
50.34000 156.368
50.35000 156.074
50.36000 160.503
50.37000 165.787
50.38000 170.149
50.39000 168.038
50.40000 165.696
50.41000 163.631
50.42000 162.356
50.43000 161.131
50.44000 159.396
50.45000 156.666
50.46000 153.910
50.47000 152.339
50.48000 162.692
50.49000 169.940
50.50000 171.278
50.51000 167.555
50.52000 163.961
50.53000 167.324
50.54000 174.664
50.55000 181.747
50.56000 177.755
50.57000 169.934
50.58000 162.798
50.59000 162.749
50.60000 164.575
50.61000 166.372
50.62000 167.994
50.63000 169.584
50.64000 170.888
50.65000 177.378
50.66000 183.156
50.67000 185.326
50.68000 177.505
50.69000 169.102
50.70000 164.077
50.71000 165.436
50.72000 166.946
50.73000 167.791
50.74000 165.859
50.75000 164.520
50.76000 165.801
50.77000 169.240
50.78000 172.609
50.79000 172.583
50.80000 170.685
50.81000 168.859
50.82000 170.394
50.83000 173.019
50.84000 175.543
50.85000 177.072
50.86000 178.348
50.87000 179.044
50.88000 176.255
50.89000 172.884
50.90000 170.143
50.91000 162.112
50.92000 155.116
50.93000 150.333
50.94000 151.466
50.95000 152.921
50.96000 153.890
50.97000 153.972
50.98000 154.036
50.99000 154.071
51.00000 156.997
51.01000 159.009
51.02000 158.247
51.03000 155.287
51.04000 152.328
51.05000 149.395
51.06000 146.475
51.07000 143.675
51.08000 143.860
51.09000 145.047
51.10000 146.134
51.11000 146.279
51.12000 146.193
51.13000 146.659
51.14000 150.317
51.15000 154.488
51.16000 157.852
51.17000 152.807
51.18000 148.043
51.19000 145.017
51.20000 146.478
51.21000 148.168
51.22000 148.935
51.23000 148.079
51.24000 147.193
51.25000 146.714
51.26000 150.705
51.27000 153.425
51.28000 152.333
51.29000 148.331
51.30000 144.302
51.31000 139.223
51.32000 133.604
51.33000 128.229
51.34000 128.683
51.35000 131.009
51.36000 133.790
51.37000 140.635
51.38000 148.441
51.39000 154.870
51.40000 153.648
51.41000 151.250
51.42000 149.331
51.43000 144.974
51.44000 141.268
51.45000 139.953
51.46000 144.601
51.47000 149.530
51.48000 150.058
51.49000 143.113
51.50000 136.043
51.51000 132.291
51.52000 139.056
51.53000 143.652
51.54000 146.054
51.55000 146.844
51.56000 147.629
51.57000 148.266
51.58000 148.830
51.59000 149.367
51.60000 144.150
51.61000 137.504
51.62000 131.859
51.63000 134.733
51.64000 139.551
51.65000 143.738
51.66000 144.558
51.67000 144.882
51.68000 145.139
51.69000 139.370
51.70000 134.302
51.71000 131.060
51.72000 132.215
51.73000 133.563
51.74000 136.109
51.75000 140.618
51.76000 145.156
51.77000 147.518
51.78000 146.185
51.79000 145.286
51.80000 144.787
51.81000 144.570
51.82000 144.329
51.83000 143.319
51.84000 141.940
51.85000 140.630
51.86000 138.743
51.87000 136.825
51.88000 135.495
51.89000 138.947
51.90000 143.449
51.91000 147.163
51.92000 146.837
51.93000 145.941
51.94000 145.235
51.95000 144.010
51.96000 142.995
51.97000 141.464
51.98000 138.736
51.99000 135.960
52.00000 137.601
52.01000 146.223
52.02000 154.931
52.03000 159.378
52.04000 142.174
52.05000 130.717
52.06000 130.076
52.07000 136.817
52.08000 143.377
52.09000 144.643
52.10000 143.460
52.11000 142.340
52.12000 144.532
52.13000 147.509
52.14000 149.774
52.15000 146.500
52.16000 142.055
52.17000 138.469
52.18000 139.124
52.19000 140.351
52.20000 141.308
52.21000 138.246
52.22000 135.553
52.23000 134.143
52.24000 135.611
52.25000 137.187
52.26000 137.395
52.27000 135.516
52.28000 133.615
52.29000 132.664
52.30000 130.300
52.31000 128.760
52.32000 130.648
52.33000 134.793
52.34000 138.844
52.35000 140.381
52.36000 140.794
52.37000 141.185
52.38000 139.630
52.39000 137.663
52.40000 136.269
52.41000 139.125
52.42000 142.846
52.43000 145.058
52.44000 140.107
52.45000 134.231
52.46000 129.686
52.47000 131.883
52.48000 134.024
52.49000 135.742
52.50000 136.540
52.51000 137.307
52.52000 136.595
52.53000 133.708
52.54000 130.802
52.55000 130.637
52.56000 133.105
52.57000 135.564
52.58000 137.250
52.59000 138.446
52.60000 139.556
52.61000 138.550
52.62000 136.632
52.63000 134.829
52.64000 134.690
52.65000 135.010
52.66000 135.086
52.67000 133.436
52.68000 131.448
52.69000 131.148
52.70000 138.556
52.71000 146.915
52.72000 153.323
52.73000 142.591
52.74000 133.169
52.75000 127.458
52.76000 129.512
52.77000 131.811
52.78000 134.368
52.79000 137.288
52.80000 140.210
52.81000 140.213
52.82000 137.521
52.83000 134.863
52.84000 134.536
52.85000 135.636
52.86000 136.745
52.87000 138.047
52.88000 139.430
52.89000 140.725
52.90000 138.580
52.91000 135.743
52.92000 133.027
52.93000 131.128
52.94000 129.384
52.95000 128.398
52.96000 130.748
52.97000 133.490
52.98000 135.573
52.99000 135.162
53.00000 134.710
53.01000 133.570
53.02000 131.041
53.03000 128.471
53.04000 127.825
53.05000 129.801
53.06000 131.792
53.07000 131.840
53.08000 130.166
53.09000 128.622
53.10000 134.974
53.11000 145.989
53.12000 156.495
53.13000 156.204
53.14000 151.570
53.15000 147.249
53.16000 145.791
53.17000 145.179
53.18000 144.442
53.19000 142.885
53.20000 141.180
53.21000 140.780
53.22000 145.912
53.23000 151.664
53.24000 155.992
53.25000 151.558
53.26000 147.667
53.27000 145.738
53.28000 147.640
53.29000 149.641
53.30000 151.103
53.31000 151.858
53.32000 152.609
53.33000 151.773
53.34000 149.586
53.35000 147.490
53.36000 150.243
53.37000 155.759
53.38000 160.887
53.39000 158.354
53.40000 152.845
53.41000 147.728
53.42000 146.163
53.43000 145.595
53.44000 145.613
53.45000 149.299
53.46000 153.621
53.47000 156.872
53.48000 155.753
53.49000 154.165
53.50000 152.982
53.51000 156.218
53.52000 158.937
53.53000 158.482
53.54000 152.051
53.55000 145.479
53.56000 142.673
53.57000 144.628
53.58000 146.597
53.59000 148.462
53.60000 150.233
53.61000 151.960
53.62000 151.509
53.63000 149.863
53.64000 148.095
53.65000 144.102
53.66000 139.274
53.67000 134.809
53.68000 136.648
53.69000 139.738
53.70000 142.481
53.71000 143.140
53.72000 143.453
53.73000 143.505
53.74000 142.533
53.75000 141.457
53.76000 140.663
53.77000 140.979
53.78000 141.270
53.79000 141.660
53.80000 142.230
53.81000 142.804
53.82000 142.958
53.83000 142.601
53.84000 142.244
53.85000 140.871
53.86000 138.707
53.87000 136.560
53.88000 135.144
53.89000 134.116
53.90000 133.439
53.91000 138.806
53.92000 146.361
53.93000 153.318
53.94000 151.241
53.95000 147.403
53.96000 143.669
53.97000 140.529
53.98000 137.484
53.99000 134.832
54.00000 133.672
54.01000 132.657
54.02000 131.916
54.03000 130.908
54.04000 130.120
54.05000 130.499
54.06000 132.924
54.07000 135.386
54.08000 136.516
54.09000 136.084
54.10000 135.650
54.11000 135.777
54.12000 136.326
54.13000 136.878
54.14000 137.567
54.15000 138.325
54.16000 138.952
54.17000 137.451
54.18000 135.206
54.19000 133.147
54.20000 133.334
54.21000 133.973
54.22000 134.820
54.23000 136.826
54.24000 139.008
54.25000 139.631
54.26000 134.549
54.27000 128.943
54.28000 124.893
54.29000 127.906
54.30000 130.472
54.31000 132.643
54.32000 134.146
54.33000 135.637
54.34000 137.402
54.35000 139.474
54.36000 141.540
54.37000 140.380
54.38000 136.887
54.39000 133.477
54.40000 132.956
54.41000 133.864
54.42000 134.776
54.43000 135.761
54.44000 136.771
54.45000 137.692
54.46000 139.735
54.47000 141.773
54.48000 143.401
54.49000 142.845
54.50000 141.969
54.51000 140.682
54.52000 137.948
54.53000 135.088
54.54000 133.044
54.55000 133.408
54.56000 133.766
54.57000 134.205
54.58000 134.775
54.59000 135.347
54.60000 136.142
54.61000 137.178
54.62000 138.210
54.63000 139.166
54.64000 140.060
54.65000 140.864
54.66000 138.836
54.67000 135.455
54.68000 132.511
54.69000 135.809
54.70000 141.141
54.71000 145.983
54.72000 144.572
54.73000 142.117
54.74000 139.836
54.75000 138.443
54.76000 137.174
54.77000 136.030
54.78000 135.315
54.79000 134.635
54.80000 134.154
54.81000 135.282
54.82000 136.188
54.83000 136.604
54.84000 136.246
54.85000 135.878
54.86000 136.879
54.87000 139.302
54.88000 141.713
54.89000 138.896
54.90000 132.600
54.91000 126.590
54.92000 128.846
54.93000 134.915
54.94000 140.843
54.95000 144.884
54.96000 148.331
54.97000 151.445
54.98000 146.792
54.99000 141.261
55.00000 137.815
55.01000 144.615
55.02000 152.794
55.03000 157.973
55.04000 153.300
55.05000 147.857
55.06000 144.052
55.07000 151.766
55.08000 157.918
55.09000 159.214
55.10000 153.131
55.11000 146.972
55.12000 146.424
55.13000 151.475
55.14000 156.495
55.15000 155.943
55.16000 151.796
55.17000 147.819
55.18000 148.352
55.19000 150.894
55.20000 153.351
55.21000 154.739
55.22000 155.802
55.23000 156.758
55.24000 151.697
55.25000 146.198
55.26000 142.129
55.27000 144.825
55.28000 148.392
55.29000 151.945
55.30000 155.456
55.31000 158.964
55.32000 161.387
55.33000 159.903
55.34000 158.687
55.35000 158.393
55.36000 159.450
55.37000 160.518
55.38000 163.236
55.39000 167.532
55.40000 171.797
55.41000 174.242
55.42000 175.516
55.43000 176.626
55.44000 173.711
55.45000 169.065
55.46000 165.130
55.47000 169.758
55.48000 176.895
55.49000 183.277
55.50000 190.943
55.51000 197.844
55.52000 204.171
55.53000 207.883
55.54000 211.273
55.55000 214.427
55.56000 216.858
55.57000 219.238
55.58000 220.863
55.59000 237.731
55.60000 250.704
55.61000 260.118
55.62000 264.509
55.63000 268.866
55.64000 275.736
55.65000 284.921
55.66000 294.024
55.67000 306.661
55.68000 321.169
55.69000 335.785
55.70000 352.851
55.71000 370.935
55.72000 388.121
55.73000 395.077
55.74000 399.142
55.75000 402.757
55.76000 416.107
55.77000 429.280
55.78000 443.273
55.79000 460.860
55.80000 478.869
55.81000 496.842
55.82000 514.709
55.83000 532.569
55.84000 544.616
55.85000 560.219
55.86000 571.904
55.87000 580.182
55.88000 583.827
55.89000 587.444
55.90000 589.968
55.91000 591.525
55.92000 593.066
55.93000 594.163
55.94000 594.980
55.95000 595.681
55.96000 593.917
55.97000 591.164
55.98000 588.966
55.99000 592.770
56.00000 598.209
56.01000 603.021
56.02000 584.474
56.03000 564.807
56.04000 548.827
56.05000 548.423
56.06000 549.762
56.07000 546.043
56.08000 527.907
56.09000 508.885
56.10000 496.213
56.11000 477.380
56.12000 463.322
56.13000 450.099
56.14000 437.967
56.15000 425.831
56.16000 408.795
56.17000 387.588
56.18000 366.633
56.19000 353.419
56.20000 344.820
56.21000 336.014
56.22000 323.150
56.23000 308.713
56.24000 294.807
56.25000 286.345
56.26000 279.315
56.27000 273.130
56.28000 262.794
56.29000 253.282
56.30000 244.301
56.31000 237.481
56.32000 230.891
56.33000 224.650
56.34000 219.366
56.35000 214.137
56.36000 210.698
56.37000 208.765
56.38000 207.367
56.39000 203.159
56.40000 195.407
56.41000 187.651
56.42000 183.483
56.43000 182.251
56.44000 181.035
56.45000 177.114
56.46000 171.857
56.47000 166.639
56.48000 162.121
56.49000 157.864
56.50000 154.124
56.51000 155.426
56.52000 158.004
56.53000 160.260
56.54000 156.982
56.55000 153.386
56.56000 149.900
56.57000 146.848
56.58000 143.840
56.59000 140.792
56.60000 137.638
56.61000 134.479
56.62000 132.427
56.63000 132.941
56.64000 133.356
56.65000 132.845
56.66000 131.210
56.67000 129.587
56.68000 132.039
56.69000 137.701
56.70000 143.277
56.71000 145.999
56.72000 147.175
56.73000 148.083
56.74000 144.427
56.75000 139.122
56.76000 134.039
56.77000 131.017
56.78000 128.499
56.79000 126.310
56.80000 132.886
56.81000 139.686
56.82000 144.293
56.83000 140.609
56.84000 136.125
56.85000 132.603
56.86000 131.553
56.87000 130.627
56.88000 130.033
56.89000 127.457
56.90000 125.553
56.91000 124.781
56.92000 125.331
56.93000 125.884
56.94000 126.634
56.95000 127.534
56.96000 128.418
56.97000 129.251
56.98000 130.032
56.99000 130.677
57.00000 129.147
57.01000 126.857
57.02000 124.769
57.03000 124.462
57.04000 124.575
57.05000 124.672
57.06000 124.388
57.07000 124.097
57.08000 124.958
57.09000 130.017
57.10000 135.461
57.11000 138.576
57.12000 135.920
57.13000 132.995
57.14000 131.147
57.15000 129.380
57.16000 128.101
57.17000 127.664
57.18000 128.170
57.19000 128.682
57.20000 129.973
57.21000 131.831
57.22000 133.654
57.23000 133.653
57.24000 132.784
57.25000 131.780
57.26000 128.736
57.27000 125.004
57.28000 121.515
57.29000 120.075
57.30000 119.099
57.31000 118.261
57.32000 120.140
57.33000 122.064
57.34000 124.412
57.35000 128.247
57.36000 132.211
57.37000 135.013
57.38000 135.035
57.39000 134.937
57.40000 134.876
57.41000 134.003
57.42000 133.366
57.43000 133.777
57.44000 135.320
57.45000 136.843
57.46000 135.693
57.47000 132.662
57.48000 129.695
57.49000 128.888
57.50000 129.100
57.51000 129.388
57.52000 130.751
57.53000 132.464
57.54000 133.892
57.55000 133.036
57.56000 131.681
57.57000 130.525
57.58000 127.172
57.59000 124.091
57.60000 121.699
57.61000 121.647
57.62000 121.787
57.63000 122.086
57.64000 122.750
57.65000 123.430
57.66000 123.847
57.67000 123.454
57.68000 123.165
57.69000 122.491
57.70000 121.418
57.71000 120.345
57.72000 119.350
57.73000 118.408
57.74000 117.487
57.75000 117.909
57.76000 118.903
57.77000 119.972
57.78000 122.042
57.79000 124.427
57.80000 126.471
57.81000 125.894
57.82000 124.766
57.83000 123.810
57.84000 123.889
57.85000 124.072
57.86000 123.398
57.87000 119.917
57.88000 116.219
57.89000 115.185
57.90000 120.099
57.91000 125.233
57.92000 128.338
57.93000 132.925
57.94000 136.205
57.95000 135.398
57.96000 130.526
57.97000 125.694
57.98000 124.553
57.99000 125.827
58.00000 127.068
58.01000 126.833
58.02000 125.984
58.03000 125.433
58.04000 128.657
58.05000 133.023
58.06000 136.489
58.07000 133.323
58.08000 128.817
58.09000 125.024
58.10000 127.837
58.11000 130.890
58.12000 132.086
58.13000 127.415
58.14000 122.314
58.15000 118.877
58.16000 119.029
58.17000 119.303
58.18000 119.466
58.19000 117.325
58.20000 115.795
58.21000 116.607
58.22000 119.656
58.23000 122.671
58.24000 122.917
58.25000 121.417
58.26000 119.960
58.27000 120.733
58.28000 122.379
58.29000 123.676
58.30000 120.804
58.31000 116.715
58.32000 113.284
58.33000 114.490
58.34000 116.597
58.35000 118.359
58.36000 116.783
58.37000 115.136
58.38000 114.477
58.39000 116.832
58.40000 119.396
58.41000 120.879
58.42000 120.111
58.43000 119.273
58.44000 118.782
58.45000 118.846
58.46000 118.893
58.47000 119.156
58.48000 119.615
58.49000 120.067
58.50000 120.021
58.51000 119.672
58.52000 119.334
58.53000 119.440
58.54000 119.714
58.55000 119.908
58.56000 119.191
58.57000 118.217
58.58000 117.157
58.59000 115.523
58.60000 113.782
58.61000 112.337
58.62000 108.150
58.63000 104.424
58.64000 103.260
58.65000 109.638
58.66000 116.508
58.67000 120.068
58.68000 116.976
58.69000 113.696
58.70000 111.804
58.71000 120.715
58.72000 126.994
58.73000 129.574
58.74000 128.891
58.75000 128.164
58.76000 124.719
58.77000 119.679
58.78000 114.806
58.79000 113.444
58.80000 113.484
58.81000 113.382
58.82000 111.750
58.83000 109.703
58.84000 108.820
58.85000 115.482
58.86000 123.498
58.87000 130.102
58.88000 124.318
58.89000 118.422
58.90000 113.851
58.91000 113.045
58.92000 112.470
58.93000 112.634
58.94000 114.230
58.95000 115.862
58.96000 116.788
58.97000 119.694
58.98000 121.717
58.99000 120.776
59.00000 117.323
59.01000 113.943
59.02000 114.459
59.03000 117.183
59.04000 119.810
59.05000 121.287
59.06000 122.259
59.07000 123.138
59.08000 123.062
59.09000 122.735
59.10000 122.019
59.11000 118.885
59.12000 115.335
59.13000 112.432
59.14000 114.761
59.15000 117.124
59.16000 117.673
59.17000 113.246
59.18000 108.534
59.19000 106.386
59.20000 109.041
59.21000 111.805
59.22000 113.347
59.23000 119.792
59.24000 124.258
59.25000 126.560
59.26000 127.097
59.27000 127.601
59.28000 126.579
59.29000 124.722
59.30000 122.937
59.31000 121.126
59.32000 119.420
59.33000 117.985
59.34000 119.188
59.35000 121.057
59.36000 122.462
59.37000 121.097
59.38000 119.274
59.39000 117.794
59.40000 124.340
59.41000 130.337
59.42000 132.731
59.43000 125.577
59.44000 117.911
59.45000 114.454
59.46000 118.606
59.47000 122.914
59.48000 125.275
59.49000 120.369
59.50000 116.987
59.51000 114.733
59.52000 113.362
59.53000 112.052
59.54000 113.269
59.55000 115.819
59.56000 118.264
59.57000 119.422
59.58000 120.072
59.59000 120.415
59.60000 117.918
59.61000 114.730
59.62000 112.935
59.63000 119.113
59.64000 126.557
59.65000 132.550
59.66000 125.414
59.67000 118.601
59.68000 113.659
59.69000 113.504
59.70000 113.590
59.71000 116.306
59.72000 123.611
59.73000 131.000
59.74000 134.976
59.75000 125.087
59.76000 118.339
59.77000 116.739
59.78000 119.029
59.79000 121.219
59.80000 119.588
59.81000 116.010
59.82000 112.591
59.83000 116.387
59.84000 122.250
59.85000 127.308
59.86000 125.272
59.87000 121.572
59.88000 118.961
59.89000 122.330
59.90000 126.610
59.91000 130.029
59.92000 123.056
59.93000 116.658
59.94000 112.491
59.95000 113.836
59.96000 115.436
59.97000 117.078
59.98000 118.792
59.99000 120.506
60.00000 121.412
60.01000 120.317
60.02000 119.570
60.03000 118.365
60.04000 116.826
60.05000 115.256
60.06000 112.587
60.07000 109.378
60.08000 106.321
60.09000 108.469
60.10000 112.078
60.11000 115.631
60.12000 118.711
60.13000 121.686
60.14000 123.873
60.15000 121.908
60.16000 119.338
60.17000 117.302
60.18000 113.645
60.19000 110.592
60.20000 107.754
60.21000 105.426
60.22000 103.120
60.23000 104.087
60.24000 110.367
60.25000 116.721
60.26000 120.014
60.27000 118.871
60.28000 118.110
60.29000 118.732
60.30000 120.325
60.31000 121.807
60.32000 119.820
60.33000 116.186
60.34000 112.737
60.35000 110.874
60.36000 109.630
60.37000 108.584
60.38000 109.132
60.39000 110.028
60.40000 111.248
60.41000 114.115
60.42000 117.212
60.43000 119.644
60.44000 115.252
60.45000 111.290
60.46000 108.878
60.47000 110.037
60.48000 111.337
60.49000 112.980
60.50000 115.159
60.51000 117.343
60.52000 118.453
60.53000 117.433
60.54000 116.752
60.55000 116.367
60.56000 116.183
60.57000 115.982
60.58000 115.303
60.59000 114.405
60.60000 113.555
60.61000 114.983
60.62000 116.950
60.63000 118.121
60.64000 113.183
60.65000 106.966
60.66000 102.684
60.67000 107.852
60.68000 114.282
60.69000 119.288
60.70000 118.663
60.71000 117.817
60.72000 118.105
60.73000 120.915
60.74000 123.818
60.75000 123.463
60.76000 118.188
60.77000 112.864
60.78000 112.016
60.79000 115.606
60.80000 119.163
60.81000 119.700
60.82000 118.269
60.83000 116.890
60.84000 116.871
60.85000 117.454
60.86000 118.004
60.87000 116.839
60.88000 115.300
60.89000 113.828
60.90000 112.856
60.91000 111.984
60.92000 111.782
60.93000 114.726
60.94000 118.072
60.95000 120.654
60.96000 121.658
60.97000 122.363
60.98000 121.390
60.99000 116.812
61.00000 112.111
61.01000 110.639
61.02000 113.865
61.03000 117.130
61.04000 119.333
61.05000 120.525
61.06000 121.692
61.07000 120.923
61.08000 118.937
61.09000 117.162
61.10000 120.507
61.11000 126.042
61.12000 131.238
61.13000 129.496
61.14000 126.064
61.15000 123.042
61.16000 122.904
61.17000 123.324
61.18000 123.435
61.19000 122.147
61.20000 120.688
61.21000 119.572
61.22000 122.415
61.23000 124.873
61.24000 125.969
61.25000 124.242
61.26000 122.427
61.27000 120.174
61.28000 117.303
61.29000 114.430
61.30000 111.895
61.31000 109.671
61.32000 107.517
61.33000 110.070
61.34000 115.478
61.35000 120.771
61.36000 123.473
61.37000 125.106
61.38000 126.634
61.39000 123.855
61.40000 120.232
61.41000 117.555
61.42000 121.250
61.43000 126.131
61.44000 129.818
61.45000 128.302
61.46000 126.181
61.47000 124.574
61.48000 131.456
61.49000 137.290
61.50000 143.679
61.51000 151.181
61.52000 158.713
61.53000 168.668
61.54000 181.895
61.55000 195.134
61.56000 207.906
61.57000 220.250
61.58000 232.547
61.59000 242.128
61.60000 250.119
61.61000 257.968
61.62000 262.856
61.63000 266.563
61.64000 270.016
61.65000 278.692
61.66000 287.821
61.67000 296.596
61.68000 303.084
61.69000 309.163
61.70000 312.371
61.71000 303.527
61.72000 293.345
61.73000 285.705
61.74000 272.444
61.75000 261.816
61.76000 253.592
61.77000 250.017
61.78000 246.560
61.79000 237.231
61.80000 220.259
61.81000 203.271
61.82000 188.281
61.83000 175.015
61.84000 161.819
61.85000 152.321
61.86000 144.911
61.87000 137.903
61.88000 138.711
61.89000 142.529
61.90000 146.071
61.91000 141.264
61.92000 134.968
61.93000 129.378
61.94000 128.154
61.95000 127.680
61.96000 127.634
61.97000 129.316
61.98000 131.181
61.99000 132.567
62.00000 126.764
62.01000 121.934
62.02000 121.440
62.03000 129.042
62.04000 136.828
62.05000 138.854
62.06000 133.662
62.07000 128.455
62.08000 125.288
62.09000 123.784
62.10000 122.262
62.11000 119.830
62.12000 116.902
62.13000 114.230
62.14000 116.177
62.15000 119.842
62.16000 123.228
62.17000 123.618
62.18000 123.292
62.19000 123.234
62.20000 124.768
62.21000 126.564
62.22000 128.144
62.23000 128.883
62.24000 129.537
62.25000 130.018
62.26000 130.282
62.27000 130.476
62.28000 129.213
62.29000 125.325
62.30000 121.383
62.31000 120.517
62.32000 123.359
62.33000 126.203
62.34000 127.190
62.35000 126.727
62.36000 126.254
62.37000 125.381
62.38000 124.298
62.39000 123.565
62.40000 128.775
62.41000 136.119
62.42000 142.873
62.43000 135.632
62.44000 126.128
62.45000 118.896
62.46000 124.611
62.47000 132.374
62.48000 137.316
62.49000 131.657
62.50000 124.983
62.51000 120.124
62.52000 124.318
62.53000 127.894
62.54000 129.447
62.55000 127.486
62.56000 125.462
62.57000 124.787
62.58000 125.679
62.59000 126.570
62.60000 124.593
62.61000 120.482
62.62000 116.490
62.63000 116.943
62.64000 119.654
62.65000 122.042
62.66000 119.305
62.67000 114.791
62.68000 110.658
62.69000 114.714
62.70000 120.025
62.71000 124.424
62.72000 123.821
62.73000 122.459
62.74000 120.911
62.75000 118.686
62.76000 116.401
62.77000 114.754
62.78000 122.055
62.79000 127.964
62.80000 130.301
62.81000 126.643
62.82000 122.890
62.83000 123.491
62.84000 128.947
62.85000 134.388
62.86000 132.689
62.87000 125.869
62.88000 119.258
62.89000 119.769
62.90000 123.772
62.91000 127.649
62.92000 129.639
62.93000 130.997
62.94000 132.235
62.95000 127.971
62.96000 123.095
62.97000 119.188
62.98000 120.382
62.99000 122.317
63.00000 123.941
63.01000 124.478
63.02000 124.922
63.03000 125.238
63.04000 126.942
63.05000 128.286
63.06000 129.556
63.07000 130.706
63.08000 131.854
63.09000 131.526
63.10000 129.616
63.11000 127.714
63.12000 126.569
63.13000 125.959
63.14000 125.401
63.15000 126.434
63.16000 128.221
63.17000 129.926
63.18000 130.488
63.19000 130.680
63.20000 130.854
63.21000 129.849
63.22000 128.737
63.23000 127.958
63.24000 128.860
63.25000 129.996
63.26000 130.619
63.27000 129.513
63.28000 128.266
63.29000 127.387
63.30000 134.203
63.31000 139.603
63.32000 140.771
63.33000 135.333
63.34000 129.816
63.35000 126.661
63.36000 125.937
63.37000 125.217
63.38000 125.862
63.39000 127.407
63.40000 128.949
63.41000 130.395
63.42000 131.798
63.43000 133.169
63.44000 134.113
63.45000 134.923
63.46000 135.654
63.47000 133.691
63.48000 131.473
63.49000 129.427
63.50000 128.221
63.51000 127.127
63.52000 127.859
63.53000 134.528
63.54000 141.656
63.55000 146.623
63.56000 141.853
63.57000 137.986
63.58000 135.631
63.59000 135.551
63.60000 135.494
63.61000 136.123
63.62000 137.430
63.63000 138.728
63.64000 137.788
63.65000 135.430
63.66000 133.161
63.67000 133.231
63.68000 134.335
63.69000 135.529
63.70000 137.864
63.71000 140.542
63.72000 142.947
63.73000 140.341
63.74000 137.182
63.75000 134.763
63.76000 135.811
63.77000 137.301
63.78000 138.660
63.79000 139.609
63.80000 140.528
63.81000 141.161
63.82000 142.006
63.83000 142.645
63.84000 143.410
63.85000 144.359
63.86000 145.308
63.87000 144.471
63.88000 141.938
63.89000 139.426
63.90000 138.431
63.91000 138.388
63.92000 138.242
63.93000 135.603
63.94000 131.901
63.95000 128.587
63.96000 129.881
63.97000 132.514
63.98000 134.864
63.99000 140.551
64.00000 146.065
64.01000 150.675
64.02000 151.212
64.03000 151.253
64.04000 149.783
64.05000 143.729
64.06000 137.360
64.07000 133.025
64.08000 140.952
64.09000 147.153
64.10000 149.600
64.11000 146.798
64.12000 143.962
64.13000 144.091
64.14000 146.922
64.15000 149.727
64.16000 148.407
64.17000 144.670
64.18000 141.220
64.19000 144.166
64.20000 149.746
64.21000 154.525
64.22000 150.295
64.23000 143.543
64.24000 137.545
64.25000 140.130
64.26000 143.753
64.27000 146.231
64.28000 143.733
64.29000 140.658
64.30000 138.924
64.31000 141.118
64.32000 143.564
64.33000 145.209
64.34000 145.239
64.35000 145.228
64.36000 145.865
64.37000 147.375
64.38000 148.891
64.39000 151.310
64.40000 154.520
64.41000 157.695
64.42000 156.926
64.43000 153.925
64.44000 151.117
64.45000 152.278
64.46000 155.017
64.47000 157.266
64.48000 154.290
64.49000 149.903
64.50000 146.027
64.51000 153.810
64.52000 162.325
64.53000 168.243
64.54000 163.295
64.55000 157.145
64.56000 153.799
64.57000 158.372
64.58000 163.424
64.59000 166.779
64.60000 163.936
64.61000 161.718
64.62000 160.645
64.63000 161.054
64.64000 161.470
64.65000 161.564
64.66000 161.388
64.67000 161.214
64.68000 161.308
64.69000 161.548
64.70000 161.946
64.71000 165.394
64.72000 170.013
64.73000 174.124
64.74000 173.094
64.75000 170.723
64.76000 168.642
64.77000 165.327
64.78000 162.297
64.79000 159.930
64.80000 160.242
64.81000 160.835
64.82000 160.928
64.83000 159.659
64.84000 158.313
64.85000 157.430
64.86000 167.248
64.87000 174.644
64.88000 180.196
64.89000 183.445
64.90000 186.676
64.91000 185.573
64.92000 180.959
64.93000 176.408
64.94000 177.494
64.95000 181.527
64.96000 185.443
64.97000 187.272
64.98000 188.327
64.99000 189.194
65.00000 188.254
65.01000 186.861
65.02000 185.644
65.03000 189.262
65.04000 193.038
65.05000 197.777
65.06000 206.262
65.07000 215.122
65.08000 219.701
65.09000 213.003
65.10000 205.706
65.11000 200.986
65.12000 199.823
65.13000 199.024
65.14000 199.950
65.15000 202.947
65.16000 205.939
65.17000 206.458
65.18000 205.048
65.19000 203.660
65.20000 204.961
65.21000 207.587
65.22000 210.060
65.23000 209.937
65.24000 208.885
65.25000 209.101
65.26000 220.953
65.27000 235.620
65.28000 248.351
65.29000 250.211
65.30000 250.337
65.31000 250.365
65.32000 250.032
65.33000 249.664
65.34000 248.833
65.35000 246.824
65.36000 244.758
65.37000 243.438
65.38000 237.772
65.39000 233.594
65.40000 237.816
65.41000 251.751
65.42000 265.653
65.43000 270.449
65.44000 268.402
65.45000 266.392
65.46000 273.616
65.47000 285.111
65.48000 296.153
65.49000 300.050
65.50000 301.476
65.51000 303.675
65.52000 312.627
65.53000 323.153
65.54000 332.234
65.55000 328.965
65.56000 324.608
65.57000 323.627
65.58000 334.841
65.59000 347.157
65.60000 358.234
65.61000 366.266
65.62000 374.158
65.63000 379.126
65.64000 417.941
65.65000 446.408
65.66000 485.472
65.67000 536.313
65.68000 587.273
65.69000 655.896
65.70000 737.302
65.71000 817.120
65.72000 930.164
65.73000 1054.648
65.74000 1179.398
65.75000 1308.118
65.76000 1438.164
65.77000 1564.645
65.78000 1661.363
65.79000 1751.399
65.80000 1828.582
65.81000 1875.071
65.82000 1910.579
65.83000 1943.080
65.84000 1965.097
65.85000 1986.217
65.86000 1998.344
65.87000 1989.141
65.88000 1979.031
65.89000 1972.756
65.90000 1960.607
65.91000 1951.808
65.92000 1910.932
65.93000 1835.797
65.94000 1760.437
65.95000 1657.237
65.96000 1534.623
65.97000 1414.659
65.98000 1276.975
65.99000 1136.814
66.00000 998.793
66.01000 890.752
66.02000 792.366
66.03000 698.078
66.04000 636.476
66.05000 581.937
66.06000 535.487
66.07000 490.604
66.08000 453.051
66.09000 421.110
66.10000 408.036
66.11000 396.494
66.12000 388.668
66.13000 389.356
66.14000 390.378
66.15000 391.004
66.16000 384.576
66.17000 379.918
66.18000 377.997
66.19000 378.883
66.20000 379.751
66.21000 378.734
66.22000 376.450
66.23000 374.221
66.24000 383.147
66.25000 396.549
66.26000 410.417
66.27000 430.449
66.28000 452.396
66.29000 475.233
66.30000 504.845
66.31000 535.867
66.32000 562.112
66.33000 585.486
66.34000 604.730
66.35000 620.343
66.36000 624.177
66.37000 627.107
66.38000 626.793
66.39000 619.302
66.40000 611.552
66.41000 606.882
66.42000 618.743
66.43000 627.298
66.44000 627.062
66.45000 618.169
66.46000 609.309
66.47000 603.280
66.48000 599.087
66.49000 595.003
66.50000 571.217
66.51000 540.279
66.52000 510.307
66.53000 492.415
66.54000 478.147
66.55000 463.513
66.56000 446.215
66.57000 428.383
66.58000 413.399
66.59000 402.723
66.60000 394.282
66.61000 384.363
66.62000 369.817
66.63000 354.936
66.64000 345.878
66.65000 349.260
66.66000 353.056
66.67000 355.307
66.68000 344.979
66.69000 337.600
66.70000 335.610
66.71000 338.715
66.72000 341.814
66.73000 344.453
66.74000 346.805
66.75000 349.090
66.76000 343.782
66.77000 335.675
66.78000 328.684
66.79000 334.894
66.80000 344.925
66.81000 353.412
66.82000 351.134
66.83000 346.784
66.84000 343.155
66.85000 346.485
66.86000 349.946
66.87000 352.528
66.88000 352.452
66.89000 352.195
66.90000 355.256
66.91000 365.161
66.92000 375.274
66.93000 381.179
66.94000 374.257
66.95000 369.330
66.96000 367.180
66.97000 367.552
66.98000 367.858
66.99000 363.743
67.00000 356.963
67.01000 350.394
67.02000 353.294
67.03000 359.719
67.04000 365.782
67.05000 367.785
67.06000 368.655
67.07000 369.245
67.08000 367.972
67.09000 366.353
67.10000 365.012
67.11000 375.371
67.12000 385.040
67.13000 391.404
67.14000 388.122
67.15000 384.221
67.16000 381.006
67.17000 379.159
67.18000 377.348
67.19000 376.309
67.20000 378.143
67.21000 379.441
67.22000 385.098
67.23000 394.559
67.24000 403.891
67.25000 405.796
67.26000 403.379
67.27000 401.043
67.28000 400.002
67.29000 399.505
67.30000 399.127
67.31000 400.013
67.32000 401.239
67.33000 403.045
67.34000 408.559
67.35000 414.732
67.36000 419.808
67.37000 419.360
67.38000 418.492
67.39000 416.429
67.40000 410.998
67.41000 405.363
67.42000 404.401
67.43000 412.422
67.44000 420.666
67.45000 425.324
67.46000 427.706
67.47000 429.342
67.48000 423.203
67.49000 410.537
67.50000 398.140
67.51000 399.565
67.52000 408.747
67.53000 417.595
67.54000 423.045
67.55000 426.943
67.56000 430.449
67.57000 429.993
67.58000 428.509
67.59000 427.844
67.60000 432.215
67.61000 437.446
67.62000 441.715
67.63000 437.194
67.64000 432.741
67.65000 430.631
67.66000 434.895
67.67000 439.517
67.68000 443.381
67.69000 445.837
67.70000 448.262
67.71000 449.608
67.72000 452.414
67.73000 454.355
67.74000 455.957
67.75000 457.284
67.76000 458.513
67.77000 455.257
67.78000 449.570
67.79000 444.107
67.80000 446.534
67.81000 451.537
67.82000 456.654
67.83000 462.869
67.84000 469.360
67.85000 474.308
67.86000 470.167
67.87000 464.538
67.88000 459.978
67.89000 462.301
67.90000 464.752
67.91000 468.842
67.92000 477.238
67.93000 485.861
67.94000 492.227
67.95000 494.552
67.96000 496.797
67.97000 498.022
67.98000 501.562
67.99000 503.975
68.00000 500.726
68.01000 493.074
68.02000 485.588
68.03000 484.853
68.04000 487.649
68.05000 490.327
68.06000 498.852
68.07000 508.749
68.08000 518.441
68.09000 526.242
68.10000 533.588
68.11000 540.006
68.12000 541.167
68.13000 541.502
68.14000 541.771
68.15000 537.648
68.16000 533.969
68.17000 531.834
68.18000 533.618
68.19000 535.595
68.20000 539.044
68.21000 545.037
68.22000 551.074
68.23000 554.309
68.24000 553.984
68.25000 553.762
68.26000 553.901
68.27000 554.309
68.28000 554.919
68.29000 562.937
68.30000 574.696
68.31000 585.924
68.32000 588.026
68.33000 587.057
68.34000 586.144
68.35000 585.725
68.36000 585.421
68.37000 588.080
68.38000 606.863
68.39000 628.073
68.40000 644.978
68.41000 653.789
68.42000 660.309
68.43000 665.324
68.44000 666.653
68.45000 667.813
68.46000 668.007
68.47000 666.590
68.48000 665.148
68.49000 664.389
68.50000 697.108
68.51000 719.235
68.52000 730.298
68.53000 733.379
68.54000 736.672
68.55000 747.047
68.56000 760.873
68.57000 774.033
68.58000 790.723
68.59000 807.259
68.60000 824.583
68.61000 848.472
68.62000 873.830
68.63000 903.931
68.64000 958.834
68.65000 1017.316
68.66000 1063.539
68.67000 1112.449
68.68000 1151.907
68.69000 1190.569
68.70000 1227.352
68.71000 1264.056
68.72000 1302.298
68.73000 1343.014
68.74000 1383.764
68.75000 1404.776
68.76000 1463.899
68.77000 1503.678
68.78000 1536.977
68.79000 1565.772
68.80000 1595.362
68.81000 1649.255
68.82000 1714.587
68.83000 1776.552
68.84000 1855.859
68.85000 1934.115
68.86000 2019.117
68.87000 2157.720
68.88000 2307.870
68.89000 2493.803
68.90000 2859.619
68.91000 3250.278
68.92000 3556.433
68.93000 4909.893
68.94000 6059.182
68.95000 7605.962
68.96000 10060.642
68.97000 12550.789
68.98000 15444.161
68.99000 18963.213
69.00000 22489.449
69.01000 24271.906
69.02000 29098.391
69.03000 32320.938
69.04000 34820.980
69.05000 36836.887
69.06000 38827.438
69.07000 40108.656
69.08000 41067.500
69.09000 41973.734
69.10000 42711.852
69.11000 43341.871
69.12000 43987.230
69.13000 44749.078
69.14000 45535.074
69.15000 46274.910
69.16000 46791.531
69.17000 47278.660
69.18000 47657.098
69.19000 46638.297
69.20000 45743.066
69.21000 44271.348
69.22000 41528.078
69.23000 38739.094
69.24000 36041.238
69.25000 33479.719
69.26000 30919.553
69.27000 28734.395
69.28000 26917.229
69.29000 25106.656
69.30000 23876.951
69.31000 23022.541
69.32000 22183.029
69.33000 21727.031
69.34000 21439.350
69.35000 21168.447
69.36000 20641.170
69.37000 20088.717
69.38000 19458.734
69.39000 18265.633
69.40000 16960.211
69.41000 15553.204
69.42000 13673.397
69.43000 11733.887
69.44000 10240.560
69.45000 8391.001
69.46000 6906.495
69.47000 5594.478
69.48000 4649.842
69.49000 3717.313
69.50000 2978.196
69.51000 2518.014
69.52000 2060.125
69.53000 1755.109
69.54000 1594.170
69.55000 1433.900
69.56000 1324.060
69.57000 1245.643
69.58000 1168.124
69.59000 1111.935
69.60000 1064.786
69.61000 1020.556
69.62000 972.741
69.63000 928.236
69.64000 885.848
69.65000 858.186
69.66000 833.348
69.67000 810.695
69.68000 797.833
69.69000 786.152
69.70000 777.240
69.71000 742.408
69.72000 713.579
69.73000 689.520
69.74000 675.269
69.75000 661.313
69.76000 649.534
69.77000 640.778
69.78000 632.044
69.79000 621.791
69.80000 610.172
69.81000 598.628
69.82000 592.046
69.83000 588.447
69.84000 584.593
69.85000 575.142
69.86000 563.400
69.87000 552.428
69.88000 545.350
69.89000 539.910
69.90000 535.253
69.91000 535.807
69.92000 537.322
69.93000 536.919
69.94000 528.241
69.95000 518.611
69.96000 511.332
69.97000 512.891
69.98000 514.555
69.99000 514.131
70.00000 509.558
