20.00000 477.766
20.01000 472.755
20.02000 467.029
20.03000 462.298
20.04000 461.479
20.05000 461.060
20.06000 460.751
20.07000 472.950
20.08000 482.926
20.09000 483.673
20.10000 467.639
20.11000 451.254
20.12000 447.348
20.13000 458.640
20.14000 469.947
20.15000 477.121
20.16000 481.009
20.17000 484.861
20.18000 487.142
20.19000 488.590
20.20000 489.853
20.21000 487.940
20.22000 484.876
20.23000 482.056
20.24000 469.506
20.25000 456.150
20.26000 445.530
20.27000 450.665
20.28000 458.319
20.29000 465.044
20.30000 468.238
20.31000 471.091
20.32000 473.173
20.33000 469.791
20.34000 466.970
20.35000 466.637
20.36000 470.668
20.37000 474.780
20.38000 474.230
20.39000 468.218
20.40000 462.213
20.41000 460.461
20.42000 461.936
20.43000 463.410
20.44000 464.848
20.45000 466.268
20.46000 467.357
20.47000 463.106
20.48000 456.986
20.49000 451.376
20.50000 451.886
20.51000 453.626
20.52000 454.486
20.53000 450.476
20.54000 445.719
20.55000 441.950
20.56000 441.792
20.57000 441.967
20.58000 442.093
20.59000 449.844
20.60000 456.065
20.61000 458.178
20.62000 453.335
20.63000 448.378
20.64000 448.446
20.65000 454.175
20.66000 459.889
20.67000 461.131
20.68000 459.111
20.69000 457.395
20.70000 466.231
20.71000 480.287
20.72000 492.911
20.73000 483.774
20.74000 467.289
20.75000 452.248
20.76000 452.764
20.77000 456.359
20.78000 459.604
20.79000 460.990
20.80000 462.103
20.81000 462.525
20.82000 460.513
20.83000 458.289
20.84000 456.699
20.85000 459.048
20.86000 460.973
20.87000 462.409
20.88000 463.048
20.89000 463.676
20.90000 465.889
20.91000 469.817
20.92000 473.729
20.93000 467.317
20.94000 453.755
20.95000 440.605
20.96000 440.543
20.97000 446.733
20.98000 452.952
20.99000 459.582
21.00000 466.347
21.01000 472.489
21.02000 474.114
21.03000 474.676
21.04000 475.235
21.05000 475.777
21.06000 476.316
21.07000 475.676
21.08000 471.020
21.09000 466.032
21.10000 462.506
21.11000 464.839
21.12000 466.791
21.13000 466.819
21.14000 463.817
21.15000 460.777
21.16000 459.265
21.17000 459.340
21.18000 459.416
21.19000 455.932
21.20000 450.099
21.21000 444.532
21.22000 446.706
21.23000 452.449
21.24000 457.912
21.25000 459.593
21.26000 460.084
21.27000 460.528
21.28000 465.166
21.29000 470.023
21.30000 472.228
21.31000 461.404
21.32000 448.824
21.33000 441.382
21.34000 450.809
21.35000 461.555
21.36000 469.066
21.37000 467.147
21.38000 465.432
21.39000 464.505
21.40000 464.774
21.41000 465.055
21.42000 469.550
21.43000 478.249
21.44000 486.893
21.45000 483.271
21.46000 471.769
21.47000 460.530
21.48000 456.315
21.49000 455.229
21.50000 454.256
21.51000 454.730
21.52000 455.643
21.53000 456.463
21.54000 460.638
21.55000 464.889
21.56000 468.050
21.57000 466.056
21.58000 463.399
21.59000 462.193
21.60000 465.587
21.61000 469.322
21.62000 471.902
21.63000 464.717
21.64000 459.064
21.65000 460.654
21.66000 472.855
21.67000 485.148
21.68000 483.979
21.69000 469.910
21.70000 455.947
21.71000 453.318
21.72000 457.784
21.73000 462.170
21.74000 464.584
21.75000 466.150
21.76000 467.535
21.77000 466.746
21.78000 465.320
21.79000 464.045
21.80000 462.648
21.81000 461.409
21.82000 462.459
21.83000 473.930
21.84000 486.682
21.85000 496.456
21.86000 497.122
21.87000 497.154
21.88000 497.175
21.89000 489.900
21.90000 484.288
21.91000 482.566
21.92000 486.336
21.93000 490.146
21.94000 493.676
21.95000 496.949
21.96000 500.193
21.97000 497.286
21.98000 490.753
21.99000 484.504
22.00000 484.720
22.01000 487.622
22.02000 490.727
22.03000 496.160
22.04000 502.251
22.05000 507.668
22.06000 503.226
22.07000 497.764
22.08000 492.690
22.09000 489.313
22.10000 486.135
22.11000 484.418
22.12000 487.015
22.13000 489.894
22.14000 491.837
22.15000 497.871
22.16000 502.447
22.17000 505.245
22.18000 505.625
22.19000 505.991
22.20000 506.934
22.21000 508.386
22.22000 509.824
22.23000 501.280
22.24000 487.176
22.25000 473.928
22.26000 478.779
22.27000 490.888
22.28000 501.286
22.29000 493.169
22.30000 480.005
22.31000 468.359
22.32000 467.135
22.33000 467.700
22.34000 469.459
22.35000 476.258
22.36000 483.622
22.37000 487.806
22.38000 482.923
22.39000 477.482
22.40000 473.857
22.41000 473.681
22.42000 473.616
22.43000 467.898
22.44000 454.774
22.45000 441.630
22.46000 436.303
22.47000 437.627
22.48000 438.934
22.49000 442.897
22.50000 448.233
22.51000 453.702
22.52000 461.796
22.53000 470.907
22.54000 478.375
22.55000 468.963
22.56000 455.115
22.57000 442.933
22.58000 445.197
22.59000 449.296
22.60000 452.043
22.61000 449.282
22.62000 445.934
22.63000 444.779
22.64000 449.658
22.65000 454.884
22.66000 458.322
22.67000 450.838
22.68000 445.141
22.69000 440.979
22.70000 438.752
22.71000 436.536
22.72000 435.888
22.73000 436.525
22.74000 437.153
22.75000 437.615
22.76000 437.976
22.77000 438.279
22.78000 437.506
22.79000 436.331
22.80000 435.335
22.81000 436.081
22.82000 437.269
22.83000 438.307
22.84000 440.133
22.85000 441.810
22.86000 444.547
22.87000 451.445
22.88000 458.765
22.89000 462.874
22.90000 458.447
22.91000 453.559
22.92000 450.386
22.93000 448.592
22.94000 447.300
22.95000 446.050
22.96000 444.853
22.97000 443.652
22.98000 441.334
22.99000 438.136
23.00000 434.986
23.01000 439.538
23.02000 447.905
23.03000 455.478
23.04000 449.449
23.05000 438.506
23.06000 428.389
23.07000 425.946
23.08000 425.376
23.09000 424.881
23.10000 432.299
23.11000 439.702
23.12000 444.887
23.13000 441.689
23.14000 437.682
23.15000 436.226
23.16000 441.316
23.17000 446.736
23.18000 450.208
23.19000 442.480
23.20000 436.700
23.21000 434.432
23.22000 436.266
23.23000 438.095
23.24000 437.578
23.25000 435.281
23.26000 433.023
23.27000 431.053
23.28000 429.292
23.29000 427.706
23.30000 428.931
23.31000 431.138
23.32000 433.320
23.33000 435.290
23.34000 437.210
23.35000 438.869
23.36000 433.499
23.37000 428.027
23.38000 425.524
23.39000 433.851
23.40000 443.170
23.41000 446.978
23.42000 437.126
23.43000 426.635
23.44000 420.007
23.45000 423.077
23.46000 425.415
23.47000 427.341
23.48000 428.806
23.49000 430.249
23.50000 428.149
23.51000 423.460
23.52000 418.860
23.53000 423.796
23.54000 433.086
23.55000 442.115
23.56000 447.214
23.57000 450.990
23.58000 454.434
23.59000 455.072
23.60000 455.075
23.61000 455.077
23.62000 452.026
23.63000 449.067
23.64000 446.326
23.65000 444.349
23.66000 442.438
23.67000 441.924
23.68000 444.755
23.69000 447.731
23.70000 449.585
23.71000 457.221
23.72000 462.783
23.73000 463.803
23.74000 459.922
23.75000 456.081
23.76000 457.748
23.77000 463.292
23.78000 468.719
23.79000 473.693
23.80000 478.263
23.81000 482.675
23.82000 484.848
23.83000 486.293
23.84000 487.616
23.85000 487.958
23.86000 488.084
23.87000 488.193
23.88000 495.661
23.89000 502.815
23.90000 506.520
23.91000 498.519
23.92000 489.555
23.93000 485.153
23.94000 491.297
23.95000 497.864
23.96000 501.896
23.97000 505.248
23.98000 507.645
23.99000 510.426
24.00000 513.607
24.01000 516.745
24.02000 515.161
24.03000 510.372
24.04000 505.694
24.05000 501.799
24.06000 498.414
24.07000 495.548
24.08000 499.640
24.09000 505.914
24.10000 511.099
24.11000 507.891
24.12000 502.921
24.13000 498.709
24.14000 484.933
24.15000 472.315
24.16000 462.771
24.17000 463.293
24.18000 464.598
24.19000 462.912
24.20000 454.548
24.21000 445.938
24.22000 440.730
24.23000 441.910
24.24000 442.798
24.25000 443.629
24.26000 444.404
24.27000 445.182
24.28000 446.171
24.29000 447.298
24.30000 448.397
24.31000 439.337
24.32000 426.389
24.33000 414.694
24.34000 418.880
24.35000 427.873
24.36000 435.172
24.37000 429.981
24.38000 422.265
24.39000 415.771
24.40000 411.065
24.41000 407.330
24.42000 404.975
24.43000 406.977
24.44000 409.299
24.45000 411.617
24.46000 413.925
24.47000 416.233
24.48000 417.608
24.49000 408.175
24.50000 401.426
24.51000 398.330
24.52000 398.722
24.53000 399.134
24.54000 401.030
24.55000 403.864
24.56000 406.619
24.57000 406.786
24.58000 405.890
24.59000 405.200
24.60000 406.982
24.61000 409.485
24.62000 411.709
24.63000 411.955
24.64000 411.816
24.65000 411.701
24.66000 409.098
24.67000 406.683
24.68000 402.886
24.69000 394.873
24.70000 386.567
24.71000 382.993
24.72000 389.266
24.73000 395.844
24.74000 399.700
24.75000 401.474
24.76000 402.715
24.77000 405.841
24.78000 410.697
24.79000 415.529
24.80000 418.759
24.81000 421.013
24.82000 423.199
24.83000 424.043
24.84000 424.315
24.85000 423.936
24.86000 416.177
24.87000 406.338
24.88000 397.980
24.89000 399.628
24.90000 403.146
24.91000 406.065
24.92000 411.436
24.93000 416.113
24.94000 418.504
24.95000 414.165
24.96000 409.386
24.97000 405.209
24.98000 402.240
24.99000 399.305
25.00000 397.612
25.01000 400.938
25.02000 403.287
25.03000 404.527
25.04000 404.791
25.05000 404.977
25.06000 400.495
25.07000 393.272
25.08000 386.286
25.09000 391.545
25.10000 401.133
25.11000 409.602
25.12000 406.027
25.13000 399.179
25.14000 393.019
25.15000 391.315
25.16000 390.411
25.17000 389.666
25.18000 386.305
25.19000 383.299
25.20000 380.721
25.21000 379.358
25.22000 378.069
25.23000 380.722
25.24000 391.025
25.25000 401.523
25.26000 407.480
25.27000 404.801
25.28000 402.913
25.29000 402.285
25.30000 402.727
25.31000 403.177
25.32000 404.088
25.33000 405.260
25.34000 406.390
25.35000 406.425
25.36000 406.061
25.37000 405.907
25.38000 407.910
25.39000 410.477
25.40000 411.560
25.41000 403.418
25.42000 393.685
25.43000 385.726
25.44000 386.230
25.45000 387.379
25.46000 387.703
25.47000 385.760
25.48000 383.687
25.49000 383.388
25.50000 386.411
25.51000 389.511
25.52000 391.240
25.53000 392.026
25.54000 392.572
25.55000 394.402
25.56000 397.279
25.57000 400.064
25.58000 398.485
25.59000 394.520
25.60000 390.707
25.61000 392.272
25.62000 395.618
25.63000 398.148
25.64000 392.741
25.65000 385.330
25.66000 379.966
25.67000 386.807
25.68000 395.667
25.69000 402.858
25.70000 412.898
25.71000 421.318
25.72000 423.788
25.73000 410.491
25.74000 396.347
25.75000 388.411
25.76000 391.694
25.77000 395.208
25.78000 397.133
25.79000 395.676
25.80000 394.655
25.81000 389.688
25.82000 381.622
25.83000 373.760
25.84000 374.461
25.85000 379.680
25.86000 384.683
25.87000 390.700
25.88000 396.658
25.89000 402.039
25.90000 402.080
25.91000 400.820
25.92000 399.521
25.93000 397.996
25.94000 396.434
25.95000 395.177
25.96000 388.956
25.97000 383.520
25.98000 380.697
25.99000 384.555
26.00000 388.748
26.01000 391.953
26.02000 393.434
26.03000 394.885
26.04000 395.665
26.05000 388.971
26.06000 384.408
26.07000 383.938
26.08000 386.563
26.09000 389.177
26.10000 391.399
26.11000 393.419
26.12000 395.350
26.13000 391.402
26.14000 385.829
26.15000 380.013
26.16000 372.056
26.17000 363.596
26.18000 358.129
26.19000 369.114
26.20000 382.603
26.21000 393.376
26.22000 396.993
26.23000 399.387
26.24000 400.306
26.25000 397.580
26.26000 394.685
26.27000 390.523
26.28000 384.231
26.29000 377.904
26.30000 374.562
26.31000 373.130
26.32000 372.181
26.33000 374.936
26.34000 380.390
26.35000 385.736
26.36000 387.365
26.37000 387.168
26.38000 386.980
26.39000 380.216
26.40000 371.905
26.41000 365.056
26.42000 370.514
26.43000 378.753
26.44000 385.329
26.45000 383.130
26.46000 379.650
26.47000 376.893
26.48000 379.119
26.49000 381.254
26.50000 382.493
26.51000 381.593
26.52000 380.601
26.53000 380.697
26.54000 382.562
26.55000 384.452
26.56000 385.431
26.57000 393.361
26.58000 398.628
26.59000 392.689
26.60000 378.885
26.61000 365.512
26.62000 365.601
26.63000 372.083
26.64000 378.236
26.65000 379.135
26.66000 378.395
26.67000 377.202
26.68000 372.377
26.69000 366.762
26.70000 363.340
26.71000 371.059
26.72000 380.334
26.73000 387.619
26.74000 377.407
26.75000 368.088
26.76000 363.589
26.77000 370.199
26.78000 377.252
26.79000 379.187
26.80000 373.109
26.81000 366.935
26.82000 363.798
26.83000 362.432
26.84000 361.525
26.85000 361.486
26.86000 362.034
26.87000 362.703
26.88000 366.805
26.89000 372.483
26.90000 377.853
26.91000 373.103
26.92000 365.826
26.93000 359.789
26.94000 363.274
26.95000 368.754
26.96000 374.535
26.97000 381.790
26.98000 389.243
26.99000 395.046
27.00000 382.186
27.01000 370.794
27.02000 362.542
27.03000 361.280
27.04000 360.274
27.05000 357.867
27.06000 353.343
27.07000 348.798
27.08000 351.066
27.09000 360.090
27.10000 369.016
27.11000 369.026
27.12000 363.222
27.13000 357.646
27.14000 358.043
27.15000 361.086
27.16000 363.954
27.17000 372.497
27.18000 381.887
27.19000 390.191
27.20000 390.517
27.21000 389.235
27.22000 387.061
27.23000 380.696
27.24000 373.795
27.25000 368.470
27.26000 369.250
27.27000 370.221
27.28000 371.293
27.29000 372.578
27.30000 373.870
27.31000 378.171
27.32000 386.854
27.33000 395.573
27.34000 391.651
27.35000 375.700
27.36000 359.914
27.37000 357.071
27.38000 362.368
27.39000 367.756
27.40000 375.365
27.41000 383.923
27.42000 391.959
27.43000 388.336
27.44000 381.935
27.45000 376.403
27.46000 376.978
27.47000 378.735
27.48000 379.924
27.49000 378.544
27.50000 376.849
27.51000 375.554
27.52000 371.585
27.53000 368.309
27.54000 366.007
27.55000 365.728
27.56000 365.510
27.57000 365.840
27.58000 366.938
27.59000 368.041
27.60000 366.120
27.61000 361.436
27.62000 356.806
27.63000 355.774
27.64000 356.926
27.65000 358.290
27.66000 364.427
27.67000 372.534
27.68000 380.118
27.69000 379.087
27.70000 375.952
27.71000 372.231
27.72000 364.561
27.73000 356.156
27.74000 350.730
27.75000 358.280
27.76000 367.341
27.77000 374.206
27.78000 374.711
27.79000 374.784
27.80000 372.893
27.81000 367.065
27.82000 361.127
27.83000 357.963
27.84000 358.549
27.85000 359.156
27.86000 359.274
27.87000 358.962
27.88000 358.682
27.89000 360.273
27.90000 362.958
27.91000 365.408
27.92000 362.953
27.93000 358.542
27.94000 354.433
27.95000 353.838
27.96000 354.161
27.97000 354.947
27.98000 358.715
27.99000 363.018
28.00000 365.423
28.01000 359.864
28.02000 353.420
28.03000 348.584
28.04000 361.177
28.05000 371.844
28.06000 378.189
28.07000 376.174
28.08000 373.947
28.09000 371.704
28.10000 369.442
28.11000 367.181
28.12000 363.858
28.13000 359.646
28.14000 355.504
28.15000 354.948
28.16000 356.418
28.17000 357.753
28.18000 356.471
28.19000 354.182
28.20000 352.058
28.21000 360.477
28.22000 370.543
28.23000 378.202
28.24000 370.967
28.25000 361.172
28.26000 355.662
28.27000 367.486
28.28000 381.143
28.29000 391.292
28.30000 377.869
28.31000 366.388
28.32000 358.997
28.33000 359.242
28.34000 359.661
28.35000 360.525
28.36000 361.946
28.37000 363.367
28.38000 361.888
28.39000 358.064
28.40000 354.334
28.41000 354.948
28.42000 357.930
28.43000 360.692
28.44000 359.482
28.45000 356.795
28.46000 354.312
28.47000 354.906
28.48000 356.135
28.49000 356.442
28.50000 351.280
28.51000 345.217
28.52000 342.151
28.53000 350.770
28.54000 360.564
28.55000 367.770
28.56000 358.725
28.57000 351.057
28.58000 346.978
28.59000 349.369
28.60000 351.891
28.61000 354.693
28.62000 357.830
28.63000 360.962
28.64000 357.565
28.65000 349.101
28.66000 340.860
28.67000 341.927
28.68000 347.890
28.69000 353.627
28.70000 355.523
28.71000 356.040
28.72000 356.515
28.73000 356.163
28.74000 355.668
28.75000 355.695
28.76000 358.694
28.77000 362.163
28.78000 363.472
28.79000 356.664
28.80000 349.078
28.81000 343.555
28.82000 351.666
28.83000 358.432
28.84000 361.674
28.85000 358.787
28.86000 355.789
28.87000 353.136
28.88000 350.884
28.89000 348.639
28.90000 350.138
28.91000 354.430
28.92000 358.520
28.93000 355.009
28.94000 347.638
28.95000 340.720
28.96000 340.997
28.97000 343.769
28.98000 346.306
28.99000 350.317
29.00000 354.192
29.01000 357.543
29.02000 358.028
29.03000 358.079
29.04000 357.446
29.05000 354.338
29.06000 351.004
29.07000 348.603
29.08000 358.752
29.09000 366.972
29.10000 369.963
29.11000 364.178
29.12000 358.255
29.13000 355.763
29.14000 357.099
29.15000 358.433
29.16000 354.738
29.17000 347.456
29.18000 340.361
29.19000 339.654
29.20000 342.079
29.21000 344.220
29.22000 342.101
29.23000 338.556
29.24000 335.326
29.25000 344.173
29.26000 354.422
29.27000 362.019
29.28000 355.661
29.29000 347.274
29.30000 341.318
29.31000 343.856
29.32000 347.126
29.33000 349.456
29.34000 341.043
29.35000 334.278
29.36000 336.288
29.37000 352.504
29.38000 368.916
29.39000 370.500
29.40000 356.193
29.41000 341.946
29.42000 341.659
29.43000 351.038
29.44000 360.146
29.45000 360.870
29.46000 357.624
29.47000 354.483
29.48000 352.818
29.49000 351.630
29.50000 350.553
29.51000 346.664
29.52000 342.696
29.53000 341.171
29.54000 352.014
29.55000 364.577
29.56000 371.762
29.57000 360.804
29.58000 348.366
29.59000 339.598
29.60000 348.279
29.61000 355.388
29.62000 360.785
29.63000 363.510
29.64000 366.203
29.65000 365.094
29.66000 360.070
29.67000 355.074
29.68000 349.842
29.69000 344.519
29.70000 339.374
29.71000 339.263
29.72000 341.454
29.73000 343.739
29.74000 347.282
29.75000 351.218
29.76000 354.770
29.77000 358.617
29.78000 362.052
29.79000 365.555
29.80000 369.392
29.81000 373.273
29.82000 375.642
29.83000 373.088
29.84000 370.155
29.85000 368.110
29.86000 373.511
29.87000 377.792
29.88000 381.506
29.89000 384.367
29.90000 387.219
29.91000 385.722
29.92000 379.928
29.93000 374.172
29.94000 373.426
29.95000 375.898
29.96000 378.273
29.97000 378.106
29.98000 376.817
29.99000 375.771
30.00000 377.790
30.01000 380.731
30.02000 383.371
30.03000 387.560
30.04000 391.495
30.05000 394.440
30.06000 392.744
30.07000 390.458
30.08000 387.921
30.09000 384.596
30.10000 381.214
30.11000 378.884
30.12000 371.985
30.13000 366.690
30.14000 370.608
30.15000 387.896
30.16000 405.293
30.17000 407.917
30.18000 396.524
30.19000 385.221
30.20000 380.108
30.21000 378.896
30.22000 377.728
30.23000 377.614
30.24000 377.949
30.25000 378.451
30.26000 380.937
30.27000 383.998
30.28000 386.732
30.29000 379.847
30.30000 372.233
30.31000 367.066
30.32000 372.932
30.33000 380.140
30.34000 384.898
30.35000 382.230
30.36000 379.052
30.37000 376.889
30.38000 372.537
30.39000 369.237
30.40000 365.352
30.41000 360.650
30.42000 355.945
30.43000 356.581
30.44000 362.085
30.45000 367.538
30.46000 364.540
30.47000 356.594
30.48000 348.888
30.49000 346.545
30.50000 346.411
30.51000 347.456
30.52000 361.767
30.53000 379.794
30.54000 395.808
30.55000 385.915
30.56000 373.166
30.57000 362.431
30.58000 360.446
30.59000 359.477
30.60000 360.154
30.61000 365.652
30.62000 371.461
30.63000 375.368
30.64000 382.545
30.65000 387.946
30.66000 387.115
30.67000 377.889
30.68000 368.629
30.69000 369.939
30.70000 380.510
30.71000 390.967
30.72000 387.314
30.73000 375.695
30.74000 364.570
30.75000 363.672
30.76000 366.841
30.77000 370.181
30.78000 375.349
30.79000 381.011
30.80000 386.012
30.81000 384.539
30.82000 382.271
30.83000 381.297
30.84000 385.741
30.85000 390.785
30.86000 395.846
30.87000 400.954
30.88000 406.066
30.89000 409.461
30.90000 412.452
30.91000 414.655
30.92000 413.251
30.93000 407.165
30.94000 401.089
30.95000 411.733
30.96000 436.463
30.97000 460.891
30.98000 472.733
30.99000 477.369
31.00000 481.908
31.01000 484.603
31.02000 486.590
31.03000 489.164
31.04000 497.692
31.05000 507.770
31.06000 516.623
31.07000 527.901
31.08000 537.953
31.09000 550.226
31.10000 571.455
31.11000 593.627
31.12000 613.436
31.13000 626.794
31.14000 639.787
31.15000 648.305
31.16000 683.819
31.17000 710.381
31.18000 732.278
31.19000 748.346
31.20000 764.420
31.21000 789.268
31.22000 821.228
31.23000 852.743
31.24000 888.899
31.25000 926.485
31.26000 963.184
31.27000 983.869
31.28000 998.616
31.29000 1014.588
31.30000 1042.373
31.31000 1073.123
31.32000 1099.976
31.33000 1121.592
31.34000 1139.355
31.35000 1156.436
31.36000 1170.866
31.37000 1185.029
31.38000 1193.963
31.39000 1189.119
31.40000 1183.544
31.41000 1179.938
31.42000 1163.100
31.43000 1150.590
31.44000 1127.059
31.45000 1090.279
31.46000 1053.540
31.47000 1035.164
31.48000 1031.117
31.49000 1027.132
31.50000 1010.756
31.51000 988.591
31.52000 965.905
31.53000 934.433
31.54000 899.816
31.55000 865.883
31.56000 838.238
31.57000 812.114
31.58000 789.437
31.59000 752.367
31.60000 718.845
31.61000 688.458
31.62000 669.816
31.63000 652.293
31.64000 633.445
31.65000 611.229
31.66000 588.846
31.67000 574.559
31.68000 553.354
31.69000 537.838
31.70000 525.569
31.71000 517.053
31.72000 508.514
31.73000 494.171
31.74000 475.467
31.75000 457.091
31.76000 447.020
31.77000 441.356
31.78000 435.869
31.79000 433.207
31.80000 431.521
31.81000 429.710
31.82000 426.805
31.83000 423.645
31.84000 420.919
31.85000 411.616
31.86000 402.880
31.87000 393.440
31.88000 381.457
31.89000 369.243
31.90000 362.380
31.91000 368.663
31.92000 375.549
31.93000 379.884
31.94000 372.379
31.95000 366.816
31.96000 362.953
31.97000 360.982
31.98000 359.024
31.99000 359.002
32.00000 360.381
32.01000 361.732
32.02000 360.725
32.03000 358.644
32.04000 356.642
32.05000 355.812
32.06000 355.373
32.07000 355.114
32.08000 356.357
32.09000 357.939
32.10000 359.294
32.11000 354.168
32.12000 349.047
32.13000 345.654
32.14000 348.288
32.15000 351.439
32.16000 353.819
32.17000 354.370
32.18000 354.843
32.19000 355.136
32.20000 353.363
32.21000 352.067
32.22000 348.439
32.23000 342.322
32.24000 336.236
32.25000 334.417
32.26000 335.574
32.27000 336.706
32.28000 332.240
32.29000 325.418
32.30000 319.431
32.31000 325.137
32.32000 334.611
32.33000 342.982
32.34000 342.558
32.35000 340.234
32.36000 338.255
32.37000 337.687
32.38000 337.374
32.39000 336.622
32.40000 334.394
32.41000 332.047
32.42000 328.286
32.43000 321.289
32.44000 314.164
32.45000 309.807
32.46000 319.333
32.47000 326.266
32.48000 327.394
32.49000 322.567
32.50000 317.777
32.51000 316.874
32.52000 318.586
32.53000 320.257
32.54000 325.318
32.55000 331.637
32.56000 337.335
32.57000 334.817
32.58000 329.746
32.59000 325.535
32.60000 327.880
32.61000 331.589
32.62000 334.727
32.63000 327.022
32.64000 319.370
32.65000 312.857
32.66000 310.040
32.67000 307.506
32.68000 307.587
32.69000 313.454
32.70000 319.530
32.71000 323.191
32.72000 324.113
32.73000 324.750
32.74000 327.283
32.75000 331.683
32.76000 336.018
32.77000 334.548
32.78000 329.317
32.79000 324.222
32.80000 337.436
32.81000 357.716
32.82000 377.093
32.83000 385.190
32.84000 389.904
32.85000 395.693
32.86000 409.332
32.87000 424.541
32.88000 437.322
32.89000 457.439
32.90000 474.975
32.91000 488.846
32.92000 491.238
32.93000 492.799
32.94000 500.076
32.95000 519.567
32.96000 539.463
32.97000 551.268
32.98000 542.988
32.99000 537.014
33.00000 532.670
33.01000 529.867
33.02000 526.968
33.03000 516.724
33.04000 501.889
33.05000 487.476
33.06000 469.757
33.07000 451.592
33.08000 433.748
33.09000 419.714
33.10000 406.782
33.11000 393.728
33.12000 379.823
33.13000 365.755
33.14000 354.016
33.15000 346.377
33.16000 340.454
33.17000 333.910
33.18000 325.491
33.19000 316.943
33.20000 310.560
33.21000 308.641
33.22000 306.858
33.23000 305.816
33.24000 302.077
33.25000 299.436
33.26000 300.230
33.27000 304.144
33.28000 308.017
33.29000 309.123
33.30000 308.560
33.31000 308.014
33.32000 304.809
33.33000 300.741
33.34000 297.186
33.35000 299.379
33.36000 303.176
33.37000 306.338
33.38000 305.251
33.39000 303.378
33.40000 301.826
33.41000 300.225
33.42000 298.899
33.43000 298.445
33.44000 300.538
33.45000 302.793
33.46000 302.162
33.47000 295.781
33.48000 289.242
33.49000 285.485
33.50000 292.951
33.51000 298.206
33.52000 298.196
33.53000 293.587
33.54000 289.003
33.55000 285.900
33.56000 283.658
33.57000 281.491
33.58000 289.123
33.59000 299.985
33.60000 309.240
33.61000 301.404
33.62000 288.966
33.63000 278.253
33.64000 278.594
33.65000 280.899
33.66000 282.794
33.67000 291.857
33.68000 299.955
33.69000 304.717
33.70000 300.081
33.71000 294.879
33.72000 293.930
33.73000 301.161
33.74000 308.596
33.75000 312.796
33.76000 301.516
33.77000 293.644
33.78000 292.965
33.79000 298.328
33.80000 303.559
33.81000 302.103
33.82000 296.893
33.83000 291.872
33.84000 293.764
33.85000 298.029
33.86000 302.133
33.87000 304.614
33.88000 306.673
33.89000 307.546
33.90000 301.130
33.91000 293.470
33.92000 287.218
33.93000 296.360
33.94000 305.159
33.95000 310.576
33.96000 306.787
33.97000 302.480
33.98000 302.396
33.99000 310.152
34.00000 318.084
34.01000 322.489
34.02000 315.721
34.03000 311.033
34.04000 310.261
34.05000 312.655
34.06000 315.021
34.07000 316.135
34.08000 316.569
34.09000 316.987
34.10000 316.796
34.11000 316.406
34.12000 315.924
34.13000 314.564
34.14000 312.984
34.15000 313.024
34.16000 322.619
34.17000 333.780
34.18000 342.819
34.19000 336.464
34.20000 330.038
34.21000 324.492
34.22000 321.256
34.23000 318.142
34.24000 317.980
34.25000 323.106
34.26000 328.337
34.27000 331.191
34.28000 324.510
34.29000 319.933
34.30000 321.881
34.31000 328.903
34.32000 335.777
34.33000 336.573
34.34000 334.191
34.35000 331.909
34.36000 333.282
34.37000 335.780
34.38000 338.345
34.39000 341.536
34.40000 344.877
34.41000 346.314
34.42000 336.971
34.43000 325.933
34.44000 317.064
34.45000 326.046
34.46000 334.698
34.47000 338.821
34.48000 331.456
34.49000 323.527
34.50000 319.552
34.51000 322.415
34.52000 325.398
34.53000 326.996
34.54000 319.153
34.55000 313.804
34.56000 310.458
34.57000 308.612
34.58000 306.784
34.59000 305.593
34.60000 304.724
34.61000 303.893
34.62000 299.895
34.63000 295.165
34.64000 291.446
34.65000 296.545
34.66000 303.694
34.67000 308.673
34.68000 301.851
34.69000 293.252
34.70000 286.398
34.71000 283.609
34.72000 281.654
34.73000 280.425
34.74000 280.977
34.75000 281.609
34.76000 285.471
34.77000 294.719
34.78000 304.051
34.79000 308.957
34.80000 294.011
34.81000 283.942
34.82000 285.291
34.83000 294.879
34.84000 304.060
34.85000 299.641
34.86000 288.591
34.87000 278.074
34.88000 273.816
34.89000 271.803
34.90000 270.659
34.91000 276.754
34.92000 284.468
34.93000 289.769
34.94000 282.453
34.95000 273.316
34.96000 266.094
34.97000 269.699
34.98000 273.336
34.99000 276.203
35.00000 277.249
35.01000 278.217
35.02000 276.990
35.03000 272.232
35.04000 267.426
35.05000 264.947
35.06000 274.357
35.07000 280.640
35.08000 279.594
35.09000 273.452
35.10000 267.644
35.11000 272.025
35.12000 281.203
35.13000 289.909
35.14000 287.101
35.15000 281.104
35.16000 275.419
35.17000 272.212
35.18000 269.539
35.19000 266.937
35.20000 264.692
35.21000 262.497
35.22000 260.776
35.23000 261.717
35.24000 262.641
35.25000 264.565
35.26000 268.772
35.27000 273.068
35.28000 274.422
35.29000 271.210
35.30000 267.945
35.31000 266.295
35.32000 270.753
35.33000 273.696
35.34000 272.488
35.35000 268.498
35.36000 264.538
35.37000 261.398
35.38000 258.632
35.39000 256.017
35.40000 259.053
35.41000 263.449
35.42000 267.733
35.43000 271.163
35.44000 274.417
35.45000 276.417
35.46000 272.355
35.47000 267.492
35.48000 263.714
35.49000 267.574
35.50000 271.107
35.51000 272.477
35.52000 269.072
35.53000 265.496
35.54000 262.846
35.55000 261.584
35.56000 260.335
35.57000 259.881
35.58000 260.207
35.59000 260.547
35.60000 262.098
35.61000 264.432
35.62000 266.630
35.63000 265.333
35.64000 262.501
35.65000 259.834
35.66000 267.606
35.67000 277.572
35.68000 285.688
35.69000 280.373
35.70000 272.378
35.71000 266.075
35.72000 267.650
35.73000 270.220
35.74000 272.198
35.75000 268.333
35.76000 264.939
35.77000 264.147
35.78000 268.899
35.79000 273.833
35.80000 276.329
35.81000 275.309
35.82000 274.261
35.83000 270.641
35.84000 264.599
35.85000 258.598
35.86000 255.714
35.87000 254.772
35.88000 253.859
35.89000 253.649
35.90000 253.737
35.91000 253.819
35.92000 253.587
35.93000 253.294
35.94000 253.150
35.95000 254.038
35.96000 255.124
35.97000 256.459
35.98000 258.904
35.99000 261.483
36.00000 263.451
36.01000 263.276
36.02000 263.024
36.03000 262.626
36.04000 261.929
36.05000 261.223
36.06000 258.774
36.07000 253.902
36.08000 249.017
36.09000 247.994
36.10000 250.467
36.11000 252.959
36.12000 256.691
36.13000 261.169
36.14000 265.296
36.15000 261.695
36.16000 254.929
36.17000 248.607
36.18000 245.584
36.19000 243.673
36.20000 242.065
36.21000 242.473
36.22000 243.252
36.23000 244.244
36.24000 246.151
36.25000 248.163
36.26000 249.685
36.27000 245.950
36.28000 242.759
36.29000 241.619
36.30000 244.552
36.31000 247.596
36.32000 249.343
36.33000 249.353
36.34000 249.354
36.35000 253.299
36.36000 260.665
36.37000 267.854
36.38000 264.976
36.39000 256.259
36.40000 247.995
36.41000 249.017
36.42000 253.709
36.43000 258.076
36.44000 253.298
36.45000 246.761
36.46000 240.859
36.47000 239.010
36.48000 237.878
36.49000 238.733
36.50000 247.847
36.51000 257.867
36.52000 265.368
36.53000 260.593
36.54000 256.293
36.55000 253.390
36.56000 253.163
36.57000 253.003
36.58000 251.435
36.59000 248.051
36.60000 244.665
36.61000 246.053
36.62000 251.423
36.63000 256.727
36.64000 258.648
36.65000 258.675
36.66000 258.552
36.67000 255.567
36.68000 251.489
36.69000 247.710
36.70000 245.462
36.71000 243.795
36.72000 242.668
36.73000 244.838
36.74000 247.569
36.75000 249.671
36.76000 249.252
36.77000 248.569
36.78000 248.063
36.79000 254.593
36.80000 259.971
36.81000 264.442
36.82000 267.233
36.83000 269.987
36.84000 269.323
36.85000 264.415
36.86000 259.503
36.87000 260.980
36.88000 267.578
36.89000 274.035
36.90000 274.194
36.91000 270.949
36.92000 267.704
36.93000 264.454
36.94000 261.202
36.95000 258.201
36.96000 257.891
36.97000 258.214
36.98000 258.907
36.99000 261.767
37.00000 264.982
37.01000 268.340
37.02000 272.252
37.03000 276.219
37.04000 279.130
37.05000 276.274
37.06000 273.833
37.07000 272.345
37.08000 272.560
37.09000 272.809
37.10000 275.585
37.11000 281.382
37.12000 287.171
37.13000 286.733
37.14000 281.496
37.15000 276.240
37.16000 270.229
37.17000 263.825
37.18000 257.433
37.19000 251.265
37.20000 245.176
37.21000 239.583
37.22000 245.665
37.23000 253.600
37.24000 260.884
37.25000 264.497
37.26000 267.535
37.27000 268.702
37.28000 262.902
37.29000 256.445
37.30000 251.755
37.31000 255.366
37.32000 258.454
37.33000 258.225
37.34000 252.279
37.35000 246.233
37.36000 244.188
37.37000 246.740
37.38000 249.289
37.39000 252.738
37.40000 256.830
37.41000 260.797
37.42000 260.167
37.43000 257.222
37.44000 254.469
37.45000 254.714
37.46000 255.988
37.47000 257.154
37.48000 252.808
37.49000 247.812
37.50000 244.416
37.51000 249.707
37.52000 256.301
37.53000 260.554
37.54000 256.396
37.55000 251.484
37.56000 247.954
37.57000 245.149
37.58000 243.028
37.59000 242.888
37.60000 246.041
37.61000 249.244
37.62000 251.594
37.63000 253.001
37.64000 254.403
37.65000 254.975
37.66000 254.950
37.67000 254.905
37.68000 254.196
37.69000 253.164
37.70000 252.121
37.71000 250.919
37.72000 249.665
37.73000 248.524
37.74000 247.619
37.75000 246.865
37.76000 246.204
37.77000 246.030
37.78000 245.926
37.79000 245.324
37.80000 242.997
37.81000 240.524
37.82000 238.766
37.83000 243.456
37.84000 247.232
37.85000 248.738
37.86000 246.602
37.87000 244.416
37.88000 247.184
37.89000 255.207
37.90000 263.194
37.91000 260.983
37.92000 251.807
37.93000 243.012
37.94000 245.776
37.95000 253.965
37.96000 261.425
37.97000 258.757
37.98000 252.847
37.99000 247.493
38.00000 247.147
38.01000 247.790
38.02000 247.851
38.03000 244.990
38.04000 241.728
38.05000 240.636
38.06000 246.800
38.07000 253.547
38.08000 258.290
38.09000 255.418
38.10000 253.018
38.11000 251.037
38.12000 249.706
38.13000 248.381
38.14000 249.555
38.15000 253.275
38.16000 256.973
38.17000 251.342
38.18000 239.636
38.19000 228.392
38.20000 229.984
38.21000 237.394
38.22000 244.946
38.23000 254.366
38.24000 264.363
38.25000 273.374
38.26000 274.375
38.27000 273.802
38.28000 273.575
38.29000 275.022
38.30000 276.689
38.31000 277.992
38.32000 278.124
38.33000 278.166
38.34000 278.195
38.35000 285.430
38.36000 291.077
38.37000 297.491
38.38000 305.051
38.39000 312.622
38.40000 321.157
38.41000 330.637
38.42000 340.050
38.43000 348.199
38.44000 355.418
38.45000 362.801
38.46000 374.384
38.47000 387.807
38.48000 401.178
38.49000 413.924
38.50000 426.483
38.51000 437.745
38.52000 459.819
38.53000 480.987
38.54000 502.467
38.55000 525.391
38.56000 548.498
38.57000 571.468
38.58000 594.012
38.59000 616.526
38.60000 631.990
38.61000 652.353
38.62000 667.743
38.63000 682.373
38.64000 695.911
38.65000 709.443
38.66000 733.895
38.67000 768.603
38.68000 803.026
38.69000 810.742
38.70000 802.023
38.71000 794.032
38.72000 803.208
38.73000 819.641
38.74000 833.751
38.75000 820.664
38.76000 799.753
38.77000 781.101
38.78000 760.771
38.79000 742.805
38.80000 726.166
38.81000 715.460
38.82000 705.467
38.83000 691.846
38.84000 667.323
38.85000 642.062
38.86000 624.919
38.87000 603.514
38.88000 587.452
38.89000 564.720
38.90000 532.748
38.91000 500.722
38.92000 475.701
38.93000 457.001
38.94000 438.481
38.95000 420.404
38.96000 402.958
38.97000 385.564
38.98000 369.289
38.99000 353.471
39.00000 338.382
39.01000 331.391
39.02000 326.647
39.03000 322.439
39.04000 309.773
39.05000 297.455
39.06000 285.710
39.07000 276.437
39.08000 267.447
39.09000 261.747
39.10000 265.591
39.11000 270.041
39.12000 273.025
39.13000 264.728
39.14000 258.344
39.15000 254.046
39.16000 252.535
39.17000 251.035
39.18000 247.871
39.19000 243.263
39.20000 238.706
39.21000 237.777
39.22000 238.918
39.23000 240.078
39.24000 241.627
39.25000 243.329
39.26000 244.782
39.27000 243.599
39.28000 241.710
39.29000 240.044
39.30000 240.696
39.31000 241.610
39.32000 241.861
39.33000 239.361
39.34000 236.561
39.35000 234.810
39.36000 235.995
39.37000 237.355
39.38000 238.255
39.39000 234.203
39.40000 231.122
39.41000 230.600
39.42000 233.366
39.43000 236.137
39.44000 234.933
39.45000 230.410
39.46000 225.945
39.47000 227.888
39.48000 233.265
39.49000 238.129
39.50000 233.270
39.51000 224.710
39.52000 217.593
39.53000 224.919
39.54000 235.972
39.55000 245.667
39.56000 241.725
39.57000 236.354
39.58000 233.128
39.59000 238.471
39.60000 244.705
39.61000 246.837
39.62000 237.876
39.63000 228.295
39.64000 222.034
39.65000 226.558
39.66000 230.054
39.67000 232.146
39.68000 232.503
39.69000 232.862
39.70000 235.810
39.71000 240.838
39.72000 245.794
39.73000 239.270
39.74000 226.930
39.75000 215.146
39.76000 213.217
39.77000 214.912
39.78000 216.989
39.79000 222.719
39.80000 229.357
39.81000 235.145
39.82000 230.546
39.83000 225.169
39.84000 221.512
39.85000 224.477
39.86000 228.099
39.87000 231.725
39.88000 235.365
39.89000 239.005
39.90000 241.353
39.91000 233.736
39.92000 228.031
39.93000 226.256
39.94000 229.159
39.95000 232.053
39.96000 230.378
39.97000 225.171
39.98000 220.048
39.99000 217.518
40.00000 216.373
40.01000 215.442
40.02000 218.067
40.03000 221.954
40.04000 225.415
40.05000 225.015
40.06000 223.691
40.07000 222.543
40.08000 223.335
40.09000 224.267
40.10000 225.424
40.11000 227.415
40.12000 229.484
40.13000 230.896
40.14000 230.649
40.15000 230.321
40.16000 230.112
40.17000 221.003
40.18000 214.273
40.19000 210.890
40.20000 211.340
40.21000 211.800
40.22000 213.461
40.23000 216.014
40.24000 218.522
40.25000 218.579
40.26000 217.448
40.27000 216.368
40.28000 216.095
40.29000 216.099
40.30000 216.676
40.31000 222.216
40.32000 228.901
40.33000 234.660
40.34000 227.277
40.35000 219.356
40.36000 213.673
40.37000 216.010
40.38000 219.062
40.39000 219.465
40.40000 213.416
40.41000 207.078
40.42000 203.101
40.43000 210.366
40.44000 215.739
40.45000 220.530
40.46000 224.683
40.47000 228.816
40.48000 230.101
40.49000 229.344
40.50000 228.602
40.51000 222.496
40.52000 214.120
40.53000 206.421
40.54000 208.634
40.55000 214.126
40.56000 218.693
40.57000 215.616
40.58000 210.839
40.59000 206.751
40.60000 212.431
40.61000 218.404
40.62000 224.160
40.63000 229.170
40.64000 234.117
40.65000 236.009
40.66000 230.716
40.67000 225.122
40.68000 221.663
40.69000 216.580
40.70000 212.912
40.71000 209.602
40.72000 206.669
40.73000 203.754
40.74000 202.987
40.75000 203.704
40.76000 204.406
40.77000 207.946
40.78000 212.614
40.79000 217.094
40.80000 218.981
40.81000 220.040
40.82000 221.382
40.83000 224.957
40.84000 229.010
40.85000 232.457
40.86000 224.395
40.87000 216.298
40.88000 210.338
40.89000 211.494
40.90000 213.221
40.91000 214.603
40.92000 215.206
40.93000 215.778
40.94000 216.127
40.95000 217.124
40.96000 217.842
40.97000 216.125
40.98000 211.936
40.99000 207.760
41.00000 204.859
41.01000 202.806
41.02000 200.804
41.03000 203.779
41.04000 208.773
41.05000 213.628
41.06000 216.676
41.07000 219.168
41.08000 221.386
41.09000 221.550
41.10000 221.290
41.11000 221.070
41.12000 217.817
41.13000 214.764
41.14000 212.437
41.15000 212.443
41.16000 212.626
41.17000 210.656
41.18000 203.964
41.19000 197.104
41.20000 192.987
41.21000 205.672
41.22000 214.798
41.23000 222.686
41.24000 229.369
41.25000 235.908
41.26000 230.196
41.27000 216.613
41.28000 203.393
41.29000 202.083
41.30000 205.786
41.31000 209.344
41.32000 211.117
41.33000 212.358
41.34000 213.387
41.35000 212.880
41.36000 212.068
41.37000 211.388
41.38000 215.167
41.39000 218.779
41.40000 220.825
41.41000 218.016
41.42000 214.860
41.43000 212.415
41.44000 211.479
41.45000 210.591
41.46000 210.066
41.47000 208.583
41.48000 207.529
41.49000 207.330
41.50000 207.929
41.51000 208.496
41.52000 206.651
41.53000 203.313
41.54000 200.072
41.55000 200.322
41.56000 201.956
41.57000 203.571
41.58000 204.959
41.59000 206.281
41.60000 206.969
41.61000 203.276
41.62000 198.748
41.63000 194.977
41.64000 202.293
41.65000 209.454
41.66000 214.757
41.67000 214.494
41.68000 213.858
41.69000 213.812
41.70000 214.974
41.71000 216.171
41.72000 216.868
41.73000 211.456
41.74000 207.629
41.75000 206.490
41.76000 207.767
41.77000 209.096
41.78000 213.795
41.79000 220.507
41.80000 227.007
41.81000 223.749
41.82000 216.913
41.83000 209.999
41.84000 202.233
41.85000 194.231
41.86000 187.939
41.87000 192.962
41.88000 200.057
41.89000 205.924
41.90000 212.247
41.91000 217.505
41.92000 221.254
41.93000 220.639
41.94000 219.748
41.95000 219.581
41.96000 220.846
41.97000 222.149
41.98000 222.895
41.99000 222.118
42.00000 221.566
42.01000 217.103
42.02000 209.258
42.03000 201.534
42.04000 200.553
42.05000 203.461
42.06000 206.269
42.07000 210.855
42.08000 215.835
42.09000 220.288
42.10000 219.220
42.11000 216.679
42.12000 214.547
42.13000 215.010
42.14000 215.930
42.15000 216.685
42.16000 216.854
42.17000 216.940
42.18000 216.505
42.19000 214.616
42.20000 212.641
42.21000 211.743
42.22000 212.897
42.23000 214.100
42.24000 214.777
42.25000 209.287
42.26000 205.470
42.27000 205.921
42.28000 209.923
42.29000 213.872
42.30000 215.180
42.31000 215.018
42.32000 214.862
42.33000 213.350
42.34000 211.447
42.35000 210.027
42.36000 213.419
42.37000 218.049
42.38000 221.252
42.39000 215.768
42.40000 208.817
42.41000 203.155
42.42000 204.873
42.43000 206.903
42.44000 209.120
42.45000 211.844
42.46000 214.595
42.47000 217.426
42.48000 220.400
42.49000 223.379
42.50000 225.025
42.51000 213.608
42.52000 205.728
42.53000 204.790
42.54000 209.409
42.55000 213.899
42.56000 212.649
42.57000 208.318
42.58000 204.159
42.59000 201.815
42.60000 200.245
42.61000 198.976
42.62000 200.566
42.63000 202.865
42.64000 205.214
42.65000 207.858
42.66000 210.550
42.67000 212.726
42.68000 208.890
42.69000 205.288
42.70000 201.836
42.71000 198.776
42.72000 195.735
42.73000 195.569
42.74000 200.504
42.75000 205.538
42.76000 208.273
42.77000 203.227
42.78000 199.768
42.79000 198.675
42.80000 199.404
42.81000 200.035
42.82000 196.744
42.83000 191.421
42.84000 186.326
42.85000 191.848
42.86000 200.495
42.87000 207.923
42.88000 204.343
42.89000 198.132
42.90000 193.455
42.91000 197.375
42.92000 202.631
42.93000 206.847
42.94000 200.787
42.95000 195.102
42.96000 191.735
42.97000 194.195
42.98000 196.937
42.99000 197.304
43.00000 193.601
43.01000 189.829
43.02000 187.818
43.03000 192.619
43.04000 195.877
43.05000 195.730
43.06000 193.056
43.07000 190.441
43.08000 189.948
43.09000 190.518
43.10000 191.062
43.11000 193.770
43.12000 196.970
43.13000 200.140
43.14000 203.062
43.15000 205.926
43.16000 207.836
43.17000 204.607
43.18000 200.611
43.19000 197.433
43.20000 195.033
43.21000 193.154
43.22000 193.119
43.23000 197.561
43.24000 202.204
43.25000 203.244
43.26000 198.327
43.27000 193.321
43.28000 190.701
43.29000 191.423
43.30000 191.904
43.31000 191.050
43.32000 189.243
43.33000 187.589
43.34000 190.913
43.35000 196.644
43.36000 202.093
43.37000 199.618
43.38000 194.912
43.39000 190.743
43.40000 190.992
43.41000 192.220
43.42000 193.366
43.43000 194.082
43.44000 194.738
43.45000 195.255
43.46000 194.322
43.47000 193.475
43.48000 192.540
43.49000 191.398
43.50000 190.247
43.51000 190.301
43.52000 192.278
43.53000 194.280
43.54000 195.307
43.55000 195.413
43.56000 195.498
43.57000 197.219
43.58000 200.068
43.59000 202.759
43.60000 200.736
43.61000 196.513
43.62000 192.511
43.63000 191.481
43.64000 191.404
43.65000 190.950
43.66000 187.546
43.67000 183.512
43.68000 180.820
43.69000 184.807
43.70000 189.707
43.71000 193.539
43.72000 189.342
43.73000 185.481
43.74000 182.138
43.75000 179.971
43.76000 177.848
43.77000 177.871
43.78000 181.193
43.79000 184.551
43.80000 186.240
43.81000 193.730
43.82000 198.675
43.83000 197.903
43.84000 193.334
43.85000 189.021
43.86000 191.759
43.87000 197.674
43.88000 203.259
43.89000 199.021
43.90000 192.365
43.91000 186.289
43.92000 184.572
43.93000 183.749
43.94000 182.634
43.95000 180.121
43.96000 177.425
43.97000 175.336
43.98000 186.286
43.99000 195.765
44.00000 200.905
44.01000 196.555
44.02000 191.872
44.03000 189.000
44.04000 188.813
44.05000 188.652
44.06000 188.570
44.07000 188.567
44.08000 188.594
44.09000 191.148
44.10000 195.319
44.11000 199.288
44.12000 198.160
44.13000 194.814
44.14000 191.665
44.15000 189.397
44.16000 187.564
44.17000 186.212
44.18000 188.330
44.19000 191.132
44.20000 194.140
44.21000 198.093
44.22000 202.165
44.23000 205.294
44.24000 198.600
44.25000 192.756
44.26000 188.518
44.27000 187.672
44.28000 186.934
44.29000 189.142
44.30000 195.560
44.31000 202.009
44.32000 205.380
44.33000 205.880
44.34000 206.340
44.35000 203.883
44.36000 199.624
44.37000 195.585
44.38000 196.665
44.39000 199.895
44.40000 202.923
44.41000 204.519
44.42000 205.600
44.43000 205.739
44.44000 199.405
44.45000 191.841
44.46000 186.893
44.47000 193.556
44.48000 201.603
44.49000 207.729
44.50000 208.366
44.51000 208.578
44.52000 206.617
44.53000 200.226
44.54000 193.704
44.55000 192.114
44.56000 197.316
44.57000 202.558
44.58000 205.438
44.59000 206.201
44.60000 206.933
44.61000 205.792
44.62000 203.533
44.63000 201.349
44.64000 200.777
44.65000 200.857
44.66000 200.933
44.67000 207.601
44.68000 215.293
44.69000 221.597
44.70000 218.751
44.71000 214.235
44.72000 209.761
44.73000 205.469
44.74000 201.197
44.75000 197.976
44.76000 208.374
44.77000 217.187
44.78000 223.339
44.79000 224.252
44.80000 225.025
44.81000 222.078
44.82000 214.195
44.83000 206.295
44.84000 203.682
44.85000 205.622
44.86000 207.585
44.87000 210.860
44.88000 214.888
44.89000 218.883
44.90000 222.212
44.91000 225.279
44.92000 228.130
44.93000 224.149
44.94000 218.913
44.95000 215.279
44.96000 221.765
44.97000 230.025
44.98000 235.457
44.99000 229.239
45.00000 221.759
45.01000 216.173
45.02000 221.641
45.03000 226.411
45.04000 229.953
45.05000 231.163
45.06000 232.318
45.07000 233.212
45.08000 233.776
45.09000 234.338
45.10000 235.061
45.11000 235.915
45.12000 236.758
45.13000 237.056
45.14000 237.051
45.15000 236.766
45.16000 231.220
45.17000 223.684
45.18000 216.707
45.19000 217.649
45.20000 220.323
45.21000 221.666
45.22000 214.952
45.23000 206.882
45.24000 200.987
45.25000 203.729
45.26000 207.363
45.27000 210.050
45.28000 207.632
45.29000 205.539
45.30000 204.772
45.31000 206.442
45.32000 208.163
45.33000 210.753
45.34000 214.409
45.35000 218.061
45.36000 217.888
45.37000 214.679
45.38000 211.458
45.39000 207.719
45.40000 203.704
45.41000 199.810
45.42000 198.054
45.43000 197.078
45.44000 196.179
45.45000 199.662
45.46000 203.750
45.47000 207.434
45.48000 208.764
45.49000 209.714
45.50000 210.918
45.51000 213.094
45.52000 215.364
45.53000 217.026
45.54000 213.410
45.55000 210.409
45.56000 208.399
45.57000 208.146
45.58000 207.926
45.59000 205.745
45.60000 201.243
45.61000 196.748
45.62000 195.121
45.63000 195.694
45.64000 196.264
45.65000 196.740
45.66000 197.167
45.67000 197.626
45.68000 198.601
45.69000 199.759
45.70000 200.820
45.71000 197.090
45.72000 192.746
45.73000 189.087
45.74000 189.252
45.75000 190.009
45.76000 189.866
45.77000 186.397
45.78000 182.618
45.79000 179.882
45.80000 181.800
45.81000 183.444
45.82000 183.036
45.83000 179.121
45.84000 175.147
45.85000 175.110
45.86000 179.551
45.87000 183.983
45.88000 184.680
45.89000 182.631
45.90000 180.541
45.91000 177.024
45.92000 172.795
45.93000 169.281
45.94000 176.796
45.95000 188.067
45.96000 198.363
45.97000 196.219
45.98000 191.780
45.99000 187.272
46.00000 182.387
46.01000 177.447
46.02000 174.026
46.03000 176.011
46.04000 178.475
46.05000 180.241
46.06000 178.928
46.07000 177.821
46.08000 176.718
46.09000 175.624
46.10000 174.530
46.11000 172.799
46.12000 170.372
46.13000 167.955
46.14000 168.878
46.15000 172.150
46.16000 175.417
46.17000 178.534
46.18000 181.580
46.19000 184.349
46.20000 183.104
46.21000 180.540
46.22000 178.209
46.23000 173.533
46.24000 168.940
46.25000 165.339
46.26000 166.860
46.27000 169.109
46.28000 171.574
46.29000 174.780
46.30000 178.049
46.31000 180.366
46.32000 177.003
46.33000 174.268
46.34000 173.277
46.35000 175.057
46.36000 176.872
46.37000 179.048
46.38000 181.604
46.39000 184.147
46.40000 182.331
46.41000 177.579
46.42000 173.006
46.43000 173.767
46.44000 177.008
46.45000 180.005
46.46000 179.656
46.47000 178.245
46.48000 176.968
46.49000 178.078
46.50000 179.503
46.51000 180.620
46.52000 180.206
46.53000 179.585
46.54000 179.170
46.55000 179.445
46.56000 179.774
46.57000 180.005
46.58000 178.023
46.59000 176.460
46.60000 173.989
46.61000 170.125
46.62000 166.246
46.63000 164.666
46.64000 165.404
46.65000 166.139
46.66000 167.332
46.67000 168.807
46.68000 170.114
46.69000 166.849
46.70000 161.530
46.71000 156.578
46.72000 156.357
46.73000 157.586
46.74000 158.692
46.75000 163.913
46.76000 169.228
46.77000 173.668
46.78000 173.934
46.79000 173.657
46.80000 173.496
46.81000 173.711
46.82000 173.954
46.83000 174.123
46.84000 171.713
46.85000 169.832
46.86000 169.290
46.87000 170.730
46.88000 172.187
46.89000 174.066
46.90000 176.353
46.91000 178.624
46.92000 176.784
46.93000 172.392
46.94000 168.209
46.95000 169.266
46.96000 172.596
46.97000 175.715
46.98000 176.249
46.99000 176.019
47.00000 175.814
47.01000 166.888
47.02000 157.598
47.03000 150.270
47.04000 151.955
47.05000 154.762
47.06000 158.027
47.07000 162.708
47.08000 167.490
47.09000 170.764
47.10000 172.287
47.11000 173.386
47.12000 172.594
47.13000 169.109
47.14000 165.605
47.15000 165.368
47.16000 168.169
47.17000 170.946
47.18000 170.757
47.19000 168.777
47.20000 166.916
47.21000 167.791
47.22000 169.813
47.23000 171.758
47.24000 172.818
47.25000 173.624
47.26000 174.343
47.27000 171.693
47.28000 168.836
47.29000 166.287
47.30000 165.098
47.31000 164.072
47.32000 163.218
47.33000 162.878
47.34000 162.573
47.35000 162.366
47.36000 163.022
47.37000 163.530
47.38000 162.215
47.39000 158.399
47.40000 154.570
47.41000 153.709
47.42000 155.500
47.43000 157.273
47.44000 159.143
47.45000 161.029
47.46000 163.003
47.47000 166.890
47.48000 171.550
47.49000 175.704
47.50000 174.315
47.51000 171.403
47.52000 168.822
47.53000 168.519
47.54000 168.615
47.55000 168.221
47.56000 165.738
47.57000 163.019
47.58000 160.807
47.59000 160.055
47.60000 159.395
47.61000 158.953
47.62000 162.193
47.63000 164.666
47.64000 164.203
47.65000 159.857
47.66000 155.499
47.67000 155.034
47.68000 157.915
47.69000 160.762
47.70000 160.576
47.71000 158.698
47.72000 156.817
47.73000 154.873
47.74000 152.905
47.75000 151.792
47.76000 159.577
47.77000 169.722
47.78000 178.659
47.79000 171.072
47.80000 162.048
47.81000 155.630
47.82000 159.916
47.83000 165.358
47.84000 168.881
47.85000 167.075
47.86000 164.956
47.87000 163.558
47.88000 164.559
47.89000 165.339
47.90000 162.034
47.91000 153.528
47.92000 145.026
47.93000 146.230
47.94000 155.455
47.95000 164.560
47.96000 165.738
47.97000 162.617
47.98000 159.471
47.99000 155.846
48.00000 152.040
48.01000 148.903
48.02000 152.380
48.03000 157.548
48.04000 162.074
48.05000 156.151
48.06000 149.567
48.07000 144.606
48.08000 146.070
48.09000 148.194
48.10000 150.575
48.11000 153.643
48.12000 156.749
48.13000 158.772
48.14000 157.031
48.15000 155.695
48.16000 157.256
48.17000 162.367
48.18000 167.475
48.19000 169.065
48.20000 167.857
48.21000 166.666
48.22000 165.004
48.23000 163.147
48.24000 161.323
48.25000 160.063
48.26000 159.010
48.27000 158.419
48.28000 162.183
48.29000 167.020
48.30000 171.232
48.31000 167.092
48.32000 162.409
48.33000 159.109
48.34000 161.086
48.35000 163.579
48.36000 163.680
48.37000 157.591
48.38000 151.186
48.39000 147.069
48.40000 149.999
48.41000 152.234
48.42000 153.549
48.43000 153.781
48.44000 154.019
48.45000 156.190
48.46000 159.842
48.47000 163.433
48.48000 162.953
48.49000 160.458
48.50000 157.959
48.51000 155.397
48.52000 152.812
48.53000 150.726
48.54000 153.108
48.55000 156.551
48.56000 159.531
48.57000 162.124
48.58000 164.278
48.59000 164.944
48.60000 160.133
48.61000 154.813
48.62000 150.823
48.63000 150.152
48.64000 149.640
48.65000 149.315
48.66000 157.034
48.67000 162.731
48.68000 163.434
48.69000 158.477
48.70000 153.527
48.71000 150.936
48.72000 150.085
48.73000 149.249
48.74000 149.981
48.75000 151.438
48.76000 152.789
48.77000 152.515
48.78000 151.688
48.79000 150.787
48.80000 149.256
48.81000 147.580
48.82000 146.140
48.83000 149.431
48.84000 152.810
48.85000 156.043
48.86000 158.759
48.87000 161.430
48.88000 163.977
48.89000 166.227
48.90000 168.464
48.91000 169.863
48.92000 167.374
48.93000 165.537
48.94000 163.828
48.95000 162.258
48.96000 160.708
48.97000 162.001
48.98000 165.314
48.99000 168.558
49.00000 167.215
49.01000 163.805
49.02000 160.573
49.03000 159.907
49.04000 160.082
49.05000 159.991
49.06000 157.736
49.07000 155.004
49.08000 152.670
49.09000 154.858
49.10000 157.241
49.11000 159.236
49.12000 159.898
49.13000 160.449
49.14000 159.484
49.15000 154.985
49.16000 150.341
49.17000 147.480
49.18000 151.151
49.19000 153.845
49.20000 155.329
49.21000 155.547
49.22000 155.759
49.23000 155.227
49.24000 154.186
49.25000 153.168
49.26000 153.032
49.27000 153.295
49.28000 153.551
49.29000 153.734
49.30000 153.894
49.31000 154.508
49.32000 158.659
49.33000 163.561
49.34000 167.722
49.35000 166.283
49.36000 164.439
49.37000 162.327
49.38000 159.331
49.39000 156.266
49.40000 153.740
49.41000 152.431
49.42000 151.167
49.43000 150.400
49.44000 151.937
49.45000 153.051
49.46000 153.900
49.47000 154.483
49.48000 155.028
49.49000 151.985
49.50000 146.573
49.51000 141.296
49.52000 144.975
49.53000 152.319
49.54000 158.881
49.55000 155.388
49.56000 148.825
49.57000 143.168
49.58000 144.265
49.59000 146.741
49.60000 148.828
49.61000 150.192
49.62000 151.252
49.63000 151.892
49.64000 151.193
49.65000 150.394
49.66000 150.337
49.67000 151.893
49.68000 153.505
49.69000 154.469
49.70000 155.220
49.71000 155.752
49.72000 156.322
49.73000 156.929
49.74000 157.507
49.75000 155.597
49.76000 152.103
49.77000 148.705
49.78000 147.938
49.79000 148.292
49.80000 148.898
49.81000 152.571
49.82000 157.147
49.83000 161.330
49.84000 162.714
49.85000 163.547
49.86000 164.245
49.87000 161.379
49.88000 158.629
49.89000 156.431
49.90000 155.929
49.91000 155.546
49.92000 154.393
49.93000 151.623
49.94000 148.803
49.95000 147.142
49.96000 149.494
49.97000 151.173
49.98000 150.288
49.99000 147.028
50.00000 143.814
50.01000 143.910
50.02000 146.038
50.03000 148.103
50.04000 150.206
50.05000 152.216
50.06000 154.113
50.07000 154.700
50.08000 154.915
50.09000 155.069
50.10000 154.814
50.11000 154.481
50.12000 154.204
50.13000 151.092
50.14000 148.240
50.15000 147.371
50.16000 152.394
50.17000 157.807
50.18000 161.014
50.19000 159.750
50.20000 158.357
50.21000 157.550
50.22000 155.941
50.23000 154.810
50.24000 154.879
50.25000 156.015
50.26000 157.099
50.27000 154.992
50.28000 150.994
50.29000 147.125
50.30000 147.855
50.31000 150.297
50.32000 152.750
50.33000 155.315
50.34000 157.911
50.35000 159.800
50.36000 157.068
50.37000 153.498
50.38000 150.552
50.39000 153.202
50.40000 155.906
50.41000 158.171
50.42000 159.182
50.43000 160.115
50.44000 159.718
50.45000 156.720
50.46000 153.654
50.47000 151.907
50.48000 158.786
50.49000 163.606
50.50000 166.150
50.51000 166.745
50.52000 167.328
50.53000 167.216
50.54000 166.707
50.55000 166.216
50.56000 164.449
50.57000 162.316
50.58000 160.393
50.59000 160.632
50.60000 161.442
50.61000 161.718
50.62000 158.641
50.63000 154.980
50.64000 151.980
50.65000 153.394
50.66000 154.942
50.67000 157.258
50.68000 161.699
50.69000 166.264
50.70000 167.649
50.71000 163.028
50.72000 158.266
50.73000 155.598
50.74000 157.800
50.75000 159.333
50.76000 158.280
50.77000 155.097
50.78000 151.977
50.79000 151.851
50.80000 153.376
50.81000 154.843
50.82000 153.784
50.83000 151.899
50.84000 150.222
50.85000 150.590
50.86000 151.481
50.87000 151.532
50.88000 146.535
50.89000 140.694
50.90000 135.944
50.91000 142.258
50.92000 148.335
50.93000 152.870
50.94000 153.279
50.95000 153.463
50.96000 153.302
50.97000 152.508
50.98000 151.702
50.99000 151.258
51.00000 155.717
51.01000 158.784
51.02000 157.791
51.03000 153.580
51.04000 149.445
51.05000 148.600
51.06000 149.505
51.07000 150.374
51.08000 146.690
51.09000 141.701
51.10000 137.290
51.11000 138.282
51.12000 140.602
51.13000 142.946
51.14000 145.433
51.15000 147.943
51.16000 149.967
51.17000 145.210
51.18000 140.810
51.19000 138.513
51.20000 141.649
51.21000 145.060
51.22000 147.611
51.23000 148.646
51.24000 149.653
51.25000 150.197
51.26000 148.518
51.27000 147.374
51.28000 148.088
51.29000 150.220
51.30000 152.233
51.31000 149.601
51.32000 144.583
51.33000 139.783
51.34000 139.728
51.35000 141.226
51.36000 142.553
51.37000 142.355
51.38000 141.795
51.39000 141.563
51.40000 143.154
51.41000 145.024
51.42000 146.521
51.43000 144.322
51.44000 142.267
51.45000 141.049
51.46000 141.916
51.47000 142.882
51.48000 142.146
51.49000 138.521
51.50000 134.849
51.51000 132.899
51.52000 135.172
51.53000 136.710
51.54000 136.550
51.55000 135.141
51.56000 133.781
51.57000 134.166
51.58000 135.416
51.59000 136.608
51.60000 139.873
51.61000 143.552
51.62000 146.854
51.63000 146.955
51.64000 146.325
51.65000 145.594
51.66000 144.323
51.67000 142.972
51.68000 141.900
51.69000 134.930
51.70000 128.903
51.71000 126.383
51.72000 132.303
51.73000 138.594
51.74000 141.722
51.75000 139.670
51.76000 137.544
51.77000 136.436
51.78000 135.688
51.79000 135.201
51.80000 137.367
51.81000 141.411
51.82000 145.399
51.83000 147.611
51.84000 148.972
51.85000 150.265
51.86000 147.194
51.87000 143.040
51.88000 139.439
51.89000 140.342
51.90000 142.233
51.91000 143.937
51.92000 144.680
51.93000 145.288
51.94000 145.766
51.95000 144.429
51.96000 143.237
51.97000 141.517
51.98000 138.571
51.99000 135.576
52.00000 135.017
52.01000 138.311
52.02000 141.652
52.03000 143.358
52.04000 138.206
52.05000 134.781
52.06000 135.216
52.07000 138.287
52.08000 141.261
52.09000 141.375
52.10000 140.168
52.11000 139.025
52.12000 138.671
52.13000 138.575
52.14000 138.590
52.15000 139.470
52.16000 140.533
52.17000 141.080
52.18000 139.085
52.19000 136.747
52.20000 134.923
52.21000 136.052
52.22000 137.136
52.23000 137.900
52.24000 137.942
52.25000 137.956
52.26000 137.564
52.27000 136.551
52.28000 135.531
52.29000 135.021
52.30000 131.403
52.31000 129.044
52.32000 131.849
52.33000 138.052
52.34000 144.014
52.35000 143.513
52.36000 140.125
52.37000 136.928
52.38000 135.900
52.39000 135.563
52.40000 135.703
52.41000 139.384
52.42000 143.786
52.43000 147.399
52.44000 147.271
52.45000 146.659
52.46000 146.186
52.47000 143.531
52.48000 141.295
52.49000 138.989
52.50000 136.531
52.51000 134.068
52.52000 133.082
52.53000 134.266
52.54000 135.469
52.55000 136.202
52.56000 136.483
52.57000 136.803
52.58000 140.282
52.59000 145.766
52.60000 150.911
52.61000 147.666
52.62000 140.801
52.63000 134.349
52.64000 134.560
52.65000 136.540
52.66000 138.113
52.67000 136.800
52.68000 134.922
52.69000 133.889
52.70000 136.719
52.71000 140.025
52.72000 142.559
52.73000 142.188
52.74000 141.735
52.75000 141.419
52.76000 141.388
52.77000 141.367
52.78000 141.862
52.79000 143.089
52.80000 144.322
52.81000 144.052
52.82000 142.396
52.83000 140.740
52.84000 139.053
52.85000 137.346
52.86000 135.661
52.87000 134.467
52.88000 133.479
52.89000 132.553
52.90000 137.758
52.91000 144.070
52.92000 149.826
52.93000 151.798
52.94000 153.058
52.95000 154.130
52.96000 154.377
52.97000 154.527
52.98000 154.641
52.99000 148.467
53.00000 143.290
53.01000 140.693
53.02000 143.312
53.03000 146.081
53.04000 146.758
53.05000 144.583
53.06000 142.393
53.07000 140.453
53.08000 138.739
53.09000 137.140
53.10000 142.551
53.11000 152.102
53.12000 161.024
53.13000 156.617
53.14000 146.849
53.15000 137.739
53.16000 137.736
53.17000 139.987
53.18000 142.917
53.19000 150.276
53.20000 158.436
53.21000 163.835
53.22000 157.538
53.23000 149.927
53.24000 144.202
53.25000 144.855
53.26000 145.675
53.27000 147.105
53.28000 149.728
53.29000 152.381
53.30000 152.975
53.31000 150.863
53.32000 148.740
53.33000 147.331
53.34000 146.533
53.35000 145.768
53.36000 146.826
53.37000 148.922
53.38000 150.752
53.39000 147.306
53.40000 141.813
53.41000 136.710
53.42000 137.911
53.43000 140.493
53.44000 142.825
53.45000 143.600
53.46000 144.104
53.47000 144.707
53.48000 145.716
53.49000 146.769
53.50000 147.553
53.51000 150.185
53.52000 152.318
53.53000 152.514
53.54000 149.065
53.55000 145.531
53.56000 144.276
53.57000 145.904
53.58000 147.541
53.59000 147.253
53.60000 145.393
53.61000 143.570
53.62000 143.561
53.63000 144.548
53.64000 145.390
53.65000 143.559
53.66000 140.725
53.67000 138.105
53.68000 139.264
53.69000 141.168
53.70000 143.240
53.71000 146.323
53.72000 149.574
53.73000 151.495
53.74000 148.182
53.75000 144.336
53.76000 141.500
53.77000 146.197
53.78000 150.152
53.79000 151.234
53.80000 147.095
53.81000 142.847
53.82000 140.996
53.83000 142.063
53.84000 143.135
53.85000 144.127
53.86000 145.052
53.87000 145.922
53.88000 144.436
53.89000 141.700
53.90000 138.953
53.91000 136.022
53.92000 133.023
53.93000 130.262
53.94000 131.242
53.95000 132.938
53.96000 134.623
53.97000 136.249
53.98000 137.866
53.99000 139.179
54.00000 139.341
54.01000 139.391
54.02000 139.427
54.03000 135.307
54.04000 131.968
54.05000 130.755
54.06000 133.271
54.07000 135.856
54.08000 136.684
54.09000 135.455
54.10000 134.226
54.11000 134.793
54.12000 136.715
54.13000 138.592
54.14000 138.746
54.15000 138.018
54.16000 137.307
54.17000 136.885
54.18000 136.564
54.19000 136.270
54.20000 137.086
54.21000 138.047
54.22000 138.329
54.23000 134.859
54.24000 130.814
54.25000 128.676
54.26000 133.513
54.27000 138.992
54.28000 142.950
54.29000 140.550
54.30000 138.480
54.31000 136.492
54.32000 134.644
54.33000 132.798
54.34000 131.252
54.35000 130.043
54.36000 128.839
54.37000 131.975
54.38000 138.241
54.39000 144.269
54.40000 142.018
54.41000 135.673
54.42000 129.843
54.43000 131.831
54.44000 136.459
54.45000 140.681
54.46000 137.742
54.47000 133.692
54.48000 130.728
54.49000 133.536
54.50000 137.191
54.51000 140.522
54.52000 142.712
54.53000 144.803
54.54000 146.297
54.55000 138.276
54.56000 131.838
54.57000 128.953
54.58000 131.873
54.59000 134.875
54.60000 136.831
54.61000 137.653
54.62000 138.471
54.63000 140.256
54.64000 142.697
54.65000 145.022
54.66000 143.661
54.67000 140.539
54.68000 137.412
54.69000 134.205
54.70000 130.972
54.71000 128.037
54.72000 132.940
54.73000 138.787
54.74000 143.772
54.75000 144.357
54.76000 144.324
54.77000 143.691
54.78000 141.016
54.79000 138.172
54.80000 136.162
54.81000 140.859
54.82000 144.633
54.83000 146.821
54.84000 146.512
54.85000 146.172
54.86000 143.547
54.87000 138.545
54.88000 133.569
54.89000 135.672
54.90000 142.505
54.91000 149.065
54.92000 147.674
54.93000 142.616
54.94000 137.933
54.95000 138.286
54.96000 140.224
54.97000 141.975
54.98000 141.448
54.99000 140.563
55.00000 139.861
55.01000 140.064
55.02000 140.389
55.03000 141.760
55.04000 146.570
55.05000 151.649
55.06000 155.198
55.07000 149.702
55.08000 145.294
55.09000 142.914
55.10000 143.614
55.11000 144.345
55.12000 147.742
55.13000 153.800
55.14000 159.819
55.15000 159.559
55.16000 155.242
55.17000 150.998
55.18000 148.696
55.19000 147.258
55.20000 145.906
55.21000 145.643
55.22000 145.710
55.23000 145.770
55.24000 143.819
55.25000 141.754
55.26000 140.574
55.27000 143.580
55.28000 147.125
55.29000 149.422
55.30000 147.769
55.31000 145.825
55.32000 144.481
55.33000 148.511
55.34000 151.679
55.35000 154.813
55.36000 157.899
55.37000 160.984
55.38000 160.605
55.39000 156.905
55.40000 153.234
55.41000 157.059
55.42000 165.482
55.43000 173.740
55.44000 177.930
55.45000 180.372
55.46000 182.772
55.47000 184.676
55.48000 186.434
55.49000 188.006
55.50000 194.058
55.51000 200.096
55.52000 205.320
55.53000 206.832
55.54000 207.888
55.55000 209.137
55.56000 210.974
55.57000 212.852
55.58000 214.134
55.59000 223.237
55.60000 230.228
55.61000 234.557
55.62000 235.129
55.63000 235.677
55.64000 241.677
55.65000 252.694
55.66000 263.613
55.67000 268.790
55.68000 270.430
55.69000 272.040
55.70000 272.947
55.71000 273.563
55.72000 274.829
55.73000 283.515
55.74000 294.297
55.75000 303.888
55.76000 323.168
55.77000 341.482
55.78000 356.162
55.79000 354.908
55.80000 351.783
55.81000 352.455
55.82000 364.338
55.83000 376.954
55.84000 385.464
55.85000 387.193
55.86000 388.336
55.87000 391.326
55.88000 396.830
55.89000 402.352
55.90000 412.645
55.91000 427.161
55.92000 441.527
55.93000 443.611
55.94000 438.578
55.95000 433.972
55.96000 438.373
55.97000 446.388
55.98000 452.778
55.99000 441.603
56.00000 425.642
56.01000 411.522
56.02000 415.374
56.03000 421.501
56.04000 425.107
56.05000 418.064
56.06000 409.829
56.07000 401.168
56.08000 391.294
56.09000 381.346
56.10000 374.718
56.11000 360.235
56.12000 349.366
56.13000 338.316
56.14000 327.029
56.15000 315.748
56.16000 308.684
56.17000 305.207
56.18000 301.772
56.19000 299.507
56.20000 297.947
56.21000 296.027
56.22000 287.052
56.23000 275.344
56.24000 264.033
56.25000 256.790
56.26000 250.615
56.27000 245.184
56.28000 237.808
56.29000 231.170
56.30000 224.008
56.31000 214.710
56.32000 205.185
56.33000 199.143
56.34000 202.684
56.35000 206.779
56.36000 209.472
56.37000 203.267
56.38000 198.546
56.39000 195.755
56.40000 195.395
56.41000 195.033
56.42000 190.152
56.43000 181.573
56.44000 173.109
56.45000 170.989
56.46000 172.309
56.47000 173.500
56.48000 172.324
56.49000 170.263
56.50000 168.385
56.51000 168.290
56.52000 168.647
56.53000 168.959
56.54000 159.208
56.55000 149.421
56.56000 141.011
56.57000 138.006
56.58000 135.549
56.59000 135.208
56.60000 140.488
56.61000 146.071
56.62000 149.695
56.63000 142.577
56.64000 137.200
56.65000 134.621
56.66000 135.438
56.67000 136.265
56.68000 137.853
56.69000 140.040
56.70000 142.195
56.71000 140.283
56.72000 136.343
56.73000 132.728
56.74000 134.705
56.75000 138.700
56.76000 141.966
56.77000 138.457
56.78000 133.295
56.79000 128.806
56.80000 131.233
56.81000 134.243
56.82000 136.480
56.83000 135.800
56.84000 134.837
56.85000 134.519
56.86000 135.852
56.87000 137.268
56.88000 138.175
56.89000 134.483
56.90000 131.732
56.91000 131.788
56.92000 135.120
56.93000 138.428
56.94000 135.472
56.95000 127.766
56.96000 120.191
56.97000 119.652
56.98000 122.604
56.99000 125.397
57.00000 125.624
57.01000 124.957
57.02000 124.941
57.03000 130.691
57.04000 137.797
57.05000 143.938
57.06000 134.425
57.07000 124.316
57.08000 116.646
57.09000 117.869
57.10000 119.908
57.11000 121.349
57.12000 121.313
57.13000 121.207
57.14000 121.141
57.15000 124.521
57.16000 127.010
57.17000 127.287
57.18000 125.078
57.19000 122.879
57.20000 122.563
57.21000 123.623
57.22000 124.662
57.23000 126.739
57.24000 129.233
57.25000 131.711
57.26000 133.938
57.27000 136.081
57.28000 137.478
57.29000 132.569
57.30000 126.231
57.31000 120.789
57.32000 121.431
57.33000 122.727
57.34000 124.758
57.35000 129.369
57.36000 134.204
57.37000 136.780
57.38000 133.950
57.39000 130.884
57.40000 128.975
57.41000 126.195
57.42000 124.183
57.43000 121.904
57.44000 119.336
57.45000 116.813
57.46000 120.271
57.47000 127.940
57.48000 135.448
57.49000 137.868
57.50000 137.864
57.51000 137.906
57.52000 138.587
57.53000 139.477
57.54000 140.133
57.55000 138.904
57.56000 137.263
57.57000 135.864
57.58000 134.595
57.59000 133.541
57.60000 132.215
57.61000 129.962
57.62000 127.634
57.63000 126.011
57.64000 126.021
57.65000 126.097
57.66000 126.143
57.67000 125.560
57.68000 125.138
57.69000 126.154
57.70000 128.661
57.71000 131.140
57.72000 130.464
57.73000 127.647
57.74000 124.895
57.75000 125.401
57.76000 127.318
57.77000 128.883
57.78000 125.737
57.79000 121.113
57.80000 117.245
57.81000 119.208
57.82000 122.396
57.83000 125.098
57.84000 124.088
57.85000 122.826
57.86000 120.832
57.87000 116.444
57.88000 111.870
57.89000 110.436
57.90000 116.012
57.91000 121.846
57.92000 125.375
57.93000 125.866
57.94000 126.193
57.95000 125.524
57.96000 123.865
57.97000 122.216
57.98000 121.472
57.99000 121.320
58.00000 121.172
58.01000 121.832
58.02000 122.806
58.03000 123.882
58.04000 126.263
58.05000 129.040
58.06000 131.090
58.07000 127.785
58.08000 123.397
58.09000 119.705
58.10000 122.511
58.11000 125.547
58.12000 128.145
58.13000 129.359
58.14000 130.471
58.15000 130.435
58.16000 127.924
58.17000 125.329
58.18000 123.783
58.19000 126.266
58.20000 128.050
58.21000 129.893
58.22000 131.793
58.23000 133.660
58.24000 132.923
58.25000 130.543
58.26000 128.230
58.27000 125.625
58.28000 123.030
58.29000 120.545
58.30000 119.381
58.31000 118.603
58.32000 118.024
58.33000 118.855
58.34000 119.959
58.35000 120.882
58.36000 119.234
58.37000 117.603
58.38000 116.824
58.39000 118.638
58.40000 120.632
58.41000 122.361
58.42000 123.542
58.43000 124.705
58.44000 125.387
58.45000 121.058
58.46000 117.985
58.47000 115.713
58.48000 114.176
58.49000 112.683
58.50000 114.167
58.51000 117.462
58.52000 120.656
58.53000 123.158
58.54000 125.257
58.55000 126.997
58.56000 124.677
58.57000 121.212
58.58000 118.074
58.59000 117.142
58.60000 116.624
58.61000 116.193
58.62000 116.189
58.63000 116.227
58.64000 117.649
58.65000 123.143
58.66000 128.903
58.67000 131.830
58.68000 129.067
58.69000 126.143
58.70000 124.456
58.71000 122.800
58.72000 121.639
58.73000 119.227
58.74000 115.714
58.75000 112.272
58.76000 113.086
58.77000 116.400
58.78000 119.604
58.79000 119.281
58.80000 117.644
58.81000 116.117
58.82000 115.768
58.83000 115.740
58.84000 115.856
58.85000 116.907
58.86000 118.126
58.87000 119.130
58.88000 119.445
58.89000 119.641
58.90000 119.337
58.91000 117.611
58.92000 115.798
58.93000 114.420
58.94000 113.885
58.95000 113.371
58.96000 113.080
58.97000 116.947
58.98000 119.645
58.99000 118.543
59.00000 114.218
59.01000 109.982
59.02000 110.398
59.03000 113.449
59.04000 116.390
59.05000 117.369
59.06000 117.576
59.07000 117.731
59.08000 117.361
59.09000 116.852
59.10000 116.606
59.11000 117.985
59.12000 119.644
59.13000 121.000
59.14000 123.320
59.15000 125.304
59.16000 126.206
59.17000 124.138
59.18000 121.900
59.19000 120.509
59.20000 120.704
59.21000 120.936
59.22000 121.065
59.23000 118.288
59.24000 116.366
59.25000 116.693
59.26000 118.854
59.27000 120.986
59.28000 121.742
59.29000 121.748
59.30000 121.753
59.31000 120.528
59.32000 118.950
59.33000 117.524
59.34000 117.570
59.35000 117.989
59.36000 118.482
59.37000 119.424
59.38000 120.440
59.39000 121.264
59.40000 121.962
59.41000 122.520
59.42000 122.490
59.43000 120.901
59.44000 119.229
59.45000 118.485
59.46000 119.420
59.47000 120.389
59.48000 120.920
59.49000 123.315
59.50000 124.960
59.51000 124.784
59.52000 123.179
59.53000 121.603
59.54000 121.276
59.55000 121.607
59.56000 121.925
59.57000 120.709
59.58000 119.058
59.59000 117.400
59.60000 115.668
59.61000 113.920
59.62000 112.738
59.63000 114.796
59.64000 117.369
59.65000 119.441
59.66000 118.130
59.67000 116.802
59.68000 116.246
59.69000 117.661
59.70000 119.176
59.71000 120.020
59.72000 119.694
59.73000 119.347
59.74000 119.161
59.75000 116.480
59.76000 114.648
59.77000 113.286
59.78000 112.280
59.79000 111.311
59.80000 111.713
59.81000 112.813
59.82000 113.865
59.83000 114.787
59.84000 115.602
59.85000 116.642
59.86000 119.654
59.87000 123.129
59.88000 125.722
59.89000 123.475
59.90000 120.491
59.91000 118.108
59.92000 119.103
59.93000 120.157
59.94000 120.987
59.95000 121.265
59.96000 121.518
59.97000 120.818
59.98000 118.516
59.99000 116.188
60.00000 114.958
60.01000 114.858
60.02000 114.780
60.03000 112.974
60.04000 109.909
60.05000 107.017
60.06000 110.062
60.07000 116.025
60.08000 121.706
60.09000 123.922
60.10000 124.898
60.11000 125.626
60.12000 124.260
60.13000 122.422
60.14000 120.113
60.15000 115.321
60.16000 110.167
60.17000 106.085
60.18000 111.365
60.19000 116.260
60.20000 119.496
60.21000 118.770
60.22000 117.873
60.23000 118.090
60.24000 120.116
60.25000 122.167
60.26000 123.230
60.27000 116.838
60.28000 112.556
60.29000 112.444
60.30000 115.259
60.31000 118.066
60.32000 120.662
60.33000 123.156
60.34000 125.524
60.35000 120.946
60.36000 114.643
60.37000 109.197
60.38000 110.639
60.39000 113.578
60.40000 115.756
60.41000 114.071
60.42000 111.848
60.43000 110.101
60.44000 113.026
60.45000 115.673
60.46000 117.132
60.47000 115.855
60.48000 114.469
60.49000 114.518
60.50000 116.815
60.51000 119.139
60.52000 120.320
60.53000 110.180
60.54000 103.439
60.55000 102.871
60.56000 106.476
60.57000 110.025
60.58000 111.984
60.59000 113.213
60.60000 114.376
60.61000 116.174
60.62000 118.010
60.63000 119.639
60.64000 119.684
60.65000 119.397
60.66000 119.390
60.67000 120.749
60.68000 122.292
60.69000 123.492
60.70000 120.321
60.71000 117.525
60.72000 115.772
60.73000 116.336
60.74000 116.986
60.75000 116.793
60.76000 115.327
60.77000 113.849
60.78000 114.794
60.79000 118.142
60.80000 121.441
60.81000 120.250
60.82000 116.131
60.83000 112.259
60.84000 114.854
60.85000 120.311
60.86000 125.456
60.87000 124.817
60.88000 122.633
60.89000 120.552
60.90000 119.223
60.91000 118.044
60.92000 116.938
60.93000 116.169
60.94000 115.443
60.95000 114.883
60.96000 116.875
60.97000 118.601
60.98000 120.208
60.99000 121.559
61.00000 122.901
61.01000 123.703
61.02000 123.716
61.03000 123.724
61.04000 123.078
61.05000 121.812
61.06000 120.573
61.07000 121.462
61.08000 123.690
61.09000 125.825
61.10000 125.699
61.11000 124.608
61.12000 123.582
61.13000 122.135
61.14000 120.703
61.15000 119.939
61.16000 123.871
61.17000 128.713
61.18000 131.477
61.19000 124.845
61.20000 117.066
61.21000 111.117
61.22000 120.910
61.23000 129.491
61.24000 133.401
61.25000 127.622
61.26000 121.545
61.27000 121.226
61.28000 128.985
61.29000 136.798
61.30000 136.447
61.31000 128.636
61.32000 120.913
61.33000 119.189
61.34000 121.101
61.35000 122.844
61.36000 120.781
61.37000 117.146
61.38000 113.746
61.39000 120.624
61.40000 129.494
61.41000 136.717
61.42000 132.852
61.43000 126.922
61.44000 123.227
61.45000 129.265
61.46000 136.436
61.47000 141.869
61.48000 138.409
61.49000 135.240
61.50000 135.874
61.51000 144.127
61.52000 152.592
61.53000 161.823
61.54000 172.088
61.55000 182.353
61.56000 194.033
61.57000 206.936
61.58000 219.791
61.59000 229.764
61.60000 238.049
61.61000 246.337
61.62000 254.673
61.63000 263.027
61.64000 270.810
61.65000 276.941
61.66000 282.083
61.67000 286.906
61.68000 289.677
61.69000 292.079
61.70000 293.930
61.71000 293.463
61.72000 292.738
61.73000 292.194
61.74000 285.804
61.75000 280.534
61.76000 272.823
61.77000 260.392
61.78000 247.842
61.79000 237.651
61.80000 230.532
61.81000 223.431
61.82000 207.924
61.83000 185.367
61.84000 163.018
61.85000 151.492
61.86000 146.077
61.87000 140.935
61.88000 141.077
61.89000 143.254
61.90000 145.273
61.91000 140.751
61.92000 135.137
61.93000 130.788
61.94000 134.267
61.95000 139.091
61.96000 141.941
61.97000 136.812
61.98000 130.839
61.99000 126.400
62.00000 120.083
62.01000 115.089
62.02000 115.094
62.03000 124.435
62.04000 133.987
62.05000 137.035
62.06000 131.933
62.07000 126.812
62.08000 124.368
62.09000 124.102
62.10000 123.883
62.11000 125.836
62.12000 128.973
62.13000 131.921
62.14000 131.443
62.15000 129.692
62.16000 128.074
62.17000 124.579
62.18000 121.019
62.19000 117.628
62.20000 115.232
62.21000 113.001
62.22000 111.924
62.23000 115.348
62.24000 119.225
62.25000 122.077
62.26000 122.381
62.27000 122.511
62.28000 122.629
62.29000 122.723
62.30000 122.816
62.31000 122.879
62.32000 122.904
62.33000 122.929
62.34000 123.901
62.35000 125.605
62.36000 127.277
62.37000 127.571
62.38000 127.141
62.39000 126.618
62.40000 124.528
62.41000 121.875
62.42000 119.435
62.43000 119.079
62.44000 119.214
62.45000 119.484
62.46000 120.530
62.47000 121.699
62.48000 122.271
62.49000 120.605
62.50000 118.724
62.51000 117.355
62.52000 128.715
62.53000 137.948
62.54000 141.871
62.55000 136.561
62.56000 131.085
62.57000 126.937
62.58000 124.331
62.59000 121.734
62.60000 121.101
62.61000 121.943
62.62000 122.838
62.63000 125.717
62.64000 129.605
62.65000 133.367
62.66000 135.123
62.67000 136.184
62.68000 137.156
62.69000 131.147
62.70000 124.349
62.71000 119.418
62.72000 124.717
62.73000 131.566
62.74000 136.902
62.75000 136.752
62.76000 136.104
62.77000 135.637
62.78000 133.835
62.79000 132.407
62.80000 131.506
62.81000 131.490
62.82000 131.487
62.83000 131.289
62.84000 130.873
62.85000 130.457
62.86000 129.151
62.87000 127.216
62.88000 125.427
62.89000 128.660
62.90000 134.354
62.91000 139.736
62.92000 140.455
62.93000 139.613
62.94000 138.846
62.95000 138.035
62.96000 137.307
62.97000 136.079
62.98000 132.219
62.99000 127.977
63.00000 125.242
63.01000 127.774
63.02000 130.760
63.03000 132.889
63.04000 132.073
63.05000 131.356
63.06000 130.078
63.07000 127.894
63.08000 125.698
63.09000 127.065
63.10000 132.248
63.11000 137.410
63.12000 136.609
63.13000 131.690
63.14000 126.858
63.15000 124.743
63.16000 123.914
63.17000 123.281
63.18000 125.393
63.19000 128.393
63.20000 131.113
63.21000 128.770
63.22000 125.734
63.23000 124.101
63.24000 129.565
63.25000 136.018
63.26000 141.202
63.27000 142.113
63.28000 142.675
63.29000 143.071
63.30000 136.810
63.31000 131.862
63.32000 128.047
63.33000 126.002
63.34000 123.978
63.35000 122.194
63.36000 120.658
63.37000 119.131
63.38000 121.513
63.39000 126.468
63.40000 131.323
63.41000 133.361
63.42000 134.111
63.43000 134.861
63.44000 135.602
63.45000 136.340
63.46000 137.007
63.47000 135.467
63.48000 133.709
63.49000 133.421
63.50000 140.281
63.51000 148.092
63.52000 152.763
63.53000 147.210
63.54000 140.870
63.55000 136.451
63.56000 137.363
63.57000 138.197
63.58000 138.695
63.59000 138.687
63.60000 138.673
63.61000 137.143
63.62000 134.114
63.63000 131.105
63.64000 132.442
63.65000 136.542
63.66000 140.518
63.67000 141.254
63.68000 140.561
63.69000 140.264
63.70000 144.942
63.71000 151.117
63.72000 156.661
63.73000 152.597
63.74000 147.355
63.75000 143.567
63.76000 146.587
63.77000 150.473
63.78000 152.241
63.79000 147.358
63.80000 141.992
63.81000 138.295
63.82000 135.534
63.83000 133.486
63.84000 133.573
63.85000 136.759
63.86000 139.971
63.87000 140.520
63.88000 138.543
63.89000 136.582
63.90000 141.028
63.91000 149.343
63.92000 157.183
63.93000 153.584
63.94000 145.110
63.95000 137.328
63.96000 137.778
63.97000 140.616
63.98000 143.151
63.99000 139.663
64.00000 135.612
64.01000 133.330
64.02000 139.028
64.03000 145.696
64.04000 150.082
64.05000 147.552
64.06000 144.549
64.07000 142.504
64.08000 147.515
64.09000 151.418
64.10000 153.767
64.11000 153.941
64.12000 154.100
64.13000 153.604
64.14000 152.509
64.15000 151.424
64.16000 149.170
64.17000 146.267
64.18000 143.528
64.19000 144.448
64.20000 146.874
64.21000 149.009
64.22000 147.878
64.23000 145.833
64.24000 144.015
64.25000 141.967
64.26000 140.154
64.27000 139.557
64.28000 144.242
64.29000 149.541
64.30000 152.944
64.31000 150.803
64.32000 148.305
64.33000 146.625
64.34000 150.024
64.35000 152.654
64.36000 154.581
64.37000 155.558
64.38000 156.531
64.39000 157.605
64.40000 158.770
64.41000 159.922
64.42000 163.022
64.43000 167.163
64.44000 171.071
64.45000 170.145
64.46000 167.296
64.47000 164.207
64.48000 158.548
64.49000 152.194
64.50000 146.582
64.51000 153.629
64.52000 161.663
64.53000 168.262
64.54000 168.861
64.55000 168.797
64.56000 168.551
64.57000 167.791
64.58000 167.000
64.59000 166.475
64.60000 161.582
64.61000 157.884
64.62000 156.338
64.63000 157.583
64.64000 158.840
64.65000 160.596
64.66000 162.772
64.67000 164.921
64.68000 166.110
64.69000 166.740
64.70000 167.301
64.71000 166.520
64.72000 165.223
64.73000 164.396
64.74000 168.342
64.75000 173.530
64.76000 178.087
64.77000 174.943
64.78000 171.108
64.79000 168.245
64.80000 169.303
64.81000 170.774
64.82000 170.991
64.83000 167.788
64.84000 164.391
64.85000 162.164
64.86000 168.002
64.87000 172.428
64.88000 175.564
64.89000 177.087
64.90000 178.609
64.91000 181.254
64.92000 184.810
64.93000 188.316
64.94000 187.406
64.95000 184.190
64.96000 181.205
64.97000 182.395
64.98000 185.132
64.99000 187.271
65.00000 183.642
65.01000 178.565
65.02000 174.131
65.03000 184.980
65.04000 196.414
65.05000 204.547
65.06000 199.851
65.07000 193.869
65.08000 189.270
65.09000 188.311
65.10000 187.546
65.11000 187.051
65.12000 200.182
65.13000 209.987
65.14000 213.172
65.15000 208.398
65.16000 203.630
65.17000 204.752
65.18000 210.470
65.19000 216.097
65.20000 214.553
65.21000 209.412
65.22000 204.802
65.23000 209.155
65.24000 216.717
65.25000 223.663
65.26000 224.955
65.27000 224.879
65.28000 224.813
65.29000 227.644
65.30000 230.446
65.31000 232.720
65.32000 233.022
65.33000 233.135
65.34000 234.346
65.35000 238.348
65.36000 242.488
65.37000 245.130
65.38000 258.194
65.39000 267.833
65.40000 269.534
65.41000 262.058
65.42000 254.610
65.43000 255.404
65.44000 262.390
65.45000 269.253
65.46000 274.986
65.47000 279.972
65.48000 284.673
65.49000 284.891
65.50000 283.558
65.51000 282.962
65.52000 288.809
65.53000 296.157
65.54000 302.497
65.55000 309.960
65.56000 316.435
65.57000 323.281
65.58000 331.469
65.59000 339.779
65.60000 351.010
65.61000 369.413
65.62000 388.146
65.63000 399.938
65.64000 422.936
65.65000 439.703
65.66000 468.128
65.67000 509.510
65.68000 551.039
65.69000 614.469
65.70000 693.748
65.71000 771.480
65.72000 879.331
65.73000 997.351
65.74000 1115.071
65.75000 1228.341
65.76000 1340.126
65.77000 1450.594
65.78000 1550.066
65.79000 1647.068
65.80000 1730.223
65.81000 1810.096
65.82000 1877.148
65.83000 1934.637
65.84000 1958.794
65.85000 1980.094
65.86000 1993.411
65.87000 1987.794
65.88000 1981.371
65.89000 1977.385
65.90000 1921.994
65.91000 1881.634
65.92000 1845.644
65.93000 1814.323
65.94000 1782.531
65.95000 1690.271
65.96000 1555.844
65.97000 1424.322
65.98000 1288.965
65.99000 1157.325
66.00000 1027.040
66.01000 915.721
66.02000 810.510
66.03000 709.257
66.04000 639.568
66.05000 576.700
66.06000 523.156
66.07000 488.495
66.08000 461.554
66.09000 437.792
66.10000 424.721
66.11000 412.517
66.12000 400.246
66.13000 387.823
66.14000 375.393
66.15000 367.792
66.16000 373.074
66.17000 376.962
66.18000 379.508
66.19000 380.680
66.20000 381.838
66.21000 381.525
66.22000 380.225
66.23000 378.955
66.24000 385.586
66.25000 395.373
66.26000 405.688
66.27000 422.990
66.28000 442.463
66.29000 461.464
66.30000 476.866
66.31000 491.519
66.32000 503.916
66.33000 534.213
66.34000 561.558
66.35000 583.866
66.36000 589.833
66.37000 594.547
66.38000 599.504
66.39000 605.000
66.40000 610.515
66.41000 613.838
66.42000 620.866
66.43000 625.892
66.44000 625.023
66.45000 618.350
66.46000 611.620
66.47000 599.868
66.48000 584.862
66.49000 570.248
66.50000 556.717
66.51000 544.273
66.52000 530.997
66.53000 507.323
66.54000 480.529
66.55000 454.724
66.56000 436.127
66.57000 418.972
66.58000 404.558
66.59000 395.213
66.60000 387.962
66.61000 379.598
66.62000 367.747
66.63000 355.643
66.64000 346.356
66.65000 343.084
66.66000 340.012
66.67000 338.190
66.68000 341.203
66.69000 343.362
66.70000 341.615
66.71000 336.175
66.72000 330.836
66.73000 333.165
66.74000 340.287
66.75000 347.205
66.76000 352.133
66.77000 356.011
66.78000 359.442
66.79000 357.591
66.80000 354.212
66.81000 350.888
66.82000 347.955
66.83000 345.096
66.84000 342.711
66.85000 350.110
66.86000 357.230
66.87000 360.486
66.88000 352.063
66.89000 342.843
66.90000 339.134
66.91000 346.793
66.92000 354.795
66.93000 359.469
66.94000 365.709
66.95000 370.105
66.96000 372.760
66.97000 373.833
66.98000 374.791
66.99000 368.146
67.00000 356.917
67.01000 346.036
67.02000 349.035
67.03000 357.267
67.04000 365.768
67.05000 377.274
67.06000 389.619
67.07000 398.897
67.08000 387.672
67.09000 372.655
67.10000 360.214
67.11000 367.960
67.12000 376.282
67.13000 383.030
67.14000 385.186
67.15000 387.048
67.16000 389.487
67.17000 393.072
67.18000 396.690
67.19000 398.768
67.20000 405.701
67.21000 410.554
67.22000 404.094
67.23000 387.755
67.24000 371.694
67.25000 371.690
67.26000 381.026
67.27000 390.048
67.28000 399.543
67.29000 408.676
67.30000 416.933
67.31000 415.891
67.32000 412.345
67.33000 408.296
67.34000 401.029
67.35000 393.190
67.36000 386.744
67.37000 398.714
67.38000 410.218
67.39000 419.342
67.40000 421.758
67.41000 423.771
67.42000 425.670
67.43000 427.352
67.44000 429.028
67.45000 429.974
67.46000 423.703
67.47000 419.335
67.48000 420.955
67.49000 427.603
67.50000 434.087
67.51000 432.194
67.52000 425.597
67.53000 419.240
67.54000 427.769
67.55000 441.137
67.56000 453.385
67.57000 454.312
67.58000 452.301
67.59000 449.826
67.60000 444.502
67.61000 438.691
67.62000 433.949
67.63000 438.613
67.64000 443.235
67.65000 447.874
67.66000 452.557
67.67000 457.243
67.68000 456.944
67.69000 447.391
67.70000 437.632
67.71000 432.213
67.72000 441.127
67.73000 447.297
67.74000 447.011
67.75000 441.508
67.76000 436.200
67.77000 439.757
67.78000 448.117
67.79000 456.149
67.80000 466.005
67.81000 475.864
67.82000 485.085
67.83000 488.170
67.84000 489.721
67.85000 490.696
67.86000 488.284
67.87000 485.316
67.88000 482.913
67.89000 475.662
67.90000 469.363
67.91000 466.742
67.92000 473.780
67.93000 481.327
67.94000 485.449
67.95000 483.436
67.96000 481.300
67.97000 480.135
67.98000 490.385
67.99000 497.435
68.00000 503.409
68.01000 508.547
68.02000 513.619
68.03000 516.028
68.04000 517.044
68.05000 518.017
68.06000 518.733
68.07000 519.314
68.08000 519.838
68.09000 519.832
68.10000 519.699
68.11000 519.916
68.12000 522.117
68.13000 524.629
68.14000 526.648
68.15000 528.866
68.16000 530.678
68.17000 532.483
68.18000 534.265
68.19000 536.047
68.20000 538.402
68.21000 541.747
68.22000 545.110
68.23000 546.911
68.24000 568.748
68.25000 583.613
68.26000 587.965
68.27000 584.444
68.28000 580.913
68.29000 577.015
68.30000 572.933
68.31000 569.035
68.32000 579.999
68.33000 594.946
68.34000 607.583
68.35000 600.089
68.36000 587.918
68.37000 579.665
68.38000 592.722
68.39000 608.989
68.40000 621.954
68.41000 625.602
68.42000 627.868
68.43000 631.264
68.44000 637.428
68.45000 643.718
68.46000 647.649
68.47000 647.646
68.48000 647.582
68.49000 647.548
68.50000 671.801
68.51000 688.235
68.52000 701.625
68.53000 712.817
68.54000 724.090
68.55000 738.065
68.56000 753.358
68.57000 767.913
68.58000 779.336
68.59000 788.945
68.60000 801.000
68.61000 833.404
68.62000 870.360
68.63000 905.708
68.64000 932.648
68.65000 958.374
68.66000 978.708
68.67000 1043.491
68.68000 1098.555
68.69000 1150.070
68.70000 1193.189
68.71000 1235.954
68.72000 1281.278
68.73000 1330.720
68.74000 1380.217
68.75000 1405.741
68.76000 1447.448
68.77000 1475.665
68.78000 1519.116
68.79000 1573.158
68.80000 1627.001
68.81000 1674.773
68.82000 1719.689
68.83000 1762.290
68.84000 1829.046
68.85000 1897.747
68.86000 1971.187
68.87000 2082.278
68.88000 2201.479
68.89000 2349.205
68.90000 2640.323
68.91000 2951.245
68.92000 3194.911
68.93000 4300.647
68.94000 5240.000
68.95000 6564.529
68.96000 8768.833
68.97000 11007.506
68.98000 13699.064
68.99000 17093.365
69.00000 20495.734
69.01000 22215.578
69.02000 27122.973
69.03000 30401.012
69.04000 33097.930
69.05000 35405.441
69.06000 37682.734
69.07000 39114.504
69.08000 40162.000
69.09000 41152.027
69.10000 41764.945
69.11000 42220.508
69.12000 42709.633
69.13000 43453.609
69.14000 44250.422
69.15000 45016.914
69.16000 45636.766
69.17000 46237.242
69.18000 46703.734
69.19000 46273.242
69.20000 45876.348
69.21000 44823.172
69.22000 42322.453
69.23000 39769.688
69.24000 37076.488
69.25000 34173.172
69.26000 31267.854
69.27000 28901.387
69.28000 27063.656
69.29000 25232.375
69.30000 23969.121
69.31000 23072.863
69.32000 22191.910
69.33000 21704.963
69.34000 21390.934
69.35000 21095.223
69.36000 20677.658
69.37000 20262.363
69.38000 19766.082
69.39000 18681.576
69.40000 17479.744
69.41000 16174.354
69.42000 14386.982
69.43000 12538.749
69.44000 11115.700
69.45000 9081.337
69.46000 7435.982
69.47000 5988.918
69.48000 4964.191
69.49000 3953.382
69.50000 3151.073
69.51000 2649.460
69.52000 2150.320
69.53000 1815.059
69.54000 1634.252
69.55000 1454.191
69.56000 1330.322
69.57000 1241.466
69.58000 1154.022
69.59000 1100.129
69.60000 1060.455
69.61000 1023.237
69.62000 987.630
69.63000 955.613
69.64000 923.848
69.65000 893.837
69.66000 864.162
69.67000 835.085
69.68000 808.689
69.69000 782.617
69.70000 762.725
69.71000 754.214
69.72000 748.117
69.73000 737.743
69.74000 718.571
69.75000 699.134
69.76000 683.584
69.77000 673.434
69.78000 663.323
69.79000 647.807
69.80000 627.416
69.81000 607.202
69.82000 598.548
69.83000 596.841
69.84000 594.945
69.85000 588.851
69.86000 581.039
69.87000 573.739
69.88000 562.080
69.89000 550.398
69.90000 539.313
69.91000 532.195
69.92000 525.809
69.93000 519.245
69.94000 511.919
69.95000 504.505
69.96000 498.901
69.97000 504.742
69.98000 509.894
69.99000 509.198
70.00000 496.892
