20.00000 480.587
20.01000 488.627
20.02000 497.815
20.03000 504.783
20.04000 503.014
20.05000 500.356
20.06000 498.395
20.07000 487.007
20.08000 477.790
20.09000 472.576
20.10000 474.643
20.11000 476.861
20.12000 479.063
20.13000 481.246
20.14000 483.424
20.15000 486.004
20.16000 488.889
20.17000 491.628
20.18000 488.153
20.19000 481.379
20.20000 474.951
20.21000 474.484
20.22000 476.176
20.23000 477.735
20.24000 478.967
20.25000 479.998
20.26000 480.766
20.27000 480.019
20.28000 479.029
20.29000 476.682
20.30000 469.190
20.31000 461.198
20.32000 455.364
20.33000 462.825
20.34000 469.094
20.35000 472.032
20.36000 469.124
20.37000 466.107
20.38000 466.673
20.39000 471.435
20.40000 476.192
20.41000 478.864
20.42000 479.945
20.43000 480.964
20.44000 479.634
20.45000 477.101
20.46000 474.434
20.47000 469.614
20.48000 464.041
20.49000 458.932
20.50000 454.244
20.51000 450.156
20.52000 448.019
20.53000 456.676
20.54000 466.987
20.55000 474.555
20.56000 472.085
20.57000 468.692
20.58000 466.240
20.59000 464.306
20.60000 462.841
20.61000 461.228
20.62000 459.363
20.63000 457.494
20.64000 457.005
20.65000 458.068
20.66000 459.130
20.67000 463.000
20.68000 468.879
20.69000 474.690
20.70000 478.111
20.71000 480.350
20.72000 482.178
20.73000 477.786
20.74000 471.293
20.75000 465.368
20.76000 457.885
20.77000 450.934
20.78000 445.525
20.79000 448.317
20.80000 452.313
20.81000 456.484
20.82000 461.273
20.83000 466.115
20.84000 469.576
20.85000 467.684
20.86000 466.061
20.87000 465.481
20.88000 466.604
20.89000 467.751
20.90000 464.776
20.91000 457.337
20.92000 449.928
20.93000 449.382
20.94000 453.637
20.95000 457.990
20.96000 465.458
20.97000 474.414
20.98000 482.381
20.99000 476.215
21.00000 465.443
21.01000 455.661
21.02000 459.768
21.03000 466.081
21.04000 470.854
21.05000 467.759
21.06000 463.556
21.07000 460.224
21.08000 459.853
21.09000 459.726
21.10000 459.637
21.11000 460.016
21.12000 460.319
21.13000 459.150
21.14000 455.661
21.15000 452.143
21.16000 451.994
21.17000 455.349
21.18000 458.687
21.19000 458.078
21.20000 454.822
21.21000 451.692
21.22000 452.198
21.23000 454.382
21.24000 456.548
21.25000 458.475
21.26000 460.329
21.27000 462.003
21.28000 462.200
21.29000 462.099
21.30000 462.556
21.31000 465.751
21.32000 469.316
21.33000 468.083
21.34000 451.096
21.35000 432.876
21.36000 420.141
21.37000 436.457
21.38000 449.603
21.39000 461.097
21.40000 470.079
21.41000 479.036
21.42000 479.590
21.43000 471.757
21.44000 463.974
21.45000 460.931
21.46000 460.997
21.47000 461.095
21.48000 462.036
21.49000 463.352
21.50000 465.036
21.51000 471.400
21.52000 479.184
21.53000 486.183
21.54000 477.467
21.55000 467.045
21.56000 458.285
21.57000 457.384
21.58000 457.495
21.59000 457.373
21.60000 456.515
21.61000 455.602
21.62000 454.971
21.63000 461.249
21.64000 466.147
21.65000 468.229
21.66000 466.185
21.67000 464.106
21.68000 462.485
21.69000 461.303
21.70000 460.131
21.71000 458.145
21.72000 455.687
21.73000 453.382
21.74000 454.842
21.75000 457.921
21.76000 460.978
21.77000 463.760
21.78000 466.463
21.79000 468.879
21.80000 466.454
21.81000 463.516
21.82000 461.387
21.83000 462.945
21.84000 464.956
21.85000 467.260
21.86000 470.463
21.87000 473.729
21.88000 475.959
21.89000 478.000
21.90000 479.522
21.91000 482.452
21.92000 487.368
21.93000 492.298
21.94000 496.475
21.95000 499.960
21.96000 503.414
21.97000 497.825
21.98000 486.931
21.99000 476.514
22.00000 476.916
22.01000 481.813
22.02000 485.939
22.03000 481.283
22.04000 474.146
22.05000 467.796
22.06000 471.876
22.07000 477.116
22.08000 481.056
22.09000 479.303
22.10000 476.880
22.11000 476.082
22.12000 480.078
22.13000 484.389
22.14000 487.297
22.15000 476.783
22.16000 468.675
22.17000 466.883
22.18000 473.680
22.19000 480.519
22.20000 478.884
22.21000 469.750
22.22000 460.711
22.23000 461.305
22.24000 467.434
22.25000 473.265
22.26000 472.801
22.27000 469.814
22.28000 466.912
22.29000 464.946
22.30000 463.234
22.31000 461.719
22.32000 463.798
22.33000 466.155
22.34000 469.736
22.35000 478.492
22.36000 487.826
22.37000 492.328
22.38000 483.053
22.39000 472.930
22.40000 466.186
22.41000 464.188
22.42000 462.799
22.43000 463.704
22.44000 467.614
22.45000 471.536
22.46000 474.477
22.47000 476.583
22.48000 478.664
22.49000 474.311
22.50000 466.501
22.51000 458.752
22.52000 452.202
22.53000 446.116
22.54000 440.482
22.55000 439.488
22.56000 439.713
22.57000 439.912
22.58000 444.318
22.59000 448.737
22.60000 452.170
22.61000 451.592
22.62000 450.586
22.63000 449.185
22.64000 446.697
22.65000 444.146
22.66000 442.468
22.67000 427.555
22.68000 416.349
22.69000 414.168
22.70000 423.372
22.71000 432.601
22.72000 437.412
22.73000 438.605
22.74000 439.783
22.75000 443.165
22.76000 447.631
22.77000 451.865
22.78000 451.850
22.79000 450.246
22.80000 449.098
22.81000 452.409
22.82000 456.848
22.83000 460.732
22.84000 457.473
22.85000 453.664
22.86000 450.283
22.87000 448.584
22.88000 447.055
22.89000 445.122
22.90000 442.115
22.91000 439.051
22.92000 437.061
22.93000 443.793
22.94000 448.856
22.95000 451.927
22.96000 452.579
22.97000 453.205
22.98000 447.726
22.99000 437.439
23.00000 427.308
23.01000 430.969
23.02000 441.596
23.03000 451.442
23.04000 447.898
23.05000 439.517
23.06000 431.938
23.07000 431.814
23.08000 433.510
23.09000 434.985
23.10000 423.710
23.11000 412.359
23.12000 404.169
23.13000 407.932
23.14000 412.848
23.15000 416.792
23.16000 418.239
23.17000 419.561
23.18000 420.407
23.19000 421.224
23.20000 421.818
23.21000 421.259
23.22000 419.353
23.23000 417.457
23.24000 418.168
23.25000 420.856
23.26000 423.499
23.27000 427.021
23.28000 430.859
23.29000 434.720
23.30000 438.950
23.31000 443.307
23.32000 447.052
23.33000 445.366
23.34000 442.402
23.35000 439.841
23.36000 435.723
23.37000 432.024
23.38000 430.343
23.39000 436.022
23.40000 442.375
23.41000 444.049
23.42000 434.127
23.43000 423.662
23.44000 417.051
23.45000 430.381
23.46000 440.273
23.47000 442.553
23.48000 436.289
23.49000 430.051
23.50000 429.522
23.51000 433.164
23.52000 436.737
23.53000 441.945
23.54000 447.742
23.55000 453.052
23.56000 450.999
23.57000 446.467
23.58000 442.157
23.59000 439.728
23.60000 437.726
23.61000 436.006
23.62000 433.621
23.63000 431.521
23.64000 430.676
23.65000 434.242
23.66000 438.190
23.67000 442.202
23.68000 446.363
23.69000 450.531
23.70000 453.126
23.71000 454.411
23.72000 455.323
23.73000 457.399
23.74000 460.731
23.75000 464.034
23.76000 463.355
23.77000 459.873
23.78000 456.464
23.79000 460.018
23.80000 466.616
23.81000 472.994
23.82000 476.245
23.83000 478.480
23.84000 480.564
23.85000 481.433
23.86000 482.035
23.87000 482.550
23.88000 486.025
23.89000 489.299
23.90000 490.366
23.91000 483.946
23.92000 476.909
23.93000 476.038
23.94000 489.418
23.95000 503.369
23.96000 511.934
23.97000 499.820
23.98000 490.959
23.99000 491.410
24.00000 501.511
24.01000 511.519
24.02000 511.030
24.03000 503.418
24.04000 495.984
24.05000 493.873
24.06000 494.196
24.07000 494.307
24.08000 491.588
24.09000 487.981
24.10000 484.146
24.11000 478.554
24.12000 472.594
24.13000 467.542
24.14000 466.409
24.15000 465.899
24.16000 465.215
24.17000 463.962
24.18000 462.664
24.19000 459.783
24.20000 453.369
24.21000 446.825
24.22000 442.867
24.23000 435.791
24.24000 430.726
24.25000 433.224
24.26000 443.246
24.27000 453.186
24.28000 455.450
24.29000 452.693
24.30000 450.007
24.31000 440.464
24.32000 428.454
24.33000 417.303
24.34000 417.020
24.35000 420.028
24.36000 423.060
24.37000 426.270
24.38000 429.517
24.39000 432.250
24.40000 428.471
24.41000 424.622
24.42000 422.862
24.43000 427.699
24.44000 433.022
24.45000 434.855
24.46000 429.168
24.47000 423.226
24.48000 419.686
24.49000 416.545
24.50000 414.322
24.51000 412.553
24.52000 411.219
24.53000 409.929
24.54000 412.221
24.55000 416.772
24.56000 421.196
24.57000 422.849
24.58000 423.289
24.59000 423.543
24.60000 421.549
24.61000 418.900
24.62000 416.629
24.63000 417.037
24.64000 417.965
24.65000 418.741
24.66000 417.676
24.67000 416.604
24.68000 415.833
24.69000 415.978
24.70000 416.186
24.71000 414.644
24.72000 409.461
24.73000 404.164
24.74000 401.059
24.75000 400.574
24.76000 400.247
24.77000 402.345
24.78000 406.670
24.79000 410.959
24.80000 412.792
24.81000 413.131
24.82000 413.459
24.83000 415.694
24.84000 418.560
24.85000 420.961
24.86000 418.077
24.87000 413.705
24.88000 410.120
24.89000 411.859
24.90000 414.592
24.91000 416.861
24.92000 417.511
24.93000 417.892
24.94000 418.342
24.95000 418.999
24.96000 419.669
24.97000 419.844
24.98000 419.025
24.99000 418.179
25.00000 417.691
25.01000 400.594
25.02000 388.566
25.03000 387.895
25.04000 397.239
25.05000 406.451
25.06000 407.785
25.07000 404.493
25.08000 401.309
25.09000 399.813
25.10000 399.038
25.11000 398.569
25.12000 401.389
25.13000 405.103
25.14000 408.658
25.15000 411.181
25.16000 413.517
25.17000 415.443
25.18000 406.782
25.19000 398.684
25.20000 392.213
25.21000 390.365
25.22000 388.800
25.23000 389.934
25.24000 396.307
25.25000 402.813
25.26000 406.505
25.27000 392.895
25.28000 383.391
25.29000 387.377
25.30000 402.804
25.31000 417.964
25.32000 419.045
25.33000 412.151
25.34000 405.503
25.35000 405.641
25.36000 408.237
25.37000 410.250
25.38000 406.316
25.39000 400.824
25.40000 396.745
25.41000 401.442
25.42000 407.653
25.43000 412.732
25.44000 408.807
25.45000 404.809
25.46000 402.405
25.47000 404.373
25.48000 406.593
25.49000 406.988
25.50000 403.967
25.51000 400.868
25.52000 399.140
25.53000 395.082
25.54000 392.279
25.55000 393.130
25.56000 396.965
25.57000 400.693
25.58000 399.444
25.59000 395.475
25.60000 391.658
25.61000 387.332
25.62000 383.100
25.63000 379.455
25.64000 381.522
25.65000 385.031
25.66000 387.831
25.67000 386.405
25.68000 384.279
25.69000 382.554
25.70000 386.402
25.71000 389.999
25.72000 392.812
25.73000 393.551
25.74000 394.179
25.75000 395.901
25.76000 399.599
25.77000 403.338
25.78000 405.388
25.79000 396.515
25.80000 390.415
25.81000 389.877
25.82000 393.706
25.83000 397.484
25.84000 399.127
25.85000 399.642
25.86000 400.137
25.87000 398.165
25.88000 395.495
25.89000 393.166
25.90000 393.998
25.91000 395.600
25.92000 397.046
25.93000 397.597
25.94000 398.005
25.95000 398.335
25.96000 388.239
25.97000 379.234
25.98000 373.252
25.99000 375.004
26.00000 377.144
26.01000 381.824
26.02000 390.937
26.03000 400.131
26.04000 405.079
26.05000 392.555
26.06000 383.998
26.07000 379.847
26.08000 379.027
26.09000 378.262
26.10000 379.574
26.11000 381.944
26.12000 384.208
26.13000 388.588
26.14000 393.345
26.15000 397.428
26.16000 395.555
26.17000 392.286
26.18000 389.548
26.19000 389.730
26.20000 390.358
26.21000 390.859
26.22000 392.998
26.23000 394.847
26.24000 396.003
26.25000 395.447
26.26000 394.812
26.27000 394.600
26.28000 395.103
26.29000 395.617
26.30000 395.888
26.31000 398.984
26.32000 401.064
26.33000 399.059
26.34000 394.079
26.35000 389.238
26.36000 389.163
26.37000 391.431
26.38000 393.592
26.39000 398.095
26.40000 402.996
26.41000 406.940
26.42000 402.818
26.43000 396.875
26.44000 391.634
26.45000 390.102
26.46000 389.111
26.47000 388.326
26.48000 384.810
26.49000 381.794
26.50000 380.008
26.51000 381.158
26.52000 382.435
26.53000 385.788
26.54000 392.512
26.55000 399.283
26.56000 402.793
26.57000 398.934
26.58000 396.318
26.59000 392.320
26.60000 387.352
26.61000 382.391
26.62000 377.635
26.63000 372.975
26.64000 368.552
26.65000 371.765
26.66000 377.013
26.67000 381.513
26.68000 379.997
26.69000 377.172
26.70000 374.596
26.71000 373.279
26.72000 372.139
26.73000 371.243
26.74000 374.286
26.75000 376.980
26.76000 379.118
26.77000 379.976
26.78000 380.783
26.79000 381.629
26.80000 382.537
26.81000 383.445
26.82000 383.907
26.83000 379.947
26.84000 377.309
26.85000 376.425
26.86000 376.729
26.87000 377.129
26.88000 380.273
26.89000 384.676
26.90000 388.842
26.91000 389.786
26.92000 389.729
26.93000 388.895
26.94000 382.096
26.95000 374.048
26.96000 368.638
26.97000 376.112
26.98000 385.307
26.99000 392.466
27.00000 386.108
27.01000 380.211
27.02000 376.739
27.03000 378.667
27.04000 380.792
27.05000 381.136
27.06000 378.791
27.07000 376.419
27.08000 375.555
27.09000 376.186
27.10000 376.801
27.11000 375.902
27.12000 374.015
27.13000 372.107
27.14000 369.623
27.15000 366.883
27.16000 364.302
27.17000 372.479
27.18000 382.939
27.19000 391.694
27.20000 387.915
27.21000 381.611
27.22000 377.583
27.23000 384.252
27.24000 392.289
27.25000 398.491
27.26000 393.408
27.27000 388.725
27.28000 382.333
27.29000 372.269
27.30000 362.081
27.31000 361.363
27.32000 374.432
27.33000 387.617
27.34000 388.444
27.35000 377.510
27.36000 366.678
27.37000 363.789
27.38000 365.896
27.39000 367.877
27.40000 366.797
27.41000 364.408
27.42000 362.164
27.43000 364.442
27.44000 367.719
27.45000 370.683
27.46000 371.438
27.47000 371.765
27.48000 372.489
27.49000 375.009
27.50000 377.749
27.51000 379.844
27.52000 381.165
27.53000 382.165
27.54000 384.248
27.55000 388.579
27.56000 392.980
27.57000 393.487
27.58000 388.533
27.59000 383.543
27.60000 382.110
27.61000 383.929
27.62000 385.700
27.63000 384.263
27.64000 380.878
27.65000 377.766
27.66000 380.775
27.67000 386.311
27.68000 391.490
27.69000 385.378
27.70000 376.946
27.71000 369.937
27.72000 372.511
27.73000 376.870
27.74000 379.273
27.75000 373.152
27.76000 366.038
27.77000 360.648
27.78000 372.365
27.79000 382.434
27.80000 388.951
27.81000 388.348
27.82000 387.546
27.83000 384.699
27.84000 379.086
27.85000 373.461
27.86000 369.310
27.87000 366.460
27.88000 363.616
27.89000 361.196
27.90000 359.025
27.91000 357.202
27.92000 362.640
27.93000 370.975
27.94000 378.739
27.95000 379.178
27.96000 377.780
27.97000 375.681
27.98000 369.058
27.99000 361.626
28.00000 357.219
28.01000 365.513
28.02000 375.217
28.03000 382.499
28.04000 379.472
28.05000 376.616
28.06000 374.260
28.07000 372.868
28.08000 371.501
28.09000 368.493
28.10000 363.349
28.11000 358.200
28.12000 357.272
28.13000 359.905
28.14000 362.570
28.15000 366.904
28.16000 372.181
28.17000 377.047
28.18000 373.923
28.19000 367.723
28.20000 361.971
28.21000 363.866
28.22000 367.374
28.23000 370.491
28.24000 371.187
28.25000 371.466
28.26000 371.970
28.27000 373.381
28.28000 374.887
28.29000 376.007
28.30000 377.675
28.31000 378.997
28.32000 379.761
28.33000 379.483
28.34000 379.182
28.35000 377.350
28.36000 373.600
28.37000 369.848
28.38000 367.455
28.39000 366.171
28.40000 364.912
28.41000 364.791
28.42000 365.291
28.43000 365.830
28.44000 367.072
28.45000 368.576
28.46000 369.965
28.47000 366.479
28.48000 362.249
28.49000 359.090
28.50000 362.286
28.51000 366.530
28.52000 369.825
28.53000 369.418
28.54000 368.638
28.55000 368.064
28.56000 364.008
28.57000 360.726
28.58000 360.751
28.59000 366.734
28.60000 372.838
28.61000 376.565
28.62000 377.425
28.63000 378.277
28.64000 375.980
28.65000 371.243
28.66000 366.569
28.67000 364.499
28.68000 363.798
28.69000 363.084
28.70000 362.140
28.71000 361.114
28.72000 360.170
28.73000 355.124
28.74000 349.725
28.75000 345.880
28.76000 350.891
28.77000 357.302
28.78000 364.254
28.79000 373.236
28.80000 382.412
28.81000 389.094
28.82000 373.433
28.83000 360.520
28.84000 355.012
28.85000 362.379
28.86000 369.979
28.87000 374.669
28.88000 375.983
28.89000 377.289
28.90000 375.955
28.91000 372.654
28.92000 369.510
28.93000 372.249
28.94000 377.977
28.95000 383.187
28.96000 380.164
28.97000 374.286
28.98000 368.904
28.99000 367.325
29.00000 366.712
29.01000 367.109
29.02000 373.041
29.03000 379.814
29.04000 385.756
29.05000 388.686
29.06000 391.343
29.07000 393.257
29.08000 378.243
29.09000 366.141
29.10000 357.948
29.11000 356.316
29.12000 354.787
29.13000 357.232
29.14000 364.110
29.15000 370.966
29.16000 375.168
29.17000 377.422
29.18000 379.578
29.19000 378.371
29.20000 375.516
29.21000 372.469
29.22000 366.550
29.23000 359.669
29.24000 353.399
29.25000 353.256
29.26000 354.353
29.27000 356.162
29.28000 361.717
29.29000 367.816
29.30000 371.715
29.31000 367.919
29.32000 363.460
29.33000 360.282
29.34000 360.785
29.35000 361.289
29.36000 360.059
29.37000 356.020
29.38000 351.942
29.39000 353.384
29.40000 360.743
29.41000 368.070
29.42000 370.621
29.43000 369.839
29.44000 369.068
29.45000 368.631
29.46000 368.353
29.47000 368.364
29.48000 372.435
29.49000 377.818
29.50000 382.700
29.51000 375.102
29.52000 366.011
29.53000 359.173
29.54000 363.733
29.55000 369.879
29.56000 373.701
29.57000 369.678
29.58000 365.016
29.59000 361.730
29.60000 359.819
29.61000 358.411
29.62000 358.939
29.63000 362.490
29.64000 366.077
29.65000 366.682
29.66000 364.217
29.67000 361.765
29.68000 360.254
29.69000 359.388
29.70000 358.685
29.71000 362.595
29.72000 368.615
29.73000 374.145
29.74000 373.176
29.75000 370.180
29.76000 367.477
29.77000 367.127
29.78000 367.252
29.79000 366.947
29.80000 364.548
29.81000 361.872
29.82000 359.850
29.83000 359.959
29.84000 360.233
29.85000 360.423
29.86000 368.520
29.87000 374.847
29.88000 376.459
29.89000 370.970
29.90000 365.410
29.91000 364.610
29.92000 368.514
29.93000 372.392
29.94000 370.918
29.95000 366.039
29.96000 361.387
29.97000 362.670
29.98000 366.574
29.99000 370.359
30.00000 372.641
30.01000 374.471
30.02000 376.115
30.03000 377.732
30.04000 379.143
30.05000 380.761
30.06000 383.351
30.07000 386.064
30.08000 386.682
30.09000 380.719
30.10000 374.277
30.11000 369.839
30.12000 357.112
30.13000 347.349
30.14000 346.175
30.15000 357.469
30.16000 368.865
30.17000 376.179
30.18000 379.620
30.19000 383.033
30.20000 374.964
30.21000 359.962
30.22000 345.449
30.23000 342.696
30.24000 344.958
30.25000 347.429
30.26000 352.377
30.27000 358.043
30.28000 363.104
30.29000 356.023
30.30000 347.812
30.31000 342.966
30.32000 353.290
30.33000 365.459
30.34000 373.738
30.35000 370.225
30.36000 365.903
30.37000 362.961
30.38000 360.407
30.39000 358.508
30.40000 354.932
30.41000 349.009
30.42000 343.074
30.43000 343.366
30.44000 349.334
30.45000 355.247
30.46000 356.901
30.47000 355.998
30.48000 355.328
30.49000 359.847
30.50000 366.503
30.51000 372.314
30.52000 368.621
30.53000 362.266
30.54000 356.621
30.55000 361.074
30.56000 366.561
30.57000 372.382
30.58000 379.659
30.59000 387.105
30.60000 391.995
30.61000 389.407
30.62000 386.336
30.63000 384.271
30.64000 376.422
30.65000 370.470
30.66000 369.769
30.67000 376.144
30.68000 382.552
30.69000 384.967
30.70000 383.884
30.71000 382.813
30.72000 383.621
30.73000 385.481
30.74000 387.220
30.75000 386.443
30.76000 384.664
30.77000 382.956
30.78000 381.997
30.79000 381.242
30.80000 380.574
30.81000 378.830
30.82000 377.158
30.83000 376.284
30.84000 378.749
30.85000 381.583
30.86000 384.987
30.87000 389.998
30.88000 395.107
30.89000 398.500
30.90000 390.593
30.91000 384.539
30.92000 390.374
30.93000 411.638
30.94000 432.935
30.95000 436.817
30.96000 426.028
30.97000 415.370
30.98000 416.410
30.99000 423.843
31.00000 431.465
31.01000 442.735
31.02000 455.406
31.03000 467.467
31.04000 473.340
31.05000 477.602
31.06000 481.345
31.07000 493.720
31.08000 505.628
31.09000 517.742
31.10000 530.680
31.11000 543.705
31.12000 553.997
31.13000 556.833
31.14000 559.246
31.15000 560.828
31.16000 583.376
31.17000 600.304
31.18000 618.541
31.19000 638.414
31.20000 658.291
31.21000 677.659
31.22000 696.614
31.23000 715.305
31.24000 729.622
31.25000 741.224
31.26000 752.536
31.27000 758.607
31.28000 762.735
31.29000 768.149
31.30000 785.977
31.31000 806.922
31.32000 825.212
31.33000 825.091
31.34000 822.398
31.35000 822.219
31.36000 831.813
31.37000 842.387
31.38000 851.018
31.39000 854.533
31.40000 857.776
31.41000 859.874
31.42000 840.282
31.43000 825.633
31.44000 818.034
31.45000 818.912
31.46000 819.748
31.47000 804.666
31.48000 777.163
31.49000 750.090
31.50000 737.290
31.51000 732.143
31.52000 726.268
31.53000 708.112
31.54000 685.560
31.55000 664.381
31.56000 655.825
31.57000 650.323
31.58000 645.547
31.59000 622.929
31.60000 601.258
31.61000 581.860
31.62000 570.975
31.63000 560.901
31.64000 550.360
31.65000 538.632
31.66000 526.845
31.67000 519.320
31.68000 509.483
31.69000 502.296
31.70000 492.395
31.71000 479.358
31.72000 466.337
31.73000 457.552
31.74000 451.950
31.75000 446.446
31.76000 443.734
31.77000 442.480
31.78000 441.102
31.79000 437.769
31.80000 433.761
31.81000 429.799
31.82000 426.238
31.83000 422.771
31.84000 419.779
31.85000 411.021
31.86000 402.851
31.87000 397.330
31.88000 401.384
31.89000 406.303
31.90000 407.002
31.91000 397.335
31.92000 387.192
31.93000 380.806
31.94000 381.878
31.95000 382.738
31.96000 380.144
31.97000 373.709
31.98000 367.287
31.99000 363.465
32.00000 361.524
32.01000 359.621
32.02000 358.759
32.03000 358.420
32.04000 358.383
32.05000 362.836
32.06000 368.788
32.07000 374.267
32.08000 375.795
32.09000 376.435
32.10000 376.984
32.11000 373.436
32.12000 369.939
32.13000 367.075
32.14000 366.418
32.15000 365.950
32.16000 366.487
32.17000 369.408
32.18000 372.430
32.19000 374.306
32.20000 367.714
32.21000 362.888
32.22000 356.453
32.23000 348.300
32.24000 340.219
32.25000 341.438
32.26000 349.143
32.27000 356.681
32.28000 354.661
32.29000 348.392
32.30000 342.544
32.31000 342.606
32.32000 344.571
32.33000 346.198
32.34000 345.131
32.35000 343.481
32.36000 342.076
32.37000 343.056
32.38000 344.158
32.39000 343.652
32.40000 337.742
32.41000 331.394
32.42000 328.582
32.43000 333.875
32.44000 339.487
32.45000 342.919
32.46000 339.150
32.47000 336.392
32.48000 332.055
32.49000 326.098
32.50000 320.208
32.51000 321.412
32.52000 327.384
32.53000 333.214
32.54000 335.828
32.55000 336.925
32.56000 337.585
32.57000 332.457
32.58000 325.529
32.59000 319.684
32.60000 322.092
32.61000 326.217
32.62000 329.707
32.63000 322.758
32.64000 315.782
32.65000 311.218
32.66000 314.478
32.67000 318.339
32.68000 318.833
32.69000 311.880
32.70000 304.657
32.71000 300.305
32.72000 306.095
32.73000 310.286
32.74000 312.418
32.75000 312.523
32.76000 312.656
32.77000 315.269
32.78000 319.489
32.79000 323.599
32.80000 333.977
32.81000 346.500
32.82000 359.124
32.83000 372.995
32.84000 387.242
32.85000 401.822
32.86000 418.843
32.87000 436.351
32.88000 451.064
32.89000 472.896
32.90000 491.838
32.91000 508.890
32.92000 520.019
32.93000 530.719
32.94000 540.607
32.95000 548.758
32.96000 556.852
32.97000 561.654
32.98000 566.459
32.99000 569.857
33.00000 567.123
33.01000 558.593
33.02000 550.078
33.03000 542.808
33.04000 536.316
33.05000 530.009
33.06000 512.385
33.07000 491.074
33.08000 469.550
33.09000 445.523
33.10000 420.771
33.11000 397.887
33.12000 388.040
33.13000 380.703
33.14000 374.581
33.15000 360.672
33.16000 348.354
33.17000 336.127
33.18000 324.172
33.19000 312.237
33.20000 304.425
33.21000 305.122
33.22000 306.076
33.23000 306.634
33.24000 310.338
33.25000 312.956
33.26000 311.176
33.27000 305.400
33.28000 299.620
33.29000 293.491
33.30000 287.151
33.31000 281.008
33.32000 284.610
33.33000 291.808
33.34000 298.376
33.35000 297.898
33.36000 295.453
33.37000 293.489
33.38000 294.743
33.39000 296.592
33.40000 298.124
33.41000 299.899
33.42000 301.389
33.43000 300.290
33.44000 291.638
33.45000 282.501
33.46000 277.442
33.47000 280.504
33.48000 283.789
33.49000 285.677
33.50000 291.235
33.51000 295.132
33.52000 296.052
33.53000 294.371
33.54000 292.722
33.55000 292.917
33.56000 294.184
33.57000 295.410
33.58000 290.740
33.59000 284.130
33.60000 278.151
33.61000 278.868
33.62000 281.388
33.63000 284.760
33.64000 293.589
33.65000 303.389
33.66000 311.448
33.67000 309.190
33.68000 306.400
33.69000 303.151
33.70000 298.606
33.71000 293.984
33.72000 292.911
33.73000 298.661
33.74000 304.582
33.75000 307.927
33.76000 315.779
33.77000 321.235
33.78000 318.495
33.79000 308.872
33.80000 299.323
33.81000 293.555
33.82000 289.909
33.83000 286.395
33.84000 286.621
33.85000 288.179
33.86000 289.899
33.87000 293.252
33.88000 297.030
33.89000 300.704
33.90000 303.745
33.91000 306.678
33.92000 309.071
33.93000 306.309
33.94000 303.607
33.95000 301.309
33.96000 300.112
33.97000 298.976
33.98000 299.287
33.99000 302.281
34.00000 305.336
34.01000 307.032
34.02000 306.801
34.03000 306.637
34.04000 306.500
34.05000 306.384
34.06000 306.203
34.07000 303.071
34.08000 298.341
34.09000 293.795
34.10000 294.615
34.11000 297.240
34.12000 299.620
34.13000 299.643
34.14000 299.077
34.15000 298.527
34.16000 298.073
34.17000 297.636
34.18000 297.281
34.19000 296.344
34.20000 295.533
34.21000 296.800
34.22000 303.527
34.23000 310.542
34.24000 315.581
34.25000 317.082
34.26000 318.513
34.27000 319.293
34.28000 308.920
34.29000 301.789
34.30000 296.506
34.31000 292.661
34.32000 289.008
34.33000 293.162
34.34000 301.400
34.35000 309.291
34.36000 306.427
34.37000 300.174
34.38000 294.839
34.39000 297.894
34.40000 302.974
34.41000 308.124
34.42000 313.669
34.43000 319.276
34.44000 323.782
34.45000 318.254
34.46000 313.003
34.47000 308.028
34.48000 303.756
34.49000 299.518
34.50000 295.944
34.51000 293.517
34.52000 291.111
34.53000 289.822
34.54000 292.245
34.55000 293.891
34.56000 293.518
34.57000 291.631
34.58000 289.768
34.59000 288.755
34.60000 288.172
34.61000 287.615
34.62000 289.111
34.63000 291.157
34.64000 293.031
34.65000 293.395
34.66000 293.410
34.67000 294.103
34.68000 298.487
34.69000 303.428
34.70000 307.366
34.71000 298.735
34.72000 290.859
34.73000 284.275
34.74000 280.854
34.75000 277.578
34.76000 275.757
34.77000 276.361
34.78000 277.003
34.79000 277.340
34.80000 278.589
34.81000 279.438
34.82000 280.464
34.83000 281.618
34.84000 282.765
34.85000 283.691
34.86000 284.510
34.87000 285.290
34.88000 285.201
34.89000 284.851
34.90000 284.658
34.91000 285.766
34.92000 287.165
34.93000 288.205
34.94000 287.366
34.95000 286.255
34.96000 285.378
34.97000 283.268
34.98000 281.489
34.99000 279.861
35.00000 278.590
35.01000 277.334
35.02000 275.036
35.03000 271.062
35.04000 267.066
35.05000 265.005
35.06000 261.886
35.07000 259.791
35.08000 258.377
35.09000 257.438
35.10000 256.527
35.11000 256.462
35.12000 256.795
35.13000 257.111
35.14000 262.000
35.15000 267.861
35.16000 272.929
35.17000 271.694
35.18000 269.101
35.19000 267.335
35.20000 269.728
35.21000 272.697
35.22000 275.023
35.23000 270.245
35.24000 265.968
35.25000 261.959
35.26000 258.561
35.27000 255.187
35.28000 254.420
35.29000 257.698
35.30000 261.023
35.31000 262.703
35.32000 271.920
35.33000 278.019
35.34000 277.054
35.35000 271.353
35.36000 265.838
35.37000 265.503
35.38000 267.522
35.39000 269.431
35.40000 268.412
35.41000 266.642
35.42000 265.015
35.43000 264.474
35.44000 264.159
35.45000 263.267
35.46000 259.589
35.47000 255.542
35.48000 252.398
35.49000 262.985
35.50000 272.241
35.51000 277.416
35.52000 273.590
35.53000 269.440
35.54000 264.979
35.55000 260.054
35.56000 255.124
35.57000 256.149
35.58000 263.019
35.59000 269.822
35.60000 270.711
35.61000 267.780
35.62000 264.938
35.63000 264.418
35.64000 264.917
35.65000 265.387
35.66000 265.486
35.67000 265.475
35.68000 265.595
35.69000 266.666
35.70000 267.927
35.71000 268.360
35.72000 264.933
35.73000 261.019
35.74000 258.005
35.75000 260.413
35.76000 262.629
35.77000 263.014
35.78000 259.498
35.79000 255.853
35.80000 255.453
35.81000 259.732
35.82000 264.049
35.83000 265.612
35.84000 264.582
35.85000 263.547
35.86000 262.103
35.87000 260.406
35.88000 258.787
35.89000 259.021
35.90000 260.041
35.91000 260.998
35.92000 263.948
35.93000 267.159
35.94000 269.236
35.95000 263.425
35.96000 256.100
35.97000 250.287
35.98000 251.250
35.99000 253.031
36.00000 254.389
36.01000 253.560
36.02000 252.790
36.03000 255.178
36.04000 264.063
36.05000 273.142
36.06000 276.014
36.07000 270.256
36.08000 264.444
36.09000 262.933
36.10000 265.315
36.11000 267.576
36.12000 261.922
36.13000 251.510
36.14000 241.692
36.15000 244.967
36.16000 253.600
36.17000 261.667
36.18000 260.998
36.19000 258.184
36.20000 255.782
36.21000 256.123
36.22000 256.971
36.23000 257.977
36.24000 259.667
36.25000 261.436
36.26000 262.773
36.27000 264.560
36.28000 265.984
36.29000 265.582
36.30000 261.552
36.31000 257.423
36.32000 256.767
36.33000 260.759
36.34000 264.773
36.35000 265.621
36.36000 263.715
36.37000 261.843
36.38000 261.912
36.39000 263.106
36.40000 264.269
36.41000 264.803
36.42000 265.088
36.43000 265.353
36.44000 256.919
36.45000 247.187
36.46000 239.884
36.47000 248.091
36.48000 259.047
36.49000 268.116
36.50000 269.344
36.51000 269.712
36.52000 269.987
36.53000 262.816
36.54000 256.872
36.55000 253.922
36.56000 256.715
36.57000 259.649
36.58000 260.525
36.59000 258.748
36.60000 256.962
36.61000 257.091
36.62000 258.818
36.63000 260.442
36.64000 256.855
36.65000 250.351
36.66000 244.340
36.67000 247.733
36.68000 254.716
36.69000 261.188
36.70000 257.955
36.71000 252.784
36.72000 249.619
36.73000 258.742
36.74000 269.955
36.75000 277.277
36.76000 269.009
36.77000 259.112
36.78000 251.776
36.79000 250.679
36.80000 250.099
36.81000 250.891
36.82000 254.221
36.83000 257.607
36.84000 260.064
36.85000 261.367
36.86000 262.664
36.87000 261.663
36.88000 258.822
36.89000 256.041
36.90000 256.013
36.91000 257.473
36.92000 258.994
36.93000 261.629
36.94000 264.675
36.95000 267.485
36.96000 261.395
36.97000 253.945
36.98000 248.962
36.99000 258.469
37.00000 270.342
37.01000 279.094
37.02000 275.786
37.03000 271.279
37.04000 267.972
37.05000 264.269
37.06000 261.391
37.07000 258.388
37.08000 255.162
37.09000 251.931
37.10000 249.356
37.11000 247.565
37.12000 245.779
37.13000 245.022
37.14000 245.064
37.15000 245.094
37.16000 244.699
37.17000 244.082
37.18000 243.766
37.19000 248.464
37.20000 254.947
37.21000 260.903
37.22000 259.911
37.23000 257.533
37.24000 255.525
37.25000 255.595
37.26000 255.991
37.27000 255.260
37.28000 250.332
37.29000 245.007
37.30000 241.139
37.31000 242.992
37.32000 244.632
37.33000 247.310
37.34000 251.777
37.35000 256.275
37.36000 255.403
37.37000 248.361
37.38000 241.333
37.39000 238.312
37.40000 238.282
37.41000 238.363
37.42000 242.524
37.43000 248.738
37.44000 254.680
37.45000 256.357
37.46000 256.569
37.47000 256.762
37.48000 257.282
37.49000 257.811
37.50000 257.997
37.51000 256.318
37.52000 254.359
37.53000 253.658
37.54000 257.472
37.55000 261.691
37.56000 264.723
37.57000 249.653
37.58000 237.495
37.59000 231.926
37.60000 237.318
37.61000 242.877
37.62000 244.187
37.63000 240.803
37.64000 237.429
37.65000 238.141
37.66000 241.759
37.67000 245.354
37.68000 248.199
37.69000 250.680
37.70000 253.074
37.71000 254.172
37.72000 254.841
37.73000 255.451
37.74000 253.620
37.75000 251.517
37.76000 249.782
37.77000 249.960
37.78000 250.413
37.79000 250.173
37.80000 247.531
37.81000 244.686
37.82000 242.664
37.83000 250.837
37.84000 257.385
37.85000 260.351
37.86000 257.572
37.87000 254.717
37.88000 254.215
37.89000 256.210
37.90000 258.196
37.91000 257.683
37.92000 255.462
37.93000 253.271
37.94000 251.972
37.95000 251.092
37.96000 250.190
37.97000 248.991
37.98000 247.698
37.99000 246.526
38.00000 249.570
38.01000 253.051
38.02000 255.519
38.03000 252.917
38.04000 249.616
38.05000 247.327
38.06000 248.420
38.07000 249.785
38.08000 250.744
38.09000 253.333
38.10000 255.341
38.11000 255.037
38.12000 251.155
38.13000 247.232
38.14000 247.592
38.15000 252.317
38.16000 257.014
38.17000 257.801
38.18000 255.999
38.19000 254.355
38.20000 257.118
38.21000 261.877
38.22000 266.256
38.23000 265.660
38.24000 263.527
38.25000 261.604
38.26000 262.796
38.27000 264.408
38.28000 266.404
38.29000 270.253
38.30000 274.345
38.31000 278.147
38.32000 281.009
38.33000 283.800
38.34000 285.740
38.35000 279.538
38.36000 274.645
38.37000 275.155
38.38000 283.727
38.39000 292.375
38.40000 300.738
38.41000 308.822
38.42000 316.849
38.43000 322.817
38.44000 327.385
38.45000 331.960
38.46000 336.713
38.47000 341.544
38.48000 346.479
38.49000 352.696
38.50000 359.296
38.51000 365.213
38.52000 379.948
38.53000 394.355
38.54000 406.388
38.55000 407.404
38.56000 407.035
38.57000 410.191
38.58000 424.326
38.59000 439.249
38.60000 449.498
38.61000 458.372
38.62000 464.992
38.63000 468.740
38.64000 468.358
38.65000 467.944
38.66000 470.677
38.67000 476.366
38.68000 482.008
38.69000 484.620
38.70000 485.336
38.71000 485.881
38.72000 482.370
38.73000 477.146
38.74000 471.937
38.75000 466.908
38.76000 461.932
38.77000 457.493
38.78000 457.777
38.79000 458.809
38.80000 455.833
38.81000 434.951
38.82000 411.916
38.83000 393.220
38.84000 387.560
38.85000 382.781
38.86000 379.537
38.87000 361.125
38.88000 347.053
38.89000 336.547
38.90000 330.985
38.91000 325.455
38.92000 320.846
38.93000 317.070
38.94000 313.330
38.95000 305.993
38.96000 296.695
38.97000 287.707
38.98000 285.485
38.99000 286.026
39.00000 286.133
39.01000 281.427
39.02000 275.386
39.03000 270.026
39.04000 263.897
39.05000 258.465
39.06000 254.531
39.07000 257.041
39.08000 260.290
39.09000 263.245
39.10000 265.349
39.11000 267.399
39.12000 268.773
39.13000 262.908
39.14000 258.410
39.15000 253.283
39.16000 247.318
39.17000 241.354
39.18000 239.150
39.19000 240.208
39.20000 241.254
39.21000 243.013
39.22000 245.134
39.23000 247.110
39.24000 246.124
39.25000 243.971
39.26000 242.112
39.27000 243.354
39.28000 245.425
39.29000 247.252
39.30000 244.533
39.31000 241.495
39.32000 238.741
39.33000 237.162
39.34000 235.711
39.35000 234.845
39.36000 235.617
39.37000 236.487
39.38000 237.063
39.39000 240.858
39.40000 243.718
39.41000 245.891
39.42000 247.180
39.43000 248.458
39.44000 245.471
39.45000 238.924
39.46000 232.460
39.47000 227.788
39.48000 224.213
39.49000 220.953
39.50000 223.668
39.51000 228.658
39.52000 233.512
39.53000 237.005
39.54000 240.147
39.55000 242.903
39.56000 244.882
39.57000 246.467
39.58000 247.145
39.59000 244.196
39.60000 240.871
39.61000 236.383
39.62000 228.755
39.63000 220.952
39.64000 215.853
39.65000 227.366
39.66000 236.088
39.67000 238.013
39.68000 231.530
39.69000 225.036
39.70000 223.048
39.71000 224.677
39.72000 226.283
39.73000 224.738
39.74000 221.590
39.75000 218.666
39.76000 219.703
39.77000 222.197
39.78000 224.553
39.79000 225.598
39.80000 226.318
39.81000 226.946
39.82000 227.824
39.83000 228.608
39.84000 229.203
39.85000 229.065
39.86000 228.855
39.87000 228.815
39.88000 229.218
39.89000 229.643
39.90000 229.917
39.91000 227.544
39.92000 225.772
39.93000 225.061
39.94000 225.614
39.95000 226.168
39.96000 226.589
39.97000 226.907
39.98000 227.219
39.99000 227.588
40.00000 227.973
40.01000 228.001
40.02000 222.098
40.03000 214.091
40.04000 207.340
40.05000 211.985
40.06000 219.362
40.07000 225.756
40.08000 221.558
40.09000 216.578
40.10000 212.568
40.11000 212.160
40.12000 212.090
40.13000 213.175
40.14000 217.170
40.15000 221.307
40.16000 223.938
40.17000 224.000
40.18000 224.014
40.19000 224.835
40.20000 226.583
40.21000 228.322
40.22000 228.133
40.23000 226.511
40.24000 224.917
40.25000 221.897
40.26000 218.291
40.27000 214.970
40.28000 216.102
40.29000 218.759
40.30000 220.993
40.31000 219.572
40.32000 217.306
40.33000 215.355
40.34000 217.949
40.35000 220.724
40.36000 222.913
40.37000 223.005
40.38000 222.909
40.39000 223.041
40.40000 223.729
40.41000 224.442
40.42000 224.889
40.43000 221.763
40.44000 219.465
40.45000 219.620
40.46000 222.474
40.47000 225.306
40.48000 224.670
40.49000 221.548
40.50000 218.488
40.51000 217.006
40.52000 216.317
40.53000 215.765
40.54000 217.221
40.55000 219.341
40.56000 220.864
40.57000 217.452
40.58000 212.943
40.59000 209.084
40.60000 210.875
40.61000 213.070
40.62000 214.915
40.63000 215.555
40.64000 216.093
40.65000 217.724
40.66000 221.928
40.67000 226.239
40.68000 228.905
40.69000 217.436
40.70000 209.063
40.71000 208.030
40.72000 214.761
40.73000 221.437
40.74000 221.310
40.75000 216.481
40.76000 211.759
40.77000 213.847
40.78000 218.906
40.79000 223.390
40.80000 219.927
40.81000 213.926
40.82000 208.760
40.83000 210.173
40.84000 212.994
40.85000 215.392
40.86000 213.974
40.87000 212.344
40.88000 209.677
40.89000 203.551
40.90000 197.149
40.91000 194.324
40.92000 199.624
40.93000 205.237
40.94000 208.658
40.95000 210.908
40.96000 212.508
40.97000 214.933
40.98000 218.197
40.99000 221.417
41.00000 220.231
41.01000 216.110
41.02000 212.089
41.03000 211.637
41.04000 212.748
41.05000 213.859
41.06000 214.976
41.07000 216.095
41.08000 216.557
41.09000 212.065
41.10000 206.552
41.11000 201.896
41.12000 207.154
41.13000 212.636
41.14000 216.691
41.15000 216.151
41.16000 215.264
41.17000 214.292
41.18000 213.131
41.19000 211.964
41.20000 211.263
41.21000 215.109
41.22000 217.872
41.23000 218.814
41.24000 217.981
41.25000 217.157
41.26000 217.109
41.27000 217.560
41.28000 217.998
41.29000 215.699
41.30000 212.370
41.31000 209.105
41.32000 206.618
41.33000 204.362
41.34000 202.843
41.35000 206.633
41.36000 211.475
41.37000 215.537
41.38000 213.792
41.39000 211.734
41.40000 210.638
41.41000 212.529
41.42000 214.634
41.43000 216.277
41.44000 216.943
41.45000 217.578
41.46000 217.954
41.47000 214.250
41.48000 211.611
41.49000 209.320
41.50000 207.354
41.51000 205.416
41.52000 205.521
41.53000 206.890
41.54000 208.219
41.55000 206.630
41.56000 203.954
41.57000 201.703
41.58000 204.409
41.59000 208.535
41.60000 211.810
41.61000 209.201
41.62000 205.471
41.63000 202.364
41.64000 205.978
41.65000 209.640
41.66000 212.836
41.67000 214.641
41.68000 216.352
41.69000 216.304
41.70000 212.660
41.71000 208.909
41.72000 206.728
41.73000 207.375
41.74000 207.842
41.75000 207.216
41.76000 205.606
41.77000 204.053
41.78000 206.038
41.79000 210.139
41.80000 214.110
41.81000 215.419
41.82000 215.633
41.83000 215.550
41.84000 212.187
41.85000 207.918
41.86000 204.517
41.87000 206.865
41.88000 210.266
41.89000 213.079
41.90000 209.369
41.91000 205.694
41.92000 203.250
41.93000 204.362
41.94000 205.700
41.95000 207.033
41.96000 208.357
41.97000 209.681
41.98000 210.439
41.99000 204.246
42.00000 199.902
42.01000 198.542
42.02000 199.765
42.03000 200.956
42.04000 200.406
42.05000 198.851
42.06000 197.350
42.07000 197.681
42.08000 198.672
42.09000 199.534
42.10000 199.054
42.11000 198.216
42.12000 198.271
42.13000 203.989
42.14000 210.703
42.15000 216.214
42.16000 212.237
42.17000 208.124
42.18000 206.797
42.19000 213.254
42.20000 220.172
42.21000 221.062
42.22000 210.464
42.23000 199.587
42.24000 193.467
42.25000 204.943
42.26000 212.945
42.27000 216.473
42.28000 216.282
42.29000 216.156
42.30000 219.257
42.31000 224.154
42.32000 228.870
42.33000 226.839
42.34000 222.527
42.35000 218.356
42.36000 215.580
42.37000 213.162
42.38000 210.739
42.39000 208.276
42.40000 205.807
42.41000 203.795
42.42000 203.225
42.43000 202.882
42.44000 204.873
42.45000 213.163
42.46000 221.801
42.47000 224.369
42.48000 215.768
42.49000 206.925
42.50000 202.035
42.51000 204.929
42.52000 206.944
42.53000 210.335
42.54000 214.825
42.55000 219.192
42.56000 218.062
42.57000 213.980
42.58000 210.060
42.59000 206.596
42.60000 203.511
42.61000 200.952
42.62000 203.382
42.63000 207.048
42.64000 210.206
42.65000 210.394
42.66000 210.102
42.67000 209.865
42.68000 206.624
42.69000 203.747
42.70000 201.283
42.71000 199.895
42.72000 198.563
42.73000 196.076
42.74000 191.537
42.75000 186.959
42.76000 184.472
42.77000 189.595
42.78000 193.102
42.79000 193.034
42.80000 190.211
42.81000 187.547
42.82000 191.186
42.83000 198.093
42.84000 204.704
42.85000 199.904
42.86000 191.668
42.87000 184.814
42.88000 190.443
42.89000 199.055
42.90000 206.109
42.91000 204.429
42.92000 201.391
42.93000 198.954
42.94000 201.728
42.95000 204.369
42.96000 206.457
42.97000 207.158
42.98000 207.791
42.99000 205.238
43.00000 197.224
43.01000 189.116
43.02000 184.793
43.03000 189.160
43.04000 192.133
43.05000 193.654
43.06000 194.098
43.07000 194.533
43.08000 194.673
43.09000 194.664
43.10000 194.655
43.11000 195.089
43.12000 195.632
43.13000 196.150
43.14000 196.463
43.15000 196.728
43.16000 196.750
43.17000 195.458
43.18000 193.970
43.19000 192.787
43.20000 189.403
43.21000 186.518
43.22000 185.625
43.23000 189.567
43.24000 193.726
43.25000 197.157
43.26000 199.384
43.27000 201.592
43.28000 202.748
43.29000 202.155
43.30000 201.740
43.31000 199.398
43.32000 195.678
43.33000 191.976
43.34000 188.856
43.35000 186.019
43.36000 183.320
43.37000 184.400
43.38000 186.552
43.39000 189.171
43.40000 195.633
43.41000 202.947
43.42000 208.570
43.43000 205.432
43.44000 201.045
43.45000 197.584
43.46000 198.632
43.47000 199.777
43.48000 200.585
43.49000 200.603
43.50000 200.588
43.51000 198.867
43.52000 194.422
43.53000 189.942
43.54000 187.644
43.55000 193.073
43.56000 196.695
43.57000 196.665
43.58000 194.118
43.59000 191.580
43.60000 189.314
43.61000 187.174
43.62000 185.146
43.63000 184.992
43.64000 185.398
43.65000 186.010
43.66000 188.227
43.67000 190.787
43.68000 193.410
43.69000 196.346
43.70000 199.325
43.71000 201.654
43.72000 198.632
43.73000 195.879
43.74000 193.141
43.75000 190.437
43.76000 187.735
43.77000 187.810
43.78000 192.158
43.79000 196.552
43.80000 198.762
43.81000 196.578
43.82000 195.125
43.83000 194.146
43.84000 193.483
43.85000 192.877
43.86000 193.835
43.87000 195.497
43.88000 197.066
43.89000 198.402
43.90000 199.562
43.91000 200.010
43.92000 195.115
43.93000 189.122
43.94000 184.515
43.95000 186.545
43.96000 189.442
43.97000 191.688
43.98000 195.730
43.99000 199.049
44.00000 201.035
44.01000 200.107
44.02000 199.077
44.03000 197.467
44.04000 194.999
44.05000 192.523
44.06000 190.540
44.07000 189.037
44.08000 187.551
44.09000 187.552
44.10000 188.505
44.11000 189.532
44.12000 192.425
44.13000 196.130
44.14000 199.616
44.15000 194.650
44.16000 187.823
44.17000 182.272
44.18000 185.884
44.19000 191.307
44.20000 195.223
44.21000 192.197
44.22000 188.304
44.23000 185.313
44.24000 194.422
44.25000 202.304
44.26000 206.114
44.27000 201.326
44.28000 196.262
44.29000 194.264
44.30000 196.648
44.31000 199.066
44.32000 197.727
44.33000 192.886
44.34000 188.138
44.35000 190.168
44.36000 196.384
44.37000 202.429
44.38000 204.457
44.39000 204.799
44.40000 205.118
44.41000 206.744
44.42000 208.563
44.43000 210.173
44.44000 210.343
44.45000 210.239
44.46000 209.360
44.47000 205.036
44.48000 200.301
44.49000 196.698
44.50000 196.338
44.51000 196.226
44.52000 196.480
44.53000 197.479
44.54000 198.500
44.55000 199.474
44.56000 200.382
44.57000 201.290
44.58000 203.758
44.59000 207.621
44.60000 211.385
44.61000 208.869
44.62000 202.614
44.63000 196.742
44.64000 199.188
44.65000 205.008
44.66000 210.441
44.67000 213.721
44.68000 216.156
44.69000 217.757
44.70000 213.863
44.71000 208.966
44.72000 205.238
44.73000 206.508
44.74000 208.348
44.75000 209.734
44.76000 211.625
44.77000 213.131
44.78000 212.326
44.79000 206.972
44.80000 201.496
44.81000 198.890
44.82000 200.091
44.83000 201.309
44.84000 205.829
44.85000 213.179
44.86000 220.476
44.87000 224.827
44.88000 227.483
44.89000 229.819
44.90000 225.709
44.91000 219.075
44.92000 212.907
44.93000 215.319
44.94000 219.559
44.95000 222.377
44.96000 216.221
44.97000 208.492
44.98000 202.224
44.99000 201.976
45.00000 202.381
45.01000 202.684
45.02000 209.265
45.03000 214.683
45.04000 216.249
45.05000 210.494
45.06000 204.562
45.07000 202.250
45.08000 204.561
45.09000 206.886
45.10000 209.283
45.11000 211.732
45.12000 214.118
45.13000 213.405
45.14000 210.974
45.15000 208.574
45.16000 206.778
45.17000 205.211
45.18000 203.760
45.19000 203.606
45.20000 203.767
45.21000 203.652
45.22000 201.868
45.23000 199.802
45.24000 198.455
45.25000 199.956
45.26000 201.751
45.27000 203.079
45.28000 202.961
45.29000 202.808
45.30000 203.276
45.31000 204.882
45.32000 206.513
45.33000 206.990
45.34000 206.049
45.35000 205.106
45.36000 202.202
45.37000 197.753
45.38000 193.419
45.39000 194.123
45.40000 197.523
45.41000 200.833
45.42000 202.539
45.43000 203.660
45.44000 204.694
45.45000 203.255
45.46000 201.418
45.47000 199.757
45.48000 199.112
45.49000 198.632
45.50000 198.213
45.51000 198.031
45.52000 197.873
45.53000 197.757
45.54000 198.573
45.55000 199.240
45.56000 198.223
45.57000 194.225
45.58000 190.171
45.59000 188.256
45.60000 188.871
45.61000 189.488
45.62000 187.397
45.63000 183.251
45.64000 179.191
45.65000 178.538
45.66000 179.647
45.67000 180.713
45.68000 181.083
45.69000 181.206
45.70000 181.320
45.71000 179.936
45.72000 178.384
45.73000 176.704
45.74000 174.316
45.75000 171.818
45.76000 170.022
45.77000 170.815
45.78000 171.851
45.79000 172.601
45.80000 178.940
45.81000 184.015
45.82000 185.945
45.83000 182.501
45.84000 178.967
45.85000 178.018
45.86000 180.010
45.87000 181.999
45.88000 183.679
45.89000 185.120
45.90000 186.510
45.91000 186.093
45.92000 184.775
45.93000 183.343
45.94000 180.151
45.95000 176.360
45.96000 172.897
45.97000 178.609
45.98000 185.550
45.99000 190.633
46.00000 185.739
46.01000 179.363
46.02000 175.630
46.03000 181.303
46.04000 187.809
46.05000 192.471
46.06000 185.960
46.07000 180.605
46.08000 176.233
46.09000 173.483
46.10000 170.756
46.11000 174.066
46.12000 183.976
46.13000 193.849
46.14000 192.447
46.15000 183.100
46.16000 173.973
46.17000 172.010
46.18000 173.499
46.19000 174.916
46.20000 175.300
46.21000 175.345
46.22000 175.385
46.23000 175.820
46.24000 176.281
46.25000 176.647
46.26000 176.525
46.27000 176.334
46.28000 175.604
46.29000 173.023
46.30000 170.287
46.31000 168.348
46.32000 173.910
46.33000 178.374
46.34000 179.804
46.35000 176.411
46.36000 172.956
46.37000 171.889
46.38000 173.330
46.39000 174.764
46.40000 173.850
46.41000 171.352
46.42000 168.996
46.43000 170.860
46.44000 174.686
46.45000 178.261
46.46000 178.402
46.47000 177.453
46.48000 176.594
46.49000 178.295
46.50000 180.272
46.51000 181.969
46.52000 182.283
46.53000 182.408
46.54000 182.568
46.55000 182.841
46.56000 183.124
46.57000 183.322
46.58000 180.524
46.59000 178.322
46.60000 178.501
46.61000 182.331
46.62000 186.200
46.63000 185.516
46.64000 180.239
46.65000 174.993
46.66000 174.978
46.67000 178.376
46.68000 181.603
46.69000 180.145
46.70000 176.583
46.71000 173.372
46.72000 174.689
46.73000 177.393
46.74000 179.828
46.75000 181.334
46.76000 182.489
46.77000 182.993
46.78000 180.395
46.79000 177.393
46.80000 173.811
46.81000 168.372
46.82000 162.794
46.83000 158.929
46.84000 165.944
46.85000 171.510
46.86000 173.384
46.87000 169.800
46.88000 166.167
46.89000 166.478
46.90000 170.607
46.91000 174.706
46.92000 174.092
46.93000 170.528
46.94000 167.097
46.95000 167.014
46.96000 168.382
46.97000 169.720
46.98000 170.676
46.99000 171.519
47.00000 172.273
47.01000 169.518
47.02000 166.509
47.03000 164.710
47.04000 168.471
47.05000 172.924
47.06000 175.602
47.07000 172.801
47.08000 169.613
47.09000 167.430
47.10000 163.055
47.11000 159.726
47.12000 161.284
47.13000 169.804
47.14000 178.374
47.15000 180.113
47.16000 175.501
47.17000 170.929
47.18000 167.794
47.19000 165.586
47.20000 163.401
47.21000 161.751
47.22000 160.324
47.23000 159.363
47.24000 163.780
47.25000 169.731
47.26000 175.032
47.27000 170.697
47.28000 165.345
47.29000 160.962
47.30000 160.874
47.31000 161.295
47.32000 162.043
47.33000 163.763
47.34000 165.549
47.35000 166.756
47.36000 165.859
47.37000 165.145
47.38000 165.690
47.39000 167.965
47.40000 170.246
47.41000 168.727
47.42000 163.812
47.43000 158.946
47.44000 158.760
47.45000 161.299
47.46000 163.844
47.47000 166.526
47.48000 169.264
47.49000 171.738
47.50000 171.328
47.51000 170.125
47.52000 169.059
47.53000 164.266
47.54000 159.531
47.55000 155.960
47.56000 157.350
47.57000 159.302
47.58000 161.776
47.59000 165.751
47.60000 169.820
47.61000 172.540
47.62000 169.602
47.63000 167.314
47.64000 165.778
47.65000 165.238
47.66000 164.708
47.67000 167.975
47.68000 174.503
47.69000 180.956
47.70000 176.818
47.71000 166.854
47.72000 157.276
47.73000 155.405
47.74000 156.545
47.75000 157.530
47.76000 156.909
47.77000 155.862
47.78000 154.940
47.79000 158.070
47.80000 161.377
47.81000 164.368
47.82000 166.059
47.83000 167.610
47.84000 168.092
47.85000 165.605
47.86000 162.944
47.87000 161.188
47.88000 165.973
47.89000 169.615
47.90000 169.138
47.91000 163.414
47.92000 157.678
47.93000 154.355
47.94000 153.026
47.95000 151.714
47.96000 150.689
47.97000 149.846
47.98000 149.239
47.99000 153.015
48.00000 158.446
48.01000 163.250
48.02000 161.863
48.03000 158.893
48.04000 156.292
48.05000 158.175
48.06000 160.435
48.07000 161.397
48.08000 157.219
48.09000 152.514
48.10000 150.204
48.11000 154.318
48.12000 158.783
48.13000 161.692
48.14000 170.776
48.15000 177.535
48.16000 177.387
48.17000 168.775
48.18000 160.154
48.19000 155.009
48.20000 152.629
48.21000 150.284
48.22000 153.794
48.23000 160.232
48.24000 166.399
48.25000 167.813
48.26000 167.496
48.27000 167.049
48.28000 165.374
48.29000 163.397
48.30000 161.675
48.31000 160.844
48.32000 160.257
48.33000 160.146
48.34000 161.853
48.35000 163.736
48.36000 164.971
48.37000 164.524
48.38000 163.992
48.39000 163.650
48.40000 161.513
48.41000 159.929
48.42000 156.869
48.43000 152.069
48.44000 147.282
48.45000 146.392
48.46000 148.484
48.47000 150.542
48.48000 151.617
48.49000 152.168
48.50000 152.823
48.51000 155.179
48.52000 158.134
48.53000 160.501
48.54000 157.595
48.55000 153.436
48.56000 149.838
48.57000 155.786
48.58000 162.096
48.59000 167.228
48.60000 168.021
48.61000 168.412
48.62000 166.426
48.63000 158.500
48.64000 150.291
48.65000 145.087
48.66000 153.731
48.67000 160.170
48.68000 162.452
48.69000 160.021
48.70000 157.587
48.71000 155.292
48.72000 153.099
48.73000 150.948
48.74000 150.796
48.75000 151.609
48.76000 152.441
48.77000 153.562
48.78000 154.780
48.79000 155.828
48.80000 155.412
48.81000 154.661
48.82000 154.015
48.83000 155.424
48.84000 156.875
48.85000 157.984
48.86000 157.884
48.87000 157.677
48.88000 157.310
48.89000 156.556
48.90000 155.786
48.91000 155.304
48.92000 155.334
48.93000 155.362
48.94000 156.028
48.95000 157.390
48.96000 158.732
48.97000 157.256
48.98000 153.776
48.99000 150.368
49.00000 149.711
49.01000 150.349
49.02000 151.139
49.03000 154.097
49.04000 157.766
49.05000 161.036
49.06000 161.040
49.07000 160.326
49.08000 159.715
49.09000 162.832
49.10000 165.904
49.11000 166.378
49.12000 157.961
49.13000 148.802
49.14000 142.859
49.15000 144.414
49.16000 146.275
49.17000 147.422
49.18000 150.455
49.19000 152.648
49.20000 153.527
49.21000 153.030
49.22000 152.530
49.23000 151.666
49.24000 150.553
49.25000 149.466
49.26000 145.814
49.27000 141.174
49.28000 137.261
49.29000 143.225
49.30000 152.314
49.31000 160.377
49.32000 160.431
49.33000 158.786
49.34000 157.390
49.35000 152.318
49.36000 147.644
49.37000 145.741
49.38000 152.990
49.39000 160.962
49.40000 165.909
49.41000 164.044
49.42000 161.923
49.43000 160.635
49.44000 155.020
49.45000 150.980
49.46000 150.726
49.47000 154.278
49.48000 157.780
49.49000 156.534
49.50000 152.153
49.51000 147.881
49.52000 147.828
49.53000 149.581
49.54000 151.264
49.55000 152.029
49.56000 152.514
49.57000 153.038
49.58000 153.850
49.59000 154.720
49.60000 155.453
49.61000 156.121
49.62000 156.671
49.63000 157.252
49.64000 157.932
49.65000 158.620
49.66000 157.904
49.67000 154.134
49.68000 150.259
49.69000 147.941
49.70000 148.828
49.71000 149.478
49.72000 149.748
49.73000 149.651
49.74000 149.547
49.75000 148.825
49.76000 147.711
49.77000 146.627
49.78000 148.976
49.79000 152.624
49.80000 155.866
49.81000 154.185
49.82000 151.053
49.83000 148.500
49.84000 150.074
49.85000 152.458
49.86000 154.455
49.87000 155.885
49.88000 157.016
49.89000 157.942
49.90000 158.242
49.91000 158.497
49.92000 158.505
49.93000 157.996
49.94000 157.470
49.95000 157.161
49.96000 158.004
49.97000 158.606
49.98000 161.076
49.99000 165.276
50.00000 169.387
50.01000 167.182
50.02000 161.099
50.03000 155.197
50.04000 152.564
50.05000 151.362
50.06000 150.282
50.07000 150.606
50.08000 151.330
50.09000 151.887
50.10000 151.311
50.11000 150.522
50.12000 149.865
50.13000 156.523
50.14000 162.748
50.15000 166.988
50.16000 165.330
50.17000 163.282
50.18000 161.753
50.19000 161.273
50.20000 160.823
50.21000 160.563
50.22000 153.436
50.23000 148.414
50.24000 149.226
50.25000 155.234
50.26000 161.155
50.27000 161.706
50.28000 159.077
50.29000 156.533
50.30000 154.767
50.31000 153.395
50.32000 152.169
50.33000 152.536
50.34000 153.339
50.35000 154.264
50.36000 155.984
50.37000 157.848
50.38000 159.386
50.39000 165.752
50.40000 171.444
50.41000 175.188
50.42000 173.348
50.43000 171.160
50.44000 168.086
50.45000 163.279
50.46000 158.425
50.47000 155.660
50.48000 157.829
50.49000 159.358
50.50000 161.079
50.51000 162.965
50.52000 164.790
50.53000 163.313
50.54000 159.950
50.55000 156.704
50.56000 159.386
50.57000 164.085
50.58000 168.248
50.59000 166.854
50.60000 163.991
50.61000 162.017
50.62000 165.627
50.63000 170.210
50.64000 173.965
50.65000 164.588
50.66000 155.741
50.67000 150.634
50.68000 155.884
50.69000 161.737
50.70000 165.912
50.71000 166.919
50.72000 167.851
50.73000 168.373
50.74000 170.369
50.75000 171.752
50.76000 171.049
50.77000 168.628
50.78000 166.210
50.79000 163.915
50.80000 161.687
50.81000 159.544
50.82000 158.568
50.83000 158.064
50.84000 157.540
50.85000 156.813
50.86000 156.035
50.87000 155.087
50.88000 153.116
50.89000 150.974
50.90000 149.233
50.91000 150.954
50.92000 152.648
50.93000 155.176
50.94000 159.935
50.95000 164.814
50.96000 165.033
50.97000 156.753
50.98000 148.294
50.99000 143.637
51.00000 148.006
51.01000 151.023
51.02000 151.593
51.03000 150.224
51.04000 148.952
51.05000 151.842
51.06000 156.949
51.07000 161.848
51.08000 161.398
51.09000 159.161
51.10000 156.888
51.11000 154.274
51.12000 151.577
51.13000 149.241
51.14000 148.992
51.15000 149.078
51.16000 149.148
51.17000 149.534
51.18000 149.872
51.19000 150.438
51.20000 151.588
51.21000 152.768
51.22000 152.794
51.23000 150.788
51.24000 148.744
51.25000 147.639
51.26000 146.607
51.27000 145.900
51.28000 144.913
51.29000 143.713
51.30000 142.521
51.31000 141.688
51.32000 141.038
51.33000 140.417
51.34000 141.960
51.35000 144.103
51.36000 146.129
51.37000 147.101
51.38000 147.825
51.39000 148.505
51.40000 148.943
51.41000 149.345
51.42000 149.666
51.43000 145.203
51.44000 141.237
51.45000 138.658
51.46000 139.537
51.47000 140.580
51.48000 141.069
51.49000 140.617
51.50000 140.149
51.51000 139.901
51.52000 137.427
51.53000 135.762
51.54000 137.561
51.55000 141.905
51.56000 146.167
51.57000 147.526
51.58000 147.446
51.59000 147.369
51.60000 144.469
51.61000 140.894
51.62000 137.835
51.63000 139.169
51.64000 141.505
51.65000 143.863
51.66000 146.337
51.67000 148.829
51.68000 150.806
51.69000 146.383
51.70000 142.371
51.71000 139.659
51.72000 140.078
51.73000 140.634
51.74000 141.800
51.75000 143.965
51.76000 146.144
51.77000 147.278
51.78000 138.012
51.79000 131.803
51.80000 133.278
51.81000 140.197
51.82000 146.856
51.83000 145.234
51.84000 139.646
51.85000 134.336
51.86000 136.723
51.87000 141.252
51.88000 145.231
51.89000 144.738
51.90000 143.264
51.91000 141.608
51.92000 139.017
51.93000 136.295
51.94000 134.152
51.95000 139.021
51.96000 143.388
51.97000 146.008
51.98000 144.568
51.99000 142.962
52.00000 140.941
52.01000 138.262
52.02000 135.574
52.03000 134.202
52.04000 139.584
52.05000 143.153
52.06000 141.690
52.07000 136.790
52.08000 132.122
52.09000 134.207
52.10000 139.414
52.11000 144.345
52.12000 146.927
52.13000 148.622
52.14000 149.774
52.15000 146.714
52.16000 142.764
52.17000 138.951
52.18000 135.816
52.19000 132.773
52.20000 130.398
52.21000 135.014
52.22000 139.133
52.23000 141.683
52.24000 140.712
52.25000 139.609
52.26000 140.439
52.27000 144.215
52.28000 148.022
52.29000 149.927
52.30000 148.747
52.31000 147.979
52.32000 149.017
52.33000 151.243
52.34000 153.334
52.35000 151.778
52.36000 148.593
52.37000 145.588
52.38000 145.309
52.39000 145.814
52.40000 146.524
52.41000 148.760
52.42000 151.307
52.43000 153.054
52.44000 151.007
52.45000 148.471
52.46000 146.509
52.47000 144.858
52.48000 143.565
52.49000 141.696
52.50000 138.576
52.51000 135.413
52.52000 135.073
52.53000 138.880
52.54000 142.724
52.55000 143.956
52.56000 142.678
52.57000 141.406
52.58000 140.661
52.59000 140.250
52.60000 139.786
52.61000 138.012
52.62000 135.672
52.63000 133.472
52.64000 133.329
52.65000 133.749
52.66000 134.460
52.67000 137.228
52.68000 140.400
52.69000 142.855
52.70000 142.040
52.71000 140.821
52.72000 139.886
52.73000 139.298
52.74000 138.852
52.75000 137.966
52.76000 136.158
52.77000 134.320
52.78000 136.120
52.79000 143.070
52.80000 150.056
52.81000 150.771
52.82000 145.697
52.83000 140.704
52.84000 141.327
52.85000 145.388
52.86000 149.184
52.87000 146.917
52.88000 142.125
52.89000 137.639
52.90000 139.459
52.91000 142.740
52.92000 145.495
52.93000 144.673
52.94000 143.177
52.95000 141.823
52.96000 141.089
52.97000 140.428
52.98000 139.926
52.99000 142.371
53.00000 144.445
53.01000 144.685
53.02000 141.217
53.03000 137.644
53.04000 137.227
53.05000 141.117
53.06000 145.030
53.07000 144.502
53.08000 140.038
53.09000 135.654
53.10000 136.122
53.11000 139.455
53.12000 142.637
53.13000 142.621
53.14000 141.319
53.15000 140.105
53.16000 138.993
53.17000 138.012
53.18000 136.903
53.19000 134.961
53.20000 132.868
53.21000 132.274
53.22000 138.031
53.23000 144.501
53.24000 149.368
53.25000 141.981
53.26000 135.611
53.27000 132.007
53.28000 133.801
53.29000 135.734
53.30000 136.457
53.31000 135.588
53.32000 134.712
53.33000 135.743
53.34000 138.395
53.35000 140.978
53.36000 139.851
53.37000 136.612
53.38000 133.559
53.39000 134.206
53.40000 136.289
53.41000 138.224
53.42000 138.196
53.43000 137.704
53.44000 137.668
53.45000 140.480
53.46000 143.787
53.47000 146.407
53.48000 146.225
53.49000 145.743
53.50000 145.384
53.51000 140.966
53.52000 137.345
53.53000 134.300
53.54000 132.341
53.55000 130.408
53.56000 130.723
53.57000 133.882
53.58000 137.046
53.59000 137.194
53.60000 134.874
53.61000 132.662
53.62000 135.616
53.63000 141.410
53.64000 146.813
53.65000 145.019
53.66000 140.526
53.67000 136.370
53.68000 135.390
53.69000 135.234
53.70000 134.908
53.71000 133.558
53.72000 132.038
53.73000 131.261
53.74000 133.408
53.75000 135.854
53.76000 137.657
53.77000 137.895
53.78000 138.013
53.79000 137.122
53.80000 134.397
53.81000 131.633
53.82000 129.914
53.83000 129.466
53.84000 129.021
53.85000 129.953
53.86000 131.962
53.87000 133.971
53.88000 135.979
53.89000 137.986
53.90000 139.739
53.91000 137.113
53.92000 132.900
53.93000 129.021
53.94000 133.142
53.95000 138.581
53.96000 143.006
53.97000 141.594
53.98000 139.249
53.99000 137.765
54.00000 139.543
54.01000 141.638
54.02000 143.167
54.03000 139.249
54.04000 136.017
54.05000 134.743
54.06000 136.904
54.07000 139.129
54.08000 139.334
54.09000 137.173
54.10000 135.013
54.11000 134.993
54.12000 136.589
54.13000 138.147
54.14000 138.217
54.15000 137.524
54.16000 136.918
54.17000 137.706
54.18000 138.981
54.19000 140.151
54.20000 139.937
54.21000 139.456
54.22000 139.553
54.23000 142.850
54.24000 146.638
54.25000 149.063
54.26000 146.508
54.27000 143.494
54.28000 141.317
54.29000 137.072
54.30000 133.741
54.31000 131.067
54.32000 129.508
54.33000 127.967
54.34000 129.892
54.35000 135.719
54.36000 141.529
54.37000 142.898
54.38000 141.026
54.39000 139.191
54.40000 138.603
54.41000 138.632
54.42000 138.569
54.43000 137.128
54.44000 135.220
54.45000 133.480
54.46000 137.151
54.47000 141.498
54.48000 144.491
54.49000 140.283
54.50000 135.017
54.51000 130.924
54.52000 130.964
54.53000 131.365
54.54000 131.652
54.55000 132.809
54.56000 133.721
54.57000 135.299
54.58000 137.964
54.59000 140.645
54.60000 140.723
54.61000 137.984
54.62000 135.255
54.63000 136.876
54.64000 141.520
54.65000 145.960
54.66000 143.947
54.67000 138.853
54.68000 133.936
54.69000 131.563
54.70000 130.018
54.71000 128.616
54.72000 129.159
54.73000 130.015
54.74000 131.213
54.75000 134.154
54.76000 137.340
54.77000 139.334
54.78000 137.271
54.79000 134.872
54.80000 133.176
54.81000 133.240
54.82000 133.342
54.83000 133.082
54.84000 132.252
54.85000 131.414
54.86000 129.884
54.87000 127.632
54.88000 125.392
54.89000 127.105
54.90000 131.453
54.91000 135.675
54.92000 136.209
54.93000 135.042
54.94000 133.868
54.95000 132.590
54.96000 131.280
54.97000 130.096
54.98000 130.619
54.99000 131.395
55.00000 132.622
55.01000 136.068
55.02000 139.812
55.03000 141.983
55.04000 138.990
55.05000 135.593
55.06000 133.218
55.07000 133.067
55.08000 133.015
55.09000 135.177
55.10000 140.701
55.11000 146.261
55.12000 147.149
55.13000 143.374
55.14000 139.623
55.15000 139.420
55.16000 141.513
55.17000 143.608
55.18000 145.723
55.19000 147.846
55.20000 149.765
55.21000 149.078
55.22000 147.600
55.23000 146.271
55.24000 148.523
55.25000 151.132
55.26000 152.870
55.27000 150.492
55.28000 147.585
55.29000 145.983
55.30000 148.519
55.31000 151.360
55.32000 153.323
55.33000 150.662
55.34000 148.542
55.35000 150.922
55.36000 159.891
55.37000 168.917
55.38000 169.958
55.39000 163.349
55.40000 156.790
55.41000 156.278
55.42000 159.535
55.43000 162.640
55.44000 161.995
55.45000 159.738
55.46000 157.919
55.47000 161.376
55.48000 166.379
55.49000 170.853
55.50000 169.709
55.51000 167.757
55.52000 166.367
55.53000 167.540
55.54000 169.027
55.55000 170.953
55.56000 174.219
55.57000 177.578
55.58000 179.872
55.59000 170.620
55.60000 163.430
55.61000 163.140
55.62000 172.589
55.63000 182.106
55.64000 185.756
55.65000 184.006
55.66000 182.272
55.67000 181.999
55.68000 182.605
55.69000 183.373
55.70000 187.810
55.71000 193.771
55.72000 199.701
55.73000 205.277
55.74000 210.754
55.75000 215.625
55.76000 212.516
55.77000 208.518
55.78000 205.627
55.79000 207.594
55.80000 210.131
55.81000 213.067
55.82000 217.186
55.83000 221.381
55.84000 224.211
55.85000 218.193
55.86000 213.528
55.87000 212.204
55.88000 215.424
55.89000 218.670
55.90000 221.292
55.91000 223.363
55.92000 225.413
55.93000 224.141
55.94000 220.983
55.95000 217.963
55.96000 217.848
55.97000 218.898
55.98000 219.914
55.99000 220.556
56.00000 221.097
56.01000 221.576
56.02000 222.799
56.03000 223.972
56.04000 223.446
56.05000 215.745
56.06000 207.241
56.07000 200.249
56.08000 197.568
56.09000 195.151
56.10000 193.542
56.11000 202.366
56.12000 209.096
56.13000 209.762
56.14000 202.486
56.15000 195.178
56.16000 190.195
56.17000 187.192
56.18000 184.224
56.19000 180.630
56.20000 176.777
56.21000 173.272
56.22000 176.600
56.23000 182.573
56.24000 187.763
56.25000 184.905
56.26000 179.931
56.27000 175.556
56.28000 170.533
56.29000 166.114
56.30000 163.070
56.31000 165.623
56.32000 168.773
56.33000 170.785
56.34000 169.664
56.35000 168.363
56.36000 167.507
56.37000 166.645
56.38000 166.010
56.39000 164.173
56.40000 160.819
56.41000 157.468
56.42000 157.343
56.43000 159.858
56.44000 162.340
56.45000 161.680
56.46000 159.364
56.47000 157.110
56.48000 155.994
56.49000 155.304
56.50000 154.582
56.51000 153.555
56.52000 152.450
56.53000 151.484
56.54000 144.463
56.55000 137.585
56.56000 132.713
56.57000 135.704
56.58000 139.493
56.59000 142.135
56.60000 141.729
56.61000 141.159
56.62000 140.789
56.63000 144.168
56.64000 146.700
56.65000 146.108
56.66000 141.725
56.67000 137.343
56.68000 135.664
56.69000 136.113
56.70000 136.555
56.71000 137.950
56.72000 139.791
56.73000 141.587
56.74000 142.601
56.75000 143.334
56.76000 143.921
56.77000 143.160
56.78000 142.070
56.79000 141.122
56.80000 139.340
56.81000 137.706
56.82000 135.372
56.83000 130.394
56.84000 125.161
56.85000 122.157
56.86000 124.871
56.87000 127.873
56.88000 129.796
56.89000 131.418
56.90000 132.595
56.91000 131.671
56.92000 128.293
56.93000 124.929
56.94000 125.035
56.95000 127.775
56.96000 130.468
56.97000 129.452
56.98000 126.638
56.99000 123.994
57.00000 124.087
57.01000 125.134
57.02000 126.332
57.03000 128.857
57.04000 131.696
57.05000 134.148
57.06000 133.335
57.07000 132.222
57.08000 131.438
57.09000 131.853
57.10000 132.379
57.11000 133.079
57.12000 134.215
57.13000 135.370
57.14000 136.100
57.15000 131.145
57.16000 127.488
57.17000 124.240
57.18000 121.451
57.19000 118.690
57.20000 120.581
57.21000 125.871
57.22000 131.059
57.23000 131.223
57.24000 128.993
57.25000 126.877
57.26000 126.466
57.27000 126.631
57.28000 126.855
57.29000 127.586
57.30000 128.433
57.31000 129.160
57.32000 130.324
57.33000 131.362
57.34000 131.691
57.35000 129.526
57.36000 127.143
57.37000 123.852
57.38000 118.386
57.39000 112.826
57.40000 109.363
57.41000 116.712
57.42000 122.117
57.43000 124.826
57.44000 124.627
57.45000 124.421
57.46000 123.459
57.47000 121.964
57.48000 120.500
57.49000 122.620
57.50000 126.295
57.51000 129.668
57.52000 128.748
57.53000 126.433
57.54000 124.494
57.55000 125.584
57.56000 127.336
57.57000 128.830
57.58000 125.822
57.59000 122.759
57.60000 119.879
57.61000 117.620
57.62000 115.413
57.63000 113.915
57.64000 114.060
57.65000 114.271
57.66000 114.400
57.67000 120.473
57.68000 124.876
57.69000 126.958
57.70000 126.634
57.71000 126.315
57.72000 126.603
57.73000 127.302
57.74000 127.985
57.75000 128.694
57.76000 129.384
57.77000 130.012
57.78000 129.807
57.79000 129.341
57.80000 129.327
57.81000 132.796
57.82000 136.996
57.83000 140.556
57.84000 132.633
57.85000 124.704
57.86000 120.000
57.87000 125.856
57.88000 132.534
57.89000 135.901
57.90000 131.878
57.91000 127.581
57.92000 124.983
57.93000 124.487
57.94000 124.149
57.95000 124.022
57.96000 124.105
57.97000 124.178
57.98000 123.300
57.99000 121.801
58.00000 120.339
58.01000 124.537
58.02000 130.939
58.03000 136.746
58.04000 135.023
58.05000 131.020
58.06000 127.350
58.07000 126.134
58.08000 125.413
58.09000 124.807
58.10000 125.646
58.11000 126.499
58.12000 127.358
58.13000 128.231
58.14000 129.105
58.15000 128.486
58.16000 124.649
58.17000 120.702
58.18000 118.351
58.19000 126.499
58.20000 132.336
58.21000 133.835
58.22000 131.192
58.23000 128.520
58.24000 123.594
58.25000 117.246
58.26000 111.074
58.27000 111.583
58.28000 114.791
58.29000 117.880
58.30000 119.548
58.31000 120.800
58.32000 121.846
58.33000 121.434
58.34000 120.739
58.35000 120.158
58.36000 122.806
58.37000 125.333
58.38000 127.312
58.39000 127.614
58.40000 127.801
58.41000 129.029
58.42000 132.423
58.43000 135.884
58.44000 137.913
58.45000 130.610
58.46000 125.420
58.47000 123.722
58.48000 125.226
58.49000 126.696
58.50000 125.887
58.51000 123.690
58.52000 121.560
58.53000 120.969
58.54000 121.011
58.55000 121.092
58.56000 121.605
58.57000 122.241
58.58000 122.857
58.59000 123.347
58.60000 123.812
58.61000 124.199
58.62000 119.825
58.63000 115.749
58.64000 113.267
58.65000 115.476
58.66000 117.990
58.67000 120.170
58.68000 121.679
58.69000 123.169
58.70000 124.029
58.71000 126.875
58.72000 128.874
58.73000 127.462
58.74000 123.044
58.75000 118.678
58.76000 117.462
58.77000 118.093
58.78000 118.704
58.79000 123.671
58.80000 130.005
58.81000 135.586
58.82000 133.059
58.83000 128.329
58.84000 123.842
58.85000 120.934
58.86000 118.310
58.87000 116.147
58.88000 121.965
58.89000 127.484
58.90000 129.925
58.91000 123.619
58.92000 116.777
58.93000 112.342
58.94000 112.574
58.95000 112.925
58.96000 113.124
58.97000 118.580
58.98000 122.391
58.99000 124.226
59.00000 124.385
59.01000 124.508
59.02000 122.657
59.03000 119.690
59.04000 116.828
59.05000 118.603
59.06000 121.957
59.07000 124.805
59.08000 122.486
59.09000 118.813
59.10000 115.601
59.11000 115.255
59.12000 115.403
59.13000 115.525
59.14000 115.086
59.15000 114.678
59.16000 114.686
59.17000 115.835
59.18000 117.050
59.19000 118.037
59.20000 118.598
59.21000 119.149
59.22000 119.456
59.23000 121.288
59.24000 122.557
59.25000 122.844
59.26000 122.330
59.27000 121.810
59.28000 121.015
59.29000 120.069
59.30000 119.161
59.31000 115.671
59.32000 111.499
59.33000 107.858
59.34000 109.382
59.35000 112.209
59.36000 115.403
59.37000 120.777
59.38000 126.512
59.39000 131.166
59.40000 124.129
59.41000 117.428
59.42000 111.648
59.43000 108.308
59.44000 105.098
59.45000 104.366
59.46000 108.112
59.47000 111.951
59.48000 114.054
59.49000 116.750
59.50000 118.599
59.51000 118.546
59.52000 117.002
59.53000 115.491
59.54000 115.375
59.55000 115.996
59.56000 116.592
59.57000 114.954
59.58000 112.675
59.59000 110.958
59.60000 114.435
59.61000 119.177
59.62000 123.975
59.63000 129.096
59.64000 134.268
59.65000 138.432
59.66000 134.860
59.67000 131.358
59.68000 127.418
59.69000 122.357
59.70000 117.240
59.71000 114.568
59.72000 116.162
59.73000 117.834
59.74000 118.733
59.75000 117.883
59.76000 117.296
59.77000 115.827
59.78000 113.691
59.79000 111.595
59.80000 110.991
59.81000 111.148
59.82000 111.298
59.83000 112.609
59.84000 114.203
59.85000 115.673
59.86000 116.054
59.87000 116.180
59.88000 116.406
59.89000 117.188
59.90000 118.053
59.91000 118.745
59.92000 117.070
59.93000 115.543
59.94000 115.562
59.95000 119.401
59.96000 123.418
59.97000 124.546
59.98000 120.814
59.99000 117.003
60.00000 114.990
60.01000 117.307
60.02000 118.880
60.03000 120.189
60.04000 121.304
60.05000 122.394
60.06000 122.629
60.07000 122.444
60.08000 122.267
60.09000 121.258
60.10000 120.064
60.11000 118.769
60.12000 116.634
60.13000 114.308
60.14000 113.155
60.15000 118.193
60.16000 124.133
60.17000 128.838
60.18000 126.041
60.19000 123.270
60.20000 121.885
60.21000 123.808
60.22000 125.873
60.23000 126.189
60.24000 123.666
60.25000 121.104
60.26000 119.776
60.27000 116.895
60.28000 114.949
60.29000 112.685
60.30000 110.199
60.31000 107.767
60.32000 107.000
60.33000 107.024
60.34000 107.046
60.35000 109.752
60.36000 113.050
60.37000 116.489
60.38000 121.057
60.39000 125.871
60.40000 128.521
60.41000 120.189
60.42000 110.323
60.43000 102.575
60.44000 109.397
60.45000 115.811
60.46000 119.916
60.47000 118.699
60.48000 117.270
60.49000 114.602
60.50000 109.991
60.51000 105.358
60.52000 103.004
60.53000 108.317
60.54000 111.870
60.55000 114.464
60.56000 116.412
60.57000 118.345
60.58000 119.885
60.59000 121.245
60.60000 122.532
60.61000 122.468
60.62000 122.021
60.63000 121.568
60.64000 121.068
60.65000 120.558
60.66000 120.354
60.67000 121.643
60.68000 123.132
60.69000 124.291
60.70000 124.824
60.71000 125.210
60.72000 124.813
60.73000 122.674
60.74000 120.471
60.75000 119.472
60.76000 120.288
60.77000 121.123
60.78000 118.490
60.79000 112.421
60.80000 106.429
60.81000 107.521
60.82000 113.233
60.83000 118.772
60.84000 119.759
60.85000 118.732
60.86000 117.763
60.87000 116.639
60.88000 115.566
60.89000 114.763
60.90000 115.938
60.91000 117.512
60.92000 118.693
60.93000 118.029
60.94000 117.129
60.95000 116.434
60.96000 115.362
60.97000 114.490
60.98000 114.133
60.99000 114.882
61.00000 115.668
61.01000 116.609
61.02000 117.777
61.03000 118.946
61.04000 119.123
61.05000 118.357
61.06000 117.635
61.07000 120.401
61.08000 125.359
61.09000 130.157
61.10000 131.084
61.11000 130.356
61.12000 129.673
61.13000 130.479
61.14000 131.610
61.15000 132.424
61.16000 131.005
61.17000 129.155
61.18000 127.512
61.19000 126.810
61.20000 126.222
61.21000 125.773
61.22000 123.887
61.23000 122.322
61.24000 122.150
61.25000 124.870
61.26000 127.679
61.27000 129.228
61.28000 129.008
61.29000 128.775
61.30000 128.020
61.31000 126.789
61.32000 125.553
61.33000 124.069
61.34000 122.433
61.35000 120.899
61.36000 121.625
61.37000 123.286
61.38000 124.839
61.39000 125.264
61.40000 125.363
61.41000 125.420
61.42000 125.191
61.43000 124.909
61.44000 124.611
61.45000 124.241
61.46000 123.863
61.47000 123.577
61.48000 131.857
61.49000 138.793
61.50000 146.266
61.51000 154.814
61.52000 163.392
61.53000 170.753
61.54000 176.467
61.55000 182.168
61.56000 192.052
61.57000 205.590
61.58000 219.112
61.59000 231.675
61.60000 243.678
61.61000 255.669
61.62000 267.397
61.63000 279.020
61.64000 289.849
61.65000 296.562
61.66000 301.627
61.67000 305.693
61.68000 303.321
61.69000 299.798
61.70000 296.695
61.71000 295.360
61.72000 294.221
61.73000 293.366
61.74000 295.798
61.75000 297.854
61.76000 294.535
61.77000 280.818
61.78000 266.839
61.79000 251.662
61.80000 234.925
61.81000 218.198
61.82000 199.003
61.83000 177.776
61.84000 156.760
61.85000 146.774
61.86000 143.016
61.87000 139.445
61.88000 139.504
61.89000 140.960
61.90000 142.311
61.91000 139.594
61.92000 136.189
61.93000 132.986
61.94000 131.031
61.95000 129.291
61.96000 128.833
61.97000 133.561
61.98000 138.836
61.99000 142.757
62.00000 135.532
62.01000 129.422
62.02000 124.902
62.03000 123.353
62.04000 121.871
62.05000 121.408
62.06000 122.223
62.07000 123.040
62.08000 125.779
62.09000 130.066
62.10000 134.253
62.11000 133.821
62.12000 130.871
62.13000 127.992
62.14000 126.396
62.15000 125.276
62.16000 124.242
62.17000 127.868
62.18000 132.175
62.19000 135.968
62.20000 136.715
62.21000 136.959
62.22000 135.911
62.23000 129.831
62.24000 123.245
62.25000 118.399
62.26000 122.577
62.27000 126.181
62.28000 128.898
62.29000 130.019
62.30000 131.107
62.31000 132.313
62.32000 133.663
62.33000 135.010
62.34000 133.950
62.35000 131.022
62.36000 128.167
62.37000 128.359
62.38000 130.152
62.39000 131.790
62.40000 130.789
62.41000 128.840
62.42000 127.048
62.43000 126.510
62.44000 126.300
62.45000 126.315
62.46000 127.610
62.47000 129.108
62.48000 130.422
62.49000 131.043
62.50000 131.598
62.51000 132.003
62.52000 126.738
62.53000 122.468
62.54000 119.559
62.55000 119.018
62.56000 118.519
62.57000 120.440
62.58000 125.167
62.59000 129.885
62.60000 131.142
62.61000 129.800
62.62000 128.514
62.63000 129.330
62.64000 131.214
62.65000 133.112
62.66000 135.227
62.67000 137.417
62.68000 139.423
62.69000 138.432
62.70000 136.928
62.71000 135.352
62.72000 133.387
62.73000 131.363
62.74000 130.758
62.75000 135.297
62.76000 140.303
62.77000 143.910
62.78000 136.029
62.79000 129.585
62.80000 126.517
62.81000 129.112
62.82000 131.796
62.83000 132.752
62.84000 131.781
62.85000 130.811
62.86000 129.211
62.87000 127.172
62.88000 125.224
62.89000 126.422
62.90000 129.163
62.91000 131.846
62.92000 133.664
62.93000 135.194
62.94000 136.588
62.95000 138.323
62.96000 139.928
62.97000 140.696
62.98000 137.057
62.99000 132.778
63.00000 130.355
63.01000 134.424
63.02000 139.051
63.03000 142.349
63.04000 138.197
63.05000 134.789
63.06000 130.482
63.07000 124.719
63.08000 118.936
63.09000 118.825
63.10000 124.791
63.11000 130.733
63.12000 133.359
63.13000 133.664
63.14000 133.986
63.15000 134.839
63.16000 135.942
63.17000 136.877
63.18000 135.452
63.19000 133.265
63.20000 131.281
63.21000 132.262
63.22000 133.694
63.23000 135.043
63.24000 135.968
63.25000 136.836
63.26000 138.229
63.27000 141.400
63.28000 144.715
63.29000 147.052
63.30000 140.227
63.31000 134.776
63.32000 132.463
63.33000 135.050
63.34000 137.695
63.35000 138.201
63.36000 136.507
63.37000 134.821
63.38000 133.510
63.39000 132.466
63.40000 131.501
63.41000 132.772
63.42000 135.066
63.43000 137.241
63.44000 137.824
63.45000 137.911
63.46000 137.989
63.47000 137.251
63.48000 136.453
63.49000 136.110
63.50000 137.978
63.51000 140.140
63.52000 140.550
63.53000 135.256
63.54000 129.523
63.55000 125.527
63.56000 132.511
63.57000 138.083
63.58000 142.000
63.59000 143.426
63.60000 144.827
63.61000 144.611
63.62000 142.798
63.63000 140.996
63.64000 139.641
63.65000 138.593
63.66000 137.598
63.67000 137.983
63.68000 138.978
63.69000 139.914
63.70000 140.117
63.71000 140.099
63.72000 140.083
63.73000 141.482
63.74000 142.954
63.75000 144.450
63.76000 146.063
63.77000 147.690
63.78000 148.465
63.79000 146.559
63.80000 144.458
63.81000 143.012
63.82000 143.621
63.83000 144.131
63.84000 144.477
63.85000 144.585
63.86000 144.691
63.87000 144.666
63.88000 144.518
63.89000 144.370
63.90000 145.349
63.91000 147.005
63.92000 148.671
63.93000 150.593
63.94000 152.626
63.95000 154.333
63.96000 152.177
63.97000 148.901
63.98000 145.975
63.99000 143.070
64.00000 140.543
64.01000 139.061
64.02000 142.287
64.03000 146.085
64.04000 148.647
64.05000 147.462
64.06000 146.019
64.07000 145.037
64.08000 142.556
64.09000 140.669
64.10000 140.761
64.11000 143.620
64.12000 146.497
64.13000 147.973
64.14000 148.172
64.15000 148.369
64.16000 150.430
64.17000 153.553
64.18000 156.571
64.19000 157.232
64.20000 156.923
64.21000 156.573
64.22000 155.766
64.23000 154.830
64.24000 153.999
64.25000 152.693
64.26000 151.483
64.27000 150.020
64.28000 147.454
64.29000 144.760
64.30000 143.977
64.31000 148.784
64.32000 153.952
64.33000 157.428
64.34000 153.268
64.35000 150.020
64.36000 148.051
64.37000 147.804
64.38000 147.568
64.39000 149.694
64.40000 153.890
64.41000 158.040
64.42000 157.658
64.43000 154.700
64.44000 151.865
64.45000 151.586
64.46000 152.323
64.47000 153.243
64.48000 156.114
64.49000 159.511
64.50000 162.512
64.51000 165.746
64.52000 168.574
64.53000 170.038
64.54000 165.793
64.55000 160.917
64.56000 158.495
64.57000 163.010
64.58000 167.944
64.59000 171.221
64.60000 168.634
64.61000 166.614
64.62000 166.553
64.63000 169.035
64.64000 171.521
64.65000 171.058
64.66000 168.111
64.67000 165.199
64.68000 168.214
64.69000 174.406
64.70000 180.450
64.71000 183.647
64.72000 185.753
64.73000 187.446
64.74000 184.964
64.75000 181.395
64.76000 178.259
64.77000 176.715
64.78000 175.622
64.79000 175.846
64.80000 181.378
64.81000 187.469
64.82000 191.236
64.83000 188.664
64.84000 185.731
64.85000 183.809
64.86000 189.533
64.87000 193.868
64.88000 193.940
64.89000 188.684
64.90000 183.424
64.91000 182.159
64.92000 184.134
64.93000 186.081
64.94000 185.368
64.95000 183.270
64.96000 181.297
64.97000 181.578
64.98000 182.694
64.99000 183.811
65.00000 184.931
65.01000 186.053
65.02000 187.032
65.03000 192.209
65.04000 197.230
65.05000 199.942
65.06000 193.680
65.07000 186.517
65.08000 182.883
65.09000 188.543
65.10000 194.695
65.11000 198.676
65.12000 203.583
65.13000 207.186
65.14000 208.976
65.15000 208.588
65.16000 208.188
65.17000 205.845
65.18000 201.986
65.19000 198.188
65.20000 198.050
65.21000 199.777
65.22000 201.633
65.23000 205.666
65.24000 210.478
65.25000 214.834
65.26000 215.003
65.27000 214.159
65.28000 213.427
65.29000 221.376
65.30000 229.316
65.31000 235.594
65.32000 235.649
65.33000 235.110
65.34000 235.894
65.35000 240.040
65.36000 244.351
65.37000 247.104
65.38000 246.350
65.39000 245.757
65.40000 246.296
65.41000 248.143
65.42000 250.006
65.43000 254.788
65.44000 261.762
65.45000 268.614
65.46000 274.592
65.47000 279.938
65.48000 284.918
65.49000 284.094
65.50000 281.265
65.51000 279.059
65.52000 282.310
65.53000 286.831
65.54000 290.732
65.55000 290.726
65.56000 290.220
65.57000 292.455
65.58000 304.594
65.59000 317.628
65.60000 329.152
65.61000 336.967
65.62000 344.611
65.63000 349.423
65.64000 379.044
65.65000 400.757
65.66000 431.811
65.67000 473.248
65.68000 514.819
65.69000 576.645
65.70000 653.127
65.71000 728.117
65.72000 836.854
65.73000 957.433
65.74000 1077.775
65.75000 1194.572
65.76000 1310.185
65.77000 1426.000
65.78000 1543.491
65.79000 1661.359
65.80000 1762.400
65.81000 1834.358
65.82000 1891.572
65.83000 1942.744
65.84000 1972.861
65.85000 2001.173
65.86000 2023.940
65.87000 2033.555
65.88000 2042.609
65.89000 2048.228
65.90000 2012.898
65.91000 1987.075
65.92000 1955.718
65.93000 1918.452
65.94000 1880.859
65.95000 1801.698
65.96000 1693.548
65.97000 1587.736
65.98000 1447.294
65.99000 1296.825
66.00000 1148.635
66.01000 1032.348
66.02000 926.336
66.03000 823.117
66.04000 742.163
66.05000 666.022
66.06000 601.173
66.07000 553.345
66.08000 515.117
66.09000 479.908
66.10000 454.846
66.11000 430.609
66.12000 409.638
66.13000 396.150
66.14000 382.957
66.15000 374.888
66.16000 381.758
66.17000 386.798
66.18000 383.868
66.19000 372.761
66.20000 361.759
66.21000 361.874
66.22000 369.462
66.23000 376.868
66.24000 388.582
66.25000 401.663
66.26000 415.342
66.27000 436.921
66.28000 460.956
66.29000 484.417
66.30000 503.506
66.31000 521.685
66.32000 537.066
66.33000 563.682
66.34000 587.206
66.35000 608.218
66.36000 621.084
66.37000 633.325
66.38000 641.074
66.39000 638.888
66.40000 636.341
66.41000 634.807
66.42000 642.384
66.43000 647.839
66.44000 646.383
66.45000 638.124
66.46000 629.918
66.47000 626.501
66.48000 626.187
66.49000 625.882
66.50000 614.078
66.51000 598.001
66.52000 581.263
66.53000 556.255
66.54000 528.766
66.55000 502.929
66.56000 489.124
66.57000 477.728
66.58000 468.152
66.59000 437.908
66.60000 410.527
66.61000 387.732
66.62000 379.300
66.63000 371.908
66.64000 367.412
66.65000 369.100
66.66000 370.994
66.67000 372.118
66.68000 367.523
66.69000 364.238
66.70000 361.088
66.71000 358.063
66.72000 355.065
66.73000 354.077
66.74000 354.345
66.75000 354.606
66.76000 358.061
66.77000 362.634
66.78000 367.182
66.79000 371.426
66.80000 375.583
66.81000 379.061
66.82000 377.796
66.83000 375.619
66.84000 373.802
66.85000 373.563
66.86000 373.523
66.87000 373.505
66.88000 373.554
66.89000 373.607
66.90000 373.044
66.91000 371.212
66.92000 369.341
66.93000 368.248
66.94000 370.137
66.95000 371.478
66.96000 370.575
66.97000 367.635
66.98000 364.766
66.99000 366.618
67.00000 371.317
67.01000 375.871
67.02000 379.617
67.03000 382.849
67.04000 386.008
67.05000 388.354
67.06000 390.473
67.07000 392.403
67.08000 393.068
67.09000 393.499
67.10000 393.857
67.11000 400.791
67.12000 407.143
67.13000 410.933
67.14000 407.242
67.15000 403.072
67.16000 401.210
67.17000 403.944
67.18000 406.805
67.19000 408.449
67.20000 401.808
67.21000 397.140
67.22000 397.716
67.23000 402.871
67.24000 407.974
67.25000 410.010
67.26000 410.262
67.27000 410.506
67.28000 408.465
67.29000 405.686
67.30000 403.476
67.31000 407.327
67.32000 412.810
67.33000 417.530
67.34000 417.360
67.35000 416.321
67.36000 415.467
67.37000 423.294
67.38000 430.513
67.39000 436.332
67.40000 438.206
67.41000 439.843
67.42000 438.427
67.43000 431.141
67.44000 423.709
67.45000 419.510
67.46000 423.819
67.47000 426.836
67.48000 428.260
67.49000 428.347
67.50000 428.496
67.51000 431.831
67.52000 436.954
67.53000 441.891
67.54000 441.776
67.55000 439.850
67.56000 438.197
67.57000 439.306
67.58000 441.132
67.59000 442.762
67.60000 443.189
67.61000 443.411
67.62000 443.592
67.63000 449.555
67.64000 454.929
67.65000 458.980
67.66000 459.433
67.67000 459.682
67.68000 461.680
67.69000 466.920
67.70000 472.232
67.71000 475.183
67.72000 479.802
67.73000 482.986
67.74000 482.375
67.75000 478.698
67.76000 475.108
67.77000 475.504
67.78000 478.059
67.79000 480.515
67.80000 479.779
67.81000 477.985
67.82000 476.867
67.83000 482.237
67.84000 489.230
67.85000 495.747
67.86000 499.457
67.87000 502.707
67.88000 505.339
67.89000 504.823
67.90000 504.148
67.91000 504.201
67.92000 506.168
67.93000 508.235
67.94000 511.339
67.95000 516.298
67.96000 521.294
67.97000 524.019
67.98000 526.513
67.99000 528.197
68.00000 522.427
68.01000 510.861
68.02000 499.750
68.03000 507.275
68.04000 524.544
68.05000 541.086
68.06000 540.170
68.07000 533.505
68.08000 527.316
68.09000 525.493
68.10000 524.724
68.11000 524.678
68.12000 528.729
68.13000 533.424
68.14000 537.197
68.15000 545.259
68.16000 552.124
68.17000 559.103
68.18000 566.374
68.19000 573.660
68.20000 578.070
68.21000 577.510
68.22000 576.863
68.23000 576.516
68.24000 590.532
68.25000 600.047
68.26000 597.520
68.27000 585.977
68.28000 574.911
68.29000 581.441
68.30000 596.854
68.31000 611.572
68.32000 611.651
68.33000 607.037
68.34000 604.242
68.35000 617.318
68.36000 634.080
68.37000 648.647
68.38000 651.272
68.39000 652.098
68.40000 652.757
68.41000 659.545
68.42000 665.467
68.43000 673.694
68.44000 687.571
68.45000 701.705
68.46000 707.018
68.47000 697.619
68.48000 687.993
68.49000 682.933
68.50000 697.488
68.51000 707.401
68.52000 722.837
68.53000 742.259
68.54000 761.509
68.55000 775.004
68.56000 785.695
68.57000 795.869
68.58000 812.478
68.59000 829.832
68.60000 848.278
68.61000 875.814
68.62000 905.383
68.63000 936.435
68.64000 975.235
68.65000 1015.154
68.66000 1046.706
68.67000 1103.049
68.68000 1149.991
68.69000 1194.226
68.70000 1232.062
68.71000 1269.626
68.72000 1303.259
68.73000 1330.566
68.74000 1357.789
68.75000 1371.826
68.76000 1460.793
68.77000 1520.674
68.78000 1573.127
68.79000 1620.417
68.80000 1667.471
68.81000 1707.353
68.82000 1743.859
68.83000 1778.484
68.84000 1859.301
68.85000 1947.488
68.86000 2036.675
68.87000 2133.790
68.88000 2232.614
68.89000 2359.699
68.90000 2628.864
68.91000 2917.650
68.92000 3143.969
68.93000 4086.092
68.94000 4885.243
68.95000 6050.421
68.96000 8051.635
68.97000 10085.511
68.98000 12668.947
68.99000 16105.138
69.00000 19551.117
69.01000 21293.008
69.02000 26679.904
69.03000 30278.607
69.04000 33277.438
69.05000 35874.301
69.06000 38443.563
69.07000 40240.406
69.08000 41686.211
69.09000 43052.688
69.10000 43818.797
69.11000 44351.508
69.12000 44901.949
69.13000 45587.008
69.14000 46299.977
69.15000 47014.527
69.16000 47736.754
69.17000 48459.992
69.18000 49021.859
69.19000 48853.871
69.20000 48675.930
69.21000 47942.313
69.22000 45983.039
69.23000 43979.703
69.24000 41453.938
69.25000 38146.531
69.26000 34831.590
69.27000 32059.912
69.28000 29821.316
69.29000 27590.119
69.30000 26010.623
69.31000 24852.184
69.32000 23714.588
69.33000 23113.561
69.34000 22748.020
69.35000 22403.799
69.36000 21990.813
69.37000 21594.227
69.38000 21136.338
69.39000 20233.195
69.40000 19241.242
69.41000 18108.648
69.42000 16321.480
69.43000 14451.656
69.44000 13011.984
69.45000 10642.256
69.46000 8713.235
69.47000 7025.366
69.48000 5851.124
69.49000 4693.809
69.50000 3753.739
69.51000 3126.980
69.52000 2502.809
69.53000 2078.439
69.54000 1842.387
69.55000 1607.487
69.56000 1459.515
69.57000 1365.708
69.58000 1273.308
69.59000 1214.368
69.60000 1169.608
69.61000 1127.619
69.62000 1078.664
69.63000 1032.232
69.64000 987.759
69.65000 956.908
69.66000 928.669
69.67000 900.237
69.68000 870.938
69.69000 841.535
69.70000 819.103
69.71000 795.673
69.72000 777.160
69.73000 759.297
69.74000 742.769
69.75000 726.281
69.76000 708.067
69.77000 687.455
69.78000 666.834
69.79000 653.287
69.80000 646.150
69.81000 639.121
69.82000 639.134
69.83000 643.380
69.84000 646.669
69.85000 628.887
69.86000 602.479
69.87000 577.803
69.88000 575.585
69.89000 579.244
69.90000 581.048
69.91000 570.496
69.92000 557.666
69.93000 545.396
69.94000 535.542
69.95000 525.966
69.96000 518.729
69.97000 508.432
69.98000 500.206
69.99000 495.739
70.00000 498.737
