20.00000 471.529
20.01000 474.843
20.02000 478.631
20.03000 480.336
20.04000 473.848
20.05000 466.525
20.06000 461.124
20.07000 458.584
20.08000 456.736
20.09000 457.297
20.10000 462.236
20.11000 467.267
20.12000 470.770
20.13000 472.415
20.14000 474.052
20.15000 475.837
20.16000 477.730
20.17000 479.500
20.18000 476.050
20.19000 469.827
20.20000 463.885
20.21000 462.781
20.22000 463.430
20.23000 464.027
20.24000 471.226
20.25000 479.111
20.26000 484.816
20.27000 477.958
20.28000 469.091
20.29000 463.293
20.30000 469.133
20.31000 476.102
20.32000 481.189
20.33000 479.881
20.34000 478.624
20.35000 477.379
20.36000 476.156
20.37000 474.933
20.38000 471.084
20.39000 464.158
20.40000 457.244
20.41000 457.293
20.42000 462.604
20.43000 467.838
20.44000 470.083
20.45000 470.796
20.46000 471.835
20.47000 478.129
20.48000 486.261
20.49000 493.715
20.50000 486.793
20.51000 477.605
20.52000 470.221
20.53000 472.821
20.54000 476.951
20.55000 478.490
20.56000 470.553
20.57000 461.743
20.58000 455.379
20.59000 459.140
20.60000 462.391
20.61000 465.082
20.62000 466.825
20.63000 468.553
20.64000 465.131
20.65000 455.907
20.66000 446.710
20.67000 445.101
20.68000 449.022
20.69000 452.884
20.70000 454.712
20.71000 455.533
20.72000 456.267
20.73000 455.692
20.74000 454.673
20.75000 453.744
20.76000 456.009
20.77000 458.662
20.78000 462.018
20.79000 469.117
20.80000 476.766
20.81000 480.458
20.82000 470.192
20.83000 458.707
20.84000 450.499
20.85000 448.664
20.86000 447.476
20.87000 450.245
20.88000 459.478
20.89000 468.803
20.90000 469.846
20.91000 461.923
20.92000 454.030
20.93000 459.922
20.94000 475.388
20.95000 490.369
20.96000 489.949
20.97000 482.172
20.98000 474.521
20.99000 468.652
21.00000 463.365
21.01000 458.565
21.02000 457.743
21.03000 457.787
21.04000 458.058
21.05000 459.486
21.06000 461.078
21.07000 461.600
21.08000 458.486
21.09000 455.071
21.10000 452.657
21.11000 471.710
21.12000 486.838
21.13000 493.650
21.14000 487.357
21.15000 480.903
21.16000 476.139
21.17000 473.134
21.18000 470.144
21.19000 465.404
21.20000 459.546
21.21000 453.897
21.22000 454.355
21.23000 457.629
21.24000 460.527
21.25000 458.352
21.26000 454.581
21.27000 451.173
21.28000 454.417
21.29000 458.503
21.30000 462.052
21.31000 462.961
21.32000 463.515
21.33000 463.556
21.34000 461.908
21.35000 460.128
21.36000 458.884
21.37000 456.490
21.38000 454.648
21.39000 455.815
21.40000 461.551
21.41000 467.336
21.42000 470.896
21.43000 472.236
21.44000 473.567
21.45000 467.017
21.46000 455.464
21.47000 444.365
21.48000 445.361
21.49000 451.744
21.50000 457.510
21.51000 455.421
21.52000 450.948
21.53000 446.927
21.54000 451.434
21.55000 456.895
21.56000 461.935
21.57000 464.982
21.58000 467.773
21.59000 467.790
21.60000 459.016
21.61000 449.593
21.62000 443.083
21.63000 463.061
21.64000 478.762
21.65000 484.774
21.66000 476.595
21.67000 468.292
21.68000 465.944
21.69000 469.303
21.70000 472.636
21.71000 466.874
21.72000 455.551
21.73000 444.749
21.74000 446.763
21.75000 454.289
21.76000 461.676
21.77000 467.379
21.78000 472.589
21.79000 477.248
21.80000 477.057
21.81000 476.065
21.82000 476.018
21.83000 480.272
21.84000 485.055
21.85000 487.448
21.86000 482.532
21.87000 477.107
21.88000 473.403
21.89000 471.178
21.90000 469.548
21.91000 474.382
21.92000 488.342
21.93000 502.364
21.94000 507.900
21.95000 505.624
21.96000 503.368
21.97000 506.888
21.98000 513.796
21.99000 520.222
22.00000 515.697
22.01000 506.623
22.02000 498.406
22.03000 499.967
22.04000 504.292
22.05000 508.138
22.06000 512.164
22.07000 515.687
22.08000 519.636
22.09000 525.449
22.10000 531.481
22.11000 531.617
22.12000 514.348
22.13000 495.937
22.14000 483.518
22.15000 495.811
22.16000 505.481
22.17000 507.592
22.18000 499.422
22.19000 491.198
22.20000 487.834
22.21000 488.769
22.22000 489.695
22.23000 489.510
22.24000 488.689
22.25000 487.945
22.26000 488.822
22.27000 490.349
22.28000 491.406
22.29000 487.385
22.30000 481.979
22.31000 477.197
22.32000 476.084
22.33000 475.695
22.34000 475.377
22.35000 475.365
22.36000 475.387
22.37000 475.325
22.38000 475.025
22.39000 474.710
22.40000 474.500
22.41000 469.051
22.42000 464.917
22.43000 463.275
22.44000 464.898
22.45000 466.527
22.46000 463.206
22.47000 455.671
22.48000 448.226
22.49000 444.260
22.50000 442.319
22.51000 440.663
22.52000 444.613
22.53000 450.733
22.54000 456.294
22.55000 456.104
22.56000 454.403
22.57000 452.906
22.58000 447.543
22.59000 442.351
22.60000 439.241
22.61000 444.605
22.62000 450.872
22.63000 453.053
22.64000 443.984
22.65000 434.268
22.66000 427.876
22.67000 434.153
22.68000 438.991
22.69000 439.801
22.70000 435.533
22.71000 431.255
22.72000 429.811
22.73000 430.686
22.74000 431.550
22.75000 437.905
22.76000 447.015
22.77000 455.208
22.78000 446.600
22.79000 431.708
22.80000 418.511
22.81000 421.861
22.82000 429.405
22.83000 436.002
22.84000 439.349
22.85000 441.754
22.86000 443.231
22.87000 441.071
22.88000 438.542
22.89000 437.685
22.90000 441.270
22.91000 445.095
22.92000 447.578
22.93000 447.612
22.94000 447.600
22.95000 446.418
22.96000 443.813
22.97000 441.213
22.98000 440.545
22.99000 441.401
23.00000 442.245
23.01000 442.034
23.02000 441.290
23.03000 440.223
23.04000 433.630
23.05000 425.041
23.06000 417.669
23.07000 421.623
23.08000 428.341
23.09000 434.183
23.10000 435.752
23.11000 436.511
23.12000 436.160
23.13000 431.615
23.14000 426.665
23.15000 420.782
23.16000 412.507
23.17000 404.111
23.18000 398.733
23.19000 411.582
23.20000 421.187
23.21000 424.909
23.22000 421.761
23.23000 418.619
23.24000 419.003
23.25000 422.062
23.26000 425.069
23.27000 429.485
23.28000 434.450
23.29000 439.317
23.30000 442.603
23.31000 445.339
23.32000 447.131
23.33000 440.570
23.34000 432.044
23.35000 424.676
23.36000 419.658
23.37000 415.700
23.38000 412.928
23.39000 414.481
23.40000 416.430
23.41000 418.694
23.42000 421.741
23.43000 424.824
23.44000 426.772
23.45000 432.488
23.46000 436.674
23.47000 436.254
23.48000 430.664
23.49000 425.083
23.50000 421.729
23.51000 420.003
23.52000 418.309
23.53000 422.865
23.54000 430.225
23.55000 437.567
23.56000 444.615
23.57000 451.564
23.58000 457.084
23.59000 450.517
23.60000 441.210
23.61000 433.219
23.62000 431.253
23.63000 430.335
23.64000 431.013
23.65000 437.300
23.66000 444.074
23.67000 449.790
23.68000 452.970
23.69000 456.041
23.70000 457.953
23.71000 465.670
23.72000 471.291
23.73000 468.260
23.74000 455.895
23.75000 443.600
23.76000 441.310
23.77000 446.063
23.78000 450.716
23.79000 458.938
23.80000 468.468
23.81000 477.563
23.82000 480.456
23.83000 481.334
23.84000 482.183
23.85000 482.792
23.86000 483.349
23.87000 483.825
23.88000 481.254
23.89000 478.731
23.90000 476.796
23.91000 476.858
23.92000 477.085
23.93000 477.899
23.94000 480.068
23.95000 482.292
23.96000 483.657
23.97000 482.835
23.98000 482.227
23.99000 484.824
24.00000 490.742
24.01000 496.616
24.02000 497.613
24.03000 495.302
24.04000 493.045
24.05000 488.516
24.06000 483.182
24.07000 478.347
24.08000 480.214
24.09000 484.183
24.10000 488.019
24.11000 490.827
24.12000 493.419
24.13000 495.616
24.14000 484.316
24.15000 473.330
24.16000 463.912
24.17000 459.628
24.18000 455.745
24.19000 453.565
24.20000 455.190
24.21000 456.956
24.22000 458.023
24.23000 449.672
24.24000 443.651
24.25000 438.864
24.26000 435.302
24.27000 431.766
24.28000 430.540
24.29000 430.826
24.30000 431.105
24.31000 430.326
24.32000 429.135
24.33000 428.378
24.34000 433.112
24.35000 439.509
24.36000 444.284
24.37000 437.111
24.38000 427.523
24.39000 419.451
24.40000 416.168
24.41000 413.942
24.42000 416.013
24.43000 431.665
24.44000 448.316
24.45000 453.864
24.46000 435.483
24.47000 416.289
24.48000 404.857
24.49000 417.674
24.50000 426.901
24.51000 430.460
24.52000 428.603
24.53000 426.738
24.54000 424.251
24.55000 421.369
24.56000 418.569
24.57000 414.472
24.58000 410.050
24.59000 406.052
24.60000 407.154
24.61000 409.744
24.62000 411.461
24.63000 407.010
24.64000 401.361
24.65000 396.639
24.66000 397.705
24.67000 399.178
24.68000 402.265
24.69000 410.276
24.70000 418.627
24.71000 421.875
24.72000 414.499
24.73000 406.794
24.74000 402.276
24.75000 415.570
24.76000 425.018
24.77000 424.363
24.78000 414.435
24.79000 404.538
24.80000 396.695
24.81000 390.101
24.82000 383.706
24.83000 382.826
24.84000 384.155
24.85000 385.780
24.86000 390.764
24.87000 396.695
24.88000 402.590
24.89000 408.247
24.90000 413.860
24.91000 418.519
24.92000 417.705
24.93000 416.503
24.94000 413.118
24.95000 403.305
24.96000 393.073
24.97000 386.541
24.98000 387.441
24.99000 388.551
25.00000 389.192
25.01000 397.501
25.02000 403.349
25.03000 408.074
25.04000 411.806
25.05000 415.490
25.06000 416.279
25.07000 415.368
25.08000 414.488
25.09000 406.444
25.10000 396.146
25.11000 387.035
25.12000 390.707
25.13000 397.852
25.14000 403.445
25.15000 398.983
25.16000 392.715
25.17000 387.551
25.18000 380.374
25.19000 374.283
25.20000 372.008
25.21000 380.577
25.22000 389.809
25.23000 394.402
25.24000 389.993
25.25000 385.354
25.26000 382.722
25.27000 381.653
25.28000 380.922
25.29000 384.920
25.30000 392.928
25.31000 400.792
25.32000 401.073
25.33000 397.059
25.34000 393.188
25.35000 396.270
25.36000 401.695
25.37000 406.191
25.38000 401.198
25.39000 393.718
25.40000 387.759
25.41000 391.244
25.42000 396.357
25.43000 400.539
25.44000 395.888
25.45000 391.311
25.46000 389.128
25.47000 393.516
25.48000 398.281
25.49000 399.806
25.50000 395.265
25.51000 390.584
25.52000 387.973
25.53000 386.823
25.54000 386.039
25.55000 388.816
25.56000 394.499
25.57000 399.998
25.58000 396.881
25.59000 389.054
25.60000 381.527
25.61000 383.785
25.62000 389.321
25.63000 394.294
25.64000 393.777
25.65000 391.874
25.66000 390.109
25.67000 389.172
25.68000 388.372
25.69000 387.722
25.70000 389.401
25.71000 390.963
25.72000 391.974
25.73000 391.527
25.74000 391.003
25.75000 390.697
25.76000 390.788
25.77000 390.886
25.78000 390.940
25.79000 393.993
25.80000 396.086
25.81000 394.881
25.82000 391.084
25.83000 387.337
25.84000 385.682
25.85000 385.131
25.86000 384.602
25.87000 382.802
25.88000 380.695
25.89000 378.849
25.90000 379.422
25.91000 380.584
25.92000 382.175
25.93000 386.218
25.94000 390.650
25.95000 394.218
25.96000 386.489
25.97000 379.335
25.98000 375.303
25.99000 379.259
26.00000 383.614
26.01000 385.264
26.02000 382.194
26.03000 379.039
26.04000 377.341
26.05000 366.988
26.06000 359.942
26.07000 361.176
26.08000 368.670
26.09000 376.264
26.10000 387.659
26.11000 400.991
26.12000 413.733
26.13000 414.488
26.14000 411.314
26.15000 407.965
26.16000 403.063
26.17000 397.797
26.18000 393.259
26.19000 392.724
26.20000 392.798
26.21000 392.857
26.22000 387.612
26.23000 382.984
26.24000 380.312
26.25000 382.476
26.26000 384.865
26.27000 386.902
26.28000 388.350
26.29000 389.788
26.30000 390.547
26.31000 397.709
26.32000 402.533
26.33000 400.242
26.34000 392.769
26.35000 385.528
26.36000 386.235
26.37000 390.852
26.38000 395.249
26.39000 395.275
26.40000 393.940
26.41000 392.821
26.42000 393.525
26.43000 394.641
26.44000 396.320
26.45000 400.968
26.46000 406.050
26.47000 410.076
26.48000 403.598
26.49000 397.659
26.50000 390.848
26.51000 381.955
26.52000 372.972
26.53000 369.587
26.54000 375.293
26.55000 381.126
26.56000 384.148
26.57000 385.758
26.58000 386.822
26.59000 384.976
26.60000 381.088
26.61000 377.202
26.62000 373.374
26.63000 369.573
26.64000 365.965
26.65000 368.559
26.66000 372.808
26.67000 376.556
26.68000 376.282
26.69000 375.133
26.70000 373.744
26.71000 371.140
26.72000 368.367
26.73000 366.189
26.74000 368.031
26.75000 369.769
26.76000 372.024
26.77000 375.470
26.78000 378.964
26.79000 378.188
26.80000 370.725
26.81000 363.182
26.82000 359.350
26.83000 367.904
26.84000 373.645
26.85000 380.199
26.86000 387.302
26.87000 394.085
26.88000 391.717
26.89000 385.153
26.90000 378.943
26.91000 376.176
26.92000 374.622
26.93000 373.192
26.94000 372.716
26.95000 372.439
26.96000 372.325
26.97000 373.007
26.98000 373.796
26.99000 374.410
27.00000 370.392
27.01000 366.905
27.02000 365.489
27.03000 368.681
27.04000 372.042
27.05000 375.877
27.06000 380.427
27.07000 384.986
27.08000 382.727
27.09000 373.710
27.10000 364.807
27.11000 366.365
27.12000 374.744
27.13000 382.814
27.14000 382.731
27.15000 379.038
27.16000 375.557
27.17000 373.687
27.18000 372.419
27.19000 371.273
27.20000 371.016
27.21000 370.938
27.22000 370.887
27.23000 370.967
27.24000 371.064
27.25000 371.139
27.26000 366.596
27.27000 362.727
27.28000 359.643
27.29000 358.244
27.30000 356.902
27.31000 360.180
27.32000 370.185
27.33000 380.245
27.34000 385.111
27.35000 385.033
27.36000 384.899
27.37000 380.498
27.38000 373.412
27.39000 366.486
27.40000 363.434
27.41000 362.039
27.42000 360.729
27.43000 367.491
27.44000 375.803
27.45000 383.910
27.46000 390.587
27.47000 396.986
27.48000 400.754
27.49000 392.615
27.50000 383.024
27.51000 375.689
27.52000 375.664
27.53000 376.041
27.54000 373.201
27.55000 363.683
27.56000 353.959
27.57000 350.994
27.58000 357.509
27.59000 364.089
27.60000 367.981
27.61000 369.416
27.62000 370.816
27.63000 369.895
27.64000 367.565
27.65000 365.102
27.66000 359.652
27.67000 352.969
27.68000 346.717
27.69000 351.377
27.70000 358.394
27.71000 364.621
27.72000 365.534
27.73000 365.458
27.74000 364.743
27.75000 361.248
27.76000 357.429
27.77000 354.536
27.78000 358.273
27.79000 361.545
27.80000 363.926
27.81000 364.524
27.82000 365.072
27.83000 362.434
27.84000 355.491
27.85000 348.528
27.86000 349.447
27.87000 357.283
27.88000 365.036
27.89000 367.961
27.90000 368.059
27.91000 367.836
27.92000 360.919
27.93000 351.333
27.94000 342.402
27.95000 350.756
27.96000 362.549
27.97000 372.193
27.98000 367.962
27.99000 361.250
28.00000 357.180
28.01000 364.206
28.02000 372.464
28.03000 378.661
28.04000 380.059
28.05000 380.924
28.06000 378.801
28.07000 370.900
28.08000 362.853
28.09000 357.977
28.10000 357.229
28.11000 356.498
28.12000 353.707
28.13000 349.185
28.14000 344.842
28.15000 349.860
28.16000 360.163
28.17000 369.984
28.18000 370.434
28.19000 367.275
28.20000 364.345
28.21000 370.357
28.22000 377.879
28.23000 383.121
28.24000 374.256
28.25000 362.966
28.26000 354.700
28.27000 358.662
28.28000 363.918
28.29000 367.823
28.30000 368.063
28.31000 368.087
28.32000 368.457
28.33000 369.473
28.34000 370.503
28.35000 370.529
28.36000 369.298
28.37000 368.065
28.38000 364.203
28.39000 358.225
28.40000 352.290
28.41000 348.364
28.42000 345.533
28.43000 342.701
28.44000 339.850
28.45000 336.992
28.46000 334.352
28.47000 339.708
28.48000 346.320
28.49000 351.996
28.50000 352.115
28.51000 351.316
28.52000 351.574
28.53000 355.947
28.54000 360.734
28.55000 364.256
28.56000 367.365
28.57000 369.753
28.58000 371.586
28.59000 372.419
28.60000 373.232
28.61000 372.813
28.62000 370.907
28.63000 369.003
28.64000 366.774
28.65000 364.304
28.66000 361.842
28.67000 359.707
28.68000 357.745
28.69000 355.916
28.70000 356.348
28.71000 357.591
28.72000 358.734
28.73000 357.950
28.74000 356.831
28.75000 354.958
28.76000 348.785
28.77000 341.931
28.78000 337.378
28.79000 341.474
28.80000 346.396
28.81000 349.981
28.82000 344.719
28.83000 340.329
28.84000 339.382
28.85000 344.422
28.86000 349.569
28.87000 352.701
28.88000 353.494
28.89000 354.282
28.90000 355.037
28.91000 355.762
28.92000 356.469
28.93000 356.530
28.94000 356.261
28.95000 355.822
28.96000 352.652
28.97000 348.535
28.98000 344.766
28.99000 344.708
29.00000 345.429
29.01000 346.933
29.02000 352.725
29.03000 359.168
29.04000 364.193
29.05000 364.077
29.06000 363.495
29.07000 363.075
29.08000 358.356
29.09000 354.589
29.10000 350.659
29.11000 346.453
29.12000 342.244
29.13000 343.661
29.14000 351.356
29.15000 359.027
29.16000 356.268
29.17000 346.024
29.18000 336.170
29.19000 339.557
29.20000 349.436
29.21000 358.664
29.22000 358.139
29.23000 354.349
29.24000 350.896
29.25000 344.835
29.26000 338.945
29.27000 334.851
29.28000 340.213
29.29000 346.949
29.30000 353.031
29.31000 356.824
29.32000 360.420
29.33000 362.983
29.34000 356.625
29.35000 351.488
29.36000 347.203
29.37000 344.300
29.38000 341.416
29.39000 343.626
29.40000 351.297
29.41000 358.934
29.42000 360.709
29.43000 358.407
29.44000 356.145
29.45000 355.099
29.46000 354.629
29.47000 354.179
29.48000 354.018
29.49000 353.951
29.50000 353.889
29.51000 352.320
29.52000 350.648
29.53000 348.314
29.54000 342.635
29.55000 336.490
29.56000 332.459
29.57000 335.555
29.58000 339.233
29.59000 341.825
29.60000 345.771
29.61000 348.805
29.62000 352.403
29.63000 356.881
29.64000 361.370
29.65000 362.382
29.66000 359.813
29.67000 357.258
29.68000 354.409
29.69000 351.402
29.70000 348.503
29.71000 348.663
29.72000 350.222
29.73000 351.780
29.74000 353.317
29.75000 354.848
29.76000 356.230
29.77000 353.067
29.78000 349.456
29.79000 346.461
29.80000 346.470
29.81000 346.880
29.82000 349.901
29.83000 361.426
29.84000 373.606
29.85000 382.095
29.86000 390.070
29.87000 396.074
29.88000 396.773
29.89000 389.486
29.90000 382.119
29.91000 377.424
29.92000 375.369
29.93000 373.327
29.94000 375.840
29.95000 381.230
29.96000 386.287
29.97000 382.623
29.98000 375.108
29.99000 368.362
30.00000 371.263
30.01000 377.068
30.02000 382.280
30.03000 378.675
30.04000 373.974
30.05000 370.991
30.06000 376.059
30.07000 382.152
30.08000 387.266
30.09000 389.305
30.10000 391.121
30.11000 392.372
30.12000 384.203
30.13000 377.834
30.14000 374.066
30.15000 374.074
30.16000 374.114
30.17000 376.345
30.18000 380.655
30.19000 384.931
30.20000 381.500
30.21000 373.382
30.22000 365.531
30.23000 364.156
30.24000 365.542
30.25000 366.535
30.26000 362.866
30.27000 357.843
30.28000 353.356
30.29000 355.869
30.30000 359.235
30.31000 362.067
30.32000 362.492
30.33000 362.624
30.34000 362.404
30.35000 361.116
30.36000 359.756
30.37000 358.829
30.38000 359.992
30.39000 360.908
30.40000 358.282
30.41000 350.703
30.42000 343.095
30.43000 343.185
30.44000 350.293
30.45000 357.334
30.46000 357.234
30.47000 352.903
30.48000 348.911
30.49000 352.467
30.50000 359.131
30.51000 365.107
30.52000 363.338
30.53000 359.400
30.54000 355.902
30.55000 350.184
30.56000 344.869
30.57000 342.121
30.58000 350.527
30.59000 360.228
30.60000 369.029
30.61000 375.197
30.62000 381.195
30.63000 385.229
30.64000 376.390
30.65000 369.557
30.66000 366.780
30.67000 369.472
30.68000 372.186
30.69000 369.175
30.70000 361.150
30.71000 353.210
30.72000 354.294
30.73000 360.500
30.74000 366.579
30.75000 370.008
30.76000 372.383
30.77000 374.547
30.78000 374.446
30.79000 373.735
30.80000 373.106
30.81000 373.110
30.82000 373.211
30.83000 374.271
30.84000 379.345
30.85000 384.863
30.86000 387.929
30.87000 384.065
30.88000 379.781
30.89000 376.937
30.90000 380.444
30.91000 383.154
30.92000 388.158
30.93000 396.139
30.94000 404.135
30.95000 413.613
30.96000 424.340
30.97000 434.936
30.98000 439.811
30.99000 441.423
31.00000 443.482
31.01000 454.157
31.02000 468.140
31.03000 481.494
31.04000 488.471
31.05000 493.786
31.06000 498.456
31.07000 504.926
31.08000 510.754
31.09000 519.963
31.10000 542.801
31.11000 567.076
31.12000 590.158
31.13000 609.985
31.14000 629.627
31.15000 642.505
31.16000 681.022
31.17000 709.770
31.18000 735.227
31.19000 756.572
31.20000 777.920
31.21000 805.270
31.22000 837.486
31.23000 869.254
31.24000 901.188
31.25000 932.310
31.26000 963.041
31.27000 986.727
31.28000 1007.802
31.29000 1030.215
31.30000 1065.536
31.31000 1104.098
31.32000 1137.774
31.33000 1152.997
31.34000 1163.430
31.35000 1173.701
31.36000 1183.342
31.37000 1192.921
31.38000 1197.542
31.39000 1189.103
31.40000 1179.971
31.41000 1174.063
31.42000 1180.099
31.43000 1184.690
31.44000 1187.030
31.45000 1186.663
31.46000 1186.236
31.47000 1171.039
31.48000 1144.317
31.49000 1118.013
31.50000 1081.704
31.51000 1041.437
31.52000 1001.643
31.53000 969.824
31.54000 940.859
31.55000 910.116
31.56000 863.035
31.57000 812.001
31.58000 767.701
31.59000 746.601
31.60000 731.739
31.61000 714.777
31.62000 689.946
31.63000 664.366
31.64000 638.734
31.65000 612.971
31.66000 587.203
31.67000 570.754
31.68000 549.973
31.69000 534.799
31.70000 514.841
31.71000 489.354
31.72000 463.922
31.73000 451.263
31.74000 448.202
31.75000 445.194
31.76000 443.437
31.77000 442.353
31.78000 440.806
31.79000 431.925
31.80000 420.509
31.81000 410.118
31.82000 408.703
31.83000 409.380
31.84000 409.964
31.85000 402.259
31.86000 394.659
31.87000 387.463
31.88000 381.727
31.89000 376.123
31.90000 371.484
31.91000 369.220
31.92000 367.065
31.93000 365.708
31.94000 359.952
31.95000 355.737
31.96000 352.155
31.97000 349.276
31.98000 346.406
31.99000 344.863
32.00000 344.280
32.01000 343.708
32.02000 343.897
32.03000 344.438
32.04000 345.126
32.05000 347.997
32.06000 351.596
32.07000 353.944
32.08000 345.835
32.09000 335.377
32.10000 326.413
32.11000 330.398
32.12000 335.348
32.13000 339.171
32.14000 339.066
32.15000 338.626
32.16000 338.818
32.17000 340.515
32.18000 342.275
32.19000 343.368
32.20000 337.233
32.21000 332.747
32.22000 330.680
32.23000 331.194
32.24000 331.701
32.25000 331.124
32.26000 329.792
32.27000 328.489
32.28000 325.159
32.29000 321.046
32.30000 317.444
32.31000 321.013
32.32000 326.893
32.33000 332.103
32.34000 331.981
32.35000 330.706
32.36000 329.619
32.37000 334.493
32.38000 339.285
32.39000 341.299
32.40000 333.971
32.41000 325.885
32.42000 322.221
32.43000 328.687
32.44000 335.551
32.45000 339.750
32.46000 328.706
32.47000 320.675
32.48000 317.848
32.49000 320.358
32.50000 322.837
32.51000 322.071
32.52000 319.122
32.53000 316.243
32.54000 323.033
32.55000 333.743
32.56000 343.359
32.57000 338.526
32.58000 329.200
32.59000 320.199
32.60000 313.677
32.61000 307.671
32.62000 302.590
32.63000 316.620
32.64000 330.485
32.65000 337.977
32.66000 324.785
32.67000 310.005
32.68000 301.471
32.69000 306.752
32.70000 312.534
32.71000 316.018
32.72000 318.876
32.73000 320.905
32.74000 321.848
32.75000 321.720
32.76000 321.598
32.77000 321.958
32.78000 322.631
32.79000 323.286
32.80000 333.843
32.81000 348.062
32.82000 362.350
32.83000 377.502
32.84000 392.914
32.85000 408.167
32.86000 422.270
32.87000 436.142
32.88000 447.798
32.89000 465.404
32.90000 480.701
32.91000 492.811
32.92000 494.943
32.93000 496.352
32.94000 500.291
32.95000 509.634
32.96000 519.156
32.97000 524.805
32.98000 530.848
32.99000 535.124
33.00000 536.359
33.01000 534.717
33.02000 532.998
33.03000 525.327
33.04000 513.936
33.05000 502.869
33.06000 486.938
33.07000 469.840
33.08000 452.097
33.09000 426.740
33.10000 399.179
33.11000 374.425
33.12000 369.265
33.13000 367.876
33.14000 366.717
33.15000 358.805
33.16000 351.564
33.17000 343.224
33.18000 331.564
33.19000 319.678
33.20000 310.990
33.21000 308.901
33.22000 307.011
33.23000 305.908
33.24000 292.588
33.25000 283.164
33.26000 280.192
33.27000 283.079
33.28000 285.929
33.29000 286.337
33.30000 285.272
33.31000 284.240
33.32000 285.905
33.33000 288.529
33.34000 291.270
33.35000 295.335
33.36000 299.770
33.37000 304.120
33.38000 307.907
33.39000 311.589
33.40000 314.640
33.41000 304.481
33.42000 294.832
33.43000 287.588
33.44000 287.357
33.45000 287.577
33.46000 286.062
33.47000 281.094
33.48000 276.031
33.49000 273.122
33.50000 289.600
33.51000 301.181
33.52000 301.256
33.53000 291.283
33.54000 281.511
33.55000 283.355
33.56000 291.956
33.57000 300.269
33.58000 302.014
33.59000 301.204
33.60000 299.675
33.61000 290.506
33.62000 279.279
33.63000 270.095
33.64000 274.004
33.65000 280.240
33.66000 285.369
33.67000 287.055
33.68000 288.128
33.69000 287.821
33.70000 283.622
33.71000 279.189
33.72000 276.553
33.73000 277.372
33.74000 278.278
33.75000 278.789
33.76000 286.514
33.77000 291.901
33.78000 295.649
33.79000 298.021
33.80000 300.368
33.81000 301.411
33.82000 301.724
33.83000 302.026
33.84000 304.471
33.85000 307.540
33.86000 309.978
33.87000 306.045
33.88000 300.457
33.89000 296.727
33.90000 304.418
33.91000 314.059
33.92000 321.927
33.93000 312.727
33.94000 303.736
33.95000 299.438
33.96000 307.908
33.97000 317.099
33.98000 321.486
33.99000 316.955
34.00000 312.224
34.01000 309.597
34.02000 308.470
34.03000 307.695
34.04000 307.042
34.05000 306.488
34.06000 305.962
34.07000 306.703
34.08000 308.130
34.09000 309.501
34.10000 312.183
34.11000 315.148
34.12000 317.400
34.13000 312.798
34.14000 306.480
34.15000 301.995
34.16000 308.318
34.17000 316.410
34.18000 322.965
34.19000 329.969
34.20000 335.710
34.21000 339.727
34.22000 339.214
34.23000 338.463
34.24000 336.697
34.25000 333.113
34.26000 329.492
34.27000 327.517
34.28000 321.427
34.29000 317.269
34.30000 320.930
34.31000 330.674
34.32000 340.247
34.33000 342.870
34.34000 341.858
34.35000 340.889
34.36000 339.474
34.37000 338.006
34.38000 336.370
34.39000 333.196
34.40000 329.651
34.41000 326.538
34.42000 325.872
34.43000 325.590
34.44000 325.363
34.45000 321.728
34.46000 318.520
34.47000 318.494
34.48000 326.539
34.49000 334.980
34.50000 338.313
34.51000 332.816
34.52000 327.163
34.53000 324.135
34.54000 318.296
34.55000 314.326
34.56000 313.681
34.57000 315.529
34.58000 317.262
34.59000 314.791
34.60000 310.197
34.61000 305.810
34.62000 307.579
34.63000 311.195
34.64000 314.352
34.65000 313.513
34.66000 311.746
34.67000 309.199
34.68000 302.409
34.69000 294.980
34.70000 289.060
34.71000 293.512
34.72000 297.857
34.73000 299.037
34.74000 292.463
34.75000 285.535
34.76000 283.128
34.77000 288.261
34.78000 293.512
34.79000 296.272
34.80000 300.200
34.81000 302.820
34.82000 298.608
34.83000 289.466
34.84000 280.652
34.85000 282.790
34.86000 290.269
34.87000 297.386
34.88000 289.419
34.89000 277.399
34.90000 267.009
34.91000 270.176
34.92000 276.377
34.93000 281.824
34.94000 283.330
34.95000 284.268
34.96000 285.008
34.97000 277.926
34.98000 271.703
34.99000 267.571
35.00000 268.383
35.01000 269.405
35.02000 272.976
35.03000 280.649
35.04000 288.377
35.05000 292.362
35.06000 276.090
35.07000 265.216
35.08000 265.801
35.09000 274.352
35.10000 282.668
35.11000 283.776
35.12000 281.491
35.13000 279.324
35.14000 275.851
35.15000 272.262
35.16000 269.177
35.17000 270.089
35.18000 271.863
35.19000 272.419
35.20000 266.849
35.21000 260.433
35.22000 255.404
35.23000 257.882
35.24000 260.347
35.25000 262.268
35.26000 262.943
35.27000 263.570
35.28000 262.485
35.29000 258.741
35.30000 254.966
35.31000 253.058
35.32000 258.037
35.33000 261.312
35.34000 258.667
35.35000 252.053
35.36000 245.843
35.37000 250.917
35.38000 261.121
35.39000 270.764
35.40000 268.493
35.41000 263.015
35.42000 258.161
35.43000 258.046
35.44000 258.914
35.45000 258.934
35.46000 254.856
35.47000 250.236
35.48000 246.647
35.49000 257.262
35.50000 266.569
35.51000 270.873
35.52000 264.142
35.53000 257.014
35.54000 253.239
35.55000 254.482
35.56000 255.774
35.57000 258.500
35.58000 262.631
35.59000 266.765
35.60000 271.155
35.61000 275.710
35.62000 280.082
35.63000 279.728
35.64000 277.300
35.65000 275.013
35.66000 272.346
35.67000 269.804
35.68000 267.679
35.69000 268.587
35.70000 270.101
35.71000 271.779
35.72000 274.224
35.73000 276.765
35.74000 278.722
35.75000 274.371
35.76000 270.567
35.77000 267.588
35.78000 266.369
35.79000 265.207
35.80000 264.256
35.81000 263.608
35.82000 262.963
35.83000 261.322
35.84000 258.743
35.85000 256.237
35.86000 259.217
35.87000 265.616
35.88000 271.832
35.89000 273.701
35.90000 273.727
35.91000 273.751
35.92000 267.512
35.93000 260.180
35.94000 253.276
35.95000 249.344
35.96000 245.982
35.97000 243.642
35.98000 245.880
35.99000 248.671
36.00000 250.800
36.01000 251.889
36.02000 252.691
36.03000 253.731
36.04000 255.259
36.05000 256.801
36.06000 256.164
36.07000 252.498
36.08000 248.813
36.09000 249.869
36.10000 255.214
36.11000 260.462
36.12000 259.391
36.13000 254.522
36.14000 249.925
36.15000 251.324
36.16000 255.178
36.17000 258.780
36.18000 259.605
36.19000 259.652
36.20000 258.823
36.21000 252.152
36.22000 244.405
36.23000 240.413
36.24000 252.632
36.25000 266.717
36.26000 277.363
36.27000 264.916
36.28000 254.000
36.29000 247.786
36.30000 250.908
36.31000 254.286
36.32000 253.516
36.33000 247.193
36.34000 240.846
36.35000 241.555
36.36000 248.393
36.37000 255.165
36.38000 258.123
36.39000 258.869
36.40000 259.422
36.41000 256.025
36.42000 251.066
36.43000 246.450
36.44000 248.880
36.45000 252.784
36.46000 256.224
36.47000 256.695
36.48000 256.640
36.49000 255.178
36.50000 247.861
36.51000 239.903
36.52000 233.945
36.53000 241.018
36.54000 247.145
36.55000 251.322
36.56000 251.757
36.57000 252.099
36.58000 255.393
36.59000 262.493
36.60000 269.601
36.61000 270.277
36.62000 265.582
36.63000 260.884
36.64000 255.999
36.65000 251.009
36.66000 246.277
36.67000 246.475
36.68000 248.555
36.69000 250.482
36.70000 252.365
36.71000 254.050
36.72000 255.425
36.73000 254.910
36.74000 254.073
36.75000 254.293
36.76000 258.750
36.77000 263.649
36.78000 267.281
36.79000 270.966
36.80000 273.830
36.81000 274.550
36.82000 271.302
36.83000 267.966
36.84000 265.193
36.85000 263.119
36.86000 261.050
36.87000 256.088
36.88000 248.825
36.89000 241.808
36.90000 245.868
36.91000 255.913
36.92000 265.682
36.93000 270.539
36.94000 273.586
36.95000 276.397
36.96000 269.132
36.97000 260.367
36.98000 253.781
36.99000 260.008
37.00000 268.326
37.01000 274.595
37.02000 272.946
37.03000 270.511
37.04000 268.724
37.05000 268.836
37.06000 268.999
37.07000 268.919
37.08000 268.405
37.09000 267.882
37.10000 266.101
37.11000 262.819
37.12000 259.541
37.13000 258.580
37.14000 259.411
37.15000 260.252
37.16000 261.497
37.17000 262.953
37.18000 264.092
37.19000 259.949
37.20000 253.925
37.21000 248.391
37.22000 260.288
37.23000 274.648
37.24000 286.226
37.25000 282.100
37.26000 275.516
37.27000 269.528
37.28000 265.761
37.29000 262.204
37.30000 259.621
37.31000 255.142
37.32000 251.627
37.33000 250.661
37.34000 254.089
37.35000 257.595
37.36000 260.282
37.37000 262.031
37.38000 263.774
37.39000 262.089
37.40000 257.877
37.41000 253.642
37.42000 248.559
37.43000 243.048
37.44000 237.927
37.45000 238.903
37.46000 241.973
37.47000 244.781
37.48000 248.078
37.49000 251.110
37.50000 253.564
37.51000 252.885
37.52000 251.737
37.53000 250.034
37.54000 246.339
37.55000 242.467
37.56000 239.684
37.57000 244.582
37.58000 248.597
37.59000 249.510
37.60000 245.267
37.61000 240.946
37.62000 241.145
37.63000 246.336
37.64000 251.511
37.65000 250.280
37.66000 244.493
37.67000 238.964
37.68000 242.003
37.69000 249.206
37.70000 255.712
37.71000 251.951
37.72000 244.783
37.73000 238.259
37.74000 241.081
37.75000 245.425
37.76000 249.142
37.77000 249.595
37.78000 249.578
37.79000 249.999
37.80000 251.933
37.81000 253.997
37.82000 255.463
37.83000 251.156
37.84000 247.692
37.85000 248.298
37.86000 255.431
37.87000 262.651
37.88000 264.130
37.89000 259.518
37.90000 254.926
37.91000 252.014
37.92000 250.285
37.93000 248.730
37.94000 252.426
37.95000 258.586
37.96000 263.914
37.97000 257.703
37.98000 247.798
37.99000 238.825
38.00000 241.852
38.01000 246.791
38.02000 250.459
38.03000 247.757
38.04000 244.178
38.05000 241.800
38.06000 243.434
38.07000 245.392
38.08000 246.768
38.09000 242.389
38.10000 238.902
38.11000 241.426
38.12000 253.249
38.13000 265.178
38.14000 270.158
38.15000 268.060
38.16000 265.973
38.17000 258.512
38.18000 247.606
38.19000 237.073
38.20000 236.879
38.21000 241.372
38.22000 246.031
38.23000 252.871
38.24000 260.385
38.25000 267.158
38.26000 270.513
38.27000 272.836
38.28000 274.958
38.29000 276.104
38.30000 277.123
38.31000 278.289
38.32000 279.936
38.33000 281.620
38.34000 282.790
38.35000 283.721
38.36000 284.416
38.37000 287.520
38.38000 294.218
38.39000 300.950
38.40000 306.874
38.41000 312.009
38.42000 317.108
38.43000 327.813
38.44000 341.904
38.45000 355.868
38.46000 366.593
38.47000 375.900
38.48000 385.883
38.49000 404.236
38.50000 425.086
38.51000 443.780
38.52000 468.927
38.53000 492.021
38.54000 514.142
38.55000 531.746
38.56000 548.781
38.57000 567.879
38.58000 593.397
38.59000 619.374
38.60000 637.218
38.61000 681.630
38.62000 715.585
38.63000 744.471
38.64000 766.071
38.65000 787.612
38.66000 808.303
38.67000 828.195
38.68000 847.923
38.69000 853.629
38.70000 850.678
38.71000 848.283
38.72000 859.042
38.73000 875.362
38.74000 889.381
38.75000 876.457
38.76000 855.782
38.77000 837.340
38.78000 814.949
38.79000 794.810
38.80000 775.029
38.81000 756.846
38.82000 738.854
38.83000 722.838
38.84000 712.757
38.85000 703.076
38.86000 696.506
38.87000 650.863
38.88000 615.944
38.89000 584.359
38.90000 557.396
38.91000 530.464
38.92000 508.124
38.93000 489.926
38.94000 471.902
38.95000 449.452
38.96000 424.867
38.97000 400.596
38.98000 383.208
38.99000 368.628
39.00000 353.949
39.01000 338.157
39.02000 322.055
39.03000 307.772
39.04000 305.435
39.05000 305.312
39.06000 303.576
39.07000 294.903
39.08000 285.434
39.09000 277.306
39.10000 273.066
39.11000 269.074
39.12000 266.397
39.13000 259.220
39.14000 253.804
39.15000 249.225
39.16000 245.765
39.17000 242.314
39.18000 241.149
39.19000 241.968
39.20000 242.778
39.21000 243.614
39.22000 244.446
39.23000 245.153
39.24000 243.318
39.25000 240.483
39.26000 238.477
39.27000 245.210
39.28000 254.282
39.29000 262.285
39.30000 255.555
39.31000 247.506
39.32000 239.757
39.33000 233.248
39.34000 226.874
39.35000 222.708
39.36000 224.723
39.37000 227.107
39.38000 228.685
39.39000 226.313
39.40000 224.491
39.41000 224.474
39.42000 226.779
39.43000 229.090
39.44000 230.295
39.45000 230.577
39.46000 230.856
39.47000 230.588
39.48000 230.030
39.49000 229.772
39.50000 235.202
39.51000 242.797
39.52000 249.393
39.53000 245.987
39.54000 240.000
39.55000 234.749
39.56000 234.107
39.57000 234.226
39.58000 233.837
39.59000 231.413
39.60000 228.778
39.61000 227.693
39.62000 230.797
39.63000 234.135
39.64000 236.317
39.65000 232.485
39.66000 229.574
39.67000 226.799
39.68000 224.191
39.69000 221.592
39.70000 221.321
39.71000 222.919
39.72000 224.495
39.73000 223.735
39.74000 221.776
39.75000 220.288
39.76000 227.154
39.77000 237.089
39.78000 245.917
39.79000 244.190
39.80000 239.838
39.81000 236.043
39.82000 227.188
39.83000 218.913
39.84000 213.447
39.85000 218.795
39.86000 225.213
39.87000 229.756
39.88000 229.405
39.89000 228.799
39.90000 228.408
39.91000 232.006
39.92000 234.691
39.93000 234.927
39.94000 232.247
39.95000 229.558
39.96000 225.828
39.97000 221.295
39.98000 216.835
39.99000 220.086
40.00000 227.115
40.01000 233.581
40.02000 230.688
40.03000 224.475
40.04000 219.148
40.05000 221.858
40.06000 226.495
40.07000 230.514
40.08000 223.484
40.09000 216.033
40.10000 212.202
40.11000 221.811
40.12000 232.683
40.13000 237.934
40.14000 229.008
40.15000 219.394
40.16000 213.278
40.17000 214.952
40.18000 216.266
40.19000 216.520
40.20000 215.559
40.21000 214.608
40.22000 215.650
40.23000 218.176
40.24000 220.658
40.25000 218.499
40.26000 214.168
40.27000 210.204
40.28000 211.976
40.29000 215.713
40.30000 219.166
40.31000 220.165
40.32000 220.597
40.33000 220.969
40.34000 221.984
40.35000 222.926
40.36000 223.983
40.37000 225.454
40.38000 226.962
40.39000 224.707
40.40000 213.291
40.41000 201.462
40.42000 194.041
40.43000 206.947
40.44000 216.493
40.45000 217.767
40.46000 209.936
40.47000 202.151
40.48000 202.160
40.49000 207.758
40.50000 213.243
40.51000 213.108
40.52000 210.357
40.53000 207.787
40.54000 207.874
40.55000 208.839
40.56000 209.812
40.57000 210.851
40.58000 211.903
40.59000 212.804
40.60000 207.087
40.61000 201.465
40.62000 198.914
40.63000 206.972
40.64000 215.927
40.65000 222.167
40.66000 222.020
40.67000 221.606
40.68000 221.351
40.69000 213.842
40.70000 208.378
40.71000 205.720
40.72000 206.029
40.73000 206.360
40.74000 209.374
40.75000 214.242
40.76000 219.002
40.77000 219.745
40.78000 218.656
40.79000 217.555
40.80000 216.275
40.81000 214.939
40.82000 213.711
40.83000 213.341
40.84000 213.154
40.85000 212.995
40.86000 209.782
40.87000 206.732
40.88000 205.083
40.89000 208.100
40.90000 211.490
40.91000 214.355
40.92000 216.026
40.93000 217.652
40.94000 218.642
40.95000 215.954
40.96000 214.004
40.97000 213.306
40.98000 213.879
40.99000 214.427
41.00000 212.387
41.01000 208.622
41.02000 204.948
41.03000 203.762
41.04000 203.703
41.05000 203.547
41.06000 202.142
41.07000 200.351
41.08000 199.555
41.09000 206.250
41.10000 214.489
41.11000 221.447
41.12000 213.089
41.13000 204.422
41.14000 198.436
41.15000 201.075
41.16000 204.366
41.17000 207.779
41.18000 211.458
41.19000 215.146
41.20000 217.360
41.21000 211.349
41.22000 207.024
41.23000 205.191
41.24000 205.789
41.25000 206.385
41.26000 206.825
41.27000 207.164
41.28000 207.495
41.29000 206.616
41.30000 205.276
41.31000 203.709
41.32000 199.346
41.33000 194.152
41.34000 189.861
41.35000 192.088
41.36000 195.607
41.37000 198.558
41.38000 197.436
41.39000 196.078
41.40000 196.473
41.41000 202.312
41.42000 208.539
41.43000 211.930
41.44000 209.315
41.45000 206.504
41.46000 204.843
41.47000 204.354
41.48000 204.015
41.49000 203.566
41.50000 203.014
41.51000 202.516
41.52000 205.943
41.53000 211.801
41.54000 217.489
41.55000 217.659
41.56000 215.615
41.57000 213.426
41.58000 209.552
41.59000 205.194
41.60000 201.702
41.61000 204.186
41.62000 207.809
41.63000 210.827
41.64000 210.804
41.65000 210.483
41.66000 209.607
41.67000 207.067
41.68000 204.415
41.69000 201.140
41.70000 196.590
41.71000 192.003
41.72000 189.335
41.73000 196.972
41.74000 202.380
41.75000 203.798
41.76000 201.629
41.77000 199.533
41.78000 202.100
41.79000 207.454
41.80000 212.639
41.81000 215.819
41.82000 218.054
41.83000 220.076
41.84000 219.733
41.85000 218.735
41.86000 217.837
41.87000 217.593
41.88000 217.469
41.89000 217.367
41.90000 214.352
41.91000 211.592
41.92000 210.394
41.93000 213.717
41.94000 217.325
41.95000 219.245
41.96000 217.831
41.97000 216.328
41.98000 215.468
41.99000 217.526
42.00000 218.973
42.01000 219.639
42.02000 219.630
42.03000 219.546
42.04000 215.246
42.05000 208.515
42.06000 202.014
42.07000 199.138
42.08000 197.770
42.09000 197.164
42.10000 204.544
42.11000 214.056
42.12000 221.868
42.13000 218.904
42.14000 214.043
42.15000 210.053
42.16000 206.358
42.17000 203.350
42.18000 201.547
42.19000 203.110
42.20000 204.872
42.21000 205.575
42.22000 204.260
42.23000 202.896
42.24000 202.128
42.25000 206.762
42.26000 209.989
42.27000 211.487
42.28000 211.547
42.29000 211.599
42.30000 211.258
42.31000 210.699
42.32000 210.160
42.33000 212.786
42.34000 216.380
42.35000 219.310
42.36000 215.619
42.37000 210.224
42.38000 205.695
42.39000 206.429
42.40000 208.052
42.41000 209.374
42.42000 208.858
42.43000 208.280
42.44000 209.472
42.45000 215.438
42.46000 221.669
42.47000 224.661
42.48000 221.693
42.49000 218.596
42.50000 216.883
42.51000 205.767
42.52000 198.101
42.53000 196.961
42.54000 201.045
42.55000 205.096
42.56000 207.693
42.57000 209.509
42.58000 211.253
42.59000 212.015
42.60000 212.390
42.61000 212.586
42.62000 211.080
42.63000 209.152
42.64000 207.416
42.65000 206.799
42.66000 206.363
42.67000 206.011
42.68000 202.329
42.69000 199.066
42.70000 198.142
42.71000 203.308
42.72000 208.789
42.73000 209.730
42.74000 202.612
42.75000 195.337
42.76000 191.386
42.77000 193.438
42.78000 194.853
42.79000 196.553
42.80000 198.471
42.81000 200.409
42.82000 203.138
42.83000 206.278
42.84000 209.283
42.85000 207.648
42.86000 204.594
42.87000 201.498
42.88000 198.012
42.89000 194.434
42.90000 192.066
42.91000 196.488
42.92000 201.966
42.93000 206.358
42.94000 201.902
42.95000 197.623
42.96000 195.004
42.97000 196.560
42.98000 198.317
42.99000 198.603
43.00000 196.368
43.01000 194.090
43.02000 192.875
43.03000 189.030
43.04000 186.427
43.05000 187.133
43.06000 190.293
43.07000 193.378
43.08000 193.721
43.09000 192.691
43.10000 191.709
43.11000 189.712
43.12000 187.537
43.13000 185.493
43.14000 184.582
43.15000 183.932
43.16000 184.124
43.17000 188.850
43.18000 194.251
43.19000 198.547
43.20000 194.383
43.21000 190.421
43.22000 188.275
43.23000 190.538
43.24000 192.999
43.25000 196.074
43.26000 200.167
43.27000 204.275
43.28000 206.424
43.29000 197.844
43.30000 192.070
43.31000 191.785
43.32000 195.426
43.33000 198.889
43.34000 196.558
43.35000 191.428
43.36000 186.549
43.37000 189.970
43.38000 195.665
43.39000 200.425
43.40000 197.500
43.41000 192.870
43.42000 188.771
43.43000 187.422
43.44000 186.465
43.45000 185.711
43.46000 185.579
43.47000 185.515
43.48000 186.433
43.49000 189.651
43.50000 192.965
43.51000 192.896
43.52000 187.430
43.53000 181.895
43.54000 179.055
43.55000 183.392
43.56000 186.290
43.57000 186.876
43.58000 185.871
43.59000 185.000
43.60000 188.149
43.61000 193.173
43.62000 197.935
43.63000 197.523
43.64000 195.626
43.65000 193.747
43.66000 192.007
43.67000 190.297
43.68000 188.769
43.69000 188.152
43.70000 187.659
43.71000 187.273
43.72000 187.040
43.73000 186.863
43.74000 188.056
43.75000 192.352
43.76000 196.766
43.77000 196.781
43.78000 190.029
43.79000 183.202
43.80000 179.769
43.81000 184.141
43.82000 187.024
43.83000 186.190
43.84000 182.889
43.85000 179.758
43.86000 181.291
43.87000 184.926
43.88000 188.358
43.89000 189.576
43.90000 190.070
43.91000 189.894
43.92000 184.685
43.93000 178.444
43.94000 174.075
43.95000 178.675
43.96000 184.447
43.97000 188.922
43.98000 188.898
43.99000 188.610
44.00000 188.078
44.01000 187.011
44.02000 185.925
44.03000 185.829
44.04000 187.200
44.05000 188.584
44.06000 190.409
44.07000 192.662
44.08000 194.871
44.09000 193.438
44.10000 189.671
44.11000 186.184
44.12000 189.764
44.13000 196.419
44.14000 202.679
44.15000 201.748
44.16000 198.949
44.17000 196.729
44.18000 198.668
44.19000 201.429
44.20000 203.433
44.21000 201.947
44.22000 200.025
44.23000 198.549
44.24000 201.034
44.25000 203.221
44.26000 202.608
44.27000 196.081
44.28000 189.364
44.29000 188.187
44.30000 194.927
44.31000 201.727
44.32000 203.541
44.33000 200.706
44.34000 197.870
44.35000 194.970
44.36000 192.030
44.37000 189.258
44.38000 190.372
44.39000 193.121
44.40000 195.697
44.41000 198.792
44.42000 201.745
44.43000 204.900
44.44000 209.443
44.45000 214.250
44.46000 216.991
44.47000 210.557
44.48000 203.030
44.49000 197.300
44.50000 197.956
44.51000 198.808
44.52000 200.217
44.53000 202.763
44.54000 205.342
44.55000 205.797
44.56000 203.327
44.57000 200.840
44.58000 200.539
44.59000 202.197
44.60000 203.887
44.61000 207.677
44.62000 212.717
44.63000 217.428
44.64000 215.001
44.65000 209.677
44.66000 204.708
44.67000 203.987
44.68000 204.395
44.69000 205.358
44.70000 209.970
44.71000 215.248
44.72000 220.508
44.73000 225.686
44.74000 230.856
44.75000 234.753
44.76000 230.195
44.77000 226.209
44.78000 225.382
44.79000 230.771
44.80000 236.327
44.81000 235.886
44.82000 227.491
44.83000 219.063
44.84000 216.837
44.85000 219.951
44.86000 222.970
44.87000 220.746
44.88000 215.507
44.89000 210.873
44.90000 218.415
44.91000 230.727
44.92000 242.173
44.93000 243.767
44.94000 242.838
44.95000 241.727
44.96000 239.460
44.97000 236.991
44.98000 234.326
44.99000 230.853
45.00000 227.293
45.01000 224.634
45.02000 228.118
45.03000 231.115
45.04000 232.960
45.05000 232.617
45.06000 232.221
45.07000 233.665
45.08000 237.460
45.09000 241.259
45.10000 240.667
45.11000 236.446
45.12000 232.230
45.13000 228.201
45.14000 224.277
45.15000 220.843
45.16000 226.621
45.17000 235.883
45.18000 244.459
45.19000 239.573
45.20000 232.076
45.21000 226.522
45.22000 232.746
45.23000 240.953
45.24000 245.766
45.25000 237.106
45.26000 227.055
45.27000 219.623
45.28000 227.016
45.29000 233.385
45.30000 232.838
45.31000 219.607
45.32000 206.102
45.33000 205.142
45.34000 219.602
45.35000 234.078
45.36000 235.684
45.37000 227.060
45.38000 218.579
45.39000 216.371
45.40000 217.522
45.41000 218.584
45.42000 218.101
45.43000 217.054
45.44000 216.088
45.45000 211.974
45.46000 207.592
45.47000 203.783
45.48000 203.303
45.49000 203.360
45.50000 203.611
45.51000 204.602
45.52000 205.665
45.53000 206.443
45.54000 198.471
45.55000 191.970
45.56000 189.520
45.57000 194.240
45.58000 199.098
45.59000 202.031
45.60000 202.686
45.61000 203.337
45.62000 204.160
45.63000 205.109
45.64000 205.987
45.65000 204.044
45.66000 200.642
45.67000 197.049
45.68000 190.309
45.69000 182.460
45.70000 175.256
45.71000 181.566
45.72000 190.061
45.73000 196.358
45.74000 190.371
45.75000 182.481
45.76000 176.633
45.77000 178.320
45.78000 180.710
45.79000 182.441
45.80000 184.267
45.81000 185.672
45.82000 185.315
45.83000 181.947
45.84000 178.528
45.85000 178.354
45.86000 181.872
45.87000 185.382
45.88000 187.530
45.89000 188.661
45.90000 189.766
45.91000 189.951
45.92000 189.676
45.93000 189.319
45.94000 187.705
45.95000 185.662
45.96000 183.796
45.97000 182.529
45.98000 181.526
45.99000 180.424
46.00000 178.784
46.01000 177.065
46.02000 176.802
46.03000 181.727
46.04000 187.109
46.05000 190.967
46.06000 177.259
46.07000 166.186
46.08000 160.773
46.09000 164.689
46.10000 168.743
46.11000 170.708
46.12000 170.390
46.13000 170.072
46.14000 169.583
46.15000 168.976
46.16000 168.408
46.17000 169.085
46.18000 170.362
46.19000 171.956
46.20000 178.133
46.21000 185.818
46.22000 192.804
46.23000 188.012
46.24000 181.474
46.25000 176.163
46.26000 177.188
46.27000 179.114
46.28000 180.114
46.29000 177.939
46.30000 175.498
46.31000 173.768
46.32000 173.775
46.33000 173.835
46.34000 174.137
46.35000 174.825
46.36000 175.518
46.37000 177.598
46.38000 181.137
46.39000 184.657
46.40000 180.062
46.41000 170.012
46.42000 160.247
46.43000 158.950
46.44000 161.593
46.45000 164.302
46.46000 167.912
46.47000 171.808
46.48000 175.332
46.49000 172.412
46.50000 168.634
46.51000 165.760
46.52000 167.377
46.53000 169.606
46.54000 170.847
46.55000 168.816
46.56000 166.527
46.57000 164.922
46.58000 167.232
46.59000 169.092
46.60000 171.454
46.61000 174.585
46.62000 177.723
46.63000 175.760
46.64000 168.650
46.65000 161.584
46.66000 160.211
46.67000 162.574
46.68000 164.909
46.69000 166.511
46.70000 167.784
46.71000 168.964
46.72000 168.946
46.73000 168.562
46.74000 168.215
46.75000 169.105
46.76000 170.107
46.77000 171.730
46.78000 176.319
46.79000 181.294
46.80000 183.066
46.81000 174.597
46.82000 165.361
46.83000 158.961
46.84000 160.631
46.85000 162.101
46.86000 163.523
46.87000 164.876
46.88000 166.229
46.89000 167.403
46.90000 168.404
46.91000 169.399
46.92000 173.875
46.93000 180.466
46.94000 186.529
46.95000 179.388
46.96000 166.518
46.97000 154.940
46.98000 159.124
46.99000 167.967
47.00000 175.885
47.01000 172.999
47.02000 168.623
47.03000 166.063
47.04000 171.849
47.05000 178.673
47.06000 183.076
47.07000 180.011
47.08000 176.418
47.09000 173.958
47.10000 165.804
47.11000 159.561
47.12000 157.479
47.13000 161.324
47.14000 165.213
47.15000 169.038
47.16000 172.803
47.17000 176.536
47.18000 173.682
47.19000 166.901
47.20000 160.308
47.21000 158.052
47.22000 157.612
47.23000 157.452
47.24000 160.511
47.25000 164.489
47.26000 168.032
47.27000 170.091
47.28000 171.636
47.29000 172.593
47.30000 170.942
47.31000 168.983
47.32000 166.473
47.33000 162.327
47.34000 158.071
47.35000 155.192
47.36000 155.921
47.37000 156.543
47.38000 156.188
47.39000 154.492
47.40000 152.791
47.41000 154.893
47.42000 160.392
47.43000 165.836
47.44000 164.932
47.45000 160.357
47.46000 155.949
47.47000 155.147
47.48000 155.805
47.49000 156.667
47.50000 159.763
47.51000 163.473
47.52000 166.760
47.53000 160.547
47.54000 153.674
47.55000 148.901
47.56000 153.076
47.57000 158.264
47.58000 162.150
47.59000 162.290
47.60000 162.197
47.61000 162.135
47.62000 159.275
47.63000 157.101
47.64000 157.245
47.65000 160.455
47.66000 163.676
47.67000 164.461
47.68000 163.155
47.69000 161.863
47.70000 158.291
47.71000 153.530
47.72000 149.130
47.73000 151.935
47.74000 157.555
47.75000 162.671
47.76000 162.548
47.77000 161.035
47.78000 159.703
47.79000 159.004
47.80000 158.496
47.81000 157.345
47.82000 153.551
47.83000 149.471
47.84000 148.033
47.85000 153.929
47.86000 160.256
47.87000 164.431
47.88000 162.613
47.89000 161.167
47.90000 160.769
47.91000 161.704
47.92000 162.642
47.93000 162.294
47.94000 160.886
47.95000 159.496
47.96000 156.597
47.97000 152.964
47.98000 149.670
47.99000 152.699
48.00000 158.115
48.01000 163.339
48.02000 166.673
48.03000 169.524
48.04000 172.021
48.05000 165.893
48.06000 159.395
48.07000 153.837
48.08000 152.000
48.09000 150.546
48.10000 149.756
48.11000 150.749
48.12000 151.840
48.13000 152.550
48.14000 150.432
48.15000 148.835
48.16000 150.142
48.17000 155.008
48.18000 159.872
48.19000 161.401
48.20000 160.280
48.21000 159.175
48.22000 156.163
48.23000 152.253
48.24000 148.527
48.25000 148.006
48.26000 148.653
48.27000 149.476
48.28000 151.961
48.29000 154.855
48.30000 157.374
48.31000 154.126
48.32000 150.559
48.33000 148.305
48.34000 151.062
48.35000 154.308
48.36000 156.845
48.37000 157.548
48.38000 158.156
48.39000 158.547
48.40000 158.087
48.41000 157.739
48.42000 159.515
48.43000 163.796
48.44000 168.059
48.45000 167.065
48.46000 162.047
48.47000 157.112
48.48000 153.999
48.49000 151.895
48.50000 150.035
48.51000 152.147
48.52000 155.658
48.53000 158.583
48.54000 156.267
48.55000 152.706
48.56000 149.624
48.57000 153.973
48.58000 158.645
48.59000 162.490
48.60000 163.287
48.61000 163.801
48.62000 162.705
48.63000 157.582
48.64000 152.268
48.65000 148.899
48.66000 156.479
48.67000 162.111
48.68000 162.773
48.69000 157.799
48.70000 152.837
48.71000 151.010
48.72000 151.496
48.73000 151.972
48.74000 148.710
48.75000 143.769
48.76000 139.363
48.77000 143.151
48.78000 149.722
48.79000 155.248
48.80000 151.836
48.81000 146.380
48.82000 141.688
48.83000 150.305
48.84000 159.265
48.85000 165.412
48.86000 161.571
48.87000 156.852
48.88000 154.792
48.89000 159.152
48.90000 163.797
48.91000 166.700
48.92000 158.774
48.93000 152.941
48.94000 150.779
48.95000 152.618
48.96000 154.455
48.97000 155.814
48.98000 156.834
48.99000 157.832
49.00000 160.007
49.01000 162.641
49.02000 165.007
49.03000 163.502
49.04000 160.727
49.05000 158.321
49.06000 158.924
49.07000 160.189
49.08000 161.271
49.09000 161.127
49.10000 160.859
49.11000 160.695
49.12000 160.888
49.13000 161.111
49.14000 161.371
49.15000 161.715
49.16000 162.063
49.17000 162.278
49.18000 157.822
49.19000 154.583
49.20000 152.814
49.21000 152.586
49.22000 152.363
49.23000 152.755
49.24000 153.569
49.25000 154.363
49.26000 151.624
49.27000 147.429
49.28000 143.650
49.29000 145.519
49.30000 149.175
49.31000 152.377
49.32000 152.046
49.33000 150.964
49.34000 150.046
49.35000 152.756
49.36000 155.441
49.37000 158.363
49.38000 162.068
49.39000 165.835
49.40000 166.592
49.41000 160.574
49.42000 154.301
49.43000 150.492
49.44000 149.985
49.45000 149.648
49.46000 148.317
49.47000 145.986
49.48000 143.689
49.49000 144.803
49.50000 148.167
49.51000 151.447
49.52000 151.261
49.53000 149.601
49.54000 148.134
49.55000 149.140
49.56000 150.902
49.57000 152.310
49.58000 151.083
49.59000 149.318
49.60000 147.830
49.61000 146.668
49.62000 145.733
49.63000 145.155
49.64000 145.715
49.65000 146.359
49.66000 146.655
49.67000 146.191
49.68000 145.700
49.69000 145.407
49.70000 151.418
49.71000 155.722
49.72000 156.526
49.73000 153.953
49.74000 151.402
49.75000 150.676
49.76000 151.112
49.77000 151.537
49.78000 149.014
49.79000 145.399
49.80000 142.510
49.81000 148.434
49.82000 156.955
49.83000 164.131
49.84000 161.719
49.85000 157.425
49.86000 153.829
49.87000 152.555
49.88000 151.734
49.89000 151.777
49.90000 154.474
49.91000 157.359
49.92000 158.114
49.93000 154.399
49.94000 150.542
49.95000 148.271
49.96000 143.484
49.97000 140.095
49.98000 141.034
49.99000 145.984
50.00000 150.899
50.01000 153.241
50.02000 154.006
50.03000 154.747
50.04000 152.592
50.05000 149.402
50.06000 146.464
50.07000 146.441
50.08000 147.245
50.09000 147.892
50.10000 147.462
50.11000 146.829
50.12000 146.302
50.13000 144.674
50.14000 143.219
50.15000 144.185
50.16000 152.342
50.17000 160.975
50.18000 165.120
50.19000 160.166
50.20000 154.950
50.21000 151.929
50.22000 149.906
50.23000 148.492
50.24000 149.227
50.25000 151.873
50.26000 154.451
50.27000 152.761
50.28000 148.545
50.29000 144.464
50.30000 147.590
50.31000 153.290
50.32000 158.352
50.33000 156.453
50.34000 152.645
50.35000 149.580
50.36000 151.376
50.37000 154.054
50.38000 156.264
50.39000 158.382
50.40000 160.118
50.41000 160.548
50.42000 157.230
50.43000 153.679
50.44000 152.600
50.45000 156.359
50.46000 160.245
50.47000 162.458
50.48000 162.920
50.49000 163.240
50.50000 165.595
50.51000 169.694
50.52000 173.680
50.53000 171.539
50.54000 165.896
50.55000 160.451
50.56000 156.396
50.57000 153.089
50.58000 150.237
50.59000 152.108
50.60000 155.227
50.61000 157.993
50.62000 158.542
50.63000 158.705
50.64000 158.839
50.65000 156.008
50.66000 153.426
50.67000 151.871
50.68000 153.160
50.69000 154.615
50.70000 155.773
50.71000 156.370
50.72000 156.953
50.73000 157.280
50.74000 153.482
50.75000 150.853
50.76000 154.068
50.77000 162.094
50.78000 170.022
50.79000 173.173
50.80000 173.689
50.81000 174.186
50.82000 169.747
50.83000 163.842
50.84000 158.718
50.85000 161.290
50.86000 165.824
50.87000 169.049
50.88000 164.396
50.89000 158.426
50.90000 153.572
50.91000 154.435
50.92000 155.616
50.93000 155.565
50.94000 152.221
50.95000 148.697
50.96000 147.240
50.97000 149.551
50.98000 151.941
50.99000 153.257
51.00000 149.411
51.01000 146.767
51.02000 148.109
51.03000 152.611
51.04000 157.006
51.05000 156.785
51.06000 154.106
51.07000 151.535
51.08000 152.609
51.09000 154.849
51.10000 156.711
51.11000 155.023
51.12000 152.462
51.13000 150.323
51.14000 150.618
51.15000 151.305
51.16000 151.859
51.17000 149.689
51.18000 147.711
51.19000 146.411
51.20000 146.862
51.21000 147.402
51.22000 146.445
51.23000 142.853
51.24000 139.212
51.25000 137.243
51.26000 144.477
51.27000 149.414
51.28000 148.678
51.29000 143.611
51.30000 138.727
51.31000 140.923
51.32000 146.757
51.33000 152.337
51.34000 149.553
51.35000 144.232
51.36000 139.665
51.37000 141.838
51.38000 145.607
51.39000 148.506
51.40000 146.574
51.41000 143.899
51.42000 141.758
51.43000 146.202
51.44000 150.287
51.45000 151.471
51.46000 145.421
51.47000 139.029
51.48000 135.042
51.49000 135.139
51.50000 135.305
51.51000 135.393
51.52000 146.619
51.53000 154.209
51.54000 152.309
51.55000 143.433
51.56000 134.830
51.57000 135.776
51.58000 141.458
51.59000 146.876
51.60000 147.902
51.61000 147.476
51.62000 146.674
51.63000 142.671
51.64000 137.939
51.65000 134.167
51.66000 135.521
51.67000 137.631
51.68000 139.306
51.69000 134.687
51.70000 130.525
51.71000 127.861
51.72000 128.804
51.73000 129.905
51.74000 133.390
51.75000 140.780
51.76000 148.227
51.77000 152.105
51.78000 141.972
51.79000 135.169
51.80000 135.103
51.81000 139.810
51.82000 144.348
51.83000 143.502
51.84000 140.077
51.85000 136.822
51.86000 138.473
51.87000 141.478
51.88000 143.773
51.89000 140.287
51.90000 135.532
51.91000 131.911
51.92000 134.102
51.93000 137.112
51.94000 139.482
51.95000 139.867
51.96000 140.044
51.97000 139.581
51.98000 137.632
51.99000 135.622
52.00000 134.978
52.01000 136.490
52.02000 138.029
52.03000 138.815
52.04000 137.749
52.05000 137.018
52.06000 134.477
52.07000 130.702
52.08000 127.086
52.09000 128.152
52.10000 131.384
52.11000 134.444
52.12000 137.593
52.13000 140.517
52.14000 142.959
52.15000 141.660
52.16000 139.570
52.17000 137.558
52.18000 135.935
52.19000 134.365
52.20000 133.140
52.21000 139.744
52.22000 145.500
52.23000 147.675
52.24000 141.812
52.25000 135.647
52.26000 132.828
52.27000 135.108
52.28000 137.443
52.29000 138.611
52.30000 139.803
52.31000 140.602
52.32000 141.813
52.33000 143.294
52.34000 144.641
52.35000 142.376
52.36000 138.499
52.37000 134.841
52.38000 133.385
52.39000 132.665
52.40000 132.420
52.41000 135.695
52.42000 139.687
52.43000 142.128
52.44000 137.208
52.45000 131.338
52.46000 126.798
52.47000 135.335
52.48000 142.879
52.49000 148.738
52.50000 150.943
52.51000 153.022
52.52000 151.854
52.53000 145.917
52.54000 139.938
52.55000 135.860
52.56000 133.610
52.57000 131.382
52.58000 130.991
52.59000 131.764
52.60000 132.505
52.61000 132.470
52.62000 132.099
52.63000 131.751
52.64000 130.894
52.65000 129.975
52.66000 129.540
52.67000 132.538
52.68000 136.209
52.69000 139.200
52.70000 139.088
52.71000 138.593
52.72000 138.214
52.73000 139.179
52.74000 140.014
52.75000 140.182
52.76000 138.950
52.77000 137.674
52.78000 138.350
52.79000 141.788
52.80000 145.246
52.81000 144.865
52.82000 140.940
52.83000 137.060
52.84000 136.338
52.85000 137.550
52.86000 138.710
52.87000 138.704
52.88000 138.212
52.89000 137.752
52.90000 134.432
52.91000 130.678
52.92000 127.265
52.93000 126.180
52.94000 125.532
52.95000 126.022
52.96000 131.515
52.97000 137.598
52.98000 142.217
52.99000 141.989
53.00000 141.559
53.01000 140.937
53.02000 139.924
53.03000 138.900
53.04000 137.982
53.05000 137.208
53.06000 136.435
53.07000 136.826
53.08000 138.247
53.09000 139.628
53.10000 138.508
53.11000 135.912
53.12000 133.528
53.13000 135.652
53.14000 139.589
53.15000 143.260
53.16000 144.482
53.17000 144.982
53.18000 145.352
53.19000 144.873
53.20000 144.241
53.21000 143.552
53.22000 142.624
53.23000 141.668
53.24000 140.949
53.25000 141.880
53.26000 142.688
53.27000 142.699
53.28000 141.154
53.29000 139.570
53.30000 140.196
53.31000 143.728
53.32000 147.270
53.33000 148.164
53.34000 146.801
53.35000 145.470
53.36000 145.890
53.37000 147.308
53.38000 148.790
53.39000 151.524
53.40000 154.746
53.41000 157.737
53.42000 152.870
53.43000 146.613
53.44000 140.878
53.45000 138.410
53.46000 136.510
53.47000 135.581
53.48000 138.614
53.49000 142.070
53.50000 144.645
53.51000 147.897
53.52000 150.458
53.53000 150.689
53.54000 146.529
53.55000 142.266
53.56000 141.138
53.57000 143.975
53.58000 146.822
53.59000 147.189
53.60000 145.527
53.61000 143.888
53.62000 143.325
53.63000 143.356
53.64000 143.382
53.65000 143.330
53.66000 143.248
53.67000 143.173
53.68000 145.817
53.69000 148.812
53.70000 151.302
53.71000 150.760
53.72000 149.713
53.73000 148.416
53.74000 146.136
53.75000 143.755
53.76000 141.999
53.77000 144.951
53.78000 147.436
53.79000 146.943
53.80000 141.038
53.81000 135.020
53.82000 133.158
53.83000 136.355
53.84000 139.559
53.85000 141.297
53.86000 141.873
53.87000 142.387
53.88000 140.195
53.89000 136.568
53.90000 132.918
53.91000 128.877
53.92000 124.694
53.93000 120.843
53.94000 124.218
53.95000 128.819
53.96000 132.862
53.97000 133.687
53.98000 133.997
53.99000 134.495
54.00000 135.707
54.01000 136.988
54.02000 137.924
54.03000 135.503
54.04000 133.506
54.05000 132.111
54.06000 131.772
54.07000 131.453
54.08000 131.776
54.09000 132.852
54.10000 133.926
54.11000 135.078
54.12000 136.280
54.13000 137.385
54.14000 134.739
54.15000 130.171
54.16000 126.135
54.17000 130.708
54.18000 138.290
54.19000 145.240
54.20000 143.650
54.21000 140.440
54.22000 137.838
54.23000 138.608
54.24000 139.895
54.25000 140.802
54.26000 140.323
54.27000 139.717
54.28000 139.278
54.29000 142.493
54.30000 145.090
54.31000 143.858
54.32000 136.141
54.33000 128.318
54.34000 126.107
54.35000 130.215
54.36000 134.315
54.37000 134.911
54.38000 132.956
54.39000 131.042
54.40000 130.548
54.41000 130.756
54.42000 131.211
54.43000 135.390
54.44000 140.828
54.45000 145.788
54.46000 145.162
54.47000 143.481
54.48000 141.448
54.49000 137.551
54.50000 133.380
54.51000 131.027
54.52000 135.087
54.53000 139.706
54.54000 143.007
54.55000 148.364
54.56000 152.521
54.57000 152.886
54.58000 147.057
54.59000 141.140
54.60000 138.590
54.61000 139.682
54.62000 140.772
54.63000 141.239
54.64000 141.266
54.65000 141.216
54.66000 138.722
54.67000 135.060
54.68000 131.669
54.69000 132.145
54.70000 133.882
54.71000 135.458
54.72000 131.237
54.73000 126.387
54.74000 122.521
54.75000 123.681
54.76000 125.548
54.77000 128.939
54.78000 137.519
54.79000 146.528
54.80000 152.896
54.81000 147.627
54.82000 143.269
54.83000 141.260
54.84000 142.954
54.85000 144.693
54.86000 143.391
54.87000 138.930
54.88000 134.491
54.89000 133.375
54.90000 134.507
54.91000 135.629
54.92000 136.465
54.93000 137.168
54.94000 137.760
54.95000 136.837
54.96000 135.437
54.97000 134.172
54.98000 131.881
54.99000 129.676
55.00000 128.473
55.01000 132.195
55.02000 136.580
55.03000 139.533
55.04000 137.786
55.05000 135.670
55.06000 134.192
55.07000 139.020
55.08000 142.845
55.09000 144.903
55.10000 144.276
55.11000 143.622
55.12000 142.854
55.13000 141.973
55.14000 141.098
55.15000 140.504
55.16000 140.100
55.17000 139.871
55.18000 144.307
55.19000 150.822
55.20000 156.757
55.21000 155.309
55.22000 151.619
55.23000 148.303
55.24000 147.913
55.25000 148.092
55.26000 148.668
55.27000 151.124
55.28000 153.821
55.29000 155.580
55.30000 154.365
55.31000 152.931
55.32000 151.940
55.33000 155.384
55.34000 158.087
55.35000 160.512
55.36000 162.532
55.37000 164.547
55.38000 166.193
55.39000 167.483
55.40000 168.764
55.41000 170.668
55.42000 172.927
55.43000 175.255
55.44000 179.292
55.45000 184.064
55.46000 188.258
55.47000 185.493
55.48000 180.690
55.49000 176.394
55.50000 178.502
55.51000 181.429
55.52000 184.934
55.53000 191.072
55.54000 197.533
55.55000 203.625
55.56000 208.587
55.57000 213.469
55.58000 216.803
55.59000 215.884
55.60000 215.097
55.61000 219.388
55.62000 230.846
55.63000 242.355
55.64000 251.312
55.65000 257.919
55.66000 264.468
55.67000 268.461
55.68000 270.849
55.69000 273.441
55.70000 280.688
55.71000 289.867
55.72000 299.232
55.73000 310.716
55.74000 322.798
55.75000 333.545
55.76000 341.932
55.77000 348.829
55.78000 357.146
55.79000 371.682
55.80000 386.949
55.81000 399.261
55.82000 402.849
55.83000 405.866
55.84000 407.901
55.85000 424.932
55.86000 437.921
55.87000 451.807
55.88000 466.912
55.89000 482.014
55.90000 486.064
55.91000 480.337
55.92000 474.670
55.93000 471.092
55.94000 468.796
55.95000 466.935
55.96000 474.258
55.97000 485.265
55.98000 495.365
55.99000 495.666
56.00000 493.296
56.01000 491.200
56.02000 481.785
56.03000 472.509
56.04000 464.215
56.05000 460.069
56.06000 456.388
56.07000 450.480
56.08000 438.221
56.09000 425.572
56.10000 417.146
56.11000 410.194
56.12000 405.076
56.13000 396.425
56.14000 383.146
56.15000 369.849
56.16000 357.391
56.17000 345.646
56.18000 334.041
56.19000 323.619
56.20000 314.111
56.21000 304.715
56.22000 297.523
56.23000 291.186
56.24000 284.763
56.25000 277.460
56.26000 269.927
56.27000 263.300
56.28000 251.803
56.29000 241.184
56.30000 231.539
56.31000 225.855
56.32000 220.592
56.33000 216.085
56.34000 213.657
56.35000 211.349
56.36000 209.830
56.37000 203.143
56.38000 198.131
56.39000 191.345
56.40000 182.321
56.41000 173.300
56.42000 168.580
56.43000 167.380
56.44000 166.196
56.45000 165.667
56.46000 165.503
56.47000 165.351
56.48000 165.450
56.49000 165.643
56.50000 165.381
56.51000 160.686
56.52000 154.867
56.53000 149.778
56.54000 147.684
56.55000 146.316
56.56000 145.164
56.57000 144.860
56.58000 144.641
56.59000 144.002
56.60000 142.248
56.61000 140.433
56.62000 139.255
56.63000 146.343
56.64000 151.659
56.65000 153.618
56.66000 151.502
56.67000 149.375
56.68000 146.519
56.69000 143.089
56.70000 139.711
56.71000 139.835
56.72000 141.751
56.73000 143.582
56.74000 143.949
56.75000 143.788
56.76000 143.806
56.77000 145.491
56.78000 147.583
56.79000 149.401
56.80000 147.272
56.81000 144.918
56.82000 142.877
56.83000 142.012
56.84000 141.261
56.85000 140.410
56.86000 139.301
56.87000 138.179
56.88000 137.461
56.89000 138.556
56.90000 139.378
56.91000 139.400
56.92000 138.489
56.93000 137.577
56.94000 136.787
56.95000 136.089
56.96000 135.403
56.97000 131.928
56.98000 127.193
56.99000 122.639
57.00000 120.991
57.01000 120.356
57.02000 120.239
57.03000 124.710
57.04000 130.259
57.05000 135.054
57.06000 132.880
57.07000 130.130
57.08000 128.381
57.09000 130.277
57.10000 132.507
57.11000 133.110
57.12000 129.681
57.13000 126.064
57.14000 123.778
57.15000 128.356
57.16000 131.753
57.17000 132.281
57.18000 129.590
57.19000 126.914
57.20000 127.232
57.21000 129.738
57.22000 132.196
57.23000 133.429
57.24000 134.036
57.25000 134.460
57.26000 132.120
57.27000 128.849
57.28000 125.927
57.29000 125.942
57.30000 126.623
57.31000 127.208
57.32000 125.350
57.33000 123.477
57.34000 121.620
57.35000 119.823
57.36000 118.031
57.37000 117.934
57.38000 121.893
57.39000 126.027
57.40000 128.602
57.41000 128.412
57.42000 128.246
57.43000 128.018
57.44000 127.723
57.45000 127.426
57.46000 126.980
57.47000 126.430
57.48000 125.891
57.49000 124.715
57.50000 123.294
57.51000 122.152
57.52000 124.981
57.53000 129.100
57.54000 132.537
57.55000 130.467
57.56000 127.197
57.57000 124.407
57.58000 127.589
57.59000 130.972
57.60000 133.753
57.61000 134.493
57.62000 135.066
57.63000 133.959
57.64000 128.974
57.65000 123.832
57.66000 120.676
57.67000 126.231
57.68000 130.287
57.69000 131.837
57.70000 130.792
57.71000 129.740
57.72000 127.954
57.73000 125.670
57.74000 123.438
57.75000 124.175
57.76000 126.187
57.77000 127.816
57.78000 124.313
57.79000 119.201
57.80000 115.116
57.81000 118.954
57.82000 124.455
57.83000 129.117
57.84000 125.754
57.85000 122.034
57.86000 119.888
57.87000 122.893
57.88000 126.298
57.89000 128.139
57.90000 126.487
57.91000 124.706
57.92000 123.629
57.93000 128.707
57.94000 132.371
57.95000 133.683
57.96000 132.656
57.97000 131.630
57.98000 130.663
57.99000 129.735
58.00000 128.831
58.01000 125.885
58.02000 122.209
58.03000 118.795
58.04000 118.689
58.05000 119.585
58.06000 120.420
58.07000 120.804
58.08000 121.098
58.09000 121.345
58.10000 122.715
58.11000 123.978
58.12000 124.693
58.13000 123.678
58.14000 122.536
58.15000 122.586
58.16000 125.202
58.17000 127.905
58.18000 129.516
58.19000 123.379
58.20000 118.984
58.21000 119.283
58.22000 124.064
58.23000 128.770
58.24000 127.548
58.25000 122.587
58.26000 117.764
58.27000 117.223
58.28000 118.455
58.29000 119.773
58.30000 122.136
58.31000 124.803
58.32000 126.970
58.33000 125.601
58.34000 123.545
58.35000 121.826
58.36000 123.654
58.37000 125.533
58.38000 125.192
58.39000 118.081
58.40000 110.501
58.41000 107.233
58.42000 112.935
58.43000 118.915
58.44000 122.421
58.45000 122.910
58.46000 123.240
58.47000 122.749
58.48000 121.506
58.49000 120.277
58.50000 120.054
58.51000 120.441
58.52000 120.817
58.53000 120.971
58.54000 121.029
58.55000 121.165
58.56000 122.182
58.57000 123.448
58.58000 124.512
58.59000 124.209
58.60000 123.652
58.61000 123.189
58.62000 127.319
58.63000 131.176
58.64000 132.762
58.65000 127.664
58.66000 122.129
58.67000 118.038
58.68000 116.848
58.69000 115.739
58.70000 115.100
58.71000 118.769
58.72000 121.354
58.73000 122.390
58.74000 122.062
58.75000 121.726
58.76000 120.911
58.77000 119.815
58.78000 118.755
58.79000 119.402
58.80000 120.658
58.81000 121.690
58.82000 120.315
58.83000 118.286
58.84000 116.128
58.85000 113.129
58.86000 109.981
58.87000 107.386
58.88000 111.174
58.89000 114.875
58.90000 118.404
58.91000 121.440
58.92000 124.446
58.93000 125.247
58.94000 121.771
58.95000 118.185
58.96000 116.151
58.97000 116.524
58.98000 116.795
58.99000 119.372
59.00000 123.903
59.01000 128.329
59.02000 127.234
59.03000 123.013
59.04000 118.942
59.05000 118.167
59.06000 118.634
59.07000 118.882
59.08000 116.893
59.09000 114.318
59.10000 112.476
59.11000 115.184
59.12000 118.676
59.13000 121.532
59.14000 119.668
59.15000 117.730
59.16000 115.935
59.17000 114.527
59.18000 113.142
59.19000 112.796
59.20000 114.394
59.21000 116.038
59.22000 116.955
59.23000 117.393
59.24000 117.699
59.25000 119.493
59.26000 122.502
59.27000 125.415
59.28000 123.816
59.29000 119.752
59.30000 115.844
59.31000 114.424
59.32000 113.962
59.33000 113.509
59.34000 113.142
59.35000 112.796
59.36000 112.445
59.37000 112.060
59.38000 111.670
59.39000 111.353
59.40000 118.046
59.41000 124.081
59.42000 126.689
59.43000 120.221
59.44000 113.267
59.45000 109.614
59.46000 111.930
59.47000 114.367
59.48000 115.703
59.49000 121.052
59.50000 124.724
59.51000 124.469
59.52000 121.132
59.53000 117.905
59.54000 119.311
59.55000 123.161
59.56000 126.852
59.57000 128.112
59.58000 128.471
59.59000 128.331
59.60000 123.566
59.61000 117.676
59.62000 113.193
59.63000 116.761
59.64000 121.608
59.65000 125.510
59.66000 122.615
59.67000 119.735
59.68000 117.748
59.69000 118.042
59.70000 118.451
59.71000 118.452
59.72000 117.741
59.73000 117.017
59.74000 116.628
59.75000 113.705
59.76000 111.716
59.77000 112.140
59.78000 114.390
59.79000 116.563
59.80000 115.821
59.81000 113.593
59.82000 111.464
59.83000 111.661
59.84000 112.595
59.85000 113.688
59.86000 116.175
59.87000 118.989
59.88000 120.855
59.89000 117.506
59.90000 113.364
59.91000 110.056
59.92000 111.139
59.93000 112.338
59.94000 113.377
59.95000 114.025
59.96000 114.654
59.97000 115.755
59.98000 117.649
59.99000 119.556
60.00000 120.564
60.01000 117.969
60.02000 116.214
60.03000 115.922
60.04000 116.695
60.05000 117.386
60.06000 115.262
60.07000 111.753
60.08000 108.412
60.09000 111.423
60.10000 116.189
60.11000 120.366
60.12000 119.586
60.13000 117.685
60.14000 116.328
60.15000 117.847
60.16000 119.785
60.17000 121.320
60.18000 119.117
60.19000 117.087
60.20000 115.992
60.21000 117.131
60.22000 118.366
60.23000 118.417
60.24000 116.544
60.25000 114.645
60.26000 113.661
60.27000 120.634
60.28000 125.285
60.29000 122.531
60.30000 114.581
60.31000 106.884
60.32000 107.059
60.33000 110.972
60.34000 114.687
60.35000 118.223
60.36000 121.433
60.37000 124.122
60.38000 122.617
60.39000 120.201
60.40000 118.274
60.41000 118.834
60.42000 119.742
60.43000 120.454
60.44000 118.754
60.45000 117.235
60.46000 115.900
60.47000 114.985
60.48000 114.088
60.49000 113.541
60.50000 113.543
60.51000 113.551
60.52000 113.555
60.53000 114.590
60.54000 115.281
60.55000 115.665
60.56000 115.843
60.57000 116.110
60.58000 118.957
60.59000 122.986
60.60000 126.797
60.61000 124.960
60.62000 121.647
60.63000 118.300
60.64000 114.692
60.65000 111.028
60.66000 108.263
60.67000 109.889
60.68000 112.100
60.69000 113.822
60.70000 110.922
60.71000 108.327
60.72000 107.553
60.73000 110.830
60.74000 114.256
60.75000 117.121
60.76000 119.138
60.77000 121.147
60.78000 122.523
60.79000 123.273
60.80000 123.987
60.81000 121.423
60.82000 116.722
60.83000 112.296
60.84000 115.099
60.85000 121.102
60.86000 126.761
60.87000 128.364
60.88000 128.712
60.89000 128.660
60.90000 125.680
60.91000 122.109
60.92000 118.445
60.93000 114.344
60.94000 110.186
60.95000 106.978
60.96000 111.510
60.97000 115.550
60.98000 117.467
60.99000 114.822
61.00000 112.023
61.01000 113.598
61.02000 121.540
61.03000 129.535
61.04000 131.227
61.05000 126.922
61.06000 122.693
61.07000 124.418
61.08000 129.885
61.09000 135.122
61.10000 134.773
61.11000 132.035
61.12000 129.464
61.13000 127.058
61.14000 124.907
61.15000 122.745
61.16000 120.497
61.17000 118.233
61.18000 117.123
61.19000 121.231
61.20000 125.977
61.21000 129.606
61.22000 123.310
61.23000 117.804
61.24000 114.545
61.25000 115.949
61.26000 117.496
61.27000 119.739
61.28000 122.958
61.29000 126.182
61.30000 127.358
61.31000 126.661
61.32000 125.947
61.33000 124.073
61.34000 121.496
61.35000 119.115
61.36000 121.116
61.37000 124.927
61.38000 128.492
61.39000 131.958
61.40000 135.081
61.41000 137.446
61.42000 134.705
61.43000 131.014
61.44000 128.176
61.45000 129.051
61.46000 130.358
61.47000 131.348
61.48000 129.308
61.49000 127.553
61.50000 130.269
61.51000 141.941
61.52000 153.865
61.53000 165.888
61.54000 178.048
61.55000 190.201
61.56000 201.344
61.57000 211.583
61.58000 221.856
61.59000 234.100
61.60000 247.499
61.61000 260.506
61.62000 265.352
61.63000 266.944
61.64000 268.427
61.65000 273.224
61.66000 278.375
61.67000 283.362
61.68000 287.290
61.69000 291.030
61.70000 294.836
61.71000 298.923
61.72000 303.041
61.73000 306.131
61.74000 292.802
61.75000 281.608
61.76000 269.396
61.77000 255.218
61.78000 240.990
61.79000 226.695
61.80000 212.313
61.81000 197.944
61.82000 185.468
61.83000 174.618
61.84000 163.857
61.85000 157.698
61.86000 154.139
61.87000 150.500
61.88000 145.302
61.89000 139.504
61.90000 134.125
61.91000 133.891
61.92000 134.892
61.93000 135.366
61.94000 132.583
61.95000 129.239
61.96000 126.389
61.97000 125.532
61.98000 124.887
61.99000 124.407
62.00000 126.697
62.01000 128.600
62.02000 130.512
62.03000 132.440
62.04000 134.367
62.05000 134.186
62.06000 131.363
62.07000 128.535
62.08000 127.153
62.09000 126.948
62.10000 126.798
62.11000 129.207
62.12000 133.010
62.13000 136.591
62.14000 136.145
62.15000 134.202
62.16000 132.407
62.17000 133.219
62.18000 134.538
62.19000 136.024
62.20000 138.510
62.21000 141.161
62.22000 142.199
62.23000 136.954
62.24000 131.077
62.25000 126.753
62.26000 126.811
62.27000 127.036
62.28000 127.873
62.29000 129.814
62.30000 131.777
62.31000 130.838
62.32000 126.399
62.33000 121.963
62.34000 122.216
62.35000 126.120
62.36000 129.940
62.37000 130.278
62.38000 128.785
62.39000 127.272
62.40000 125.403
62.41000 123.408
62.42000 121.573
62.43000 125.490
62.44000 130.238
62.45000 133.853
62.46000 131.011
62.47000 127.147
62.48000 124.049
62.49000 123.829
62.50000 123.884
62.51000 123.924
62.52000 122.595
62.53000 121.520
62.54000 122.608
62.55000 127.459
62.56000 132.378
62.57000 133.586
62.58000 130.488
62.59000 127.393
62.60000 127.522
62.61000 130.062
62.62000 132.517
62.63000 131.766
62.64000 129.387
62.65000 127.101
62.66000 126.297
62.67000 126.006
62.68000 125.739
62.69000 128.382
62.70000 131.339
62.71000 133.605
62.72000 132.085
62.73000 129.991
62.74000 128.374
62.75000 128.487
62.76000 128.757
62.77000 128.952
62.78000 128.163
62.79000 127.523
62.80000 127.207
62.81000 127.433
62.82000 127.667
62.83000 128.362
62.84000 129.570
62.85000 130.775
62.86000 132.815
62.87000 135.440
62.88000 137.947
62.89000 136.428
62.90000 132.935
62.91000 129.664
62.92000 129.707
62.93000 130.858
62.94000 131.908
62.95000 134.806
62.96000 137.742
62.97000 140.159
62.98000 139.848
62.99000 139.140
63.00000 137.543
63.01000 132.837
63.02000 127.864
63.03000 124.320
63.04000 126.246
63.05000 127.892
63.06000 130.223
63.07000 133.664
63.08000 137.120
63.09000 138.779
63.10000 138.512
63.11000 138.246
63.12000 136.850
63.13000 134.685
63.14000 132.594
63.15000 132.784
63.16000 134.054
63.17000 135.008
63.18000 131.511
63.19000 126.575
63.20000 122.100
63.21000 124.904
63.22000 128.770
63.23000 132.118
63.24000 132.847
63.25000 133.212
63.26000 132.730
63.27000 129.389
63.28000 125.816
63.29000 123.297
63.30000 129.033
63.31000 133.632
63.32000 135.439
63.33000 132.889
63.34000 130.288
63.35000 129.946
63.36000 131.930
63.37000 133.903
63.38000 134.900
63.39000 135.236
63.40000 135.608
63.41000 137.019
63.42000 138.907
63.43000 140.437
63.44000 137.222
63.45000 132.528
63.46000 128.293
63.47000 135.144
63.48000 143.195
63.49000 149.020
63.50000 144.007
63.51000 137.552
63.52000 133.495
63.53000 137.238
63.54000 141.582
63.55000 144.610
63.56000 139.957
63.57000 136.234
63.58000 133.525
63.59000 132.343
63.60000 131.176
63.61000 131.136
63.62000 132.209
63.63000 133.275
63.64000 134.993
63.65000 137.102
63.66000 139.189
63.67000 140.715
63.68000 141.992
63.69000 143.030
63.70000 141.054
63.71000 138.171
63.72000 135.583
63.73000 138.067
63.74000 141.130
63.75000 143.619
63.76000 143.420
63.77000 142.878
63.78000 142.565
63.79000 142.966
63.80000 143.419
63.81000 143.731
63.82000 144.794
63.83000 145.611
63.84000 146.689
63.85000 148.146
63.86000 149.606
63.87000 149.105
63.88000 146.744
63.89000 144.401
63.90000 139.997
63.91000 134.401
63.92000 129.002
63.93000 128.377
63.94000 129.788
63.95000 131.344
63.96000 134.630
63.97000 138.419
63.98000 141.803
63.99000 144.115
64.00000 145.949
64.01000 147.588
64.02000 148.349
64.03000 149.003
64.04000 148.645
64.05000 145.217
64.06000 141.579
64.07000 139.102
64.08000 138.062
64.09000 137.317
64.10000 137.619
64.11000 139.383
64.12000 141.158
64.13000 144.489
64.14000 149.238
64.15000 153.943
64.16000 152.508
64.17000 147.463
64.18000 142.600
64.19000 141.789
64.20000 142.646
64.21000 143.501
64.22000 144.321
64.23000 145.132
64.24000 145.852
64.25000 147.239
64.26000 148.548
64.27000 149.975
64.28000 151.907
64.29000 153.898
64.30000 155.411
64.31000 155.524
64.32000 155.548
64.33000 155.563
64.34000 154.055
64.35000 152.903
64.36000 152.878
64.37000 154.373
64.38000 155.876
64.39000 157.314
64.40000 158.697
64.41000 160.066
64.42000 159.268
64.43000 157.253
64.44000 155.234
64.45000 153.132
64.46000 150.997
64.47000 149.371
64.48000 153.179
64.49000 158.456
64.50000 163.117
64.51000 160.687
64.52000 157.497
64.53000 155.944
64.54000 161.239
64.55000 167.291
64.56000 171.622
64.57000 171.094
64.58000 170.271
64.59000 169.724
64.60000 167.068
64.61000 165.066
64.62000 163.287
64.63000 161.800
64.64000 160.322
64.65000 162.756
64.66000 168.487
64.67000 174.147
64.68000 179.409
64.69000 184.319
64.70000 188.695
64.71000 182.772
64.72000 172.895
64.73000 163.745
64.74000 161.962
64.75000 162.098
64.76000 162.217
64.77000 166.211
64.78000 170.214
64.79000 173.952
64.80000 176.621
64.81000 179.178
64.82000 179.647
64.83000 174.423
64.84000 168.876
64.85000 165.240
64.86000 168.557
64.87000 171.112
64.88000 173.895
64.89000 176.962
64.90000 180.027
64.91000 181.575
64.92000 181.893
64.93000 182.206
64.94000 182.782
64.95000 183.479
64.96000 184.199
64.97000 185.319
64.98000 186.586
64.99000 187.602
65.00000 186.184
65.01000 184.155
65.02000 182.384
65.03000 189.316
65.04000 196.473
65.05000 201.147
65.06000 196.175
65.07000 190.236
65.08000 187.959
65.09000 195.328
65.10000 203.209
65.11000 208.308
65.12000 203.845
65.13000 200.440
65.14000 198.105
65.15000 197.058
65.16000 196.032
65.17000 200.256
65.18000 208.576
65.19000 216.765
65.20000 220.924
65.21000 222.907
65.22000 224.798
65.23000 225.152
65.24000 224.956
65.25000 225.063
65.26000 227.954
65.27000 231.518
65.28000 234.612
65.29000 239.162
65.30000 243.234
65.31000 246.053
65.32000 244.178
65.33000 241.857
65.34000 241.278
65.35000 245.131
65.36000 249.203
65.37000 251.803
65.38000 263.606
65.39000 272.311
65.40000 274.503
65.41000 269.164
65.42000 263.837
65.43000 262.727
65.44000 264.787
65.45000 266.810
65.46000 273.470
65.47000 282.170
65.48000 290.514
65.49000 293.223
65.50000 293.984
65.51000 295.318
65.52000 301.663
65.53000 309.176
65.54000 315.657
65.55000 321.232
65.56000 325.846
65.57000 329.941
65.58000 332.162
65.59000 334.214
65.60000 340.314
65.61000 356.359
65.62000 372.861
65.63000 383.248
65.64000 404.577
65.65000 420.134
65.66000 451.910
65.67000 501.714
65.68000 551.631
65.69000 617.654
65.70000 695.331
65.71000 771.492
65.72000 881.804
65.73000 1004.091
65.74000 1126.085
65.75000 1243.722
65.76000 1359.906
65.77000 1474.050
65.78000 1571.160
65.79000 1664.446
65.80000 1744.415
65.81000 1793.784
65.82000 1831.735
65.83000 1869.896
65.84000 1908.788
65.85000 1947.743
65.86000 1970.174
65.87000 1953.410
65.88000 1934.977
65.89000 1923.538
65.90000 1899.471
65.91000 1882.030
65.92000 1840.852
65.93000 1774.325
65.94000 1707.549
65.95000 1609.678
65.96000 1490.124
65.97000 1373.152
65.98000 1247.340
65.99000 1122.594
66.00000 1000.117
66.01000 909.410
66.02000 828.936
66.03000 749.117
66.04000 674.532
66.05000 601.077
66.06000 538.516
66.07000 493.443
66.08000 457.586
66.09000 427.309
66.10000 415.793
66.11000 405.799
66.12000 395.761
66.13000 385.622
66.14000 375.480
66.15000 369.277
66.16000 368.869
66.17000 368.626
66.18000 369.336
66.19000 371.026
66.20000 372.715
66.21000 374.318
66.22000 375.863
66.23000 377.372
66.24000 381.997
66.25000 387.780
66.26000 394.574
66.27000 414.738
66.28000 439.058
66.29000 463.382
66.30000 487.738
66.31000 512.100
66.32000 532.712
66.33000 555.815
66.34000 575.427
66.35000 593.048
66.36000 604.210
66.37000 614.877
66.38000 622.872
66.39000 624.959
66.40000 626.832
66.41000 627.960
66.42000 622.216
66.43000 618.081
66.44000 617.814
66.45000 621.354
66.46000 624.783
66.47000 618.244
66.48000 605.246
66.49000 592.587
66.50000 575.540
66.51000 557.449
66.52000 538.651
66.53000 511.018
66.54000 480.736
66.55000 452.440
66.56000 438.627
66.57000 427.711
66.58000 418.539
66.59000 400.183
66.60000 383.919
66.61000 370.482
66.62000 365.892
66.63000 361.943
66.64000 359.350
66.65000 359.655
66.66000 360.055
66.67000 360.293
66.68000 353.518
66.69000 348.684
66.70000 348.097
66.71000 351.524
66.72000 354.893
66.73000 353.802
66.74000 349.924
66.75000 346.156
66.76000 342.801
66.77000 339.780
66.78000 337.395
66.79000 342.518
66.80000 349.815
66.81000 355.694
66.82000 351.681
66.83000 345.764
66.84000 340.828
66.85000 340.105
66.86000 339.928
66.87000 340.901
66.88000 345.349
66.89000 350.034
66.90000 355.038
66.91000 360.700
66.92000 366.382
66.93000 369.700
66.94000 366.488
66.95000 364.198
66.96000 361.314
66.97000 357.889
66.98000 354.573
66.99000 358.363
67.00000 366.437
67.01000 374.262
67.02000 372.587
67.03000 367.310
67.04000 362.301
67.05000 360.287
67.06000 359.109
67.07000 359.122
67.08000 367.094
67.09000 376.538
67.10000 384.362
67.11000 390.029
67.12000 394.503
67.13000 396.279
67.14000 390.188
67.15000 383.591
67.16000 378.886
67.17000 377.948
67.18000 377.112
67.19000 376.633
67.20000 377.978
67.21000 378.926
67.22000 380.089
67.23000 381.438
67.24000 382.722
67.25000 380.196
67.26000 375.454
67.27000 370.871
67.28000 378.202
67.29000 389.571
67.30000 399.967
67.31000 400.022
67.32000 397.292
67.33000 394.714
67.34000 393.108
67.35000 391.674
67.36000 390.495
67.37000 397.940
67.38000 404.840
67.39000 412.080
67.40000 420.279
67.41000 428.535
67.42000 432.157
67.43000 426.867
67.44000 421.355
67.45000 418.241
67.46000 423.860
67.47000 427.789
67.48000 431.346
67.49000 434.591
67.50000 437.732
67.51000 435.605
67.52000 430.520
67.53000 425.620
67.54000 429.336
67.55000 435.927
67.56000 441.433
67.57000 435.988
67.58000 427.700
67.59000 421.476
67.60000 427.931
67.61000 436.550
67.62000 443.585
67.63000 450.142
67.64000 455.465
67.65000 457.990
67.66000 452.904
67.67000 447.389
67.68000 445.844
67.69000 451.668
67.70000 457.656
67.71000 460.981
67.72000 454.931
67.73000 450.737
67.74000 448.246
67.75000 447.131
67.76000 446.080
67.77000 447.916
67.78000 451.316
67.79000 454.582
67.80000 460.246
67.81000 466.377
67.82000 472.094
67.83000 473.827
67.84000 474.562
67.85000 474.503
67.86000 469.759
67.87000 464.249
67.88000 459.785
67.89000 469.722
67.90000 478.984
67.91000 485.400
67.92000 484.341
67.93000 482.887
67.94000 483.334
67.95000 487.183
67.96000 491.101
67.97000 493.238
67.98000 478.127
67.99000 467.769
68.00000 468.529
68.01000 477.937
68.02000 487.323
68.03000 495.848
68.04000 503.921
68.05000 511.655
68.06000 518.508
68.07000 524.606
68.08000 530.053
68.09000 529.538
68.10000 527.587
68.11000 526.138
68.12000 527.537
68.13000 529.384
68.14000 530.868
68.15000 529.293
68.16000 527.781
68.17000 527.053
68.18000 528.313
68.19000 529.671
68.20000 532.173
68.21000 536.654
68.22000 541.170
68.23000 543.589
68.24000 557.617
68.25000 567.155
68.26000 567.913
68.27000 562.096
68.28000 556.485
68.29000 558.523
68.30000 564.421
68.31000 570.052
68.32000 572.153
68.33000 572.975
68.34000 574.175
68.35000 578.670
68.36000 583.932
68.37000 589.863
68.38000 599.439
68.39000 609.564
68.40000 617.633
68.41000 630.737
68.42000 641.674
68.43000 650.052
68.44000 652.163
68.45000 653.988
68.46000 658.604
68.47000 667.873
68.48000 677.215
68.49000 682.126
68.50000 688.269
68.51000 692.444
68.52000 698.054
68.53000 704.699
68.54000 711.735
68.55000 731.869
68.56000 758.386
68.57000 783.623
68.58000 794.650
68.59000 800.481
68.60000 809.455
68.61000 844.574
68.62000 885.544
68.63000 926.201
68.64000 965.228
68.65000 1004.018
68.66000 1034.679
68.67000 1061.882
68.68000 1083.489
68.69000 1112.928
68.70000 1160.894
68.71000 1209.643
68.72000 1257.863
68.73000 1305.234
68.74000 1352.593
68.75000 1377.014
68.76000 1445.030
68.77000 1490.828
68.78000 1533.564
68.79000 1574.172
68.80000 1614.812
68.81000 1656.448
68.82000 1698.552
68.83000 1738.488
68.84000 1819.640
68.85000 1906.666
68.86000 1996.912
68.87000 2112.745
68.88000 2234.089
68.89000 2386.860
68.90000 2697.615
68.91000 3030.187
68.92000 3290.821
68.93000 4419.779
68.94000 5378.094
68.95000 6760.099
68.96000 9109.847
68.97000 11497.399
68.98000 14274.683
68.99000 17656.709
69.00000 21045.676
69.01000 22758.746
69.02000 27675.787
69.03000 30959.309
69.04000 33559.977
69.05000 35703.074
69.06000 37821.371
69.07000 39245.664
69.08000 40354.547
69.09000 41402.586
69.10000 42097.000
69.11000 42634.090
69.12000 43184.895
69.13000 43839.863
69.14000 44516.426
69.15000 45175.516
69.16000 45750.109
69.17000 46313.539
69.18000 46751.254
69.19000 46108.105
69.20000 45530.891
69.21000 44320.652
69.22000 41714.156
69.23000 39057.461
69.24000 36400.727
69.25000 33743.934
69.26000 31087.166
69.27000 28796.869
69.28000 26866.186
69.29000 24942.898
69.30000 23671.131
69.31000 22820.305
69.32000 21984.805
69.33000 21543.893
69.34000 21276.152
69.35000 21024.029
69.36000 20565.760
69.37000 20090.172
69.38000 19538.648
69.39000 18435.594
69.40000 17222.531
69.41000 15898.573
69.42000 14058.491
69.43000 12153.234
69.44000 10686.280
69.45000 8728.283
69.46000 7150.244
69.47000 5765.445
69.48000 4792.229
69.49000 3832.576
69.50000 3075.427
69.51000 2610.328
69.52000 2147.628
69.53000 1825.610
69.54000 1636.193
69.55000 1447.534
69.56000 1315.967
69.57000 1219.974
69.58000 1125.769
69.59000 1074.075
69.60000 1040.397
69.61000 1008.804
69.62000 973.700
69.63000 940.794
69.64000 908.802
69.65000 883.160
69.66000 858.737
69.67000 833.947
69.68000 807.514
69.69000 780.882
69.70000 760.563
69.71000 737.127
69.72000 718.496
69.73000 701.425
69.74000 687.564
69.75000 673.799
69.76000 663.247
69.77000 657.160
69.78000 651.104
69.79000 639.310
69.80000 622.336
69.81000 605.504
69.82000 597.866
69.83000 595.755
69.84000 593.234
69.85000 581.684
69.86000 566.439
69.87000 552.194
69.88000 547.057
69.89000 544.697
69.90000 541.708
69.91000 534.531
69.92000 526.583
69.93000 519.906
69.94000 518.721
69.95000 518.168
69.96000 517.750
69.97000 499.334
69.98000 483.993
69.99000 473.646
70.00000 473.214
