20.00000 501.447
20.01000 492.768
20.02000 482.848
20.03000 476.311
20.04000 483.079
20.05000 491.204
20.06000 497.196
20.07000 493.219
20.08000 489.719
20.09000 486.344
20.10000 483.196
20.11000 480.052
20.12000 474.936
20.13000 467.418
20.14000 459.909
20.15000 460.080
20.16000 466.289
20.17000 472.418
20.18000 475.131
20.19000 476.031
20.20000 476.804
20.21000 475.377
20.22000 473.154
20.23000 471.108
20.24000 461.298
20.25000 450.823
20.26000 443.531
20.27000 454.575
20.28000 468.550
20.29000 479.371
20.30000 478.222
20.31000 475.913
20.32000 474.228
20.33000 471.141
20.34000 468.707
20.35000 467.898
20.36000 469.939
20.37000 472.033
20.38000 472.663
20.39000 471.578
20.40000 470.493
20.41000 465.335
20.42000 457.130
20.43000 449.155
20.44000 450.022
20.45000 455.420
20.46000 460.789
20.47000 465.679
20.48000 470.402
20.49000 474.732
20.50000 476.520
20.51000 477.579
20.52000 477.265
20.53000 469.354
20.54000 460.277
20.55000 453.914
20.56000 457.472
20.57000 461.944
20.58000 465.175
20.59000 465.037
20.60000 464.810
20.61000 463.978
20.62000 462.121
20.63000 460.248
20.64000 454.078
20.65000 443.068
20.66000 432.090
20.67000 434.143
20.68000 445.650
20.69000 456.840
20.70000 456.977
20.71000 451.647
20.72000 446.909
20.73000 451.173
20.74000 458.476
20.75000 465.139
20.76000 468.663
20.77000 471.155
20.78000 472.496
20.79000 467.719
20.80000 462.044
20.81000 457.551
20.82000 457.231
20.83000 457.276
20.84000 457.308
20.85000 467.347
20.86000 475.343
20.87000 478.469
20.88000 473.641
20.89000 468.700
20.90000 463.093
20.91000 456.767
20.92000 450.467
20.93000 448.997
20.94000 450.917
20.95000 452.896
20.96000 456.705
20.97000 461.389
20.98000 465.697
20.99000 464.624
21.00000 461.799
21.01000 459.233
21.02000 454.867
21.03000 450.662
21.04000 448.211
21.05000 454.718
21.06000 462.485
21.07000 468.074
21.08000 466.249
21.09000 463.810
21.10000 462.087
21.11000 463.583
21.12000 464.819
21.13000 464.858
21.14000 463.012
21.15000 461.144
21.16000 459.682
21.17000 458.643
21.18000 457.610
21.19000 454.652
21.20000 450.435
21.21000 446.403
21.22000 447.730
21.23000 451.528
21.24000 454.858
21.25000 451.895
21.26000 446.951
21.27000 442.483
21.28000 447.524
21.29000 453.719
21.30000 458.836
21.31000 458.650
21.32000 457.749
21.33000 458.344
21.34000 463.848
21.35000 469.735
21.36000 473.850
21.37000 460.665
21.38000 450.215
21.39000 446.824
21.40000 454.155
21.41000 461.599
21.42000 464.769
21.43000 463.674
21.44000 462.585
21.45000 467.656
21.46000 476.637
21.47000 485.118
21.48000 480.253
21.49000 469.445
21.50000 459.038
21.51000 453.748
21.52000 450.012
21.53000 446.653
21.54000 445.110
21.55000 444.082
21.56000 444.329
21.57000 450.601
21.58000 457.649
21.59000 463.924
21.60000 467.749
21.61000 471.394
21.62000 473.913
21.63000 471.511
21.64000 469.579
21.65000 467.783
21.66000 466.186
21.67000 464.591
21.68000 469.575
21.69000 480.864
21.70000 492.068
21.71000 488.740
21.72000 476.429
21.73000 464.696
21.74000 467.168
21.75000 475.751
21.76000 483.416
21.77000 480.026
21.78000 473.397
21.79000 467.469
21.80000 477.043
21.81000 488.026
21.82000 495.995
21.83000 490.241
21.84000 482.799
21.85000 479.414
21.86000 488.439
21.87000 498.328
21.88000 505.081
21.89000 501.112
21.90000 497.892
21.91000 495.744
21.92000 495.106
21.93000 494.484
21.94000 504.259
21.95000 523.605
21.96000 542.781
21.97000 546.321
21.98000 540.436
21.99000 534.809
22.00000 535.034
22.01000 537.690
22.02000 540.514
22.03000 545.245
22.04000 550.515
22.05000 555.204
22.06000 546.749
22.07000 537.270
22.08000 530.695
22.09000 536.852
22.10000 544.504
22.11000 547.239
22.12000 535.451
22.13000 522.712
22.14000 514.119
22.15000 522.216
22.16000 528.595
22.17000 531.753
22.18000 530.533
22.19000 529.283
22.20000 522.552
22.21000 510.974
22.22000 499.514
22.23000 494.693
22.24000 493.802
22.25000 492.989
22.26000 493.842
22.27000 495.364
22.28000 495.896
22.29000 485.733
22.30000 472.654
22.31000 461.084
22.32000 467.330
22.33000 475.504
22.34000 481.236
22.35000 476.660
22.36000 470.929
22.37000 466.244
22.38000 464.543
22.39000 463.025
22.40000 462.013
22.41000 475.207
22.42000 485.244
22.43000 488.833
22.44000 483.976
22.45000 479.083
22.46000 475.228
22.47000 472.255
22.48000 469.317
22.49000 462.872
22.50000 454.644
22.51000 446.739
22.52000 445.210
22.53000 446.150
22.54000 446.943
22.55000 446.220
22.56000 445.100
22.57000 444.114
22.58000 436.207
22.59000 428.372
22.60000 423.109
22.61000 428.320
22.62000 434.647
22.63000 439.594
22.64000 440.743
22.65000 441.672
22.66000 442.283
22.67000 445.088
22.68000 447.190
22.69000 449.610
22.70000 452.431
22.71000 455.235
22.72000 450.233
22.73000 438.843
22.74000 427.606
22.75000 429.695
22.76000 438.833
22.77000 447.569
22.78000 448.951
22.79000 447.582
22.80000 445.644
22.81000 438.145
22.82000 429.237
22.83000 421.447
22.84000 432.840
22.85000 445.333
22.86000 454.026
22.87000 447.813
22.88000 440.088
22.89000 435.635
22.90000 439.879
22.91000 444.593
22.92000 447.653
22.93000 442.795
22.94000 439.117
22.95000 435.054
22.96000 430.525
22.97000 426.017
22.98000 428.142
22.99000 435.492
23.00000 442.730
23.01000 441.804
23.02000 436.715
23.03000 432.124
23.04000 436.056
23.05000 443.065
23.06000 449.748
23.07000 453.389
23.08000 456.287
23.09000 458.807
23.10000 450.241
23.11000 441.428
23.12000 434.655
23.13000 435.600
23.14000 437.290
23.15000 438.044
23.16000 436.396
23.17000 434.627
23.18000 433.494
23.19000 439.429
23.20000 443.847
23.21000 444.590
23.22000 441.044
23.23000 437.488
23.24000 433.360
23.25000 428.799
23.26000 424.315
23.27000 427.827
23.28000 435.172
23.29000 442.063
23.30000 441.657
23.31000 438.707
23.32000 435.647
23.33000 431.617
23.34000 427.360
23.35000 423.681
23.36000 428.640
23.37000 433.972
23.38000 438.854
23.39000 442.095
23.40000 445.187
23.41000 444.582
23.42000 434.816
23.43000 424.622
23.44000 418.182
23.45000 423.377
23.46000 427.278
23.47000 427.169
23.48000 422.557
23.49000 417.959
23.50000 416.290
23.51000 416.761
23.52000 417.223
23.53000 412.670
23.54000 405.900
23.55000 400.184
23.56000 410.386
23.57000 425.947
23.58000 439.668
23.59000 437.842
23.60000 432.493
23.61000 427.900
23.62000 428.893
23.63000 430.423
23.64000 435.028
23.65000 450.442
23.66000 466.796
23.67000 473.989
23.68000 459.259
23.69000 443.577
23.70000 433.809
23.71000 445.157
23.72000 453.549
23.73000 458.388
23.74000 459.394
23.75000 460.402
23.76000 461.783
23.77000 463.427
23.78000 465.037
23.79000 461.247
23.80000 455.137
23.81000 449.889
23.82000 456.890
23.83000 467.873
23.84000 478.457
23.85000 485.826
23.86000 492.493
23.87000 498.181
23.88000 487.262
23.89000 476.112
23.90000 468.217
23.91000 471.366
23.92000 475.425
23.93000 481.278
23.94000 491.279
23.95000 501.446
23.96000 507.688
23.97000 497.162
23.98000 489.473
23.99000 485.539
24.00000 485.496
24.01000 485.484
24.02000 488.863
24.03000 494.544
24.04000 500.093
24.05000 492.838
24.06000 480.257
24.07000 468.633
24.08000 469.846
24.09000 475.086
24.10000 479.426
24.11000 476.826
24.12000 472.767
24.13000 469.328
24.14000 465.308
24.15000 461.874
24.16000 459.574
24.17000 460.984
24.18000 462.684
24.19000 463.105
24.20000 460.671
24.21000 458.131
24.22000 456.594
24.23000 443.736
24.24000 434.490
24.25000 426.514
24.26000 419.802
24.27000 413.221
24.28000 418.954
24.29000 432.741
24.30000 446.177
24.31000 443.493
24.32000 434.101
24.33000 425.765
24.34000 430.817
24.35000 439.920
24.36000 446.615
24.37000 435.555
24.38000 420.907
24.39000 408.577
24.40000 412.041
24.41000 416.620
24.42000 419.296
24.43000 415.956
24.44000 412.174
24.45000 411.016
24.46000 415.513
24.47000 420.202
24.48000 422.995
24.49000 423.525
24.50000 423.887
24.51000 420.166
24.52000 412.545
24.53000 405.004
24.54000 403.749
24.55000 406.461
24.56000 409.096
24.57000 411.241
24.58000 413.079
24.59000 415.012
24.60000 418.068
24.61000 421.452
24.62000 423.490
24.63000 416.033
24.64000 406.730
24.65000 398.953
24.66000 409.412
24.67000 419.952
24.68000 427.799
24.69000 427.435
24.70000 426.502
24.71000 423.680
24.72000 416.926
24.73000 410.050
24.74000 406.019
24.75000 407.179
24.76000 408.020
24.77000 403.880
24.78000 395.170
24.79000 386.640
24.80000 390.505
24.81000 401.912
24.82000 412.973
24.83000 411.368
24.84000 404.878
24.85000 399.024
24.86000 400.396
24.87000 403.804
24.88000 406.907
24.89000 407.947
24.90000 408.601
24.91000 409.144
24.92000 406.501
24.93000 404.009
24.94000 399.818
24.95000 390.629
24.96000 381.113
24.97000 377.848
24.98000 387.145
24.99000 396.796
25.00000 402.364
25.01000 400.711
25.02000 399.528
25.03000 399.909
25.04000 401.671
25.05000 403.341
25.06000 399.441
25.07000 392.272
25.08000 385.339
25.09000 387.694
25.10000 393.423
25.11000 399.050
25.12000 403.573
25.13000 407.794
25.14000 411.032
25.15000 407.895
25.16000 403.614
25.17000 400.087
25.18000 401.066
25.19000 402.286
25.20000 402.050
25.21000 397.678
25.22000 393.053
25.23000 389.227
25.24000 386.948
25.25000 384.709
25.26000 383.439
25.27000 390.227
25.28000 394.977
25.29000 399.827
25.30000 404.762
25.31000 409.610
25.32000 409.901
25.33000 407.611
25.34000 405.403
25.35000 399.177
25.36000 391.862
25.37000 385.250
25.38000 385.828
25.39000 388.291
25.40000 389.883
25.41000 386.063
25.42000 381.310
25.43000 377.423
25.44000 392.455
25.45000 406.413
25.46000 414.978
25.47000 408.742
25.48000 401.657
25.49000 398.400
25.50000 402.310
25.51000 406.385
25.52000 408.658
25.53000 399.618
25.54000 393.345
25.55000 389.950
25.56000 388.902
25.57000 387.979
25.58000 392.903
25.59000 401.023
25.60000 408.831
25.61000 400.279
25.62000 386.547
25.63000 374.371
25.64000 377.335
25.65000 384.123
25.66000 389.896
25.67000 389.621
25.68000 388.345
25.69000 387.309
25.70000 391.127
25.71000 394.639
25.72000 396.949
25.73000 396.073
25.74000 395.025
25.75000 394.782
25.76000 395.991
25.77000 397.229
25.78000 397.908
25.79000 401.848
25.80000 404.546
25.81000 402.581
25.82000 396.953
25.83000 391.456
25.84000 391.490
25.85000 394.443
25.86000 397.273
25.87000 399.446
25.88000 401.253
25.89000 402.968
25.90000 403.828
25.91000 404.480
25.92000 405.163
25.93000 406.024
25.94000 406.913
25.95000 407.629
25.96000 401.951
25.97000 396.845
25.98000 392.849
25.99000 391.696
26.00000 390.685
26.01000 391.231
26.02000 394.493
26.03000 397.806
26.04000 399.588
26.05000 387.238
26.06000 378.827
26.07000 379.838
26.08000 387.974
26.09000 395.987
26.10000 399.367
26.11000 400.387
26.12000 401.361
26.13000 400.537
26.14000 399.188
26.15000 397.209
26.16000 389.663
26.17000 380.810
26.18000 373.064
26.19000 371.398
26.20000 370.658
26.21000 370.066
26.22000 379.741
26.23000 388.312
26.24000 393.941
26.25000 392.298
26.26000 390.318
26.27000 387.771
26.28000 384.273
26.29000 380.759
26.30000 378.903
26.31000 377.489
26.32000 376.529
26.33000 375.555
26.34000 374.572
26.35000 373.694
26.36000 376.410
26.37000 380.893
26.38000 385.164
26.39000 387.492
26.40000 389.045
26.41000 389.277
26.42000 378.392
26.43000 364.994
26.44000 354.822
26.45000 361.686
26.46000 371.035
26.47000 378.441
26.48000 381.495
26.49000 383.647
26.50000 386.247
26.51000 389.914
26.52000 393.628
26.53000 390.533
26.54000 376.384
26.55000 362.080
26.56000 354.668
26.57000 359.279
26.58000 362.385
26.59000 364.398
26.60000 365.644
26.61000 366.901
26.62000 368.477
26.63000 370.204
26.64000 371.844
26.65000 377.634
26.66000 384.219
26.67000 389.982
26.68000 389.134
26.69000 386.847
26.70000 384.848
26.71000 384.301
26.72000 383.958
26.73000 383.688
26.74000 376.408
26.75000 370.123
26.76000 365.468
26.77000 364.572
26.78000 363.825
26.79000 365.225
26.80000 369.985
26.81000 374.786
26.82000 377.225
26.83000 377.284
26.84000 377.277
26.85000 372.082
26.86000 363.380
26.87000 355.036
26.88000 356.954
26.89000 363.578
26.90000 369.843
26.91000 373.895
26.92000 376.984
26.93000 379.518
26.94000 377.790
26.95000 375.170
26.96000 372.152
26.97000 367.187
26.98000 361.962
26.99000 357.893
27.00000 363.708
27.01000 368.949
27.02000 371.310
27.03000 367.260
27.04000 362.974
27.05000 361.989
27.06000 365.988
27.07000 370.038
27.08000 371.738
27.09000 371.108
27.10000 370.457
27.11000 367.736
27.12000 363.667
27.13000 359.930
27.14000 364.920
27.15000 373.776
27.16000 382.123
27.17000 378.908
27.18000 372.768
27.19000 368.119
27.20000 374.415
27.21000 382.917
27.22000 388.398
27.23000 379.681
27.24000 369.149
27.25000 361.022
27.26000 359.950
27.27000 359.509
27.28000 361.876
27.29000 370.274
27.30000 378.875
27.31000 384.473
27.32000 385.698
27.33000 386.886
27.34000 383.315
27.35000 375.217
27.36000 367.254
27.37000 369.894
27.38000 379.202
27.39000 387.961
27.40000 383.382
27.41000 373.101
27.42000 363.446
27.43000 354.403
27.44000 346.319
27.45000 340.397
27.46000 349.680
27.47000 361.908
27.48000 371.441
27.49000 368.781
27.50000 364.633
27.51000 361.461
27.52000 357.997
27.53000 355.248
27.54000 353.213
27.55000 352.659
27.56000 352.151
27.57000 353.870
27.58000 358.713
27.59000 363.577
27.60000 360.578
27.61000 350.395
27.62000 340.413
27.63000 344.087
27.64000 356.045
27.65000 367.671
27.66000 371.861
27.67000 372.980
27.68000 374.027
27.69000 367.875
27.70000 360.449
27.71000 353.830
27.72000 352.638
27.73000 352.457
27.74000 352.515
27.75000 353.616
27.76000 354.840
27.77000 355.766
27.78000 358.637
27.79000 360.990
27.80000 363.573
27.81000 366.616
27.82000 369.673
27.83000 370.470
27.84000 368.215
27.85000 365.943
27.86000 360.792
27.87000 353.120
27.88000 345.560
27.89000 344.628
27.90000 347.574
27.91000 350.484
27.92000 352.634
27.93000 354.481
27.94000 356.201
27.95000 353.490
27.96000 349.952
27.97000 347.218
27.98000 349.682
27.99000 353.075
28.00000 356.140
28.01000 357.826
28.02000 359.359
28.03000 360.509
28.04000 357.709
28.05000 355.334
28.06000 357.062
28.07000 366.729
28.08000 376.597
28.09000 379.689
28.10000 373.958
28.11000 368.196
28.12000 363.346
28.13000 359.276
28.14000 355.286
28.15000 355.480
28.16000 358.037
28.17000 360.583
28.18000 362.896
28.19000 365.121
28.20000 367.184
28.21000 361.997
28.22000 355.617
28.23000 349.912
28.24000 348.387
28.25000 347.581
28.26000 346.679
28.27000 345.392
28.28000 344.064
28.29000 343.078
28.30000 350.637
28.31000 356.894
28.32000 359.962
28.33000 357.077
28.34000 354.057
28.35000 352.791
28.36000 353.722
28.37000 354.659
28.38000 354.153
28.39000 352.479
28.40000 350.863
28.41000 351.912
28.42000 354.413
28.43000 356.874
28.44000 358.620
28.45000 360.100
28.46000 361.468
28.47000 360.869
28.48000 359.887
28.49000 358.226
28.50000 352.532
28.51000 346.172
28.52000 340.553
28.53000 337.822
28.54000 335.382
28.55000 333.587
28.56000 336.488
28.57000 338.925
28.58000 342.093
28.59000 346.576
28.60000 351.086
28.61000 355.077
28.62000 358.442
28.63000 361.798
28.64000 359.334
28.65000 352.350
28.66000 345.467
28.67000 342.798
28.68000 342.346
28.69000 342.007
28.70000 343.569
28.71000 345.815
28.72000 347.880
28.73000 355.637
28.74000 363.803
28.75000 369.277
28.76000 359.403
28.77000 347.101
28.78000 338.145
28.79000 341.766
28.80000 346.591
28.81000 350.104
28.82000 351.660
28.83000 352.783
28.84000 353.397
28.85000 353.124
28.86000 352.836
28.87000 352.267
28.88000 351.374
28.89000 350.482
28.90000 350.958
28.91000 352.453
28.92000 353.963
28.93000 356.056
28.94000 358.443
28.95000 360.296
28.96000 353.628
28.97000 344.008
28.98000 335.199
28.99000 337.684
29.00000 342.245
29.01000 346.188
29.02000 346.753
29.03000 346.805
29.04000 346.560
29.05000 345.238
29.06000 343.818
29.07000 342.795
29.08000 353.991
29.09000 363.000
29.10000 366.050
29.11000 359.097
29.12000 351.986
29.13000 347.866
29.14000 347.082
29.15000 346.303
29.16000 345.186
29.17000 343.835
29.18000 342.629
29.19000 346.326
29.20000 352.428
29.21000 357.707
29.22000 350.682
29.23000 339.541
29.24000 329.387
29.25000 331.526
29.26000 335.875
29.27000 340.613
29.28000 347.401
29.29000 354.487
29.30000 358.899
29.31000 353.959
29.32000 348.214
29.33000 344.119
29.34000 347.108
29.35000 349.617
29.36000 351.950
29.37000 353.995
29.38000 356.037
29.39000 357.412
29.40000 358.072
29.41000 358.729
29.42000 356.320
29.43000 351.813
29.44000 347.440
29.45000 347.206
29.46000 348.933
29.47000 350.523
29.48000 350.187
29.49000 349.229
29.50000 348.360
29.51000 347.773
29.52000 347.310
29.53000 347.682
29.54000 352.276
29.55000 357.458
29.56000 359.060
29.57000 348.583
29.58000 337.122
29.59000 329.043
29.60000 328.109
29.61000 327.616
29.62000 327.488
29.63000 327.933
29.64000 328.385
29.65000 329.926
29.66000 332.589
29.67000 335.238
29.68000 341.442
29.69000 349.932
29.70000 357.986
29.71000 353.618
29.72000 343.571
29.73000 334.365
29.74000 336.322
29.75000 341.759
29.76000 346.665
29.77000 351.645
29.78000 356.032
29.79000 359.298
29.80000 357.102
29.81000 354.179
29.82000 351.373
29.83000 348.947
29.84000 346.551
29.85000 344.880
29.86000 345.499
29.87000 346.030
29.88000 346.265
29.89000 346.055
29.90000 345.841
29.91000 352.202
29.92000 365.059
29.93000 377.831
29.94000 376.767
29.95000 366.859
29.96000 357.311
29.97000 357.173
29.98000 361.188
29.99000 364.920
30.00000 365.087
30.01000 364.181
30.02000 363.367
30.03000 366.904
30.04000 370.763
30.05000 373.428
30.06000 370.506
30.07000 366.873
30.08000 364.704
30.09000 367.131
30.10000 369.893
30.11000 371.796
30.12000 373.247
30.13000 374.326
30.14000 374.275
30.15000 372.587
30.16000 370.884
30.17000 369.287
30.18000 367.790
30.19000 366.304
30.20000 363.657
30.21000 360.340
30.22000 356.991
30.23000 352.897
30.24000 348.485
30.25000 345.051
30.26000 353.219
30.27000 364.755
30.28000 375.059
30.29000 375.843
30.30000 374.925
30.31000 373.806
30.32000 371.783
30.33000 369.651
30.34000 366.093
30.35000 358.214
30.36000 350.038
30.37000 344.472
30.38000 344.617
30.39000 344.856
30.40000 345.528
30.41000 346.805
30.42000 348.087
30.43000 352.630
30.44000 360.145
30.45000 367.589
30.46000 365.643
30.47000 358.168
30.48000 350.888
30.49000 347.923
30.50000 346.736
30.51000 345.774
30.52000 347.349
30.53000 349.635
30.54000 351.665
30.55000 349.383
30.56000 346.710
30.57000 345.536
30.58000 350.870
30.59000 356.960
30.60000 360.295
30.61000 355.570
30.62000 350.325
30.63000 346.798
30.64000 350.852
30.65000 354.020
30.66000 358.620
30.67000 365.148
30.68000 371.679
30.69000 370.521
30.70000 362.627
30.71000 354.818
30.72000 353.425
30.73000 355.725
30.74000 358.030
30.75000 360.473
30.76000 362.971
30.77000 365.378
30.78000 366.819
30.79000 367.999
30.80000 369.042
30.81000 373.120
30.82000 377.108
30.83000 380.044
30.84000 378.575
30.85000 376.618
30.86000 374.823
30.87000 373.485
30.88000 372.174
30.89000 371.304
30.90000 387.421
30.91000 399.650
30.92000 406.097
30.93000 405.042
30.94000 403.958
30.95000 404.084
30.96000 405.227
30.97000 406.357
30.98000 412.590
30.99000 421.465
31.00000 430.155
31.01000 435.289
31.02000 439.057
31.03000 443.705
31.04000 457.277
31.05000 473.172
31.06000 487.135
31.07000 503.489
31.08000 517.901
31.09000 532.308
31.10000 546.702
31.11000 561.095
31.12000 574.074
31.13000 583.195
31.14000 592.098
31.15000 597.935
31.16000 633.005
31.17000 659.278
31.18000 688.243
31.19000 720.570
31.20000 752.896
31.21000 780.971
31.22000 805.599
31.23000 829.885
31.24000 858.155
31.25000 887.732
31.26000 917.179
31.27000 944.293
31.28000 970.541
31.29000 996.437
31.30000 1018.933
31.31000 1040.576
31.32000 1059.476
31.33000 1076.793
31.34000 1091.391
31.35000 1105.311
31.36000 1116.589
31.37000 1127.603
31.38000 1132.235
31.39000 1120.055
31.40000 1106.984
31.41000 1098.527
31.42000 1084.481
31.43000 1074.125
31.44000 1062.285
31.45000 1048.662
31.46000 1035.023
31.47000 1018.220
31.48000 998.946
31.49000 979.974
31.50000 952.637
31.51000 921.897
31.52000 890.994
31.53000 857.344
31.54000 822.711
31.55000 788.569
31.56000 758.948
31.57000 730.420
31.58000 705.656
31.59000 682.733
31.60000 663.447
31.61000 641.743
31.62000 610.976
31.63000 579.345
31.64000 552.578
31.65000 538.183
31.66000 524.400
31.67000 515.602
31.68000 510.325
31.69000 506.532
31.70000 495.488
31.71000 476.061
31.72000 456.668
31.73000 446.518
31.74000 443.314
31.75000 440.165
31.76000 430.020
31.77000 416.798
31.78000 404.203
31.79000 401.520
31.80000 402.263
31.81000 402.269
31.82000 395.826
31.83000 387.878
31.84000 381.022
31.85000 381.920
31.86000 383.676
31.87000 384.438
31.88000 381.606
31.89000 378.448
31.90000 374.061
31.91000 366.655
31.92000 359.109
31.93000 354.359
31.94000 358.148
31.95000 360.985
31.96000 360.081
31.97000 355.017
31.98000 349.963
31.99000 347.094
32.00000 345.806
32.01000 344.542
32.02000 345.709
32.03000 347.977
32.04000 350.224
32.05000 352.149
32.06000 353.967
32.07000 354.720
32.08000 346.584
32.09000 336.452
32.10000 327.767
32.11000 328.311
32.12000 329.901
32.13000 331.441
32.14000 332.811
32.15000 334.166
32.16000 332.997
32.17000 325.838
32.18000 318.423
32.19000 313.822
32.20000 323.098
32.21000 329.909
32.22000 332.953
32.23000 331.975
32.24000 330.986
32.25000 328.767
32.26000 325.689
32.27000 322.677
32.28000 323.852
32.29000 326.876
32.30000 329.807
32.31000 331.429
32.32000 332.628
32.33000 333.482
32.34000 331.578
32.35000 329.077
32.36000 326.947
32.37000 330.065
32.38000 333.297
32.39000 335.773
32.40000 335.705
32.41000 335.430
32.42000 333.474
32.43000 327.663
32.44000 321.700
32.45000 318.053
32.46000 314.149
32.47000 311.352
32.48000 314.570
32.49000 323.956
32.50000 333.249
32.51000 332.574
32.52000 325.197
32.53000 317.995
32.54000 316.834
32.55000 318.358
32.56000 319.274
32.57000 312.157
32.58000 302.542
32.59000 294.975
32.60000 303.012
32.61000 314.295
32.62000 323.841
32.63000 320.534
32.64000 316.339
32.65000 312.080
32.66000 307.611
32.67000 303.126
32.68000 301.203
32.69000 304.949
32.70000 308.901
32.71000 311.282
32.72000 317.994
32.73000 322.800
32.74000 319.776
32.75000 309.042
32.76000 298.467
32.77000 302.127
32.78000 315.012
32.79000 327.562
32.80000 337.211
32.81000 345.192
32.82000 353.411
32.83000 364.604
32.84000 376.689
32.85000 389.073
32.86000 403.641
32.87000 418.646
32.88000 431.255
32.89000 443.291
32.90000 453.258
32.91000 464.253
32.92000 478.463
32.93000 492.906
32.94000 503.894
32.95000 507.502
32.96000 510.865
32.97000 512.860
32.98000 508.054
32.99000 504.614
33.00000 500.130
33.01000 494.658
33.02000 489.172
33.03000 482.591
33.04000 475.326
33.05000 468.269
33.06000 452.783
33.07000 434.670
33.08000 416.742
33.09000 401.016
33.10000 385.927
33.11000 371.885
33.12000 365.153
33.13000 359.828
33.14000 355.384
33.15000 341.188
33.16000 328.433
33.17000 318.388
33.18000 316.531
33.19000 315.234
33.20000 312.481
33.21000 306.724
33.22000 300.875
33.23000 297.460
33.24000 291.106
33.25000 286.625
33.26000 286.777
33.27000 291.137
33.28000 295.437
33.29000 295.735
33.30000 293.621
33.31000 291.572
33.32000 295.497
33.33000 301.535
33.34000 306.842
33.35000 303.969
33.36000 298.812
33.37000 294.286
33.38000 293.980
33.39000 294.456
33.40000 294.849
33.41000 288.855
33.42000 283.297
33.43000 281.153
33.44000 288.973
33.45000 297.433
33.46000 304.452
33.47000 308.602
33.48000 312.673
33.49000 315.012
33.50000 309.654
33.51000 305.875
33.52000 299.334
33.53000 290.380
33.54000 281.524
33.55000 278.289
33.56000 278.325
33.57000 278.359
33.58000 284.061
33.59000 291.557
33.60000 298.371
33.61000 297.941
33.62000 295.560
33.63000 293.547
33.64000 293.888
33.65000 294.647
33.66000 295.271
33.67000 290.976
33.68000 287.001
33.69000 284.233
33.70000 284.867
33.71000 285.706
33.72000 287.677
33.73000 291.827
33.74000 296.031
33.75000 298.406
33.76000 292.733
33.77000 288.782
33.78000 292.920
33.79000 303.851
33.80000 314.544
33.81000 313.014
33.82000 304.623
33.83000 296.536
33.84000 297.630
33.85000 301.960
33.86000 305.822
33.87000 304.954
33.88000 302.857
33.89000 300.954
33.90000 300.249
33.91000 299.748
33.92000 299.339
33.93000 298.945
33.94000 298.623
33.95000 298.987
33.96000 301.212
33.97000 303.543
33.98000 306.285
33.99000 309.792
34.00000 313.316
34.01000 315.274
34.02000 317.129
34.03000 318.407
34.04000 317.973
34.05000 316.158
34.06000 314.389
34.07000 314.790
34.08000 316.365
34.09000 317.878
34.10000 318.461
34.11000 318.684
34.12000 318.898
34.13000 319.038
34.14000 319.159
34.15000 318.960
34.16000 316.882
34.17000 314.496
34.18000 312.563
34.19000 307.300
34.20000 302.743
34.21000 301.373
34.22000 308.374
34.23000 315.817
34.24000 320.675
34.25000 320.906
34.26000 321.044
34.27000 321.119
34.28000 326.176
34.29000 329.645
34.30000 330.378
34.31000 328.984
34.32000 327.574
34.33000 325.543
34.34000 323.187
34.35000 320.931
34.36000 323.190
34.37000 326.801
34.38000 330.815
34.39000 338.519
34.40000 347.112
34.41000 353.664
34.42000 348.651
34.43000 341.822
34.44000 336.334
34.45000 340.336
34.46000 344.310
34.47000 342.756
34.48000 327.182
34.49000 310.919
34.50000 304.324
34.51000 314.444
34.52000 324.859
34.53000 330.438
34.54000 316.306
34.55000 306.687
34.56000 305.469
34.57000 310.543
34.58000 315.454
34.59000 314.358
34.60000 310.228
34.61000 306.286
34.62000 304.547
34.63000 303.638
34.64000 303.263
34.65000 307.546
34.66000 312.911
34.67000 316.941
34.68000 313.711
34.69000 309.386
34.70000 305.939
34.71000 297.157
34.72000 289.684
34.73000 284.647
34.74000 285.579
34.75000 286.784
34.76000 286.392
34.77000 283.337
34.78000 280.241
34.79000 278.613
34.80000 286.878
34.81000 292.441
34.82000 290.859
34.83000 284.121
34.84000 277.438
34.85000 272.549
34.86000 268.536
34.87000 264.716
34.88000 271.790
34.89000 281.693
34.90000 290.095
34.91000 286.011
34.92000 279.132
34.93000 273.891
34.94000 277.219
34.95000 281.784
34.96000 285.392
34.97000 283.909
34.98000 282.370
34.99000 281.215
35.00000 280.969
35.01000 280.761
35.02000 278.920
35.03000 274.452
35.04000 269.949
35.05000 267.626
35.06000 272.935
35.07000 276.488
35.08000 276.959
35.09000 275.287
35.10000 273.524
35.11000 268.962
35.12000 263.084
35.13000 257.507
35.14000 263.305
35.15000 272.019
35.16000 279.717
35.17000 279.352
35.18000 277.249
35.19000 275.707
35.20000 276.986
35.21000 278.653
35.22000 279.960
35.23000 271.782
35.24000 264.634
35.25000 260.579
35.26000 263.592
35.27000 266.881
35.28000 266.709
35.29000 261.165
35.30000 255.560
35.31000 252.726
35.32000 250.504
35.33000 249.065
35.34000 252.667
35.35000 259.649
35.36000 266.453
35.37000 268.298
35.38000 267.888
35.39000 267.500
35.40000 264.479
35.41000 260.954
35.42000 257.553
35.43000 255.084
35.44000 252.810
35.45000 251.497
35.46000 254.836
35.47000 258.790
35.48000 261.861
35.49000 264.229
35.50000 266.069
35.51000 268.966
35.52000 274.195
35.53000 279.507
35.54000 281.629
35.55000 278.974
35.56000 276.273
35.57000 270.815
35.58000 262.652
35.59000 254.584
35.60000 254.845
35.61000 260.488
35.62000 266.013
35.63000 268.485
35.64000 269.618
35.65000 270.685
35.66000 264.910
35.67000 257.756
35.68000 251.023
35.69000 247.354
35.70000 244.297
35.71000 242.504
35.72000 246.595
35.73000 251.430
35.74000 255.153
35.75000 256.100
35.76000 256.691
35.77000 256.801
35.78000 255.887
35.79000 254.939
35.80000 255.839
35.81000 259.404
35.82000 262.991
35.83000 261.908
35.84000 256.428
35.85000 251.043
35.86000 252.897
35.87000 259.261
35.88000 265.479
35.89000 268.213
35.90000 269.471
35.91000 270.651
35.92000 268.285
35.93000 265.198
35.94000 262.207
35.95000 259.881
35.96000 257.684
35.97000 255.762
35.98000 255.073
35.99000 254.533
36.00000 254.122
36.01000 249.682
36.02000 245.970
36.03000 244.617
36.04000 248.118
36.05000 251.765
36.06000 253.287
36.07000 251.855
36.08000 250.405
36.09000 254.704
36.10000 264.201
36.11000 273.551
36.12000 273.289
36.13000 267.247
36.14000 261.417
36.15000 260.266
36.16000 261.029
36.17000 261.743
36.18000 260.383
36.19000 258.626
36.20000 257.165
36.21000 257.678
36.22000 258.556
36.23000 259.462
36.24000 260.497
36.25000 261.546
36.26000 262.339
36.27000 257.635
36.28000 253.672
36.29000 251.160
36.30000 251.530
36.31000 251.978
36.32000 251.045
36.33000 248.262
36.34000 245.472
36.35000 246.309
36.36000 250.295
36.37000 254.179
36.38000 252.190
36.39000 246.794
36.40000 241.631
36.41000 241.217
36.42000 242.680
36.43000 244.042
36.44000 246.703
36.45000 249.423
36.46000 251.619
36.47000 250.475
36.48000 248.738
36.49000 248.035
36.50000 251.633
36.51000 255.704
36.52000 258.750
36.53000 253.771
36.54000 249.511
36.55000 245.819
36.56000 243.217
36.57000 240.642
36.58000 240.764
36.59000 244.363
36.60000 247.972
36.61000 248.024
36.62000 245.105
36.63000 242.250
36.64000 242.655
36.65000 244.883
36.66000 247.322
36.67000 253.773
36.68000 261.756
36.69000 269.154
36.70000 267.336
36.71000 263.552
36.72000 259.975
36.73000 257.673
36.74000 255.587
36.75000 254.722
36.76000 258.746
36.77000 263.281
36.78000 266.642
36.79000 266.743
36.80000 266.679
36.81000 265.187
36.82000 261.053
36.83000 256.860
36.84000 254.258
36.85000 253.634
36.86000 253.015
36.87000 256.852
36.88000 264.246
36.89000 271.469
36.90000 270.976
36.91000 266.314
36.92000 262.106
36.93000 265.963
36.94000 272.794
36.95000 279.098
36.96000 277.798
36.97000 274.932
36.98000 273.254
36.99000 278.559
37.00000 285.004
37.01000 290.231
37.02000 290.758
37.03000 290.816
37.04000 290.859
37.05000 284.636
37.06000 279.573
37.07000 275.590
37.08000 273.534
37.09000 271.516
37.10000 268.585
37.11000 264.564
37.12000 260.550
37.13000 263.650
37.14000 272.216
37.15000 280.491
37.16000 276.915
37.17000 267.159
37.18000 257.834
37.19000 255.690
37.20000 256.103
37.21000 256.482
37.22000 259.150
37.23000 262.022
37.24000 264.580
37.25000 265.363
37.26000 265.868
37.27000 266.296
37.28000 266.437
37.29000 266.551
37.30000 266.634
37.31000 261.445
37.32000 257.257
37.33000 254.574
37.34000 254.487
37.35000 254.445
37.36000 253.638
37.37000 251.954
37.38000 250.273
37.39000 251.473
37.40000 254.799
37.41000 258.113
37.42000 260.970
37.43000 263.598
37.44000 266.088
37.45000 266.428
37.46000 266.029
37.47000 265.663
37.48000 260.075
37.49000 254.032
37.50000 249.303
37.51000 251.694
37.52000 255.154
37.53000 257.521
37.54000 255.959
37.55000 254.046
37.56000 252.670
37.57000 254.910
37.58000 256.750
37.59000 262.198
37.60000 273.649
37.61000 285.192
37.62000 284.301
37.63000 269.680
37.64000 255.106
37.65000 251.508
37.66000 255.765
37.67000 259.837
37.68000 257.771
37.69000 252.722
37.70000 248.236
37.71000 252.042
37.72000 258.600
37.73000 264.569
37.74000 258.974
37.75000 251.739
37.76000 246.701
37.77000 253.111
37.78000 261.167
37.79000 266.373
37.80000 261.707
37.81000 256.203
37.82000 252.290
37.83000 248.471
37.84000 245.566
37.85000 243.889
37.86000 244.180
37.87000 244.498
37.88000 244.652
37.89000 244.633
37.90000 244.614
37.91000 246.309
37.92000 249.161
37.93000 251.848
37.94000 249.579
37.95000 244.983
37.96000 240.656
37.97000 240.071
37.98000 240.684
37.99000 241.240
38.00000 247.008
38.01000 253.078
38.02000 257.678
38.03000 254.913
38.04000 251.134
38.05000 248.825
38.06000 251.426
38.07000 254.421
38.08000 256.527
38.09000 263.584
38.10000 269.075
38.11000 270.120
38.12000 264.288
38.13000 258.377
38.14000 255.202
38.15000 254.815
38.16000 254.430
38.17000 256.091
38.18000 259.078
38.19000 262.002
38.20000 263.204
38.21000 263.625
38.22000 264.124
38.23000 265.659
38.24000 267.514
38.25000 269.187
38.26000 269.705
38.27000 269.951
38.28000 269.833
38.29000 267.959
38.30000 265.854
38.31000 267.078
38.32000 279.039
38.33000 291.817
38.34000 300.696
38.35000 307.245
38.36000 312.117
38.37000 317.565
38.38000 323.873
38.39000 330.188
38.40000 341.029
38.41000 356.296
38.42000 371.457
38.43000 387.224
38.44000 403.128
38.45000 419.100
38.46000 436.786
38.47000 455.223
38.48000 473.550
38.49000 490.510
38.50000 507.061
38.51000 521.903
38.52000 545.875
38.53000 568.408
38.54000 594.049
38.55000 634.111
38.56000 675.987
38.57000 713.405
38.58000 736.944
38.59000 759.487
38.60000 774.972
38.61000 795.531
38.62000 811.071
38.63000 835.644
38.64000 873.205
38.65000 910.866
38.66000 940.496
38.67000 962.582
38.68000 984.487
38.69000 1000.722
38.70000 1013.206
38.71000 1025.567
38.72000 1035.008
38.73000 1043.216
38.74000 1050.445
38.75000 1046.211
38.76000 1038.678
38.77000 1031.960
38.78000 999.999
38.79000 967.993
38.80000 938.839
38.81000 922.427
38.82000 907.547
38.83000 888.235
38.84000 855.607
38.85000 822.081
38.86000 799.327
38.87000 746.376
38.88000 706.203
38.89000 673.644
38.90000 651.638
38.91000 629.695
38.92000 601.834
38.93000 568.633
38.94000 535.750
38.95000 506.644
38.96000 480.355
38.97000 454.343
38.98000 434.397
38.99000 416.926
39.00000 399.095
39.01000 377.267
39.02000 354.330
39.03000 333.982
39.04000 323.975
39.05000 316.954
39.06000 309.010
39.07000 297.096
39.08000 284.728
39.09000 274.612
39.10000 271.030
39.11000 267.864
39.12000 265.741
39.13000 262.116
39.14000 259.395
39.15000 255.169
39.16000 248.934
39.17000 242.695
39.18000 241.860
39.19000 245.712
39.20000 249.522
39.21000 251.265
39.22000 251.801
39.23000 252.158
39.24000 248.893
39.25000 244.199
39.26000 239.578
39.27000 235.718
39.28000 232.061
39.29000 228.834
39.30000 225.855
39.31000 223.323
39.32000 221.977
39.33000 225.545
39.34000 229.650
39.35000 232.486
39.36000 231.767
39.37000 230.837
39.38000 230.222
39.39000 237.680
39.40000 243.332
39.41000 244.793
39.42000 240.865
39.43000 236.923
39.44000 236.104
39.45000 237.892
39.46000 239.657
39.47000 237.844
39.48000 234.133
39.49000 230.799
39.50000 234.608
39.51000 241.136
39.52000 246.904
39.53000 245.058
39.54000 241.247
39.55000 237.904
39.56000 234.963
39.57000 232.496
39.58000 229.621
39.59000 225.116
39.60000 220.441
39.61000 218.743
39.62000 225.097
39.63000 231.900
39.64000 236.346
39.65000 241.329
39.66000 244.998
39.67000 246.362
39.68000 244.875
39.69000 243.374
39.70000 240.029
39.71000 235.201
39.72000 230.443
39.73000 229.324
39.74000 230.140
39.75000 230.914
39.76000 230.931
39.77000 230.670
39.78000 230.308
39.79000 228.990
39.80000 227.435
39.81000 226.078
39.82000 223.834
39.83000 221.792
39.84000 220.137
39.85000 219.971
39.86000 219.953
39.87000 221.255
39.88000 226.004
39.89000 230.934
39.90000 234.112
39.91000 230.051
39.92000 226.981
39.93000 224.287
39.94000 222.042
39.95000 219.805
39.96000 219.273
39.97000 220.060
39.98000 220.834
39.99000 221.363
40.00000 221.752
40.01000 222.082
40.02000 221.432
40.03000 220.435
40.04000 220.054
40.05000 225.262
40.06000 231.811
40.07000 237.486
40.08000 237.684
40.09000 237.125
40.10000 235.677
40.11000 230.929
40.12000 225.871
40.13000 221.614
40.14000 219.379
40.15000 217.241
40.16000 215.881
40.17000 216.347
40.18000 216.708
40.19000 218.483
40.20000 221.878
40.21000 225.259
40.22000 225.679
40.23000 223.895
40.24000 222.143
40.25000 222.132
40.26000 222.964
40.27000 223.641
40.28000 221.902
40.29000 219.335
40.30000 217.012
40.31000 216.793
40.32000 217.061
40.33000 217.291
40.34000 218.208
40.35000 219.073
40.36000 221.195
40.37000 227.821
40.38000 234.849
40.39000 237.894
40.40000 231.240
40.41000 224.148
40.42000 219.699
40.43000 216.967
40.44000 215.012
40.45000 212.930
40.46000 210.709
40.47000 208.520
40.48000 211.361
40.49000 217.808
40.50000 224.125
40.51000 224.731
40.52000 222.650
40.53000 220.597
40.54000 218.966
40.55000 217.473
40.56000 216.096
40.57000 215.669
40.58000 215.454
40.59000 215.270
40.60000 213.086
40.61000 211.001
40.62000 210.541
40.63000 215.691
40.64000 221.314
40.65000 222.825
40.66000 214.660
40.67000 206.092
40.68000 200.793
40.69000 208.363
40.70000 213.923
40.71000 217.220
40.72000 218.124
40.73000 219.016
40.74000 218.380
40.75000 216.689
40.76000 215.035
40.77000 215.782
40.78000 217.576
40.79000 219.365
40.80000 221.088
40.81000 222.789
40.82000 224.218
40.83000 223.500
40.84000 222.322
40.85000 221.321
40.86000 222.967
40.87000 224.655
40.88000 224.753
40.89000 219.555
40.90000 213.934
40.91000 210.090
40.92000 210.283
40.93000 210.631
40.94000 210.844
40.95000 206.945
40.96000 204.126
40.97000 207.403
40.98000 216.870
40.99000 226.260
41.00000 227.934
41.01000 224.469
41.02000 221.088
41.03000 215.883
41.04000 210.122
41.05000 204.623
41.06000 202.540
41.07000 201.510
41.08000 201.286
41.09000 207.138
41.10000 214.242
41.11000 220.242
41.12000 218.988
41.13000 217.143
41.14000 214.749
41.15000 210.589
41.16000 206.295
41.17000 202.410
41.18000 199.422
41.19000 196.467
41.20000 194.693
41.21000 203.323
41.22000 209.525
41.23000 211.523
41.24000 209.424
41.25000 207.314
41.26000 204.231
41.27000 200.525
41.28000 196.917
41.29000 199.878
41.30000 205.428
41.31000 210.462
41.32000 209.127
41.33000 205.900
41.34000 202.981
41.35000 202.288
41.36000 202.036
41.37000 201.824
41.38000 204.850
41.39000 207.705
41.40000 210.533
41.41000 213.276
41.42000 216.014
41.43000 214.967
41.44000 205.906
41.45000 196.585
41.46000 191.077
41.47000 191.312
41.48000 191.511
41.49000 194.897
41.50000 201.266
41.51000 207.542
41.52000 206.920
41.53000 202.025
41.54000 197.273
41.55000 199.244
41.56000 203.803
41.57000 207.824
41.58000 205.553
41.59000 201.478
41.60000 198.286
41.61000 201.187
41.62000 205.250
41.63000 208.635
41.64000 210.929
41.65000 212.721
41.66000 213.671
41.67000 212.095
41.68000 210.349
41.69000 209.308
41.70000 209.709
41.71000 210.153
41.72000 210.411
41.73000 207.294
41.74000 205.090
41.75000 203.821
41.76000 203.394
41.77000 202.940
41.78000 200.750
41.79000 197.522
41.80000 194.397
41.81000 196.974
41.82000 201.607
41.83000 206.012
41.84000 207.905
41.85000 209.102
41.86000 210.228
41.87000 210.883
41.88000 211.453
41.89000 211.924
41.90000 209.042
41.91000 206.350
41.92000 204.534
41.93000 205.255
41.94000 206.136
41.95000 206.347
41.96000 205.235
41.97000 204.088
41.98000 203.432
41.99000 198.820
42.00000 195.588
42.01000 194.045
42.02000 193.962
42.03000 193.882
42.04000 193.943
42.05000 194.085
42.06000 194.223
42.07000 198.640
42.08000 204.386
42.09000 210.118
42.10000 215.701
42.11000 221.245
42.12000 225.293
42.13000 219.861
42.14000 212.761
42.15000 206.933
42.16000 205.321
42.17000 204.376
42.18000 205.335
42.19000 211.614
42.20000 218.209
42.21000 220.502
42.22000 214.596
42.23000 208.491
42.24000 205.056
42.25000 210.076
42.26000 213.571
42.27000 211.924
42.28000 205.998
42.29000 200.241
42.30000 202.816
42.31000 210.027
42.32000 216.971
42.33000 217.912
42.34000 216.655
42.35000 215.146
42.36000 211.114
42.37000 206.432
42.38000 202.826
42.39000 205.753
42.40000 209.785
42.41000 213.069
42.42000 211.786
42.43000 210.352
42.44000 208.475
42.45000 205.405
42.46000 202.269
42.47000 202.830
42.48000 210.194
42.49000 217.706
42.50000 221.859
42.51000 212.971
42.52000 206.830
42.53000 205.627
42.54000 208.374
42.55000 210.996
42.56000 208.083
42.57000 202.197
42.58000 196.546
42.59000 198.009
42.60000 201.817
42.61000 205.257
42.62000 205.213
42.63000 204.305
42.64000 202.931
42.65000 198.836
42.66000 194.299
42.67000 190.632
42.68000 200.785
42.69000 210.152
42.70000 216.057
42.71000 212.948
42.72000 209.373
42.73000 206.195
42.74000 203.722
42.75000 201.264
42.76000 199.929
42.77000 204.043
42.78000 206.855
42.79000 206.040
42.80000 202.430
42.81000 198.964
42.82000 201.260
42.83000 206.544
42.84000 211.601
42.85000 211.038
42.86000 208.662
42.87000 206.403
42.88000 205.204
42.89000 204.258
42.90000 204.036
42.91000 207.862
42.92000 212.318
42.93000 215.892
42.94000 213.281
42.95000 210.699
42.96000 208.742
42.97000 208.359
42.98000 208.051
42.99000 205.553
43.00000 199.303
43.01000 192.989
43.02000 189.622
43.03000 189.363
43.04000 189.195
43.05000 190.339
43.06000 192.456
43.07000 194.571
43.08000 196.619
43.09000 198.633
43.10000 200.555
43.11000 204.648
43.12000 209.137
43.13000 212.357
43.14000 204.648
43.15000 194.422
43.16000 185.419
43.17000 182.996
43.18000 181.553
43.19000 180.406
43.20000 181.658
43.21000 182.838
43.22000 186.556
43.23000 196.434
43.24000 206.588
43.25000 210.352
43.26000 203.551
43.27000 196.592
43.28000 192.951
43.29000 194.999
43.30000 196.379
43.31000 196.419
43.32000 195.502
43.33000 194.626
43.34000 195.127
43.35000 196.293
43.36000 197.402
43.37000 196.956
43.38000 196.071
43.39000 195.300
43.40000 195.471
43.41000 195.850
43.42000 196.113
43.43000 195.771
43.44000 195.343
43.45000 195.005
43.46000 200.754
43.47000 205.776
43.48000 207.218
43.49000 200.263
43.50000 192.960
43.51000 188.133
43.52000 187.257
43.53000 186.431
43.54000 186.007
43.55000 192.604
43.56000 197.008
43.57000 197.337
43.58000 194.860
43.59000 192.418
43.60000 191.042
43.61000 190.163
43.62000 189.330
43.63000 187.427
43.64000 185.361
43.65000 184.100
43.66000 189.166
43.67000 195.583
43.68000 199.791
43.69000 193.000
43.70000 184.707
43.71000 178.221
43.72000 188.195
43.73000 197.204
43.74000 202.393
43.75000 198.931
43.76000 195.138
43.77000 191.596
43.78000 188.441
43.79000 185.290
43.80000 183.706
43.81000 185.843
43.82000 187.304
43.83000 192.175
43.84000 199.308
43.85000 206.078
43.86000 202.868
43.87000 195.161
43.88000 187.884
43.89000 189.408
43.90000 193.286
43.91000 196.472
43.92000 194.454
43.93000 191.367
43.94000 189.054
43.95000 190.453
43.96000 192.338
43.97000 193.798
43.98000 191.675
43.99000 189.774
44.00000 188.872
44.01000 190.151
44.02000 191.508
44.03000 191.279
44.04000 188.699
44.05000 186.098
44.06000 184.450
44.07000 183.727
44.08000 183.058
44.09000 186.998
44.10000 193.888
44.11000 200.418
44.12000 197.844
44.13000 191.308
44.14000 185.159
44.15000 185.744
44.16000 188.102
44.17000 190.151
44.18000 189.979
44.19000 189.368
44.20000 188.348
44.21000 185.434
44.22000 182.285
44.23000 179.865
44.24000 178.444
44.25000 177.376
44.26000 176.089
44.27000 174.337
44.28000 172.570
44.29000 174.655
44.30000 182.245
44.31000 189.876
44.32000 194.230
44.33000 195.526
44.34000 196.832
44.35000 198.910
44.36000 201.464
44.37000 203.994
44.38000 205.976
44.39000 207.728
44.40000 209.369
44.41000 204.787
44.42000 198.996
44.43000 194.500
44.44000 198.910
44.45000 205.011
44.46000 210.166
44.47000 211.119
44.48000 211.572
44.49000 211.916
44.50000 210.157
44.51000 208.662
44.52000 208.070
44.53000 209.320
44.54000 210.625
44.55000 211.315
44.56000 211.161
44.57000 211.002
44.58000 211.822
44.59000 213.520
44.60000 215.143
44.61000 212.059
44.62000 206.170
44.63000 200.677
44.64000 203.718
44.65000 210.222
44.66000 216.294
44.67000 212.946
44.68000 207.556
44.69000 203.409
44.70000 207.459
44.71000 213.005
44.72000 218.540
44.73000 224.027
44.74000 229.508
44.75000 233.642
44.76000 232.632
44.77000 231.589
44.78000 230.097
44.79000 227.724
44.80000 225.327
44.81000 226.500
44.82000 232.409
44.83000 238.337
44.84000 239.797
44.85000 237.412
44.86000 235.052
44.87000 234.115
44.88000 233.995
44.89000 233.965
44.90000 235.740
44.91000 238.222
44.92000 240.530
44.93000 243.969
44.94000 247.346
44.95000 250.343
44.96000 250.939
44.97000 251.115
44.98000 252.100
44.99000 256.416
45.00000 261.094
45.01000 264.588
45.02000 259.496
45.03000 255.133
45.04000 253.813
45.05000 258.276
45.06000 262.878
45.07000 263.041
45.08000 257.534
45.09000 252.012
45.10000 251.472
45.11000 255.051
45.12000 258.570
45.13000 259.194
45.14000 258.210
45.15000 257.266
45.16000 257.051
45.17000 257.113
45.18000 257.171
45.19000 255.514
45.20000 253.630
45.21000 251.399
45.22000 247.068
45.23000 242.384
45.24000 239.658
45.25000 244.706
45.26000 250.557
45.27000 254.882
45.28000 246.778
45.29000 239.961
45.30000 234.975
45.31000 233.347
45.32000 231.792
45.33000 228.855
45.34000 224.219
45.35000 219.587
45.36000 218.797
45.37000 221.062
45.38000 223.235
45.39000 221.372
45.40000 217.348
45.41000 213.546
45.42000 213.647
45.43000 215.175
45.44000 216.583
45.45000 216.337
45.46000 215.750
45.47000 214.445
45.48000 208.961
45.49000 202.801
45.50000 198.637
45.51000 202.109
45.52000 206.330
45.53000 209.420
45.54000 203.900
45.55000 199.297
45.56000 198.726
45.57000 205.291
45.58000 211.992
45.59000 212.618
45.60000 206.058
45.61000 199.501
45.62000 197.575
45.63000 199.195
45.64000 200.773
45.65000 200.681
45.66000 199.726
45.67000 198.787
45.68000 198.115
45.69000 197.538
45.70000 197.008
45.71000 190.962
45.72000 184.399
45.73000 179.754
45.74000 185.826
45.75000 193.559
45.76000 198.678
45.77000 194.151
45.78000 188.725
45.79000 184.795
45.80000 191.889
45.81000 197.743
45.82000 199.256
45.83000 193.351
45.84000 187.321
45.85000 184.603
45.86000 185.653
45.87000 186.703
45.88000 186.272
45.89000 184.758
45.90000 183.252
45.91000 182.018
45.92000 180.920
45.93000 179.929
45.94000 180.574
45.95000 181.776
45.96000 182.875
45.97000 178.861
45.98000 174.257
45.99000 170.507
46.00000 171.345
46.01000 172.866
46.02000 174.775
46.03000 178.068
46.04000 181.484
46.05000 183.932
46.06000 182.389
46.07000 181.075
46.08000 178.722
46.09000 174.657
46.10000 170.566
46.11000 169.173
46.12000 170.730
46.13000 172.282
46.14000 176.080
46.15000 181.425
46.16000 186.595
46.17000 186.061
46.18000 182.779
46.19000 179.521
46.20000 176.598
46.21000 173.785
46.22000 171.227
46.23000 172.210
46.24000 173.770
46.25000 174.620
46.26000 171.802
46.27000 168.464
46.28000 165.858
46.29000 165.772
46.30000 165.896
46.31000 165.985
46.32000 173.389
46.33000 179.249
46.34000 181.099
46.35000 176.575
46.36000 171.969
46.37000 170.291
46.38000 171.687
46.39000 173.076
46.40000 173.475
46.41000 173.196
46.42000 173.004
46.43000 175.383
46.44000 178.959
46.45000 182.060
46.46000 178.691
46.47000 173.267
46.48000 168.361
46.49000 172.104
46.50000 177.019
46.51000 180.666
46.52000 178.023
46.53000 174.523
46.54000 172.359
46.55000 174.623
46.56000 177.238
46.57000 179.071
46.58000 177.195
46.59000 175.669
46.60000 175.506
46.61000 177.433
46.62000 179.383
46.63000 177.854
46.64000 172.817
46.65000 167.811
46.66000 165.219
46.67000 164.240
46.68000 163.423
46.69000 167.027
46.70000 172.618
46.71000 177.792
46.72000 177.599
46.73000 175.763
46.74000 174.109
46.75000 179.345
46.76000 185.170
46.77000 189.077
46.78000 183.827
46.79000 177.383
46.80000 172.667
46.81000 173.471
46.82000 174.689
46.83000 175.533
46.84000 177.569
46.85000 179.134
46.86000 178.245
46.87000 173.730
46.88000 169.181
46.89000 165.584
46.90000 162.908
46.91000 160.252
46.92000 163.791
46.93000 171.164
46.94000 178.210
46.95000 177.086
46.96000 172.415
46.97000 168.017
46.98000 166.926
46.99000 166.814
47.00000 166.714
47.01000 162.635
47.02000 158.390
47.03000 155.784
47.04000 160.703
47.05000 166.558
47.06000 170.907
47.07000 170.611
47.08000 169.987
47.09000 169.559
47.10000 166.360
47.11000 163.898
47.12000 163.192
47.13000 164.990
47.14000 166.806
47.15000 167.043
47.16000 165.812
47.17000 164.592
47.18000 161.161
47.19000 156.459
47.20000 152.118
47.21000 156.148
47.22000 163.685
47.23000 170.347
47.24000 166.893
47.25000 160.555
47.26000 154.909
47.27000 158.633
47.28000 163.411
47.29000 167.033
47.30000 165.542
47.31000 163.443
47.32000 161.295
47.33000 159.000
47.34000 156.695
47.35000 155.135
47.36000 153.847
47.37000 152.893
47.38000 155.436
47.39000 162.779
47.40000 170.145
47.41000 170.384
47.42000 164.256
47.43000 158.188
47.44000 158.206
47.45000 161.762
47.46000 165.127
47.47000 164.400
47.48000 162.017
47.49000 159.921
47.50000 160.976
47.51000 162.898
47.52000 164.600
47.53000 163.350
47.54000 161.803
47.55000 160.766
47.56000 161.896
47.57000 163.273
47.58000 162.489
47.59000 155.496
47.60000 148.114
47.61000 143.181
47.62000 148.265
47.63000 152.230
47.64000 153.749
47.65000 152.035
47.66000 150.311
47.67000 151.270
47.68000 154.535
47.69000 157.762
47.70000 160.570
47.71000 163.075
47.72000 165.269
47.73000 161.251
47.74000 154.806
47.75000 149.133
47.76000 151.497
47.77000 155.993
47.78000 159.953
47.79000 165.023
47.80000 169.558
47.81000 171.757
47.82000 164.363
47.83000 155.933
47.84000 150.713
47.85000 154.403
47.86000 158.616
47.87000 161.396
47.88000 165.521
47.89000 168.585
47.90000 170.030
47.91000 169.413
47.92000 168.788
47.93000 167.752
47.94000 166.375
47.95000 165.016
47.96000 163.393
47.97000 161.670
47.98000 159.954
47.99000 158.352
48.00000 156.795
48.01000 155.198
48.02000 153.218
48.03000 151.140
48.04000 149.319
48.05000 150.729
48.06000 152.403
48.07000 154.720
48.08000 159.583
48.09000 164.708
48.10000 167.112
48.11000 162.223
48.12000 156.934
48.13000 153.489
48.14000 149.411
48.15000 146.411
48.16000 147.120
48.17000 152.376
48.18000 157.640
48.19000 161.727
48.20000 164.878
48.21000 167.982
48.22000 165.073
48.23000 159.134
48.24000 153.586
48.25000 154.848
48.26000 158.591
48.27000 162.342
48.28000 166.176
48.29000 170.031
48.30000 173.387
48.31000 168.320
48.32000 162.835
48.33000 158.420
48.34000 158.082
48.35000 158.143
48.36000 156.337
48.37000 149.702
48.38000 142.819
48.39000 138.395
48.40000 152.103
48.41000 162.354
48.42000 166.491
48.43000 163.422
48.44000 160.345
48.45000 158.438
48.46000 157.425
48.47000 156.429
48.48000 154.511
48.49000 152.196
48.50000 150.325
48.51000 155.695
48.52000 163.611
48.53000 170.626
48.54000 169.552
48.55000 166.556
48.56000 163.964
48.57000 159.488
48.58000 155.434
48.59000 152.533
48.60000 153.869
48.61000 155.600
48.62000 156.940
48.63000 157.306
48.64000 157.626
48.65000 157.828
48.66000 152.130
48.67000 147.924
48.68000 147.227
48.69000 150.507
48.70000 153.788
48.71000 156.672
48.72000 159.264
48.73000 161.807
48.74000 162.232
48.75000 161.626
48.76000 161.044
48.77000 160.828
48.78000 160.737
48.79000 160.382
48.80000 157.760
48.81000 154.620
48.82000 151.920
48.83000 150.664
48.84000 149.781
48.85000 149.061
48.86000 148.915
48.87000 148.821
48.88000 148.757
48.89000 148.769
48.90000 148.784
48.91000 148.793
48.92000 151.442
48.93000 153.382
48.94000 154.475
48.95000 154.645
48.96000 154.817
48.97000 155.167
48.98000 155.644
48.99000 156.110
49.00000 158.955
49.01000 162.787
49.02000 166.167
49.03000 163.012
49.04000 157.714
49.05000 153.226
49.06000 155.349
49.07000 158.928
49.08000 161.986
49.09000 157.850
49.10000 153.506
49.11000 151.751
49.12000 158.860
49.13000 166.708
49.14000 171.325
49.15000 168.409
49.16000 165.184
49.17000 163.197
49.18000 155.880
49.19000 150.581
49.20000 148.617
49.21000 150.143
49.22000 151.650
49.23000 150.812
49.24000 148.370
49.25000 145.983
49.26000 144.493
49.27000 143.463
49.28000 142.944
49.29000 149.369
49.30000 157.991
49.31000 165.045
49.32000 159.883
49.33000 152.129
49.34000 145.547
49.35000 146.509
49.36000 148.174
49.37000 149.550
49.38000 149.970
49.39000 150.315
49.40000 151.016
49.41000 152.517
49.42000 154.048
49.43000 154.978
49.44000 155.675
49.45000 156.171
49.46000 156.462
49.47000 156.548
49.48000 156.602
49.49000 153.568
49.50000 148.496
49.51000 143.550
49.52000 142.267
49.53000 142.608
49.54000 142.892
49.55000 142.446
49.56000 141.778
49.57000 141.764
49.58000 146.619
49.59000 152.468
49.60000 157.399
49.61000 153.699
49.62000 149.675
49.63000 145.939
49.64000 143.125
49.65000 140.379
49.66000 141.213
49.67000 149.833
49.68000 158.722
49.69000 164.037
49.70000 156.335
49.71000 150.788
49.72000 147.897
49.73000 147.570
49.74000 147.270
49.75000 149.217
49.76000 152.594
49.77000 155.879
49.78000 151.931
49.79000 145.197
49.80000 139.028
49.81000 139.727
49.82000 142.451
49.83000 144.776
49.84000 144.259
49.85000 143.185
49.86000 142.285
49.87000 144.436
49.88000 146.539
49.89000 149.393
49.90000 154.562
49.91000 159.893
49.92000 162.637
49.93000 159.946
49.94000 157.083
49.95000 155.398
49.96000 149.900
49.97000 146.003
49.98000 145.182
49.99000 147.212
50.00000 149.238
50.01000 151.028
50.02000 152.672
50.03000 154.267
50.04000 152.447
50.05000 149.367
50.06000 146.468
50.07000 145.631
50.08000 145.382
50.09000 145.085
50.10000 144.471
50.11000 143.796
50.12000 143.235
50.13000 144.516
50.14000 145.756
50.15000 146.808
50.16000 147.301
50.17000 147.757
50.18000 147.775
50.19000 146.904
50.20000 146.007
50.21000 145.488
50.22000 151.698
50.23000 156.078
50.24000 156.014
50.25000 151.992
50.26000 147.990
50.27000 145.220
50.28000 143.178
50.29000 141.203
50.30000 140.677
50.31000 140.733
50.32000 141.256
50.33000 146.869
50.34000 153.878
50.35000 160.014
50.36000 160.438
50.37000 159.826
50.38000 159.320
50.39000 161.768
50.40000 164.059
50.41000 164.734
50.42000 160.775
50.43000 156.528
50.44000 154.484
50.45000 156.751
50.46000 159.131
50.47000 160.487
50.48000 162.170
50.49000 163.345
50.50000 164.777
50.51000 166.428
50.52000 168.029
50.53000 166.871
50.54000 164.137
50.55000 161.498
50.56000 163.044
50.57000 166.034
50.58000 168.722
50.59000 168.271
50.60000 166.990
50.61000 165.766
50.62000 164.898
50.63000 164.093
50.64000 163.433
50.65000 167.338
50.66000 170.943
50.67000 172.245
50.68000 167.173
50.69000 161.729
50.70000 157.931
50.71000 157.244
50.72000 156.630
50.73000 156.286
50.74000 163.478
50.75000 168.472
50.76000 169.637
50.77000 167.648
50.78000 165.796
50.79000 170.567
50.80000 178.991
50.81000 187.098
50.82000 187.128
50.83000 184.307
50.84000 181.288
50.85000 176.317
50.86000 170.847
50.87000 165.611
50.88000 161.776
50.89000 158.176
50.90000 155.249
50.91000 162.304
50.92000 168.897
50.93000 172.390
50.94000 167.600
50.95000 162.358
50.96000 157.240
50.97000 152.347
50.98000 147.459
50.99000 144.768
51.00000 148.002
51.01000 150.238
51.02000 152.278
51.03000 154.162
51.04000 155.962
51.05000 154.153
51.06000 150.421
51.07000 146.842
51.08000 145.885
51.09000 145.881
51.10000 145.784
51.11000 144.819
51.12000 143.641
51.13000 142.663
51.14000 142.844
51.15000 143.211
51.16000 143.507
51.17000 144.106
51.18000 144.617
51.19000 146.500
51.20000 151.922
51.21000 157.525
51.22000 159.504
51.23000 155.105
51.24000 150.587
51.25000 148.145
51.26000 153.229
51.27000 156.690
51.28000 153.836
51.29000 146.161
51.30000 138.655
51.31000 137.736
51.32000 140.202
51.33000 142.559
51.34000 143.220
51.35000 143.280
51.36000 143.261
51.37000 142.527
51.38000 141.623
51.39000 141.358
51.40000 144.635
51.41000 148.457
51.42000 151.515
51.43000 147.862
51.44000 144.405
51.45000 141.821
51.46000 141.409
51.47000 141.101
51.48000 139.969
51.49000 137.439
51.50000 134.886
51.51000 133.531
51.52000 135.640
51.53000 137.077
51.54000 138.409
51.55000 139.665
51.56000 140.916
51.57000 141.976
51.58000 142.943
51.59000 143.864
51.60000 143.631
51.61000 143.053
51.62000 142.388
51.63000 140.980
51.64000 139.402
51.65000 137.732
51.66000 135.568
51.67000 133.330
51.68000 131.554
51.69000 133.798
51.70000 135.889
51.71000 137.208
51.72000 136.672
51.73000 136.054
51.74000 136.922
51.75000 140.225
51.76000 143.562
51.77000 145.300
51.78000 140.160
51.79000 136.713
51.80000 137.279
51.81000 140.686
51.82000 143.999
51.83000 144.280
51.84000 143.108
51.85000 141.995
51.86000 138.944
51.87000 135.540
51.88000 132.302
51.89000 130.411
51.90000 128.815
51.91000 127.370
51.92000 126.698
51.93000 126.135
51.94000 125.692
51.95000 133.271
51.96000 139.877
51.97000 144.151
51.98000 143.004
51.99000 141.637
52.00000 141.421
52.01000 143.023
52.02000 144.647
52.03000 145.477
52.04000 142.397
52.05000 140.337
52.06000 139.266
52.07000 138.871
52.08000 138.486
52.09000 138.419
52.10000 138.500
52.11000 138.575
52.12000 141.391
52.13000 144.778
52.14000 147.282
52.15000 142.933
52.16000 137.135
52.17000 132.590
52.18000 134.219
52.19000 136.682
52.20000 138.604
52.21000 137.091
52.22000 135.669
52.23000 135.570
52.24000 138.440
52.25000 141.422
52.26000 143.815
52.27000 145.311
52.28000 146.798
52.29000 147.542
52.30000 152.173
52.31000 155.190
52.32000 151.410
52.33000 143.158
52.34000 135.112
52.35000 132.603
52.36000 132.568
52.37000 132.535
52.38000 133.735
52.39000 135.179
52.40000 136.523
52.41000 137.121
52.42000 137.567
52.43000 137.890
52.44000 137.628
52.45000 137.291
52.46000 137.031
52.47000 135.732
52.48000 134.641
52.49000 135.916
52.50000 142.320
52.51000 148.901
52.52000 151.002
52.53000 146.522
52.54000 141.984
52.55000 139.280
52.56000 138.341
52.57000 137.415
52.58000 137.586
52.59000 138.454
52.60000 139.196
52.61000 136.849
52.62000 133.168
52.63000 129.709
52.64000 133.460
52.65000 138.820
52.66000 143.022
52.67000 139.008
52.68000 133.386
52.69000 128.842
52.70000 129.220
52.71000 130.206
52.72000 130.962
52.73000 133.821
52.74000 136.195
52.75000 137.271
52.76000 135.630
52.77000 133.903
52.78000 132.508
52.79000 131.583
52.80000 130.662
52.81000 130.813
52.82000 131.953
52.83000 133.086
52.84000 133.736
52.85000 134.090
52.86000 134.430
52.87000 134.431
52.88000 134.292
52.89000 134.162
52.90000 132.747
52.91000 131.130
52.92000 129.960
52.93000 131.832
52.94000 134.275
52.95000 136.639
52.96000 138.653
52.97000 140.627
52.98000 142.125
52.99000 140.301
53.00000 138.696
53.01000 137.653
53.02000 137.745
53.03000 137.870
53.04000 138.132
53.05000 138.581
53.06000 139.030
53.07000 139.207
53.08000 139.143
53.09000 139.153
53.10000 143.632
53.11000 150.750
53.12000 157.575
53.13000 158.181
53.14000 156.286
53.15000 154.518
53.16000 153.946
53.17000 153.724
53.18000 153.452
53.19000 152.849
53.20000 152.188
53.21000 151.358
53.22000 149.818
53.23000 148.198
53.24000 146.979
53.25000 143.553
53.26000 140.767
53.27000 140.555
53.28000 145.365
53.29000 150.306
53.30000 153.054
53.31000 152.921
53.32000 152.775
53.33000 152.833
53.34000 153.065
53.35000 153.289
53.36000 153.139
53.37000 152.777
53.38000 152.324
53.39000 150.076
53.40000 147.132
53.41000 144.397
53.42000 151.561
53.43000 160.376
53.44000 167.120
53.45000 160.921
53.46000 152.476
53.47000 146.599
53.48000 151.204
53.49000 156.931
53.50000 161.197
53.51000 154.357
53.52000 148.531
53.53000 144.747
53.54000 144.810
53.55000 144.962
53.56000 147.244
53.57000 152.218
53.58000 157.194
53.59000 156.846
53.60000 152.142
53.61000 147.476
53.62000 144.613
53.63000 142.742
53.64000 141.008
53.65000 141.817
53.66000 143.578
53.67000 145.207
53.68000 143.254
53.69000 140.683
53.70000 138.161
53.71000 135.932
53.72000 133.753
53.73000 134.102
53.74000 144.400
53.75000 155.711
53.76000 164.053
53.77000 155.737
53.78000 148.595
53.79000 142.947
53.80000 140.012
53.81000 137.134
53.82000 135.410
53.83000 135.091
53.84000 134.775
53.85000 136.071
53.86000 138.628
53.87000 141.143
53.88000 141.891
53.89000 141.700
53.90000 141.531
53.91000 141.749
53.92000 142.108
53.93000 142.438
53.94000 144.000
53.95000 145.667
53.96000 146.723
53.97000 144.263
53.98000 141.241
53.99000 138.222
54.00000 135.217
54.01000 132.214
54.02000 130.022
54.03000 133.613
54.04000 136.607
54.05000 139.892
54.06000 143.689
54.07000 147.496
54.08000 146.873
54.09000 141.062
54.10000 135.258
54.11000 135.877
54.12000 141.347
54.13000 146.593
54.14000 143.209
54.15000 135.403
54.16000 127.976
54.17000 126.687
54.18000 127.544
54.19000 128.329
54.20000 128.434
54.21000 128.384
54.22000 129.165
54.23000 134.544
54.24000 140.627
54.25000 144.978
54.26000 142.991
54.27000 140.422
54.28000 138.566
54.29000 141.235
54.30000 143.445
54.31000 143.440
54.32000 139.684
54.33000 135.867
54.34000 133.952
54.35000 134.179
54.36000 134.407
54.37000 134.631
54.38000 134.849
54.39000 135.009
54.40000 133.135
54.41000 130.255
54.42000 127.783
54.43000 131.508
54.44000 137.326
54.45000 142.634
54.46000 139.801
54.47000 135.647
54.48000 132.157
54.49000 132.196
54.50000 132.752
54.51000 132.992
54.52000 132.116
54.53000 131.142
54.54000 130.446
54.55000 134.995
54.56000 138.642
54.57000 139.848
54.58000 137.070
54.59000 134.235
54.60000 132.658
54.61000 132.441
54.62000 132.226
54.63000 131.769
54.64000 131.148
54.65000 130.612
54.66000 132.806
54.67000 136.302
54.68000 139.551
54.69000 139.274
54.70000 137.847
54.71000 136.551
54.72000 135.092
54.73000 133.771
54.74000 133.805
54.75000 140.761
54.76000 148.689
54.77000 153.321
54.78000 146.730
54.79000 139.211
54.80000 133.896
54.81000 134.143
54.82000 134.501
54.83000 134.581
54.84000 134.225
54.85000 133.863
54.86000 137.446
54.87000 145.131
54.88000 152.777
54.89000 152.102
54.90000 145.842
54.91000 139.715
54.92000 137.448
54.93000 136.960
54.94000 136.611
54.95000 138.123
54.96000 140.222
54.97000 142.118
54.98000 141.628
54.99000 140.756
55.00000 140.405
55.01000 142.620
55.02000 145.181
55.03000 146.674
55.04000 144.659
55.05000 142.370
55.06000 140.771
55.07000 142.130
55.08000 143.241
55.09000 145.738
55.10000 150.342
55.11000 154.968
55.12000 156.090
55.13000 153.717
55.14000 151.358
55.15000 150.695
55.16000 151.136
55.17000 151.546
55.18000 151.100
55.19000 150.272
55.20000 149.591
55.21000 150.764
55.22000 152.501
55.23000 154.062
55.24000 148.698
55.25000 142.771
55.26000 138.651
55.27000 143.079
55.28000 148.607
55.29000 153.503
55.30000 156.395
55.31000 159.140
55.32000 161.036
55.33000 163.519
55.34000 165.400
55.35000 164.176
55.36000 158.404
55.37000 152.593
55.38000 151.700
55.39000 155.519
55.40000 159.309
55.41000 163.337
55.42000 167.444
55.43000 171.604
55.44000 177.056
55.45000 183.064
55.46000 188.834
55.47000 191.739
55.48000 193.805
55.49000 195.653
55.50000 199.080
55.51000 202.336
55.52000 206.183
55.53000 212.719
55.54000 219.586
55.55000 225.835
55.56000 230.195
55.57000 234.424
55.58000 237.311
55.59000 249.506
55.60000 258.845
55.61000 265.924
55.62000 269.814
55.63000 273.682
55.64000 279.133
55.65000 286.041
55.66000 292.887
55.67000 307.552
55.68000 326.611
55.69000 345.201
55.70000 353.125
55.71000 356.619
55.72000 361.249
55.73000 378.836
55.74000 400.085
55.75000 418.986
55.76000 441.014
55.77000 460.645
55.78000 478.461
55.79000 488.322
55.80000 497.248
55.81000 505.561
55.82000 512.066
55.83000 518.451
55.84000 522.758
55.85000 534.580
55.86000 543.535
55.87000 554.943
55.88000 569.689
55.89000 584.449
55.90000 593.756
55.91000 598.240
55.92000 602.678
55.93000 607.368
55.94000 612.099
55.95000 616.317
55.96000 609.698
55.97000 598.733
55.98000 588.347
55.99000 584.226
56.00000 581.813
56.01000 579.678
56.02000 582.062
56.03000 584.826
56.04000 584.448
56.05000 570.806
56.06000 555.679
56.07000 540.815
56.08000 526.699
56.09000 512.629
56.10000 503.255
56.11000 473.803
56.12000 451.621
56.13000 432.809
56.14000 418.412
56.15000 404.045
56.16000 395.643
56.17000 392.317
56.18000 389.030
56.19000 376.635
56.20000 359.498
56.21000 342.586
56.22000 330.094
56.23000 319.313
56.24000 308.665
56.25000 299.385
56.26000 290.466
56.27000 282.620
56.28000 273.496
56.29000 265.455
56.30000 257.247
56.31000 248.365
56.32000 239.410
56.33000 230.777
56.34000 223.030
56.35000 215.334
56.36000 210.273
56.37000 202.473
56.38000 196.683
56.39000 193.903
56.40000 194.917
56.41000 195.933
56.42000 192.088
56.43000 184.265
56.44000 176.548
56.45000 171.225
56.46000 167.324
56.47000 163.501
56.48000 161.085
56.49000 159.197
56.50000 157.254
56.51000 154.781
56.52000 152.175
56.53000 149.895
56.54000 151.503
56.55000 153.435
56.56000 153.394
56.57000 145.619
56.58000 137.060
56.59000 130.863
56.60000 130.943
56.61000 131.363
56.62000 131.635
56.63000 136.792
56.64000 140.643
56.65000 144.329
56.66000 147.812
56.67000 151.280
56.68000 150.254
56.69000 145.688
56.70000 141.192
56.71000 139.657
56.72000 139.689
56.73000 139.839
56.74000 142.025
56.75000 144.947
56.76000 147.210
56.77000 143.357
56.78000 138.010
56.79000 133.361
56.80000 131.369
56.81000 130.030
56.82000 128.013
56.83000 123.427
56.84000 118.594
56.85000 117.174
56.86000 124.513
56.87000 132.291
56.88000 137.273
56.89000 135.857
56.90000 134.739
56.91000 136.264
56.92000 140.873
56.93000 145.462
56.94000 144.471
56.95000 139.247
56.96000 134.113
56.97000 131.126
56.98000 129.298
56.99000 127.431
57.00000 124.937
57.01000 122.224
57.02000 119.921
57.03000 121.240
57.04000 123.412
57.05000 125.288
57.06000 123.911
57.07000 122.319
57.08000 120.910
57.09000 120.171
57.10000 119.492
57.11000 119.298
57.12000 120.303
57.13000 121.364
57.14000 122.034
57.15000 124.488
57.16000 126.286
57.17000 126.184
57.18000 123.947
57.19000 121.719
57.20000 121.231
57.21000 122.015
57.22000 122.784
57.23000 122.484
57.24000 121.688
57.25000 120.992
57.26000 121.825
57.27000 123.171
57.28000 124.509
57.29000 125.777
57.30000 127.029
57.31000 128.104
57.32000 128.416
57.33000 128.585
57.34000 128.325
57.35000 126.553
57.36000 124.649
57.37000 123.484
57.38000 124.086
57.39000 124.765
57.40000 125.188
57.41000 131.421
57.42000 135.972
57.43000 137.032
57.44000 134.326
57.45000 131.617
57.46000 128.673
57.47000 125.565
57.48000 122.522
57.49000 124.560
57.50000 128.841
57.51000 132.874
57.52000 133.378
57.53000 132.734
57.54000 132.033
57.55000 130.867
57.56000 129.600
57.57000 128.519
57.58000 128.221
57.59000 128.062
57.60000 127.984
57.61000 128.178
57.62000 128.395
57.63000 128.031
57.64000 126.328
57.65000 124.571
57.66000 123.492
57.67000 123.576
57.68000 123.647
57.69000 123.380
57.70000 122.764
57.71000 122.165
57.72000 123.489
57.73000 126.117
57.74000 128.683
57.75000 126.069
57.76000 121.285
57.77000 117.010
57.78000 119.558
57.79000 124.246
57.80000 128.179
57.81000 126.296
57.82000 123.192
57.83000 120.561
57.84000 117.091
57.85000 114.090
57.86000 113.359
57.87000 120.057
57.88000 127.334
57.89000 132.267
57.90000 131.970
57.91000 131.481
57.92000 131.184
57.93000 126.089
57.94000 122.423
57.95000 121.111
57.96000 122.140
57.97000 123.159
57.98000 123.305
57.99000 122.879
58.00000 122.464
58.01000 125.098
58.02000 128.902
58.03000 132.452
58.04000 132.781
58.05000 132.135
58.06000 130.973
58.07000 126.010
58.08000 120.278
58.09000 115.453
58.10000 117.917
58.11000 120.752
58.12000 122.392
58.13000 120.256
58.14000 117.842
58.15000 117.695
58.16000 122.430
58.17000 127.330
58.18000 130.249
58.19000 127.777
58.20000 125.992
58.21000 122.389
58.22000 117.050
58.23000 111.777
58.24000 111.715
58.25000 114.940
58.26000 118.076
58.27000 119.257
58.28000 119.584
58.29000 119.734
58.30000 117.758
58.31000 115.163
58.32000 112.699
58.33000 111.167
58.34000 109.816
58.35000 108.687
58.36000 112.108
58.37000 115.411
58.38000 117.669
58.39000 116.741
58.40000 115.592
58.41000 115.480
58.42000 117.526
58.43000 119.639
58.44000 120.878
58.45000 120.865
58.46000 120.850
58.47000 121.765
58.48000 123.532
58.49000 125.266
58.50000 124.773
58.51000 122.926
58.52000 121.135
58.53000 118.758
58.54000 116.275
58.55000 114.149
58.56000 116.058
58.57000 119.104
58.58000 121.792
58.59000 122.062
58.60000 121.880
58.61000 121.729
58.62000 121.745
58.63000 121.774
58.64000 121.134
58.65000 118.524
58.66000 115.785
58.67000 114.308
58.68000 115.365
58.69000 116.493
58.70000 117.144
58.71000 115.141
58.72000 113.728
58.73000 112.564
58.74000 111.619
58.75000 110.723
58.76000 112.679
58.77000 116.309
58.78000 119.820
58.79000 120.103
58.80000 119.152
58.81000 118.083
58.82000 115.748
58.83000 113.068
58.84000 111.077
58.85000 113.546
58.86000 116.814
58.87000 119.507
58.88000 120.049
58.89000 120.298
58.90000 119.469
58.91000 115.578
58.92000 111.499
58.93000 110.705
58.94000 116.283
58.95000 122.024
58.96000 125.281
58.97000 119.660
58.98000 115.723
58.99000 113.142
59.00000 111.712
59.01000 110.349
59.02000 112.543
59.03000 116.753
59.04000 120.812
59.05000 123.116
59.06000 124.645
59.07000 125.988
59.08000 125.426
59.09000 124.366
59.10000 123.335
59.11000 122.491
59.12000 121.679
59.13000 121.016
59.14000 118.329
59.15000 115.954
59.16000 114.622
59.17000 116.157
59.18000 117.856
59.19000 117.126
59.20000 111.847
59.21000 106.464
59.22000 103.462
59.23000 109.223
59.24000 113.228
59.25000 116.970
59.26000 120.495
59.27000 123.984
59.28000 125.739
59.29000 126.546
59.30000 127.323
59.31000 126.558
59.32000 125.303
59.33000 123.954
59.34000 121.681
59.35000 119.176
59.36000 117.226
59.37000 118.583
59.38000 120.489
59.39000 122.035
59.40000 122.067
59.41000 121.969
59.42000 120.948
59.43000 117.481
59.44000 113.884
59.45000 112.596
59.46000 115.482
59.47000 118.454
59.48000 120.082
59.49000 115.109
59.50000 111.693
59.51000 112.357
59.52000 116.224
59.53000 119.985
59.54000 119.299
59.55000 116.266
59.56000 113.359
59.57000 113.580
59.58000 114.839
59.59000 116.111
59.60000 117.514
59.61000 118.949
59.62000 120.413
59.63000 122.040
59.64000 123.693
59.65000 125.025
59.66000 119.225
59.67000 113.963
59.68000 110.591
59.69000 112.055
59.70000 113.761
59.71000 116.044
59.72000 119.334
59.73000 122.641
59.74000 124.421
59.75000 121.733
59.76000 119.886
59.77000 117.030
59.78000 113.409
59.79000 109.816
59.80000 107.244
59.81000 105.193
59.82000 103.232
59.83000 105.111
59.84000 108.100
59.85000 111.048
59.86000 113.629
59.87000 116.124
59.88000 118.111
59.89000 117.307
59.90000 116.078
59.91000 115.096
59.92000 117.618
59.93000 119.912
59.94000 121.701
59.95000 122.239
59.96000 122.719
59.97000 122.379
59.98000 120.659
59.99000 118.917
60.00000 117.997
60.01000 121.217
60.02000 123.396
60.03000 123.826
60.04000 122.983
60.05000 122.110
60.06000 120.206
60.07000 117.796
60.08000 115.500
60.09000 117.371
60.10000 120.400
60.11000 122.830
60.12000 120.212
60.13000 116.453
60.14000 113.648
60.15000 115.879
60.16000 118.844
60.17000 121.192
60.18000 119.181
60.19000 117.261
60.20000 116.152
60.21000 116.976
60.22000 117.884
60.23000 117.970
60.24000 116.722
60.25000 115.455
60.26000 114.798
60.27000 119.627
60.28000 122.867
60.29000 123.570
60.30000 122.494
60.31000 121.362
60.32000 118.468
60.33000 114.738
60.34000 111.197
60.35000 109.586
60.36000 108.677
60.37000 108.112
60.38000 110.322
60.39000 113.135
60.40000 115.695
60.41000 116.972
60.42000 118.069
60.43000 118.931
60.44000 113.596
60.45000 108.922
60.46000 106.045
60.47000 107.314
60.48000 108.747
60.49000 110.945
60.50000 114.339
60.51000 117.747
60.52000 119.478
60.53000 111.474
60.54000 106.175
60.55000 108.039
60.56000 114.747
60.57000 121.259
60.58000 122.141
60.59000 120.442
60.60000 118.835
60.61000 117.823
60.62000 117.065
60.63000 116.626
60.64000 118.652
60.65000 121.194
60.66000 123.231
60.67000 122.804
60.68000 122.047
60.69000 121.457
60.70000 116.621
60.71000 112.507
60.72000 110.599
60.73000 113.598
60.74000 116.778
60.75000 118.814
60.76000 119.123
60.77000 119.414
60.78000 118.556
60.79000 116.557
60.80000 114.605
60.81000 116.887
60.82000 121.930
60.83000 126.797
60.84000 127.056
60.85000 125.275
60.86000 123.596
60.87000 121.122
60.88000 118.636
60.89000 116.630
60.90000 118.151
60.91000 120.383
60.92000 121.377
60.93000 116.554
60.94000 110.987
60.95000 106.692
60.96000 109.186
60.97000 111.555
60.98000 113.214
60.99000 113.343
61.00000 113.422
61.01000 115.148
61.02000 119.275
61.03000 123.422
61.04000 125.406
61.05000 125.333
61.06000 125.265
61.07000 125.621
61.08000 126.245
61.09000 126.807
61.10000 125.881
61.11000 124.318
61.12000 122.851
61.13000 122.296
61.14000 122.033
61.15000 121.779
61.16000 121.595
61.17000 121.424
61.18000 120.715
61.19000 117.572
61.20000 114.132
61.21000 111.502
61.22000 116.321
61.23000 120.527
61.24000 122.356
61.25000 119.254
61.26000 115.999
61.27000 114.705
61.28000 116.161
61.29000 117.636
61.30000 117.277
61.31000 115.243
61.32000 113.255
61.33000 114.381
61.34000 117.397
61.35000 120.291
61.36000 120.451
61.37000 119.481
61.38000 118.574
61.39000 123.671
61.40000 129.832
61.41000 135.104
61.42000 134.394
61.43000 132.569
61.44000 130.620
61.45000 128.130
61.46000 125.576
61.47000 123.641
61.48000 124.611
61.49000 125.520
61.50000 129.001
61.51000 137.635
61.52000 146.413
61.53000 157.764
61.54000 172.595
61.55000 187.436
61.56000 200.428
61.57000 211.778
61.58000 223.082
61.59000 231.700
61.60000 238.746
61.61000 245.811
61.62000 253.290
61.63000 260.934
61.64000 268.055
61.65000 271.142
61.66000 272.945
61.67000 274.606
61.68000 275.357
61.69000 275.944
61.70000 276.120
61.71000 274.573
61.72000 272.834
61.73000 271.529
61.74000 269.820
61.75000 268.466
61.76000 263.541
61.77000 251.712
61.78000 239.708
61.79000 227.717
61.80000 215.742
61.81000 203.779
61.82000 192.283
61.83000 181.212
61.84000 170.154
61.85000 159.757
61.86000 149.735
61.87000 139.873
61.88000 133.148
61.89000 127.631
61.90000 122.512
61.91000 123.185
61.92000 125.154
61.93000 127.128
61.94000 129.133
61.95000 131.143
61.96000 132.306
61.97000 130.042
61.98000 127.416
61.99000 125.464
62.00000 125.705
62.01000 125.989
62.02000 125.672
62.03000 124.232
62.04000 122.766
62.05000 121.566
62.06000 120.697
62.07000 119.831
62.08000 121.331
62.09000 124.742
62.10000 128.163
62.11000 132.073
62.12000 136.249
62.13000 140.142
62.14000 138.923
62.15000 135.802
62.16000 132.919
62.17000 132.197
62.18000 132.037
62.19000 131.876
62.20000 131.709
62.21000 131.541
62.22000 131.314
62.23000 130.860
62.24000 130.383
62.25000 130.032
62.26000 128.165
62.27000 126.657
62.28000 126.172
62.29000 127.528
62.30000 128.922
62.31000 129.397
62.32000 128.764
62.33000 128.129
62.34000 127.750
62.35000 127.572
62.36000 127.363
62.37000 125.899
62.38000 123.775
62.39000 121.785
62.40000 122.075
62.41000 123.184
62.42000 124.204
62.43000 125.348
62.44000 126.397
62.45000 126.954
62.46000 124.707
62.47000 122.016
62.48000 119.981
62.49000 120.411
62.50000 121.076
62.51000 121.561
62.52000 117.548
62.53000 114.286
62.54000 114.750
62.55000 121.694
62.56000 128.755
62.57000 132.590
62.58000 132.684
62.59000 132.772
62.60000 131.509
62.61000 129.242
62.62000 127.001
62.63000 125.709
62.64000 124.900
62.65000 124.312
62.66000 127.241
62.67000 131.390
62.68000 135.188
62.69000 136.173
62.70000 136.464
62.71000 136.435
62.72000 134.653
62.73000 132.604
62.74000 130.886
62.75000 130.364
62.76000 129.951
62.77000 129.653
62.78000 126.538
62.79000 124.052
62.80000 121.905
62.81000 120.325
62.82000 118.754
62.83000 117.345
62.84000 116.118
62.85000 114.895
62.86000 119.637
62.87000 128.629
62.88000 137.361
62.89000 137.232
62.90000 132.757
62.91000 128.579
62.92000 128.826
62.93000 130.554
62.94000 132.128
62.95000 130.681
62.96000 128.796
62.97000 127.012
62.98000 125.762
62.99000 124.590
63.00000 124.270
63.01000 126.931
63.02000 129.850
63.03000 131.929
63.04000 126.721
63.05000 122.513
63.06000 122.009
63.07000 127.502
63.08000 133.077
63.09000 133.504
63.10000 128.415
63.11000 123.348
63.12000 124.594
63.13000 130.196
63.14000 135.645
63.15000 136.367
63.16000 134.850
63.17000 133.365
63.18000 132.322
63.19000 131.421
63.20000 130.605
63.21000 132.061
63.22000 133.780
63.23000 134.595
63.24000 130.839
63.25000 126.447
63.26000 123.272
63.27000 124.202
63.28000 125.467
63.29000 126.358
63.30000 131.731
63.31000 135.941
63.32000 136.557
63.33000 131.562
63.34000 126.501
63.35000 123.611
63.36000 122.954
63.37000 122.302
63.38000 125.182
63.39000 130.376
63.40000 135.332
63.41000 133.515
63.42000 128.601
63.43000 124.167
63.44000 126.110
63.45000 130.039
63.46000 133.586
63.47000 135.952
63.48000 137.814
63.49000 139.378
63.50000 139.495
63.51000 139.420
63.52000 139.121
63.53000 138.095
63.54000 137.014
63.55000 136.260
63.56000 135.300
63.57000 134.571
63.58000 134.782
63.59000 136.411
63.60000 138.054
63.61000 137.626
63.62000 135.152
63.63000 132.694
63.64000 130.993
63.65000 129.801
63.66000 128.692
63.67000 129.721
63.68000 131.695
63.69000 133.622
63.70000 134.955
63.71000 136.111
63.72000 137.148
63.73000 138.084
63.74000 138.885
63.75000 139.678
63.76000 140.430
63.77000 141.178
63.78000 142.102
63.79000 143.581
63.80000 145.101
63.81000 146.147
63.82000 141.891
63.83000 138.562
63.84000 136.833
63.85000 137.426
63.86000 138.039
63.87000 139.946
63.88000 143.082
63.89000 146.193
63.90000 142.611
63.91000 134.970
63.92000 127.733
63.93000 130.230
63.94000 136.877
63.95000 143.174
63.96000 145.311
63.97000 146.241
63.98000 147.071
63.99000 146.190
64.00000 145.135
64.01000 143.859
64.02000 141.591
64.03000 139.202
64.04000 137.276
64.05000 136.751
64.06000 136.323
64.07000 136.031
64.08000 140.994
64.09000 144.822
64.10000 146.957
64.11000 146.726
64.12000 146.478
64.13000 145.430
64.14000 143.651
64.15000 141.889
64.16000 142.473
64.17000 144.434
64.18000 146.345
64.19000 147.136
64.20000 147.466
64.21000 147.644
64.22000 146.107
64.23000 144.089
64.24000 142.297
64.25000 142.402
64.26000 142.799
64.27000 144.047
64.28000 148.996
64.29000 154.374
64.30000 157.699
64.31000 155.018
64.32000 151.951
64.33000 149.888
64.34000 154.422
64.35000 157.928
64.36000 157.923
64.37000 153.188
64.38000 148.431
64.39000 147.480
64.40000 149.861
64.41000 152.217
64.42000 152.444
64.43000 151.452
64.44000 150.587
64.45000 152.339
64.46000 155.132
64.47000 157.932
64.48000 160.798
64.49000 163.682
64.50000 166.229
64.51000 161.601
64.52000 156.500
64.53000 152.552
64.54000 153.425
64.55000 154.831
64.56000 155.374
64.57000 153.476
64.58000 151.431
64.59000 150.073
64.60000 155.102
64.61000 158.938
64.62000 159.400
64.63000 155.486
64.64000 151.556
64.65000 148.945
64.66000 147.445
64.67000 145.964
64.68000 148.882
64.69000 154.140
64.70000 159.300
64.71000 162.576
64.72000 165.128
64.73000 167.221
64.74000 164.653
64.75000 160.871
64.76000 157.549
64.77000 156.718
64.78000 156.371
64.79000 156.883
64.80000 160.860
64.81000 165.202
64.82000 168.712
64.83000 169.955
64.84000 171.070
64.85000 171.800
64.86000 179.032
64.87000 184.458
64.88000 185.031
64.89000 179.544
64.90000 174.052
64.91000 173.774
64.92000 177.722
64.93000 181.615
64.94000 183.578
64.95000 184.465
64.96000 185.065
64.97000 180.481
64.98000 173.975
64.99000 168.305
65.00000 170.704
65.01000 175.128
65.02000 178.991
65.03000 184.775
65.04000 189.995
65.05000 194.119
65.06000 193.981
65.07000 193.417
65.08000 191.824
65.09000 187.523
65.10000 183.078
65.11000 180.202
65.12000 192.694
65.13000 202.057
65.14000 210.471
65.15000 217.745
65.16000 224.993
65.17000 225.913
65.18000 221.894
65.19000 217.938
65.20000 214.437
65.21000 211.277
65.22000 208.365
65.23000 209.620
65.24000 212.368
65.25000 214.941
65.26000 215.907
65.27000 216.485
65.28000 216.987
65.29000 228.349
65.30000 239.490
65.31000 247.756
65.32000 245.254
65.33000 241.726
65.34000 240.539
65.35000 245.307
65.36000 250.370
65.37000 253.601
65.38000 248.642
65.39000 244.928
65.40000 246.400
65.41000 253.866
65.42000 261.346
65.43000 269.915
65.44000 279.303
65.45000 288.525
65.46000 289.081
65.47000 285.380
65.48000 282.183
65.49000 286.975
65.50000 294.528
65.51000 301.339
65.52000 301.653
65.53000 300.453
65.54000 299.417
65.55000 303.711
65.56000 308.037
65.57000 315.476
65.58000 334.162
65.59000 353.864
65.60000 371.003
65.61000 381.842
65.62000 392.392
65.63000 399.033
65.64000 421.458
65.65000 437.862
65.66000 469.323
65.67000 517.518
65.68000 565.816
65.69000 628.700
65.70000 702.138
65.71000 774.142
65.72000 887.247
65.73000 1015.494
65.74000 1143.053
65.75000 1260.376
65.76000 1374.284
65.77000 1485.605
65.78000 1575.328
65.79000 1660.203
65.80000 1732.961
65.81000 1794.654
65.82000 1845.401
65.83000 1886.471
65.84000 1893.816
65.85000 1898.270
65.86000 1903.373
65.87000 1910.016
65.88000 1916.724
65.89000 1920.886
65.90000 1896.257
65.91000 1878.253
65.92000 1846.212
65.93000 1799.180
65.94000 1751.683
65.95000 1645.110
65.96000 1497.343
65.97000 1352.767
65.98000 1222.201
65.99000 1103.244
66.00000 985.840
66.01000 890.189
66.02000 801.544
66.03000 714.687
66.04000 642.094
66.05000 572.584
66.06000 513.382
66.07000 479.810
66.08000 454.572
66.09000 431.595
66.10000 416.226
66.11000 401.474
66.12000 387.897
66.13000 377.012
66.14000 366.233
66.15000 359.641
66.16000 368.338
66.17000 374.689
66.18000 372.913
66.19000 362.801
66.20000 352.808
66.21000 355.423
66.22000 366.515
66.23000 377.342
66.24000 385.195
66.25000 391.410
66.26000 398.524
66.27000 417.523
66.28000 440.217
66.29000 463.555
66.30000 491.812
66.31000 521.092
66.32000 545.864
66.33000 567.270
66.34000 584.812
66.35000 599.620
66.36000 605.553
66.37000 610.806
66.38000 614.155
66.39000 613.294
66.40000 612.281
66.41000 611.670
66.42000 615.735
66.43000 618.660
66.44000 617.304
66.45000 611.732
66.46000 606.104
66.47000 595.496
66.48000 581.661
66.49000 568.187
66.50000 554.057
66.51000 540.314
66.52000 525.951
66.53000 503.866
66.54000 479.464
66.55000 456.164
66.56000 440.905
66.57000 427.253
66.58000 415.783
66.59000 403.566
66.60000 393.308
66.61000 383.310
66.62000 374.128
66.63000 365.004
66.64000 357.407
66.65000 353.069
66.66000 348.840
66.67000 346.331
66.68000 345.868
66.69000 345.552
66.70000 348.199
66.71000 353.646
66.72000 359.019
66.73000 358.708
66.74000 354.846
66.75000 351.093
66.76000 348.181
66.77000 345.754
66.78000 343.569
66.79000 344.234
66.80000 345.724
66.81000 347.191
66.82000 348.491
66.83000 349.759
66.84000 350.818
66.85000 351.242
66.86000 351.531
66.87000 351.565
66.88000 350.831
66.89000 350.045
66.90000 349.899
66.91000 351.075
66.92000 352.290
66.93000 353.000
66.94000 358.606
66.95000 362.571
66.96000 363.203
66.97000 360.809
66.98000 358.434
66.99000 357.411
67.00000 357.203
67.01000 357.001
67.02000 360.874
67.03000 366.125
67.04000 370.929
67.05000 370.731
67.06000 369.136
67.07000 368.208
67.08000 371.730
67.09000 376.075
67.10000 379.674
67.11000 386.154
67.12000 391.778
67.13000 394.786
67.14000 390.160
67.15000 385.045
67.16000 381.237
67.17000 380.034
67.18000 378.903
67.19000 378.253
67.20000 376.284
67.21000 374.906
67.22000 377.658
67.23000 384.015
67.24000 390.268
67.25000 390.528
67.26000 387.302
67.27000 384.184
67.28000 383.055
67.29000 382.734
67.30000 382.729
67.31000 386.093
67.32000 390.363
67.33000 393.565
67.34000 389.923
67.35000 385.066
67.36000 381.071
67.37000 388.805
67.38000 396.223
67.39000 401.112
67.40000 398.881
67.41000 396.221
67.42000 395.254
67.43000 397.540
67.44000 399.906
67.45000 401.243
67.46000 404.945
67.47000 407.525
67.48000 409.763
67.49000 411.716
67.50000 413.711
67.51000 417.848
67.52000 423.188
67.53000 428.334
67.54000 428.133
67.55000 426.021
67.56000 424.145
67.57000 424.660
67.58000 425.796
67.59000 425.781
67.60000 418.702
67.61000 410.417
67.62000 403.655
67.63000 414.142
67.64000 424.202
67.65000 432.481
67.66000 435.918
67.67000 439.082
67.68000 440.564
67.69000 438.925
67.70000 437.217
67.71000 436.268
67.72000 440.059
67.73000 442.678
67.74000 441.865
67.75000 438.278
67.76000 434.844
67.77000 438.360
67.78000 445.641
67.79000 452.636
67.80000 457.498
67.81000 461.312
67.82000 465.124
67.83000 468.926
67.84000 472.725
67.85000 475.779
67.86000 474.434
67.87000 472.368
67.88000 470.696
67.89000 472.459
67.90000 474.174
67.91000 475.365
67.92000 475.177
67.93000 474.918
67.94000 476.857
67.95000 482.735
67.96000 488.691
67.97000 491.941
67.98000 494.361
67.99000 496.017
68.00000 496.217
68.01000 495.286
68.02000 494.310
68.03000 491.481
68.04000 487.682
68.05000 484.043
68.06000 489.399
68.07000 497.389
68.08000 505.212
68.09000 511.510
68.10000 517.441
68.11000 522.682
68.12000 524.016
68.13000 524.736
68.14000 525.315
68.15000 522.862
68.16000 520.641
68.17000 522.120
68.18000 532.982
68.19000 544.306
68.20000 547.828
68.21000 537.864
68.22000 527.663
68.23000 522.198
68.24000 541.095
68.25000 553.968
68.26000 558.488
68.27000 556.754
68.28000 555.160
68.29000 558.761
68.30000 564.987
68.31000 570.931
68.32000 571.534
68.33000 570.385
68.34000 570.106
68.35000 577.416
68.36000 586.489
68.37000 594.846
68.38000 599.305
68.39000 603.177
68.40000 606.263
68.41000 611.103
68.42000 615.135
68.43000 621.132
68.44000 631.941
68.45000 642.970
68.46000 651.805
68.47000 656.983
68.48000 662.104
68.49000 664.797
68.50000 661.860
68.51000 659.939
68.52000 669.391
68.53000 687.046
68.54000 704.580
68.55000 718.035
68.56000 729.501
68.57000 740.414
68.58000 757.919
68.59000 776.151
68.60000 796.335
68.61000 832.757
68.62000 872.814
68.63000 913.953
68.64000 960.751
68.65000 1008.366
68.66000 1046.000
68.67000 1072.237
68.68000 1092.524
68.69000 1118.452
68.70000 1157.720
68.71000 1197.553
68.72000 1238.225
68.73000 1280.248
68.74000 1322.289
68.75000 1343.968
68.76000 1412.214
68.77000 1458.192
68.78000 1504.291
68.79000 1550.475
68.80000 1596.618
68.81000 1641.535
68.82000 1685.876
68.83000 1727.932
68.84000 1795.424
68.85000 1865.183
68.86000 1942.499
68.87000 2079.856
68.88000 2230.148
68.89000 2405.757
68.90000 2708.641
68.91000 3029.101
68.92000 3280.243
68.93000 4489.746
68.94000 5518.244
68.95000 6925.226
68.96000 9196.694
68.97000 11501.936
68.98000 14240.022
68.99000 17649.752
69.00000 21067.191
69.01000 22794.656
69.02000 27592.844
69.03000 30797.168
69.04000 33353.422
69.05000 35475.410
69.06000 37569.637
69.07000 38887.168
69.08000 39851.707
69.09000 40763.324
69.10000 41399.984
69.11000 41906.422
69.12000 42424.047
69.13000 43026.621
69.14000 43646.809
69.15000 44278.215
69.16000 44963.879
69.17000 45656.715
69.18000 46194.957
69.19000 45489.773
69.20000 44853.344
69.21000 43611.488
69.22000 41034.262
69.23000 38409.027
69.24000 35797.371
69.25000 33206.031
69.26000 30614.920
69.27000 28421.240
69.28000 26617.547
69.29000 24820.211
69.30000 23582.873
69.31000 22707.348
69.32000 21846.793
69.33000 21371.648
69.34000 21065.654
69.35000 20777.508
69.36000 20308.711
69.37000 19830.467
69.38000 19270.402
69.39000 18116.064
69.40000 16843.195
69.41000 15483.743
69.42000 13721.328
69.43000 11908.027
69.44000 10511.875
69.45000 8609.315
69.46000 7074.286
69.47000 5711.760
69.48000 4716.650
69.49000 3733.646
69.50000 2972.829
69.51000 2532.443
69.52000 2094.682
69.53000 1783.543
69.54000 1591.763
69.55000 1400.912
69.56000 1280.157
69.57000 1203.078
69.58000 1126.892
69.59000 1071.951
69.60000 1026.013
69.61000 982.918
69.62000 948.733
69.63000 919.929
69.64000 890.923
69.65000 860.511
69.66000 829.830
69.67000 799.841
69.68000 772.960
69.69000 746.454
69.70000 726.231
69.71000 705.830
69.72000 689.747
69.73000 679.775
69.74000 682.372
69.75000 685.346
69.76000 680.976
69.77000 666.400
69.78000 651.762
69.79000 634.548
69.80000 615.020
69.81000 595.741
69.82000 592.746
69.83000 599.538
69.84000 605.393
69.85000 590.609
69.86000 567.376
69.87000 545.667
69.88000 542.635
69.89000 544.600
69.90000 545.171
69.91000 536.453
69.92000 526.022
69.93000 516.793
69.94000 512.749
69.95000 509.302
69.96000 506.696
69.97000 505.114
69.98000 503.924
69.99000 502.023
70.00000 498.709
