20.00000 587.590
20.01000 581.398
20.02000 574.322
20.03000 568.437
20.04000 567.309
20.05000 566.677
20.06000 566.207
20.07000 562.116
20.08000 558.772
20.09000 559.043
20.10000 566.196
20.11000 573.515
20.12000 577.400
20.13000 576.821
20.14000 576.223
20.15000 576.850
20.16000 578.525
20.17000 580.102
20.18000 575.964
20.19000 568.500
20.20000 561.355
20.21000 560.952
20.22000 563.264
20.23000 565.424
20.24000 561.602
20.25000 556.628
20.26000 553.298
20.27000 561.107
20.28000 571.000
20.29000 578.166
20.30000 573.195
20.31000 566.773
20.32000 561.862
20.33000 569.295
20.34000 575.828
20.35000 579.125
20.36000 575.606
20.37000 571.869
20.38000 576.360
20.39000 592.764
20.40000 609.265
20.41000 605.332
20.42000 581.724
20.43000 558.303
20.44000 551.234
20.45000 554.717
20.46000 558.124
20.47000 559.487
20.48000 559.941
20.49000 560.369
20.50000 566.516
20.51000 573.773
20.52000 580.553
20.53000 583.660
20.54000 585.997
20.55000 587.180
20.56000 582.626
20.57000 577.292
20.58000 573.107
20.59000 569.247
20.60000 566.183
20.61000 563.572
20.62000 562.020
20.63000 560.510
20.64000 560.345
20.65000 562.340
20.66000 564.365
20.67000 565.417
20.68000 570.195
20.69000 573.394
20.70000 572.170
20.71000 567.772
20.72000 563.400
20.73000 559.911
20.74000 556.856
20.75000 553.941
20.76000 549.080
20.77000 543.951
20.78000 540.234
20.79000 548.915
20.80000 560.491
20.81000 569.851
20.82000 566.877
20.83000 562.000
20.84000 558.081
20.85000 551.400
20.86000 545.772
20.87000 541.703
20.88000 541.647
20.89000 541.794
20.90000 545.076
20.91000 553.945
20.92000 562.924
20.93000 567.849
20.94000 565.223
20.95000 563.405
20.96000 561.642
20.97000 559.923
20.98000 558.206
20.99000 556.617
21.00000 555.098
21.01000 553.636
21.02000 554.731
21.03000 556.665
21.04000 558.755
21.05000 562.429
21.06000 566.514
21.07000 570.188
21.08000 571.292
21.09000 571.950
21.10000 572.490
21.11000 566.083
21.12000 560.196
21.13000 555.029
21.14000 551.914
21.15000 548.926
21.16000 548.465
21.17000 552.992
21.18000 557.654
21.19000 560.339
21.20000 557.633
21.21000 555.720
21.22000 555.857
21.23000 557.827
21.24000 559.789
21.25000 561.240
21.26000 562.382
21.27000 563.490
21.28000 559.006
21.29000 552.542
21.30000 546.822
21.31000 549.839
21.32000 555.375
21.33000 559.699
21.34000 555.440
21.35000 549.508
21.36000 544.531
21.37000 557.755
21.38000 570.660
21.39000 578.157
21.40000 568.604
21.41000 557.803
21.42000 549.619
21.43000 547.150
21.44000 544.880
21.45000 543.512
21.46000 544.735
21.47000 545.624
21.48000 551.417
21.49000 562.136
21.50000 572.766
21.51000 574.132
21.52000 569.291
21.53000 564.561
21.54000 560.154
21.55000 556.076
21.56000 552.013
21.57000 548.159
21.58000 544.372
21.59000 541.546
21.60000 546.456
21.61000 553.050
21.62000 558.690
21.63000 561.510
21.64000 563.548
21.65000 566.061
21.66000 570.233
21.67000 574.547
21.68000 576.813
21.69000 574.136
21.70000 571.240
21.71000 569.418
21.72000 574.966
21.73000 579.061
21.74000 579.093
21.75000 574.545
21.76000 570.049
21.77000 576.310
21.78000 590.590
21.79000 604.626
21.80000 607.272
21.81000 604.211
21.82000 601.759
21.83000 609.370
21.84000 620.538
21.85000 632.768
21.86000 654.780
21.87000 679.167
21.88000 700.401
21.89000 705.815
21.90000 708.262
21.91000 711.326
21.92000 716.785
21.93000 722.483
21.94000 728.585
21.95000 735.765
21.96000 743.003
21.97000 747.736
21.98000 761.533
21.99000 771.815
22.00000 778.852
22.01000 781.798
22.02000 784.730
22.03000 787.012
22.04000 788.755
22.05000 790.477
22.06000 796.581
22.07000 804.947
22.08000 812.797
22.09000 810.336
22.10000 803.840
22.11000 798.297
22.12000 802.892
22.13000 810.221
22.14000 816.710
22.15000 801.572
22.16000 785.089
22.17000 771.144
22.18000 768.149
22.19000 766.413
22.20000 763.326
22.21000 756.245
22.22000 748.903
22.23000 743.924
22.24000 734.787
22.25000 727.881
22.26000 714.405
22.27000 691.699
22.28000 668.933
22.29000 658.432
22.30000 659.356
22.31000 660.272
22.32000 652.884
22.33000 640.515
22.34000 628.490
22.35000 625.061
22.36000 625.350
22.37000 625.789
22.38000 628.092
22.39000 630.954
22.40000 633.526
22.41000 624.219
22.42000 613.957
22.43000 604.184
22.44000 596.758
22.45000 589.641
22.46000 582.628
22.47000 575.955
22.48000 569.309
22.49000 564.647
22.50000 571.803
22.51000 577.560
22.52000 576.023
22.53000 563.099
22.54000 550.040
22.55000 546.335
22.56000 552.425
22.57000 558.488
22.58000 560.581
22.59000 559.919
22.60000 559.320
22.61000 560.761
22.62000 563.177
22.63000 564.927
22.64000 556.894
22.65000 545.618
22.66000 535.335
22.67000 529.247
22.68000 524.692
22.69000 521.914
22.70000 528.710
22.71000 536.933
22.72000 542.734
22.73000 539.757
22.74000 535.982
22.75000 533.250
22.76000 537.645
22.77000 541.282
22.78000 545.938
22.79000 552.361
22.80000 558.814
22.81000 555.923
22.82000 542.061
22.83000 528.214
22.84000 526.058
22.85000 532.923
22.86000 539.509
22.87000 534.263
22.88000 522.756
22.89000 511.908
22.90000 512.679
22.91000 517.710
22.92000 522.359
22.93000 523.188
22.94000 523.068
22.95000 523.135
22.96000 524.337
22.97000 525.730
22.98000 525.998
22.99000 521.735
23.00000 516.995
23.01000 513.462
23.02000 524.081
23.03000 532.992
23.04000 535.749
23.05000 526.703
23.06000 517.367
23.07000 511.695
23.08000 510.826
23.09000 509.979
23.10000 509.054
23.11000 508.063
23.12000 507.164
23.13000 511.706
23.14000 519.437
23.15000 526.847
23.16000 527.317
23.17000 524.973
23.18000 522.781
23.19000 524.582
23.20000 527.232
23.21000 529.030
23.22000 525.008
23.23000 519.888
23.24000 515.292
23.25000 513.051
23.26000 511.094
23.27000 509.595
23.28000 513.065
23.29000 516.078
23.30000 517.449
23.31000 515.336
23.32000 513.110
23.33000 511.273
23.34000 510.004
23.35000 508.740
23.36000 505.221
23.37000 499.514
23.38000 493.908
23.39000 497.489
23.40000 507.043
23.41000 516.430
23.42000 521.281
23.43000 524.099
23.44000 526.764
23.45000 515.231
23.46000 500.592
23.47000 488.485
23.48000 496.025
23.49000 507.712
23.50000 517.674
23.51000 518.999
23.52000 519.136
23.53000 519.244
23.54000 511.481
23.55000 504.749
23.56000 499.030
23.57000 495.691
23.58000 492.450
23.59000 493.545
23.60000 501.663
23.61000 509.879
23.62000 514.167
23.63000 512.646
23.64000 511.608
23.65000 509.300
23.66000 506.074
23.67000 502.950
23.68000 503.404
23.69000 505.632
23.70000 507.758
23.71000 505.260
23.72000 501.464
23.73000 498.584
23.74000 503.833
23.75000 510.995
23.76000 516.570
23.77000 513.230
23.78000 508.502
23.79000 504.697
23.80000 508.497
23.81000 512.170
23.82000 514.221
23.83000 512.063
23.84000 509.688
23.85000 509.326
23.86000 512.577
23.87000 515.902
23.88000 517.732
23.89000 510.423
23.90000 505.379
23.91000 502.482
23.92000 501.315
23.93000 500.253
23.94000 504.116
23.95000 510.682
23.96000 517.006
23.97000 512.469
23.98000 504.332
23.99000 497.188
24.00000 500.178
24.01000 505.821
24.02000 511.264
24.03000 515.437
24.04000 519.388
24.05000 522.639
24.06000 520.728
24.07000 518.688
24.08000 517.703
24.09000 519.747
24.10000 521.979
24.11000 521.817
24.12000 516.893
24.13000 511.838
24.14000 508.916
24.15000 510.210
24.16000 511.130
24.17000 507.621
24.18000 500.118
24.19000 492.738
24.20000 493.732
24.21000 499.817
24.22000 505.725
24.23000 503.306
24.24000 497.691
24.25000 492.716
24.26000 495.352
24.27000 500.198
24.28000 504.988
24.29000 509.372
24.30000 513.678
24.31000 517.294
24.32000 522.181
24.33000 526.385
24.34000 528.169
24.35000 522.264
24.36000 515.789
24.37000 506.830
24.38000 492.410
24.39000 477.794
24.40000 468.954
24.41000 470.064
24.42000 470.928
24.43000 472.619
24.44000 475.148
24.45000 477.678
24.46000 480.378
24.47000 483.192
24.48000 485.944
24.49000 487.562
24.50000 488.610
24.51000 489.757
24.52000 492.311
24.53000 495.317
24.54000 498.181
24.55000 499.889
24.56000 501.343
24.57000 502.589
24.58000 497.766
24.59000 492.959
24.60000 486.910
24.61000 476.486
24.62000 465.681
24.63000 460.328
24.64000 468.231
24.65000 476.730
24.66000 482.090
24.67000 476.819
24.68000 472.880
24.69000 471.144
24.70000 471.913
24.71000 472.695
24.72000 475.674
24.73000 480.301
24.74000 484.852
24.75000 486.108
24.76000 485.684
24.77000 485.004
24.78000 480.043
24.79000 473.556
24.80000 468.441
24.81000 476.109
24.82000 486.904
24.83000 496.314
24.84000 493.976
24.85000 490.345
24.86000 486.198
24.87000 480.029
24.88000 473.656
24.89000 469.523
24.90000 471.412
24.91000 473.633
24.92000 475.089
24.93000 472.250
24.94000 470.091
24.95000 469.234
24.96000 470.031
24.97000 470.836
24.98000 472.748
24.99000 475.590
25.00000 478.399
25.01000 480.669
25.02000 482.585
25.03000 484.361
25.04000 483.278
25.05000 481.069
25.06000 479.127
25.07000 480.065
25.08000 481.785
25.09000 483.310
25.10000 478.328
25.11000 472.987
25.12000 470.447
25.13000 480.090
25.14000 491.148
25.15000 499.293
25.16000 498.775
25.17000 497.682
25.18000 496.940
25.19000 491.449
25.20000 487.244
25.21000 482.814
25.22000 478.067
25.23000 473.319
25.24000 473.097
25.25000 477.128
25.26000 481.127
25.27000 486.233
25.28000 491.938
25.29000 497.250
25.30000 492.593
25.31000 483.594
25.32000 474.911
25.33000 470.206
25.34000 466.699
25.35000 463.543
25.36000 468.170
25.37000 473.620
25.38000 478.470
25.39000 480.411
25.40000 481.966
25.41000 481.723
25.42000 475.556
25.43000 468.925
25.44000 464.262
25.45000 473.419
25.46000 480.762
25.47000 481.931
25.48000 473.388
25.49000 464.727
25.50000 465.088
25.51000 474.975
25.52000 484.821
25.53000 479.916
25.54000 464.828
25.55000 450.183
25.56000 449.915
25.57000 456.574
25.58000 462.998
25.59000 465.941
25.60000 467.722
25.61000 469.347
25.62000 468.074
25.63000 466.356
25.64000 465.240
25.65000 467.384
25.66000 470.018
25.67000 470.667
25.68000 464.063
25.69000 456.793
25.70000 451.519
25.71000 458.181
25.72000 463.745
25.73000 467.110
25.74000 466.637
25.75000 466.095
25.76000 468.658
25.77000 474.894
25.78000 481.124
25.79000 478.533
25.80000 469.103
25.81000 459.779
25.82000 455.061
25.83000 452.798
25.84000 450.846
25.85000 454.450
25.86000 460.105
25.87000 465.335
25.88000 472.487
25.89000 479.348
25.90000 484.580
25.91000 479.868
25.92000 473.470
25.93000 469.994
25.94000 478.376
25.95000 488.018
25.96000 495.220
25.97000 484.989
25.98000 476.212
25.99000 469.723
26.00000 467.653
26.01000 465.694
26.02000 465.047
26.03000 466.133
26.04000 467.227
26.05000 467.373
26.06000 466.694
26.07000 466.023
26.08000 465.843
26.09000 465.952
26.10000 466.083
26.11000 466.705
26.12000 467.527
26.13000 468.296
26.14000 464.162
26.15000 459.150
26.16000 455.616
26.17000 462.276
26.18000 470.876
26.19000 476.842
26.20000 470.903
26.21000 463.512
26.22000 457.840
26.23000 459.192
26.24000 460.652
26.25000 460.036
26.26000 454.982
26.27000 449.781
26.28000 448.205
26.29000 451.959
26.30000 455.760
26.31000 461.747
26.32000 469.874
26.33000 477.889
26.34000 475.338
26.35000 465.866
26.36000 456.594
26.37000 452.842
26.38000 451.583
26.39000 450.391
26.40000 450.868
26.41000 451.785
26.42000 453.059
26.43000 457.130
26.44000 461.796
26.45000 465.035
26.46000 461.068
26.47000 456.101
26.48000 452.190
26.49000 450.252
26.50000 448.831
26.51000 450.112
26.52000 457.780
26.53000 465.717
26.54000 467.830
26.55000 460.438
26.56000 452.911
26.57000 448.967
26.58000 447.595
26.59000 446.683
26.60000 448.319
26.61000 451.810
26.62000 455.319
26.63000 459.429
26.64000 463.840
26.65000 468.053
26.66000 464.078
26.67000 457.748
26.68000 451.809
26.69000 449.372
26.70000 447.765
26.71000 446.463
26.72000 446.888
26.73000 447.585
26.74000 448.146
26.75000 441.529
26.76000 435.589
26.77000 432.495
26.78000 436.834
26.79000 441.561
26.80000 445.226
26.81000 446.970
26.82000 448.675
26.83000 449.616
26.84000 444.086
26.85000 440.277
26.86000 442.831
26.87000 450.554
26.88000 458.154
26.89000 459.813
26.90000 458.188
26.91000 456.622
26.92000 453.634
26.93000 450.314
26.94000 447.715
26.95000 452.554
26.96000 459.354
26.97000 465.186
26.98000 464.854
26.99000 463.432
27.00000 462.261
27.01000 463.345
27.02000 464.445
27.03000 463.781
27.04000 458.021
27.05000 451.940
27.06000 447.625
27.07000 446.847
27.08000 446.169
27.09000 445.775
27.10000 445.756
27.11000 445.745
27.12000 444.762
27.13000 442.898
27.14000 441.051
27.15000 440.454
27.16000 440.623
27.17000 440.787
27.18000 440.347
27.19000 439.688
27.20000 439.123
27.21000 439.704
27.22000 440.620
27.23000 441.218
27.24000 439.529
27.25000 437.386
27.26000 435.583
27.27000 430.109
27.28000 425.153
27.29000 422.732
27.30000 428.421
27.31000 434.717
27.32000 439.092
27.33000 439.213
27.34000 439.179
27.35000 439.159
27.36000 442.103
27.37000 444.226
27.38000 443.288
27.39000 439.224
27.40000 435.213
27.41000 437.198
27.42000 443.262
27.43000 449.193
27.44000 448.746
27.45000 445.457
27.46000 442.040
27.47000 436.833
27.48000 431.044
27.49000 427.032
27.50000 437.593
27.51000 451.379
27.52000 463.201
27.53000 455.373
27.54000 446.353
27.55000 438.480
27.56000 434.679
27.57000 431.236
27.58000 432.613
27.59000 445.792
27.60000 459.511
27.61000 468.188
27.62000 450.284
27.63000 436.989
27.64000 432.655
27.65000 438.588
27.66000 444.509
27.67000 445.470
27.68000 442.676
27.69000 439.927
27.70000 440.641
27.71000 443.069
27.72000 445.301
27.73000 444.219
27.74000 441.949
27.75000 440.013
27.76000 441.220
27.77000 443.203
27.78000 444.933
27.79000 446.096
27.80000 447.012
27.81000 447.934
27.82000 448.878
27.83000 449.824
27.84000 448.961
27.85000 443.201
27.86000 437.167
27.87000 433.200
27.88000 432.816
27.89000 432.595
27.90000 431.835
27.91000 430.386
27.92000 428.945
27.93000 434.022
27.94000 444.606
27.95000 455.069
27.96000 455.154
27.97000 449.429
27.98000 443.838
27.99000 441.047
28.00000 439.366
28.01000 437.832
28.02000 437.905
28.03000 438.417
28.04000 438.872
28.05000 440.013
28.06000 441.112
28.07000 441.341
28.08000 437.758
28.09000 433.728
28.10000 431.436
28.11000 434.352
28.12000 437.618
28.13000 439.843
28.14000 429.165
28.15000 420.887
28.16000 420.225
28.17000 430.423
28.18000 440.702
28.19000 444.715
28.20000 442.793
28.21000 440.885
28.22000 439.900
28.23000 439.508
28.24000 438.906
28.25000 432.921
28.26000 424.573
28.27000 417.402
28.28000 425.217
28.29000 437.582
28.30000 448.723
28.31000 445.985
28.32000 441.072
28.33000 437.164
28.34000 438.167
28.35000 439.828
28.36000 440.761
28.37000 439.278
28.38000 437.603
28.39000 436.423
28.40000 438.660
28.41000 440.458
28.42000 440.724
28.43000 438.559
28.44000 436.364
28.45000 433.897
28.46000 431.141
28.47000 428.396
28.48000 425.936
28.49000 423.701
28.50000 421.416
28.51000 417.498
28.52000 412.787
28.53000 408.775
28.54000 415.276
28.55000 425.313
28.56000 434.484
28.57000 435.837
28.58000 435.441
28.59000 435.237
28.60000 436.081
28.61000 437.084
28.62000 437.233
28.63000 434.240
28.64000 430.955
28.65000 428.566
28.66000 433.994
28.67000 438.466
28.68000 438.212
28.69000 429.655
28.70000 420.944
28.71000 420.241
28.72000 429.090
28.73000 437.941
28.74000 437.828
28.75000 430.694
28.76000 423.740
28.77000 424.714
28.78000 429.946
28.79000 434.855
28.80000 433.910
28.81000 430.787
28.82000 427.897
28.83000 421.638
28.84000 415.238
28.85000 410.179
28.86000 413.377
28.87000 417.986
28.88000 421.337
28.89000 419.544
28.90000 417.198
28.91000 415.442
28.92000 420.751
28.93000 425.223
28.94000 426.009
28.95000 419.627
28.96000 413.061
28.97000 410.196
28.98000 412.260
28.99000 414.346
29.00000 416.055
29.01000 417.430
29.02000 418.795
29.03000 419.600
29.04000 420.072
29.05000 420.327
29.06000 415.758
29.07000 409.206
29.08000 403.069
29.09000 403.960
29.10000 406.586
29.11000 409.056
29.12000 410.438
29.13000 411.611
29.14000 412.431
29.15000 411.645
29.16000 410.661
29.17000 409.904
29.18000 413.194
29.19000 416.026
29.20000 418.884
29.21000 421.799
29.22000 424.716
29.23000 424.446
29.24000 419.455
29.25000 414.420
29.26000 414.329
29.27000 419.120
29.28000 423.896
29.29000 427.180
29.30000 429.480
29.31000 431.546
29.32000 427.067
29.33000 419.611
29.34000 412.552
29.35000 421.856
29.36000 435.155
29.37000 446.356
29.38000 440.968
29.39000 432.024
29.40000 423.298
29.41000 415.689
29.42000 408.237
29.43000 402.359
29.44000 409.665
29.45000 416.413
29.46000 422.960
29.47000 429.026
29.48000 435.071
29.49000 436.426
29.50000 430.067
29.51000 423.596
29.52000 420.191
29.53000 427.990
29.54000 433.249
29.55000 432.214
29.56000 426.559
29.57000 421.023
29.58000 419.861
29.59000 420.898
29.60000 421.889
29.61000 416.740
29.62000 409.959
29.63000 404.675
29.64000 412.933
29.65000 424.427
29.66000 432.959
29.67000 424.584
29.68000 413.531
29.69000 404.606
29.70000 403.206
29.71000 402.667
29.72000 405.088
29.73000 415.297
29.74000 425.919
29.75000 433.281
29.76000 434.703
29.77000 436.001
29.78000 436.720
29.79000 426.142
29.80000 418.834
29.81000 419.554
29.82000 426.848
29.83000 433.955
29.84000 431.844
29.85000 424.599
29.86000 417.613
29.87000 418.866
29.88000 423.033
29.89000 427.165
29.90000 430.936
29.91000 434.610
29.92000 438.460
29.93000 443.435
29.94000 448.611
29.95000 452.883
29.96000 453.391
29.97000 453.459
29.98000 452.373
29.99000 447.926
30.00000 443.265
30.01000 442.443
30.02000 449.362
30.03000 456.503
30.04000 460.659
30.05000 448.314
30.06000 439.571
30.07000 438.574
30.08000 444.675
30.09000 450.726
30.10000 453.148
30.11000 453.332
30.12000 453.510
30.13000 446.366
30.14000 436.612
30.15000 428.281
30.16000 437.256
30.17000 451.333
30.18000 463.681
30.19000 463.456
30.20000 460.720
30.21000 458.414
30.22000 456.370
30.23000 454.692
30.24000 452.434
30.25000 448.309
30.26000 444.043
30.27000 439.604
30.28000 434.784
30.29000 429.949
30.30000 427.007
30.31000 424.506
30.32000 422.722
30.33000 424.570
30.34000 430.157
30.35000 435.718
30.36000 438.135
30.37000 438.396
30.38000 438.651
30.39000 437.157
30.40000 434.931
30.41000 432.943
30.42000 434.354
30.43000 436.876
30.44000 439.782
30.45000 445.871
30.46000 452.671
30.47000 458.510
30.48000 457.572
30.49000 455.941
30.50000 452.939
30.51000 445.043
30.52000 436.711
30.53000 432.391
30.54000 437.967
30.55000 444.001
30.56000 447.829
30.57000 453.957
30.58000 458.432
30.59000 458.776
30.60000 454.347
30.61000 449.935
30.62000 450.808
30.63000 455.712
30.64000 460.539
30.65000 466.116
30.66000 471.896
30.67000 477.323
30.68000 476.687
30.69000 473.861
30.70000 470.906
30.71000 466.736
30.72000 462.265
30.73000 458.357
30.74000 465.569
30.75000 473.319
30.76000 480.106
30.77000 483.073
30.78000 485.647
30.79000 487.946
30.80000 489.495
30.81000 491.002
30.82000 491.996
30.83000 494.797
30.84000 496.893
30.85000 501.482
30.86000 509.289
30.87000 517.105
30.88000 522.296
30.89000 525.251
30.90000 528.172
30.91000 533.527
30.92000 540.128
30.93000 546.702
30.94000 552.700
30.95000 558.468
30.96000 564.900
30.97000 578.652
30.98000 594.422
30.99000 608.432
31.00000 624.957
31.01000 639.692
31.02000 655.232
31.03000 674.320
31.04000 693.829
31.05000 715.841
31.06000 745.405
31.07000 775.484
31.08000 796.034
31.09000 844.329
31.10000 881.111
31.11000 925.749
31.12000 981.676
31.13000 1037.692
31.14000 1098.417
31.15000 1163.639
31.16000 1228.395
31.17000 1313.672
31.18000 1410.519
31.19000 1507.499
31.20000 1607.963
31.21000 1709.967
31.22000 1811.766
31.23000 1910.933
31.24000 2009.296
31.25000 2098.011
31.26000 2216.135
31.27000 2325.224
31.28000 2438.243
31.29000 2570.630
31.30000 2705.633
31.31000 2836.061
31.32000 2951.195
31.33000 3065.099
31.34000 3145.554
31.35000 3231.638
31.36000 3297.161
31.37000 3355.827
31.38000 3403.549
31.39000 3451.128
31.40000 3475.413
31.41000 3474.686
31.42000 3473.954
31.43000 3432.709
31.44000 3363.297
31.45000 3293.942
31.46000 3226.513
31.47000 3160.025
31.48000 3090.206
31.49000 2969.534
31.50000 2831.640
31.51000 2705.523
31.52000 2589.232
31.53000 2487.887
31.54000 2383.184
31.55000 2259.947
31.56000 2133.874
31.57000 2010.296
31.58000 1895.964
31.59000 1782.501
31.60000 1699.833
31.61000 1598.076
31.62000 1518.977
31.63000 1439.590
31.64000 1359.692
31.65000 1279.784
31.66000 1200.813
31.67000 1122.967
31.68000 1045.264
31.69000 992.889
31.70000 960.759
31.71000 928.655
31.72000 897.758
31.73000 867.512
31.74000 836.844
31.75000 798.406
31.76000 757.056
31.77000 718.749
31.78000 691.597
31.79000 669.759
31.80000 648.577
31.81000 631.478
31.82000 615.082
31.83000 600.172
31.84000 591.388
31.85000 583.269
31.86000 577.179
31.87000 570.222
31.88000 564.748
31.89000 554.328
31.90000 534.217
31.91000 513.851
31.92000 502.089
31.93000 501.873
31.94000 501.716
31.95000 497.663
31.96000 490.163
31.97000 482.671
31.98000 475.633
31.99000 468.868
32.00000 462.149
32.01000 456.457
32.02000 451.192
32.03000 446.257
32.04000 442.399
32.05000 439.167
32.06000 436.946
32.07000 441.810
32.08000 448.045
32.09000 452.185
32.10000 446.710
32.11000 440.039
32.12000 434.901
32.13000 444.928
32.14000 453.737
32.15000 456.454
32.16000 445.965
32.17000 435.020
32.18000 428.378
32.19000 428.157
32.20000 427.997
32.21000 426.614
32.22000 424.013
32.23000 421.407
32.24000 418.287
32.25000 414.824
32.26000 411.214
32.27000 403.390
32.28000 393.636
32.29000 384.395
32.30000 395.400
32.31000 411.447
32.32000 425.524
32.33000 423.889
32.34000 418.859
32.35000 414.593
32.36000 414.252
32.37000 414.466
32.38000 414.635
32.39000 412.443
32.40000 410.522
32.41000 409.326
32.42000 409.871
32.43000 410.492
32.44000 408.339
32.45000 401.592
32.46000 394.776
32.47000 391.177
32.48000 393.662
32.49000 395.338
32.50000 394.324
32.51000 391.319
32.52000 388.460
32.53000 391.031
32.54000 396.354
32.55000 401.445
32.56000 401.108
32.57000 399.019
32.58000 396.731
32.59000 392.617
32.60000 388.064
32.61000 384.745
32.62000 388.522
32.63000 393.433
32.64000 397.405
32.65000 399.493
32.66000 401.041
32.67000 401.031
32.68000 396.894
32.69000 392.536
32.70000 386.944
32.71000 379.085
32.72000 371.177
32.73000 366.776
32.74000 380.242
32.75000 389.572
32.76000 391.045
32.77000 386.032
32.78000 381.217
32.79000 386.489
32.80000 397.420
32.81000 407.966
32.82000 412.896
32.83000 415.483
32.84000 418.154
32.85000 421.707
32.86000 425.496
32.87000 428.984
32.88000 430.522
32.89000 431.710
32.90000 432.691
32.91000 433.031
32.92000 433.251
32.93000 434.537
32.94000 438.947
32.95000 443.558
32.96000 445.356
32.97000 441.438
32.98000 437.354
32.99000 434.969
33.00000 432.335
33.01000 430.483
33.02000 432.772
33.03000 438.887
33.04000 444.844
33.05000 439.019
33.06000 425.866
33.07000 413.078
33.08000 398.868
33.09000 384.775
33.10000 371.608
33.11000 369.821
33.12000 371.414
33.13000 373.317
33.14000 377.492
33.15000 382.124
33.16000 386.032
33.17000 383.610
33.18000 380.898
33.19000 378.742
33.20000 378.393
33.21000 378.182
33.22000 373.937
33.23000 360.624
33.24000 346.970
33.25000 338.634
33.26000 345.712
33.27000 350.899
33.28000 352.862
33.29000 351.478
33.30000 350.127
33.31000 352.871
33.32000 358.442
33.33000 363.896
33.34000 365.156
33.35000 364.455
33.36000 363.736
33.37000 362.754
33.38000 361.684
33.39000 360.726
33.40000 360.699
33.41000 360.881
33.42000 361.038
33.43000 352.689
33.44000 344.560
33.45000 340.054
33.46000 348.585
33.47000 358.288
33.48000 365.059
33.49000 364.545
33.50000 363.689
33.51000 363.143
33.52000 356.881
33.53000 352.259
33.54000 351.080
33.55000 353.910
33.56000 356.727
33.57000 354.932
33.58000 349.591
33.59000 344.333
33.60000 345.586
33.61000 350.115
33.62000 354.172
33.63000 350.028
33.64000 342.898
33.65000 337.039
33.66000 343.385
33.67000 352.784
33.68000 361.009
33.69000 359.607
33.70000 357.029
33.71000 354.978
33.72000 355.033
33.73000 355.306
33.74000 354.259
33.75000 349.584
33.76000 344.700
33.77000 341.472
33.78000 333.602
33.79000 327.713
33.80000 324.629
33.81000 325.192
33.82000 325.776
33.83000 330.191
33.84000 337.895
33.85000 345.516
33.86000 346.578
33.87000 343.886
33.88000 341.442
33.89000 344.256
33.90000 349.187
33.91000 353.226
33.92000 347.333
33.93000 338.680
33.94000 330.984
33.95000 331.372
33.96000 333.024
33.97000 335.067
33.98000 338.854
33.99000 342.850
34.00000 346.064
34.01000 346.900
34.02000 347.571
34.03000 348.031
34.04000 345.936
34.05000 344.305
34.06000 344.028
34.07000 345.709
34.08000 347.407
34.09000 349.511
34.10000 352.008
34.11000 354.487
34.12000 345.685
34.13000 329.850
34.14000 314.515
34.15000 312.473
34.16000 316.349
34.17000 320.559
34.18000 329.132
34.19000 339.048
34.20000 348.001
34.21000 346.011
34.22000 342.247
34.23000 339.603
34.24000 342.523
34.25000 346.202
34.26000 348.772
34.27000 347.605
34.28000 346.135
34.29000 345.093
34.30000 346.739
34.31000 348.073
34.32000 348.147
34.33000 346.194
34.34000 344.214
34.35000 343.423
34.36000 343.921
34.37000 344.417
34.38000 343.822
34.39000 342.458
34.40000 341.125
34.41000 340.860
34.42000 341.121
34.43000 341.205
34.44000 338.544
34.45000 334.946
34.46000 331.652
34.47000 334.620
34.48000 338.562
34.49000 342.217
34.50000 344.276
34.51000 346.088
34.52000 346.016
34.53000 338.904
34.54000 331.123
34.55000 325.443
34.56000 330.607
34.57000 335.012
34.58000 335.665
34.59000 329.630
34.60000 323.463
34.61000 323.243
34.62000 330.228
34.63000 337.218
34.64000 342.815
34.65000 347.278
34.66000 351.547
34.67000 346.800
34.68000 337.141
34.69000 327.917
34.70000 326.814
34.71000 328.776
34.72000 330.595
34.73000 321.276
34.74000 310.279
34.75000 302.254
34.76000 312.835
34.77000 326.650
34.78000 337.105
34.79000 333.608
34.80000 328.583
34.81000 324.806
34.82000 322.317
34.83000 320.433
34.84000 318.935
34.85000 318.201
34.86000 317.487
34.87000 318.532
34.88000 321.954
34.89000 325.388
34.90000 328.245
34.91000 330.583
34.92000 332.848
34.93000 330.281
34.94000 324.797
34.95000 319.485
34.96000 318.151
34.97000 318.476
34.98000 318.781
34.99000 319.832
35.00000 320.986
35.01000 321.913
35.02000 321.238
35.03000 320.251
35.04000 319.561
35.05000 320.251
35.06000 321.113
35.07000 321.778
35.08000 317.217
35.09000 313.298
35.10000 309.172
35.11000 304.593
35.12000 299.999
35.13000 302.305
35.14000 314.990
35.15000 327.777
35.16000 334.185
35.17000 323.346
35.18000 316.162
35.19000 313.916
35.20000 314.979
35.21000 315.986
35.22000 315.363
35.23000 313.988
35.24000 312.685
35.25000 311.495
35.26000 310.432
35.27000 309.626
35.28000 310.886
35.29000 312.596
35.30000 313.812
35.31000 312.468
35.32000 310.760
35.33000 309.408
35.34000 312.273
35.35000 314.867
35.36000 318.496
35.37000 324.622
35.38000 330.859
35.39000 333.872
35.40000 331.505
35.41000 329.055
35.42000 327.756
35.43000 319.535
35.44000 313.964
35.45000 313.040
35.46000 315.579
35.47000 318.083
35.48000 319.231
35.49000 319.687
35.50000 320.123
35.51000 317.387
35.52000 313.793
35.53000 310.564
35.54000 310.704
35.55000 311.661
35.56000 312.524
35.57000 312.837
35.58000 313.062
35.59000 313.244
35.60000 309.977
35.61000 307.035
35.62000 305.135
35.63000 306.017
35.64000 307.050
35.65000 310.051
35.66000 316.692
35.67000 323.413
35.68000 327.167
35.69000 324.496
35.70000 322.623
35.71000 316.177
35.72000 305.927
35.73000 295.786
35.74000 291.320
35.75000 290.063
35.76000 288.848
35.77000 294.292
35.78000 301.871
35.79000 308.480
35.80000 304.745
35.81000 298.220
35.82000 292.940
35.83000 295.801
35.84000 300.137
35.85000 303.727
35.86000 299.931
35.87000 296.097
35.88000 295.130
35.89000 302.633
35.90000 310.691
35.91000 315.100
35.92000 312.044
35.93000 308.766
35.94000 306.846
35.95000 311.742
35.96000 315.221
35.97000 311.869
35.98000 302.152
35.99000 292.646
36.00000 299.421
36.01000 316.398
36.02000 332.912
36.03000 328.823
36.04000 316.453
36.05000 304.687
36.06000 300.440
36.07000 298.442
36.08000 297.336
36.09000 302.838
36.10000 309.681
36.11000 315.462
36.12000 307.565
36.13000 299.460
36.14000 294.311
36.15000 298.831
36.16000 304.103
36.17000 305.775
36.18000 299.296
36.19000 292.506
36.20000 288.348
36.21000 299.816
36.22000 308.158
36.23000 309.309
36.24000 302.927
36.25000 296.561
36.26000 292.277
36.27000 289.441
36.28000 286.665
36.29000 292.765
36.30000 302.706
36.31000 311.891
36.32000 309.948
36.33000 304.318
36.34000 299.430
36.35000 300.820
36.36000 303.631
36.37000 306.051
36.38000 309.480
36.39000 312.513
36.40000 313.894
36.41000 309.286
36.42000 304.134
36.43000 301.447
36.44000 304.928
36.45000 308.704
36.46000 311.113
36.47000 302.742
36.48000 296.515
36.49000 297.285
36.50000 306.269
36.51000 315.228
36.52000 314.567
36.53000 306.451
36.54000 298.459
36.55000 295.766
36.56000 295.876
36.57000 296.288
36.58000 302.036
36.59000 309.741
36.60000 316.734
36.61000 316.827
36.62000 315.179
36.63000 313.736
36.64000 322.586
36.65000 331.663
36.66000 335.435
36.67000 317.843
36.68000 298.002
36.69000 285.431
36.70000 292.980
36.71000 301.702
36.72000 307.481
36.73000 302.622
36.74000 298.839
36.75000 298.810
36.76000 303.703
36.77000 308.610
36.78000 307.735
36.79000 301.854
36.80000 296.034
36.81000 297.944
36.82000 304.241
36.83000 310.162
36.84000 307.948
36.85000 302.435
36.86000 297.973
36.87000 305.324
36.88000 315.983
36.89000 325.474
36.90000 323.077
36.91000 319.044
36.92000 315.420
36.93000 313.623
36.94000 312.047
36.95000 310.707
36.96000 310.088
36.97000 309.520
36.98000 309.129
36.99000 304.215
37.00000 300.419
37.01000 300.360
37.02000 305.753
37.03000 311.193
37.04000 312.684
37.05000 310.340
37.06000 308.013
37.07000 305.609
37.08000 303.193
37.09000 300.812
37.10000 299.401
37.11000 298.423
37.12000 297.700
37.13000 300.319
37.14000 303.975
37.15000 307.280
37.16000 307.794
37.17000 307.728
37.18000 306.620
37.19000 300.293
37.20000 293.249
37.21000 287.890
37.22000 288.249
37.23000 289.078
37.24000 289.666
37.25000 295.684
37.26000 300.434
37.27000 300.774
37.28000 293.969
37.29000 287.066
37.30000 284.718
37.31000 287.341
37.32000 289.957
37.33000 295.115
37.34000 302.049
37.35000 308.862
37.36000 311.450
37.37000 311.944
37.38000 312.068
37.39000 306.403
37.40000 298.749
37.41000 291.735
37.42000 295.048
37.43000 300.163
37.44000 304.049
37.45000 301.037
37.46000 296.951
37.47000 293.460
37.48000 292.205
37.49000 291.165
37.50000 290.404
37.51000 293.101
37.52000 295.320
37.53000 298.714
37.54000 304.221
37.55000 309.771
37.56000 310.003
37.57000 303.739
37.58000 297.469
37.59000 293.422
37.60000 291.176
37.61000 288.931
37.62000 286.729
37.63000 284.552
37.64000 282.634
37.65000 285.638
37.66000 290.513
37.67000 295.036
37.68000 289.771
37.69000 282.717
37.70000 277.684
37.71000 285.419
37.72000 295.392
37.73000 302.519
37.74000 297.739
37.75000 291.641
37.76000 287.049
37.77000 293.131
37.78000 298.410
37.79000 302.468
37.80000 304.097
37.81000 305.661
37.82000 305.355
37.83000 302.502
37.84000 299.636
37.85000 299.489
37.86000 301.791
37.87000 304.072
37.88000 304.944
37.89000 304.958
37.90000 304.748
37.91000 299.284
37.92000 291.613
37.93000 284.411
37.94000 289.109
37.95000 296.544
37.96000 303.687
37.97000 308.744
37.98000 313.390
37.99000 316.122
38.00000 309.925
38.01000 302.599
38.02000 296.933
38.03000 299.475
38.04000 301.975
38.05000 304.233
38.06000 305.961
38.07000 307.670
38.08000 306.761
38.09000 301.884
38.10000 296.967
38.11000 294.493
38.12000 300.123
38.13000 303.897
38.14000 309.048
38.15000 315.130
38.16000 321.145
38.17000 325.171
38.18000 328.274
38.19000 331.217
38.20000 328.311
38.21000 323.893
38.22000 319.404
38.23000 314.322
38.24000 309.111
38.25000 305.878
38.26000 312.956
38.27000 321.518
38.28000 328.305
38.29000 333.858
38.30000 338.239
38.31000 341.993
38.32000 344.224
38.33000 346.387
38.34000 350.505
38.35000 357.910
38.36000 365.368
38.37000 369.338
38.38000 380.586
38.39000 388.211
38.40000 387.927
38.41000 381.700
38.42000 375.828
38.43000 383.720
38.44000 398.689
38.45000 413.026
38.46000 429.047
38.47000 444.545
38.48000 460.629
38.49000 482.164
38.50000 505.031
38.51000 526.347
38.52000 538.580
38.53000 549.338
38.54000 558.067
38.55000 608.323
38.56000 652.713
38.57000 689.766
38.58000 707.094
38.59000 723.334
38.60000 745.731
38.61000 779.597
38.62000 813.722
38.63000 832.848
38.64000 872.290
38.65000 899.672
38.66000 922.941
38.67000 942.760
38.68000 962.510
38.69000 978.562
38.70000 992.509
38.71000 1005.980
38.72000 1015.617
38.73000 1023.276
38.74000 1029.827
38.75000 1024.430
38.76000 1015.786
38.77000 1007.696
38.78000 1003.253
38.79000 999.477
38.80000 996.347
38.81000 961.873
38.82000 930.387
38.83000 899.251
38.84000 869.157
38.85000 839.132
38.86000 807.136
38.87000 771.076
38.88000 734.894
38.89000 713.627
38.90000 678.159
38.91000 653.077
38.92000 622.819
38.93000 587.699
38.94000 552.718
38.95000 528.715
38.96000 511.643
38.97000 495.028
38.98000 481.178
38.99000 469.136
39.00000 456.882
39.01000 441.948
39.02000 426.206
39.03000 412.123
39.04000 410.441
39.05000 411.295
39.06000 412.018
39.07000 393.533
39.08000 375.930
39.09000 360.561
39.10000 352.550
39.11000 345.118
39.12000 337.223
39.13000 328.272
39.14000 319.281
39.15000 313.758
39.16000 317.924
39.17000 320.994
39.18000 321.957
39.19000 320.695
39.20000 319.409
39.21000 314.948
39.22000 308.262
39.23000 301.712
39.24000 304.774
39.25000 312.171
39.26000 318.973
39.27000 316.913
39.28000 311.894
39.29000 306.957
39.30000 302.719
39.31000 298.639
39.32000 295.122
39.33000 292.774
39.34000 290.932
39.35000 289.870
39.36000 291.657
39.37000 293.706
39.38000 294.904
39.39000 293.961
39.40000 292.913
39.41000 292.243
39.42000 293.699
39.43000 294.788
39.44000 294.331
39.45000 292.045
39.46000 289.751
39.47000 286.311
39.48000 281.976
39.49000 277.705
39.50000 283.326
39.51000 293.896
39.52000 303.814
39.53000 302.050
39.54000 295.973
39.55000 290.018
39.56000 285.269
39.57000 280.826
39.58000 276.929
39.59000 278.786
39.60000 281.217
39.61000 282.607
39.62000 279.765
39.63000 276.473
39.64000 273.871
39.65000 273.192
39.66000 272.626
39.67000 272.250
39.68000 270.557
39.69000 269.280
39.70000 270.666
39.71000 275.568
39.72000 280.479
39.73000 279.763
39.74000 274.135
39.75000 268.563
39.76000 266.964
39.77000 267.695
39.78000 268.519
39.79000 271.400
39.80000 275.123
39.81000 278.359
39.82000 276.068
39.83000 272.219
39.84000 268.788
39.85000 270.789
39.86000 273.428
39.87000 275.335
39.88000 273.932
39.89000 272.126
39.90000 271.129
39.91000 272.625
39.92000 274.297
39.93000 275.448
39.94000 273.178
39.95000 271.389
39.96000 270.357
39.97000 270.437
39.98000 270.526
39.99000 270.374
40.00000 269.985
40.01000 269.598
40.02000 268.283
40.03000 266.386
40.04000 264.526
40.05000 263.683
40.06000 263.299
40.07000 263.040
40.08000 264.461
40.09000 266.406
40.10000 268.166
40.11000 266.129
40.12000 263.623
40.13000 261.210
40.14000 259.269
40.15000 257.394
40.16000 256.244
40.17000 257.576
40.18000 259.114
40.19000 260.208
40.20000 265.328
40.21000 269.357
40.22000 272.126
40.23000 272.839
40.24000 273.524
40.25000 269.679
40.26000 260.852
40.27000 252.052
40.28000 251.536
40.29000 257.007
40.30000 262.415
40.31000 265.582
40.32000 267.628
40.33000 269.405
40.34000 266.911
40.35000 262.938
40.36000 259.294
40.37000 257.556
40.38000 256.411
40.39000 255.614
40.40000 256.790
40.41000 258.277
40.42000 259.336
40.43000 258.773
40.44000 258.052
40.45000 257.524
40.46000 259.589
40.47000 261.288
40.48000 263.833
40.49000 267.910
40.50000 272.018
40.51000 271.065
40.52000 263.878
40.53000 256.686
40.54000 253.647
40.55000 253.982
40.56000 254.309
40.57000 254.225
40.58000 253.916
40.59000 253.626
40.60000 253.726
40.61000 253.975
40.62000 254.207
40.63000 255.477
40.64000 256.871
40.65000 257.899
40.66000 256.603
40.67000 254.895
40.68000 254.259
40.69000 258.141
40.70000 262.527
40.71000 265.836
40.72000 265.117
40.73000 264.355
40.74000 261.616
40.75000 254.915
40.76000 248.104
40.77000 245.485
40.78000 248.623
40.79000 251.796
40.80000 252.423
40.81000 250.739
40.82000 249.105
40.83000 251.058
40.84000 255.209
40.85000 259.032
40.86000 255.098
40.87000 247.880
40.88000 241.099
40.89000 242.380
40.90000 245.702
40.91000 248.987
40.92000 251.999
40.93000 254.957
40.94000 256.659
40.95000 252.460
40.96000 247.506
40.97000 243.669
40.98000 239.794
40.99000 236.714
41.00000 235.651
41.01000 239.058
41.02000 242.627
41.03000 245.770
41.04000 248.263
41.05000 250.750
41.06000 252.006
41.07000 248.774
41.08000 246.653
41.09000 249.187
41.10000 254.887
41.11000 260.279
41.12000 256.376
41.13000 248.123
41.14000 240.288
41.15000 243.298
41.16000 249.323
41.17000 254.610
41.18000 253.840
41.19000 251.730
41.20000 249.462
41.21000 246.362
41.22000 243.141
41.23000 240.583
41.24000 244.567
41.25000 248.237
41.26000 249.299
41.27000 243.969
41.28000 238.348
41.29000 238.200
41.30000 247.323
41.31000 256.598
41.32000 261.554
41.33000 259.451
41.34000 257.998
41.35000 253.464
41.36000 246.599
41.37000 239.925
41.38000 240.857
41.39000 245.726
41.40000 250.393
41.41000 248.640
41.42000 244.853
41.43000 241.580
41.44000 243.144
41.45000 245.900
41.46000 248.331
41.47000 248.836
41.48000 249.026
41.49000 249.180
41.50000 245.933
41.51000 243.001
41.52000 242.488
41.53000 248.531
41.54000 254.940
41.55000 257.537
41.56000 252.980
41.57000 248.257
41.58000 245.601
41.59000 246.479
41.60000 247.094
41.61000 246.189
41.62000 243.997
41.63000 241.899
41.64000 244.889
41.65000 250.797
41.66000 256.508
41.67000 253.107
41.68000 246.488
41.69000 240.568
41.70000 242.254
41.71000 246.023
41.72000 248.941
41.73000 246.198
41.74000 242.412
41.75000 239.268
41.76000 239.538
41.77000 240.093
41.78000 240.626
41.79000 241.096
41.80000 241.562
41.81000 241.916
41.82000 242.037
41.83000 242.152
41.84000 242.219
41.85000 244.467
41.86000 246.066
41.87000 247.043
41.88000 247.434
41.89000 247.791
41.90000 245.429
41.91000 241.338
41.92000 237.354
41.93000 239.010
41.94000 242.947
41.95000 246.585
41.96000 246.427
41.97000 245.117
41.98000 244.194
41.99000 246.188
42.00000 248.783
42.01000 250.982
42.02000 246.625
42.03000 242.241
42.04000 239.720
42.05000 243.385
42.06000 247.542
42.07000 250.724
42.08000 251.669
42.09000 252.526
42.10000 253.054
42.11000 253.133
42.12000 253.185
42.13000 248.681
42.14000 239.323
42.15000 229.997
42.16000 225.068
42.17000 223.247
42.18000 221.462
42.19000 226.061
42.20000 233.466
42.21000 240.686
42.22000 245.105
42.23000 248.582
42.24000 251.197
42.25000 246.397
42.26000 239.892
42.27000 234.276
42.28000 232.674
42.29000 231.830
42.30000 231.516
42.31000 233.149
42.32000 234.962
42.33000 235.248
42.34000 231.655
42.35000 227.872
42.36000 225.445
42.37000 238.744
42.38000 248.653
42.39000 250.083
42.40000 241.400
42.41000 232.730
42.42000 233.580
42.43000 241.927
42.44000 250.152
42.45000 250.029
42.46000 245.558
42.47000 241.438
42.48000 243.691
42.49000 248.315
42.50000 252.547
42.51000 252.894
42.52000 252.247
42.53000 251.679
42.54000 248.527
42.55000 245.438
42.56000 242.594
42.57000 240.747
42.58000 239.007
42.59000 236.424
42.60000 231.469
42.61000 226.372
42.62000 222.977
42.63000 228.537
42.64000 232.824
42.65000 235.918
42.66000 237.422
42.67000 238.915
42.68000 237.391
42.69000 233.212
42.70000 229.074
42.71000 229.429
42.72000 232.393
42.73000 235.314
42.74000 237.264
42.75000 238.814
42.76000 239.854
42.77000 235.022
42.78000 228.520
42.79000 222.719
42.80000 226.300
42.81000 230.984
42.82000 235.753
42.83000 240.915
42.84000 246.125
42.85000 249.356
42.86000 246.436
42.87000 243.076
42.88000 240.759
42.89000 245.116
42.90000 248.560
42.91000 248.561
42.92000 243.462
42.93000 238.316
42.94000 234.407
42.95000 231.720
42.96000 229.049
42.97000 230.329
42.98000 234.164
42.99000 237.767
43.00000 234.868
43.01000 229.011
43.02000 223.917
43.03000 229.118
43.04000 237.561
43.05000 245.208
43.06000 240.106
43.07000 233.202
43.08000 227.312
43.09000 226.587
43.10000 226.585
43.11000 227.094
43.12000 229.360
43.13000 231.773
43.14000 233.494
43.15000 230.906
43.16000 228.792
43.17000 227.687
43.18000 228.241
43.19000 228.819
43.20000 230.085
43.21000 232.115
43.22000 234.139
43.23000 233.962
43.24000 232.185
43.25000 230.434
43.26000 229.678
43.27000 229.422
43.28000 229.456
43.29000 234.156
43.30000 240.483
43.31000 246.292
43.32000 238.051
43.33000 227.704
43.34000 219.573
43.35000 224.086
43.36000 230.601
43.37000 234.961
43.38000 231.089
43.39000 226.410
43.40000 222.972
43.41000 230.651
43.42000 237.044
43.43000 239.876
43.44000 236.217
43.45000 232.422
43.46000 229.148
43.47000 226.522
43.48000 223.901
43.49000 223.898
43.50000 226.032
43.51000 228.098
43.52000 226.840
43.53000 223.731
43.54000 220.960
43.55000 224.777
43.56000 231.135
43.57000 237.045
43.58000 235.869
43.59000 233.108
43.60000 230.493
43.61000 228.819
43.62000 227.312
43.63000 226.645
43.64000 229.543
43.65000 232.844
43.66000 235.339
43.67000 234.807
43.68000 234.238
43.69000 232.519
43.70000 228.479
43.71000 224.372
43.72000 222.437
43.73000 223.504
43.74000 224.591
43.75000 222.817
43.76000 218.423
43.77000 214.114
43.78000 215.888
43.79000 221.418
43.80000 226.813
43.81000 228.937
43.82000 229.666
43.83000 230.351
43.84000 229.062
43.85000 227.353
43.86000 225.789
43.87000 225.283
43.88000 224.988
43.89000 224.681
43.90000 224.318
43.91000 223.948
43.92000 223.660
43.93000 219.441
43.94000 215.849
43.95000 215.561
43.96000 222.645
43.97000 230.002
43.98000 234.264
43.99000 233.766
44.00000 233.217
44.01000 232.938
44.02000 227.600
44.03000 224.035
44.04000 221.742
44.05000 220.322
44.06000 218.895
44.07000 217.262
44.08000 215.532
44.09000 213.888
44.10000 217.475
44.11000 222.368
44.12000 226.938
44.13000 228.831
44.14000 230.128
44.15000 231.442
44.16000 232.848
44.17000 234.268
44.18000 235.397
44.19000 239.257
44.20000 242.564
44.21000 242.794
44.22000 235.435
44.23000 227.723
44.24000 224.071
44.25000 227.345
44.26000 230.735
44.27000 232.554
44.28000 232.101
44.29000 231.794
44.30000 232.201
44.31000 233.154
44.32000 234.058
44.33000 232.958
44.34000 230.811
44.35000 228.752
44.36000 227.370
44.37000 226.306
44.38000 225.216
44.39000 223.869
44.40000 222.458
44.41000 221.958
44.42000 226.879
44.43000 232.696
44.44000 237.430
44.45000 241.349
44.46000 244.482
44.47000 244.851
44.48000 237.680
44.49000 230.082
44.50000 228.250
44.51000 237.318
44.52000 246.643
44.53000 251.906
44.54000 244.039
44.55000 238.543
44.56000 237.566
44.57000 240.439
44.58000 243.292
44.59000 244.977
44.60000 245.989
44.61000 246.967
44.62000 245.716
44.63000 243.693
44.64000 242.056
44.65000 244.658
44.66000 248.429
44.67000 251.326
44.68000 248.355
44.69000 244.294
44.70000 240.917
44.71000 255.078
44.72000 268.518
44.73000 276.536
44.74000 268.189
44.75000 258.727
44.76000 254.685
44.77000 261.978
44.78000 269.628
44.79000 274.153
44.80000 286.762
44.81000 295.717
44.82000 298.030
44.83000 293.997
44.84000 290.053
44.85000 293.704
44.86000 302.222
44.87000 310.520
44.88000 315.912
44.89000 319.829
44.90000 324.067
44.91000 332.430
44.92000 342.056
44.93000 351.438
44.94000 358.964
44.95000 366.104
44.96000 372.162
44.97000 378.867
44.98000 384.564
44.99000 390.762
45.00000 398.639
45.01000 406.651
45.02000 411.643
45.03000 409.652
45.04000 407.381
45.05000 405.978
45.06000 414.850
45.07000 421.320
45.08000 424.248
45.09000 423.372
45.10000 422.471
45.11000 418.014
45.12000 411.026
45.13000 404.175
45.14000 402.377
45.15000 403.024
45.16000 403.652
45.17000 403.984
45.18000 404.216
45.19000 404.033
45.20000 400.247
45.21000 395.625
45.22000 391.631
45.23000 391.209
45.24000 391.314
45.25000 392.160
45.26000 395.754
45.27000 399.606
45.28000 398.939
45.29000 386.720
45.30000 373.925
45.31000 365.692
45.32000 364.503
45.33000 363.734
45.34000 358.456
45.35000 347.756
45.36000 337.043
45.37000 325.569
45.38000 313.493
45.39000 301.588
45.40000 305.740
45.41000 318.212
45.42000 329.953
45.43000 328.258
45.44000 321.528
45.45000 314.845
45.46000 308.636
45.47000 302.550
45.48000 297.198
45.49000 293.553
45.50000 290.669
45.51000 288.314
45.52000 288.137
45.53000 288.196
45.54000 287.786
45.55000 286.048
45.56000 284.230
45.57000 283.015
45.58000 281.111
45.59000 279.686
45.60000 278.531
45.61000 277.735
45.62000 276.940
45.63000 273.432
45.64000 267.519
45.65000 261.662
45.66000 261.247
45.67000 264.034
45.68000 266.552
45.69000 262.967
45.70000 256.853
45.71000 251.274
45.72000 251.912
45.73000 254.331
45.74000 256.491
45.75000 257.520
45.76000 258.227
45.77000 258.408
45.78000 256.181
45.79000 253.654
45.80000 249.813
45.81000 241.856
45.82000 233.601
45.83000 227.892
45.84000 231.829
45.85000 235.040
45.86000 236.768
45.87000 236.284
45.88000 235.778
45.89000 234.262
45.90000 231.739
45.91000 229.231
45.92000 226.251
45.93000 223.002
45.94000 219.752
45.95000 216.491
45.96000 213.225
45.97000 210.387
45.98000 213.388
45.99000 218.242
46.00000 222.642
46.01000 220.556
46.02000 217.479
46.03000 214.725
46.04000 213.627
46.05000 212.764
46.06000 211.917
46.07000 211.130
46.08000 210.348
46.09000 209.789
46.10000 216.251
46.11000 221.416
46.12000 224.520
46.13000 224.209
46.14000 223.846
46.15000 221.041
46.16000 215.504
46.17000 209.982
46.18000 208.395
46.19000 209.710
46.20000 211.046
46.21000 213.200
46.22000 215.768
46.23000 218.007
46.24000 214.890
46.25000 209.891
46.26000 205.297
46.27000 206.779
46.28000 209.408
46.29000 211.010
46.30000 206.709
46.31000 201.464
46.32000 197.558
46.33000 198.812
46.34000 200.576
46.35000 201.875
46.36000 204.932
46.37000 207.371
46.38000 208.871
46.39000 208.648
46.40000 208.388
46.41000 207.334
46.42000 205.289
46.43000 203.242
46.44000 203.978
46.45000 207.001
46.46000 209.954
46.47000 209.383
46.48000 206.834
46.49000 204.306
46.50000 202.186
46.51000 200.225
46.52000 198.401
46.53000 202.906
46.54000 208.507
46.55000 212.979
46.56000 210.134
46.57000 205.974
46.58000 201.913
46.59000 198.277
46.60000 194.689
46.61000 191.971
46.62000 198.670
46.63000 204.406
46.64000 207.979
46.65000 207.157
46.66000 206.208
46.67000 205.428
46.68000 204.885
46.69000 204.344
46.70000 205.188
46.71000 207.311
46.72000 209.380
46.73000 207.458
46.74000 203.053
46.75000 198.938
46.76000 201.934
46.77000 207.982
46.78000 213.674
46.79000 210.500
46.80000 205.192
46.81000 200.467
46.82000 200.024
46.83000 200.443
46.84000 200.690
46.85000 200.114
46.86000 199.430
46.87000 198.899
46.88000 197.233
46.89000 195.838
46.90000 194.201
46.91000 192.020
46.92000 189.818
46.93000 189.815
46.94000 193.218
46.95000 196.660
46.96000 198.414
46.97000 197.842
46.98000 197.463
46.99000 197.677
47.00000 198.301
47.01000 198.844
47.02000 196.847
47.03000 193.643
47.04000 190.598
47.05000 191.134
47.06000 192.720
47.07000 194.322
47.08000 196.063
47.09000 197.834
47.10000 198.990
47.11000 196.857
47.12000 194.238
47.13000 192.151
47.14000 190.723
47.15000 189.619
47.16000 190.170
47.17000 194.834
47.18000 199.692
47.19000 201.487
47.20000 198.018
47.21000 194.457
47.22000 192.540
47.23000 192.375
47.24000 192.278
47.25000 195.725
47.26000 201.897
47.27000 207.910
47.28000 207.377
47.29000 203.404
47.30000 199.591
47.31000 195.019
47.32000 190.485
47.33000 186.433
47.34000 187.000
47.35000 188.722
47.36000 190.786
47.37000 194.897
47.38000 199.349
47.39000 202.980
47.40000 203.299
47.41000 203.278
47.42000 202.365
47.43000 199.002
47.44000 195.498
47.45000 192.332
47.46000 189.808
47.47000 187.300
47.48000 185.879
47.49000 197.328
47.50000 205.321
47.51000 205.411
47.52000 198.715
47.53000 192.117
47.54000 191.256
47.55000 193.734
47.56000 196.131
47.57000 193.909
47.58000 190.053
47.59000 186.898
47.60000 191.550
47.61000 198.371
47.62000 203.863
47.63000 200.361
47.64000 195.173
47.65000 190.853
47.66000 187.939
47.67000 185.665
47.68000 183.289
47.69000 180.603
47.70000 177.894
47.71000 178.059
47.72000 184.273
47.73000 190.681
47.74000 194.485
47.75000 193.313
47.76000 192.456
47.77000 192.378
47.78000 193.051
47.79000 193.696
47.80000 191.864
47.81000 188.432
47.82000 185.087
47.83000 184.611
47.84000 185.377
47.85000 186.408
47.86000 190.901
47.87000 196.461
47.88000 201.362
47.89000 201.200
47.90000 199.978
47.91000 198.940
47.92000 197.226
47.93000 195.710
47.94000 194.598
47.95000 194.844
47.96000 195.202
47.97000 195.302
47.98000 194.806
47.99000 194.286
48.00000 193.964
48.01000 193.663
48.02000 193.448
48.03000 193.470
48.04000 193.750
48.05000 194.006
48.06000 190.639
48.07000 184.673
48.08000 178.821
48.09000 179.691
48.10000 183.719
48.11000 187.720
48.12000 191.302
48.13000 194.740
48.14000 197.597
48.15000 195.348
48.16000 191.906
48.17000 188.927
48.18000 193.077
48.19000 197.540
48.20000 199.792
48.21000 193.779
48.22000 186.982
48.23000 181.928
48.24000 181.361
48.25000 181.022
48.26000 180.803
48.27000 181.148
48.28000 181.407
48.29000 183.409
48.30000 187.520
48.31000 191.624
48.32000 191.564
48.33000 188.174
48.34000 184.831
48.35000 181.763
48.36000 178.926
48.37000 176.342
48.38000 178.460
48.39000 182.354
48.40000 185.887
48.41000 185.783
48.42000 184.735
48.43000 183.811
48.44000 183.774
48.45000 183.874
48.46000 184.102
48.47000 184.862
48.48000 185.679
48.49000 185.492
48.50000 182.443
48.51000 179.218
48.52000 177.059
48.53000 186.478
48.54000 193.695
48.55000 195.874
48.56000 191.240
48.57000 186.570
48.58000 182.794
48.59000 179.818
48.60000 176.870
48.61000 175.071
48.62000 173.989
48.63000 173.040
48.64000 175.159
48.65000 178.557
48.66000 181.522
48.67000 179.395
48.68000 175.799
48.69000 172.583
48.70000 175.122
48.71000 178.314
48.72000 181.529
48.73000 184.848
48.74000 188.181
48.75000 190.132
48.76000 187.726
48.77000 185.001
48.78000 183.113
48.79000 181.859
48.80000 180.931
48.81000 180.706
48.82000 181.535
48.83000 182.375
48.84000 182.256
48.85000 181.174
48.86000 180.098
48.87000 182.108
48.88000 186.133
48.89000 190.032
48.90000 190.251
48.91000 188.772
48.92000 187.002
48.93000 181.217
48.94000 174.149
48.95000 167.734
48.96000 173.290
48.97000 180.496
48.98000 185.913
48.99000 182.070
49.00000 176.907
49.01000 172.577
49.02000 171.159
49.03000 169.991
49.04000 169.155
49.05000 173.139
49.06000 176.345
49.07000 179.622
49.08000 183.017
49.09000 186.413
49.10000 187.153
49.11000 184.895
49.12000 182.642
49.13000 179.996
49.14000 177.080
49.15000 174.272
49.16000 175.612
49.17000 179.068
49.18000 182.172
49.19000 179.449
49.20000 174.665
49.21000 170.266
49.22000 171.169
49.23000 173.127
49.24000 175.352
49.25000 179.122
49.26000 183.141
49.27000 186.994
49.28000 190.200
49.29000 193.342
49.30000 195.660
49.31000 193.735
49.32000 192.064
49.33000 190.303
49.34000 188.377
49.35000 186.448
49.36000 182.523
49.37000 176.081
49.38000 169.639
49.39000 168.995
49.40000 173.161
49.41000 177.290
49.42000 179.461
49.43000 180.527
49.44000 181.539
49.45000 181.487
49.46000 181.019
49.47000 180.583
49.48000 180.289
49.49000 180.058
49.50000 179.782
49.51000 179.215
49.52000 178.594
49.53000 178.293
49.54000 179.374
49.55000 180.614
49.56000 181.555
49.57000 181.602
49.58000 181.593
49.59000 180.347
49.60000 176.567
49.61000 172.712
49.62000 172.883
49.63000 178.708
49.64000 184.571
49.65000 185.471
49.66000 181.749
49.67000 178.048
49.68000 176.028
49.69000 175.061
49.70000 174.177
49.71000 175.351
49.72000 177.416
49.73000 179.360
49.74000 183.965
49.75000 188.906
49.76000 192.512
49.77000 186.232
49.78000 177.945
49.79000 171.378
49.80000 173.089
49.81000 175.887
49.82000 178.067
49.83000 180.342
49.84000 182.160
49.85000 183.345
49.86000 183.099
49.87000 182.797
49.88000 180.949
49.89000 176.685
49.90000 172.393
49.91000 170.197
49.92000 177.667
49.93000 182.637
49.94000 181.323
49.95000 175.635
49.96000 170.100
49.97000 169.425
49.98000 171.077
49.99000 172.647
50.00000 176.006
50.01000 179.662
50.02000 182.869
50.03000 182.280
50.04000 180.830
50.05000 178.784
50.06000 173.527
50.07000 167.791
50.08000 163.212
50.09000 169.855
50.10000 176.044
50.11000 179.829
50.12000 177.599
50.13000 175.082
50.14000 174.066
50.15000 175.648
50.16000 177.276
50.17000 178.155
50.18000 177.963
50.19000 177.821
50.20000 175.177
50.21000 170.595
50.22000 166.165
50.23000 168.168
50.24000 173.574
50.25000 178.766
50.26000 181.674
50.27000 183.613
50.28000 185.508
50.29000 186.985
50.30000 188.357
50.31000 189.640
50.32000 190.380
50.33000 191.030
50.34000 191.560
50.35000 192.442
50.36000 193.195
50.37000 193.808
50.38000 194.037
50.39000 194.243
50.40000 196.024
50.41000 200.826
50.42000 205.703
50.43000 208.475
50.44000 203.206
50.45000 199.516
50.46000 200.322
50.47000 205.022
50.48000 209.676
50.49000 211.653
50.50000 212.061
50.51000 212.456
50.52000 214.278
50.53000 216.549
50.54000 219.114
50.55000 224.997
50.56000 231.809
50.57000 237.151
50.58000 232.446
50.59000 225.844
50.60000 220.337
50.61000 226.699
50.62000 233.162
50.63000 239.214
50.64000 244.005
50.65000 248.708
50.66000 252.106
50.67000 252.738
50.68000 253.278
50.69000 253.601
50.70000 245.536
50.71000 239.772
50.72000 243.263
50.73000 255.742
50.74000 268.113
50.75000 270.600
50.76000 266.658
50.77000 262.815
50.78000 256.249
50.79000 248.814
50.80000 241.715
50.81000 239.066
50.82000 237.798
50.83000 236.888
50.84000 238.750
50.85000 241.198
50.86000 243.280
50.87000 243.112
50.88000 242.710
50.89000 242.362
50.90000 242.196
50.91000 242.045
50.92000 241.552
50.93000 240.257
50.94000 238.928
50.95000 238.102
50.96000 227.814
50.97000 220.312
50.98000 216.413
50.99000 216.445
51.00000 216.479
51.01000 216.455
51.02000 216.388
51.03000 216.323
51.04000 211.784
51.05000 205.270
51.06000 199.069
51.07000 197.764
51.08000 198.141
51.09000 198.484
51.10000 198.530
51.11000 198.505
51.12000 198.483
51.13000 194.648
51.14000 190.879
51.15000 187.904
51.16000 187.915
51.17000 188.213
51.18000 187.944
51.19000 186.202
51.20000 184.385
51.21000 183.209
51.22000 184.948
51.23000 186.263
51.24000 186.554
51.25000 185.597
51.26000 184.644
51.27000 186.619
51.28000 190.953
51.29000 195.229
51.30000 190.615
51.31000 181.381
51.32000 172.473
51.33000 169.739
51.34000 169.353
51.35000 169.227
51.36000 171.767
51.37000 175.004
51.38000 177.856
51.39000 175.145
51.40000 171.968
51.41000 169.626
51.42000 170.775
51.43000 172.310
51.44000 172.532
51.45000 168.984
51.46000 165.202
51.47000 162.662
51.48000 164.821
51.49000 166.520
51.50000 165.454
51.51000 160.619
51.52000 155.764
51.53000 154.027
51.54000 155.101
51.55000 156.165
51.56000 157.210
51.57000 158.221
51.58000 159.229
51.59000 160.141
51.60000 161.012
51.61000 162.025
51.62000 164.710
51.63000 167.881
51.64000 170.719
51.65000 172.378
51.66000 173.622
51.67000 173.418
51.68000 166.453
51.69000 158.634
51.70000 154.897
51.71000 164.129
51.72000 174.323
51.73000 181.407
51.74000 174.718
51.75000 169.306
51.76000 166.258
51.77000 166.791
51.78000 167.361
51.79000 166.533
51.80000 164.288
51.81000 162.055
51.82000 161.448
51.83000 161.933
51.84000 162.412
51.85000 162.764
51.86000 163.055
51.87000 163.407
51.88000 164.603
51.89000 166.071
51.90000 167.404
51.91000 169.120
51.92000 170.711
51.93000 171.625
51.94000 169.013
51.95000 165.893
51.96000 164.093
51.97000 166.939
51.98000 170.190
51.99000 172.522
52.00000 167.314
52.01000 163.072
52.02000 161.397
52.03000 164.041
52.04000 166.754
52.05000 166.325
52.06000 162.325
52.07000 158.333
52.08000 158.170
52.09000 160.866
52.10000 163.496
52.11000 163.546
52.12000 162.268
52.13000 161.208
52.14000 163.781
52.15000 167.649
52.16000 171.211
52.17000 167.551
52.18000 162.698
52.19000 158.510
52.20000 158.216
52.21000 158.555
52.22000 158.298
52.23000 155.710
52.24000 152.886
52.25000 150.798
52.26000 159.810
52.27000 167.274
52.28000 170.508
52.29000 165.859
52.30000 161.031
52.31000 160.512
52.32000 165.467
52.33000 170.437
52.34000 171.428
52.35000 169.090
52.36000 166.841
52.37000 169.385
52.38000 174.659
52.39000 179.503
52.40000 175.597
52.41000 168.243
52.42000 161.390
52.43000 160.899
52.44000 162.020
52.45000 162.840
52.46000 161.672
52.47000 160.141
52.48000 159.686
52.49000 163.913
52.50000 168.684
52.51000 172.312
52.52000 170.249
52.53000 168.329
52.54000 166.635
52.55000 165.405
52.56000 164.189
52.57000 164.197
52.58000 165.938
52.59000 167.691
52.60000 166.381
52.61000 162.193
52.62000 158.032
52.63000 155.944
52.64000 155.165
52.65000 154.436
52.66000 154.968
52.67000 156.049
52.68000 157.068
52.69000 160.331
52.70000 163.938
52.71000 166.789
52.72000 163.985
52.73000 160.025
52.74000 157.292
52.75000 160.519
52.76000 164.535
52.77000 167.670
52.78000 165.304
52.79000 163.072
52.80000 161.117
52.81000 159.789
52.82000 158.486
52.83000 156.172
52.84000 152.265
52.85000 148.339
52.86000 146.323
52.87000 159.874
52.88000 168.933
52.89000 170.117
52.90000 165.776
52.91000 161.507
52.92000 159.559
52.93000 158.730
52.94000 157.940
52.95000 158.770
52.96000 160.040
52.97000 161.152
52.98000 160.911
52.99000 160.362
53.00000 159.588
53.01000 157.594
53.02000 155.417
53.03000 153.676
53.04000 154.066
53.05000 154.540
53.06000 155.761
53.07000 158.865
53.08000 162.061
53.09000 165.068
53.10000 167.745
53.11000 170.416
53.12000 171.865
53.13000 166.080
53.14000 162.109
53.15000 158.934
53.16000 156.380
53.17000 153.872
53.18000 153.371
53.19000 153.939
53.20000 154.486
53.21000 158.507
53.22000 163.474
53.23000 167.600
53.24000 163.478
53.25000 157.260
53.26000 152.315
53.27000 155.136
53.28000 159.275
53.29000 162.659
53.30000 160.533
53.31000 158.312
53.32000 156.122
53.33000 154.018
53.34000 151.920
53.35000 150.948
53.36000 152.152
53.37000 153.410
53.38000 154.127
53.39000 156.020
53.40000 157.342
53.41000 156.837
53.42000 154.738
53.43000 152.689
53.44000 153.642
53.45000 156.368
53.46000 159.009
53.47000 163.387
53.48000 168.201
53.49000 172.186
53.50000 166.749
53.51000 158.654
53.52000 151.696
53.53000 152.577
53.54000 154.950
53.55000 156.932
53.56000 158.233
53.57000 159.244
53.58000 160.337
53.59000 161.681
53.60000 163.043
53.61000 164.331
53.62000 165.459
53.63000 166.582
53.64000 167.253
53.65000 158.163
53.66000 151.654
53.67000 151.310
53.68000 157.004
53.69000 162.673
53.70000 165.992
53.71000 167.771
53.72000 169.506
53.73000 165.857
53.74000 160.046
53.75000 154.531
53.76000 152.961
53.77000 152.626
53.78000 152.423
53.79000 153.262
53.80000 154.322
53.81000 155.226
53.82000 155.925
53.83000 156.488
53.84000 156.256
53.85000 153.302
53.86000 150.122
53.87000 148.678
53.88000 151.336
53.89000 154.167
53.90000 155.932
53.91000 160.504
53.92000 163.829
53.93000 165.141
53.94000 164.237
53.95000 163.344
53.96000 164.224
53.97000 166.397
53.98000 168.531
53.99000 166.256
54.00000 161.936
54.01000 158.127
54.02000 162.430
54.03000 169.541
54.04000 175.702
54.05000 173.353
54.06000 168.984
54.07000 165.195
54.08000 157.596
54.09000 150.615
54.10000 146.481
54.11000 153.146
54.12000 160.858
54.13000 165.674
54.14000 162.919
54.15000 159.769
54.16000 157.725
54.17000 155.922
54.18000 154.606
54.19000 153.768
54.20000 153.520
54.21000 153.277
54.22000 154.005
54.23000 155.523
54.24000 157.020
54.25000 153.917
54.26000 148.422
54.27000 143.471
54.28000 148.980
54.29000 158.495
54.30000 167.022
54.31000 165.361
54.32000 161.012
54.33000 157.174
54.34000 155.152
54.35000 153.684
54.36000 152.591
54.37000 153.078
54.38000 153.741
54.39000 155.277
54.40000 159.335
54.41000 163.552
54.42000 166.391
54.43000 162.884
54.44000 160.145
54.45000 158.003
54.46000 156.681
54.47000 155.366
54.48000 156.553
54.49000 160.016
54.50000 163.449
54.51000 163.747
54.52000 162.155
54.53000 160.703
54.54000 162.600
54.55000 165.914
54.56000 168.589
54.57000 163.587
54.58000 156.338
54.59000 149.841
54.60000 153.435
54.61000 158.321
54.62000 162.250
54.63000 161.675
54.64000 160.525
54.65000 160.055
54.66000 161.759
54.67000 163.626
54.68000 164.927
54.69000 161.108
54.70000 158.086
54.71000 155.843
54.72000 154.788
54.73000 153.745
54.74000 153.644
54.75000 154.504
54.76000 155.359
54.77000 154.865
54.78000 153.470
54.79000 152.194
54.80000 154.521
54.81000 158.536
54.82000 162.259
54.83000 161.862
54.84000 160.130
54.85000 158.554
54.86000 157.565
54.87000 156.805
54.88000 156.135
54.89000 155.933
54.90000 155.799
54.91000 156.330
54.92000 159.217
54.93000 162.311
54.94000 164.537
54.95000 166.621
54.96000 168.212
54.97000 167.431
54.98000 162.633
54.99000 157.769
55.00000 157.875
55.01000 163.677
55.02000 169.470
55.03000 170.941
55.04000 169.151
55.05000 167.322
55.06000 163.985
55.07000 159.865
55.08000 155.976
55.09000 155.978
55.10000 157.378
55.11000 158.667
55.12000 160.704
55.13000 162.692
55.14000 164.267
55.15000 163.406
55.16000 162.147
55.17000 161.762
55.18000 164.821
55.19000 168.231
55.20000 170.758
55.21000 168.220
55.22000 166.030
55.23000 166.005
55.24000 170.042
55.25000 174.173
55.26000 176.807
55.27000 177.523
55.28000 178.231
55.29000 176.736
55.30000 173.385
55.31000 170.122
55.32000 171.674
55.33000 175.988
55.34000 180.174
55.35000 181.707
55.36000 182.188
55.37000 182.636
55.38000 178.090
55.39000 172.734
55.40000 168.738
55.41000 173.793
55.42000 180.516
55.43000 187.219
55.44000 193.834
55.45000 200.440
55.46000 205.472
55.47000 202.615
55.48000 199.948
55.49000 197.985
55.50000 197.484
55.51000 197.027
55.52000 196.901
55.53000 197.248
55.54000 197.597
55.55000 201.074
55.56000 207.510
55.57000 213.958
55.58000 221.280
55.59000 229.160
55.60000 236.840
55.61000 239.384
55.62000 239.675
55.63000 239.950
55.64000 249.958
55.65000 261.836
55.66000 272.217
55.67000 271.298
55.68000 268.049
55.69000 267.398
55.70000 279.459
55.71000 293.221
55.72000 303.981
55.73000 317.939
55.74000 329.284
55.75000 340.259
55.76000 350.388
55.77000 360.484
55.78000 369.448
55.79000 376.620
55.80000 383.769
55.81000 387.456
55.82000 408.854
55.83000 423.281
55.84000 438.959
55.85000 455.521
55.86000 471.887
55.87000 481.716
55.88000 488.373
55.89000 494.715
55.90000 511.902
55.91000 531.208
55.92000 548.472
55.93000 548.154
55.94000 543.791
55.95000 541.367
55.96000 549.560
55.97000 559.364
55.98000 567.216
55.99000 561.132
56.00000 555.163
56.01000 550.267
56.02000 548.096
56.03000 546.060
56.04000 541.877
56.05000 533.923
56.06000 525.898
56.07000 521.529
56.08000 508.092
56.09000 498.850
56.10000 487.101
56.11000 473.379
56.12000 459.662
56.13000 446.215
56.14000 432.912
56.15000 420.123
56.16000 415.033
56.17000 412.947
56.18000 410.076
56.19000 399.423
56.20000 386.778
56.21000 374.612
56.22000 365.401
56.23000 356.695
56.24000 349.563
56.25000 333.699
56.26000 319.923
56.27000 308.413
56.28000 303.270
56.29000 298.507
56.30000 291.540
56.31000 280.283
56.32000 268.916
56.33000 262.411
56.34000 255.241
56.35000 250.231
56.36000 245.207
56.37000 240.169
56.38000 235.128
56.39000 229.901
56.40000 224.563
56.41000 219.390
56.42000 216.006
56.43000 213.500
56.44000 211.151
56.45000 210.617
56.46000 210.600
56.47000 209.626
56.48000 201.990
56.49000 193.075
56.50000 185.618
56.51000 185.486
56.52000 186.126
56.53000 186.419
56.54000 185.639
56.55000 184.782
56.56000 185.313
56.57000 188.831
56.58000 192.450
56.59000 194.618
56.60000 189.665
56.61000 186.101
56.62000 183.151
56.63000 180.808
56.64000 178.481
56.65000 177.601
56.66000 177.679
56.67000 177.754
56.68000 174.397
56.69000 169.693
56.70000 165.286
56.71000 164.879
56.72000 165.732
56.73000 166.179
56.74000 163.412
56.75000 159.956
56.76000 157.008
56.77000 162.508
56.78000 168.133
56.79000 172.061
56.80000 170.145
56.81000 167.736
56.82000 165.667
56.83000 164.407
56.84000 163.182
56.85000 162.416
56.86000 154.825
56.87000 149.275
56.88000 151.019
56.89000 160.859
56.90000 170.665
56.91000 173.688
56.92000 171.730
56.93000 169.807
56.94000 163.958
56.95000 156.404
56.96000 149.243
56.97000 148.392
56.98000 149.740
56.99000 151.017
57.00000 151.642
57.01000 152.112
57.02000 152.520
57.03000 152.379
57.04000 152.185
57.05000 152.124
57.06000 152.572
57.07000 153.070
57.08000 153.526
57.09000 153.870
57.10000 154.209
57.11000 154.429
57.12000 155.584
57.13000 156.444
57.14000 154.986
57.15000 150.650
57.16000 146.316
57.17000 146.323
57.18000 149.886
57.19000 153.403
57.20000 155.345
57.21000 156.381
57.22000 157.230
57.23000 154.422
57.24000 150.203
57.25000 146.494
57.26000 148.096
57.27000 151.109
57.28000 153.770
57.29000 153.152
57.30000 152.114
57.31000 151.460
57.32000 152.442
57.33000 153.608
57.34000 153.053
57.35000 147.486
57.36000 141.599
57.37000 137.626
57.38000 141.246
57.39000 144.101
57.40000 144.306
57.41000 140.844
57.42000 137.360
57.43000 135.818
57.44000 136.058
57.45000 136.295
57.46000 140.247
57.47000 146.377
57.48000 152.241
57.49000 151.692
57.50000 148.409
57.51000 145.299
57.52000 144.302
57.53000 143.927
57.54000 143.591
57.55000 144.651
57.56000 145.822
57.57000 147.556
57.58000 151.954
57.59000 156.696
57.60000 159.030
57.61000 153.607
57.62000 147.594
57.63000 143.396
57.64000 147.575
57.65000 150.965
57.66000 151.482
57.67000 147.580
57.68000 143.628
57.69000 141.604
57.70000 141.566
57.71000 141.529
57.72000 139.364
57.73000 135.784
57.74000 132.393
57.75000 134.794
57.76000 139.925
57.77000 144.697
57.78000 144.309
57.79000 142.235
57.80000 140.347
57.81000 137.088
57.82000 133.933
57.83000 131.400
57.84000 132.164
57.85000 133.411
57.86000 134.899
57.87000 137.251
57.88000 139.680
57.89000 141.431
57.90000 143.092
57.91000 144.361
57.92000 144.907
57.93000 144.221
57.94000 143.513
57.95000 141.978
57.96000 139.487
57.97000 137.000
57.98000 138.364
57.99000 142.641
58.00000 146.840
58.01000 147.909
58.02000 147.346
58.03000 146.767
58.04000 145.931
58.05000 145.001
58.06000 144.143
58.07000 143.565
58.08000 143.110
58.09000 142.881
58.10000 144.000
58.11000 145.341
58.12000 146.523
58.13000 147.070
58.14000 147.551
58.15000 147.908
58.16000 145.386
58.17000 143.300
58.18000 142.554
58.19000 144.344
58.20000 146.194
58.21000 144.801
58.22000 139.221
58.23000 133.630
58.24000 133.777
58.25000 138.802
58.26000 143.729
58.27000 143.123
58.28000 139.320
58.29000 135.717
58.30000 136.319
58.31000 138.603
58.32000 140.734
58.33000 141.962
58.34000 142.848
58.35000 143.604
58.36000 143.479
58.37000 143.191
58.38000 142.726
58.39000 141.485
58.40000 140.151
58.41000 139.133
58.42000 138.619
58.43000 138.241
58.44000 138.794
58.45000 141.292
58.46000 143.851
58.47000 144.128
58.48000 141.124
58.49000 138.095
58.50000 135.152
58.51000 132.292
58.52000 129.498
58.53000 132.225
58.54000 138.492
58.55000 144.539
58.56000 144.863
58.57000 142.657
58.58000 140.575
58.59000 143.968
58.60000 148.616
58.61000 152.253
58.62000 148.194
58.63000 142.534
58.64000 137.905
58.65000 138.353
58.66000 139.487
58.67000 140.375
58.68000 140.521
58.69000 140.589
58.70000 139.962
58.71000 137.725
58.72000 135.424
58.73000 134.468
58.74000 135.661
58.75000 136.882
58.76000 137.514
58.77000 139.364
58.78000 140.611
58.79000 141.782
58.80000 142.897
58.81000 143.929
58.82000 142.172
58.83000 139.051
58.84000 136.076
58.85000 133.726
58.86000 131.743
58.87000 130.161
58.88000 132.069
58.89000 134.787
58.90000 137.115
58.91000 137.286
58.92000 137.127
58.93000 137.000
58.94000 136.360
58.95000 135.803
58.96000 136.115
58.97000 138.648
58.98000 141.292
58.99000 141.327
59.00000 136.744
59.01000 132.073
59.02000 129.520
59.03000 136.464
59.04000 141.229
59.05000 139.667
59.06000 133.086
59.07000 126.684
59.08000 128.458
59.09000 134.655
59.10000 140.616
59.11000 141.006
59.12000 139.414
59.13000 138.070
59.14000 139.193
59.15000 140.952
59.16000 141.941
59.17000 138.141
59.18000 133.515
59.19000 129.720
59.20000 131.321
59.21000 133.116
59.22000 135.273
59.23000 138.454
59.24000 141.698
59.25000 142.307
59.26000 137.750
59.27000 133.057
59.28000 130.362
59.29000 129.528
59.30000 128.952
59.31000 129.323
59.32000 130.534
59.33000 131.742
59.34000 132.819
59.35000 133.817
59.36000 134.785
59.37000 135.439
59.38000 135.936
59.39000 136.432
59.40000 136.906
59.41000 137.375
59.42000 137.609
59.43000 136.196
59.44000 134.464
59.45000 133.013
59.46000 130.708
59.47000 128.704
59.48000 127.653
59.49000 129.589
59.50000 131.742
59.51000 133.078
59.52000 132.640
59.53000 132.142
59.54000 131.843
59.55000 139.852
59.56000 145.603
59.57000 146.888
59.58000 143.723
59.59000 140.578
59.60000 139.419
59.61000 139.580
59.62000 139.738
59.63000 138.654
59.64000 137.072
59.65000 135.514
59.66000 134.277
59.67000 133.143
59.68000 132.623
59.69000 137.009
59.70000 142.455
59.71000 147.106
59.72000 145.884
59.73000 144.155
59.74000 142.268
59.75000 139.834
59.76000 137.354
59.77000 135.073
59.78000 133.269
59.79000 131.485
59.80000 130.366
59.81000 123.645
59.82000 118.728
59.83000 119.850
59.84000 127.726
59.85000 135.582
59.86000 138.908
59.87000 138.883
59.88000 138.858
59.89000 137.797
59.90000 136.265
59.91000 134.709
59.92000 132.741
59.93000 130.629
59.94000 128.986
59.95000 131.634
59.96000 135.315
59.97000 138.516
59.98000 136.673
59.99000 134.412
60.00000 132.675
60.01000 132.951
60.02000 133.427
60.03000 133.865
60.04000 134.201
60.05000 134.531
60.06000 134.747
60.07000 134.893
60.08000 135.000
60.09000 134.066
60.10000 131.831
60.11000 129.594
60.12000 128.368
60.13000 127.976
60.14000 127.588
60.15000 129.848
60.16000 133.496
60.17000 136.850
60.18000 134.395
60.19000 129.684
60.20000 125.230
60.21000 123.480
60.22000 122.455
60.23000 121.549
60.24000 126.741
60.25000 132.175
60.26000 136.536
60.27000 136.301
60.28000 135.541
60.29000 135.844
60.30000 139.266
60.31000 142.890
60.32000 145.341
60.33000 135.164
60.34000 127.308
60.35000 122.737
60.36000 122.745
60.37000 122.784
60.38000 123.681
60.39000 125.372
60.40000 127.049
60.41000 128.587
60.42000 130.010
60.43000 131.430
60.44000 132.739
60.45000 134.002
60.46000 135.015
60.47000 132.949
60.48000 129.969
60.49000 127.292
60.50000 129.187
60.51000 131.651
60.52000 133.368
60.53000 131.518
60.54000 129.204
60.55000 127.716
60.56000 128.913
60.57000 130.315
60.58000 131.297
60.59000 127.677
60.60000 124.809
60.61000 124.054
60.62000 126.577
60.63000 129.136
60.64000 130.976
60.65000 132.067
60.66000 133.152
60.67000 133.225
60.68000 132.606
60.69000 132.108
60.70000 135.416
60.71000 140.531
60.72000 145.296
60.73000 144.981
60.74000 142.995
60.75000 141.185
60.76000 137.884
60.77000 134.663
60.78000 131.642
60.79000 129.690
60.80000 127.896
60.81000 127.492
60.82000 132.096
60.83000 137.151
60.84000 140.802
60.85000 139.508
60.86000 138.337
60.87000 136.632
60.88000 134.009
60.89000 131.370
60.90000 131.230
60.91000 134.001
60.92000 136.770
60.93000 136.151
60.94000 132.946
60.95000 129.862
60.96000 131.791
60.97000 136.355
60.98000 140.657
60.99000 140.394
61.00000 138.469
61.01000 136.692
61.02000 135.063
61.03000 133.635
61.04000 133.070
61.05000 137.688
61.06000 143.171
61.07000 147.541
61.08000 147.467
61.09000 146.930
61.10000 146.530
61.11000 142.645
61.12000 139.467
61.13000 136.787
61.14000 135.057
61.15000 133.349
61.16000 132.464
61.17000 132.648
61.18000 132.836
61.19000 132.978
61.20000 133.080
61.21000 133.238
61.22000 136.696
61.23000 142.074
61.24000 147.082
61.25000 144.210
61.26000 138.165
61.27000 132.518
61.28000 134.084
61.29000 137.325
61.30000 140.566
61.31000 143.809
61.32000 147.052
61.33000 148.759
61.34000 143.627
61.35000 137.678
61.36000 133.128
61.37000 135.601
61.38000 137.934
61.39000 140.033
61.40000 141.640
61.41000 143.231
61.42000 142.960
61.43000 139.990
61.44000 136.998
61.45000 136.949
61.46000 139.735
61.47000 142.542
61.48000 147.149
61.49000 152.918
61.50000 158.737
61.51000 165.876
61.52000 173.603
61.53000 180.902
61.54000 189.199
61.55000 197.097
61.56000 206.376
61.57000 226.266
61.58000 248.380
61.59000 267.887
61.60000 274.439
61.61000 279.224
61.62000 282.979
61.63000 292.615
61.64000 300.705
61.65000 304.610
61.66000 298.769
61.67000 292.529
61.68000 293.115
61.69000 304.679
61.70000 316.391
61.71000 322.481
61.72000 316.451
61.73000 312.385
61.74000 309.871
61.75000 308.470
61.76000 306.710
61.77000 292.552
61.78000 272.290
61.79000 252.961
61.80000 237.963
61.81000 225.414
61.82000 212.792
61.83000 199.530
61.84000 186.119
61.85000 174.217
61.86000 170.718
61.87000 168.517
61.88000 166.749
61.89000 161.440
61.90000 156.865
61.91000 152.046
61.92000 146.597
61.93000 141.117
61.94000 138.119
61.95000 139.550
61.96000 141.068
61.97000 141.901
61.98000 140.730
61.99000 139.926
62.00000 140.827
62.01000 143.092
62.02000 145.300
62.03000 144.853
62.04000 142.958
62.05000 141.135
62.06000 140.702
62.07000 140.788
62.08000 140.715
62.09000 139.036
62.10000 136.940
62.11000 136.098
62.12000 143.107
62.13000 151.482
62.14000 158.363
62.15000 159.425
62.16000 159.774
62.17000 158.363
62.18000 151.938
62.19000 145.205
62.20000 140.655
62.21000 140.415
62.22000 140.291
62.23000 140.219
62.24000 146.354
62.25000 150.670
62.26000 150.768
62.27000 147.092
62.28000 143.444
62.29000 141.539
62.30000 140.689
62.31000 139.864
62.32000 139.467
62.33000 139.260
62.34000 138.957
62.35000 137.510
62.36000 135.733
62.37000 134.571
62.38000 137.759
62.39000 141.796
62.40000 145.182
62.41000 145.561
62.42000 145.562
62.43000 146.062
62.44000 148.135
62.45000 150.324
62.46000 152.142
62.47000 153.153
62.48000 154.135
62.49000 154.728
62.50000 147.386
62.51000 142.104
62.52000 140.945
62.53000 143.927
62.54000 146.894
62.55000 148.156
62.56000 148.275
62.57000 148.392
62.58000 150.237
62.59000 152.769
62.60000 155.059
62.61000 154.012
62.62000 151.898
62.63000 150.178
62.64000 151.632
62.65000 153.777
62.66000 155.612
62.67000 150.043
62.68000 144.457
62.69000 141.027
62.70000 145.133
62.71000 149.889
62.72000 153.037
62.73000 152.306
62.74000 151.402
62.75000 150.834
62.76000 153.308
62.77000 155.132
62.78000 151.717
62.79000 142.395
62.80000 133.109
62.81000 131.995
62.82000 136.974
62.83000 141.867
62.84000 142.180
62.85000 140.221
62.86000 138.357
62.87000 138.038
62.88000 138.266
62.89000 138.833
62.90000 142.538
62.91000 147.005
62.92000 150.894
62.93000 151.487
62.94000 151.540
62.95000 151.518
62.96000 151.206
62.97000 150.865
62.98000 150.967
62.99000 152.250
63.00000 153.598
63.01000 154.480
63.02000 156.846
63.03000 158.608
63.04000 159.905
63.05000 160.615
63.06000 161.319
63.07000 159.828
63.08000 156.512
63.09000 153.235
63.10000 153.140
63.11000 154.800
63.12000 156.335
63.13000 155.343
63.14000 153.363
63.15000 151.389
63.16000 149.466
63.17000 147.558
63.18000 145.868
63.19000 144.135
63.20000 142.630
63.21000 141.991
63.22000 145.095
63.23000 148.629
63.24000 151.628
63.25000 153.044
63.26000 154.355
63.27000 155.245
63.28000 149.749
63.29000 145.508
63.30000 142.948
63.31000 142.750
63.32000 142.570
63.33000 144.913
63.34000 149.608
63.35000 154.266
63.36000 154.676
63.37000 152.463
63.38000 150.272
63.39000 148.636
63.40000 147.239
63.41000 146.049
63.42000 147.424
63.43000 149.567
63.44000 151.494
63.45000 148.313
63.46000 144.620
63.47000 142.090
63.48000 145.160
63.49000 148.966
63.50000 151.993
63.51000 152.467
63.52000 152.744
63.53000 152.938
63.54000 154.465
63.55000 155.659
63.56000 154.975
63.57000 151.360
63.58000 147.711
63.59000 145.370
63.60000 144.400
63.61000 143.435
63.62000 146.708
63.63000 152.863
63.64000 158.802
63.65000 157.882
63.66000 153.680
63.67000 149.636
63.68000 147.905
63.69000 146.941
63.70000 146.062
63.71000 152.381
63.72000 159.429
63.73000 165.099
63.74000 163.340
63.75000 160.474
63.76000 157.545
63.77000 154.388
63.78000 151.210
63.79000 148.910
63.80000 156.455
63.81000 162.610
63.82000 164.423
63.83000 158.715
63.84000 152.874
63.85000 152.130
63.86000 157.372
63.87000 162.611
63.88000 162.654
63.89000 158.693
63.90000 154.829
63.91000 155.075
63.92000 157.497
63.93000 159.763
63.94000 159.247
63.95000 157.713
63.96000 156.295
63.97000 155.847
63.98000 155.665
63.99000 156.149
64.00000 160.663
64.01000 165.855
64.02000 169.736
64.03000 168.336
64.04000 166.379
64.05000 164.921
64.06000 163.317
64.07000 162.062
64.08000 161.377
64.09000 161.785
64.10000 162.221
64.11000 160.549
64.12000 156.114
64.13000 151.670
64.14000 151.231
64.15000 154.256
64.16000 157.270
64.17000 159.613
64.18000 161.562
64.19000 163.365
64.20000 162.020
64.21000 159.399
64.22000 156.948
64.23000 160.135
64.24000 164.463
64.25000 167.449
64.26000 161.261
64.27000 153.342
64.28000 148.079
64.29000 154.736
64.30000 162.832
64.31000 169.036
64.32000 168.871
64.33000 168.389
64.34000 168.494
64.35000 169.842
64.36000 171.230
64.37000 170.617
64.38000 167.085
64.39000 163.528
64.40000 162.042
64.41000 162.567
64.42000 163.121
64.43000 166.321
64.44000 171.241
64.45000 175.997
64.46000 176.292
64.47000 174.588
64.48000 172.977
64.49000 174.359
64.50000 176.483
64.51000 178.155
64.52000 176.318
64.53000 173.739
64.54000 171.647
64.55000 171.991
64.56000 172.670
64.57000 173.204
64.58000 177.016
64.59000 180.283
64.60000 182.523
64.61000 182.356
64.62000 182.089
64.63000 180.193
64.64000 175.657
64.65000 171.085
64.66000 168.698
64.67000 179.748
64.68000 187.184
64.69000 187.787
64.70000 183.449
64.71000 179.237
64.72000 179.430
64.73000 181.808
64.74000 184.079
64.75000 185.034
64.76000 185.501
64.77000 186.081
64.78000 187.659
64.79000 189.472
64.80000 190.839
64.81000 189.705
64.82000 188.180
64.83000 186.953
64.84000 187.617
64.85000 188.303
64.86000 189.585
64.87000 192.412
64.88000 195.319
64.89000 197.105
64.90000 196.875
64.91000 196.604
64.92000 196.455
64.93000 196.976
64.94000 197.339
64.95000 199.027
64.96000 201.785
64.97000 204.438
64.98000 202.139
64.99000 197.122
65.00000 192.289
65.01000 192.811
65.02000 195.213
65.03000 197.200
65.04000 194.953
65.05000 191.597
65.06000 189.319
65.07000 193.849
65.08000 199.573
65.09000 204.283
65.10000 216.617
65.11000 227.451
65.12000 233.813
65.13000 227.342
65.14000 220.071
65.15000 218.957
65.16000 230.085
65.17000 241.548
65.18000 248.176
65.19000 235.584
65.20000 226.685
65.21000 225.982
65.22000 232.669
65.23000 239.314
65.24000 243.005
65.25000 244.901
65.26000 246.740
65.27000 252.495
65.28000 259.518
65.29000 266.243
65.30000 269.428
65.31000 271.584
65.32000 274.259
65.33000 280.645
65.34000 287.760
65.35000 293.738
65.36000 300.961
65.37000 307.110
65.38000 314.885
65.39000 327.829
65.40000 341.155
65.41000 352.251
65.42000 358.439
65.43000 364.453
65.44000 368.090
65.45000 368.779
65.46000 369.249
65.47000 373.296
65.48000 380.967
65.49000 388.640
65.50000 396.559
65.51000 404.643
65.52000 412.545
65.53000 423.489
65.54000 435.332
65.55000 446.530
65.56000 448.696
65.57000 447.955
65.58000 447.707
65.59000 451.469
65.60000 456.111
65.61000 460.088
65.62000 472.285
65.63000 483.577
65.64000 493.933
65.65000 500.996
65.66000 507.772
65.67000 520.408
65.68000 547.297
65.69000 574.828
65.70000 592.194
65.71000 670.615
65.72000 728.106
65.73000 785.248
65.74000 841.994
65.75000 898.721
65.76000 951.708
65.77000 1001.883
65.78000 1051.221
65.79000 1103.948
65.80000 1156.632
65.81000 1207.840
65.82000 1234.352
65.83000 1252.063
65.84000 1269.133
65.85000 1280.235
65.86000 1289.877
65.87000 1298.283
65.88000 1297.638
65.89000 1295.828
65.90000 1291.815
65.91000 1279.190
65.92000 1265.695
65.93000 1243.959
65.94000 1200.060
65.95000 1154.939
65.96000 1125.348
65.97000 1031.481
65.98000 961.380
65.99000 889.029
66.00000 813.817
66.01000 738.615
66.02000 673.205
66.03000 616.009
66.04000 559.484
66.05000 516.348
66.06000 481.704
66.07000 447.559
66.08000 423.558
66.09000 403.554
66.10000 384.388
66.11000 374.254
66.12000 366.576
66.13000 359.769
66.14000 354.637
66.15000 350.459
66.16000 347.563
66.17000 350.246
66.18000 353.577
66.19000 354.510
66.20000 348.305
66.21000 341.626
66.22000 337.085
66.23000 343.332
66.24000 348.239
66.25000 355.008
66.26000 364.412
66.27000 373.835
66.28000 385.780
66.29000 400.095
66.30000 414.300
66.31000 425.939
66.32000 435.786
66.33000 445.576
66.34000 453.941
66.35000 461.683
66.36000 469.754
66.37000 481.944
66.38000 495.378
66.39000 507.468
66.40000 504.379
66.41000 498.949
66.42000 494.085
66.43000 491.975
66.44000 490.230
66.45000 489.516
66.46000 492.197
66.47000 495.145
66.48000 497.218
66.49000 487.330
66.50000 479.486
66.51000 470.879
66.52000 461.070
66.53000 451.246
66.54000 439.951
66.55000 427.101
66.56000 414.307
66.57000 401.834
66.58000 389.715
66.59000 377.598
66.60000 365.593
66.61000 353.640
66.62000 342.271
66.63000 339.584
66.64000 339.797
66.65000 339.990
66.66000 333.332
66.67000 326.034
66.68000 320.469
66.69000 324.312
66.70000 329.571
66.71000 334.142
66.72000 336.203
66.73000 338.033
66.74000 339.361
66.75000 337.282
66.76000 335.558
66.77000 331.340
66.78000 322.774
66.79000 314.128
66.80000 315.851
66.81000 329.850
66.82000 343.840
66.83000 347.283
66.84000 342.509
66.85000 337.844
66.86000 337.919
66.87000 340.520
66.88000 343.142
66.89000 346.130
66.90000 349.254
66.91000 352.143
66.92000 359.111
66.93000 366.300
66.94000 372.462
66.95000 372.353
66.96000 371.181
66.97000 369.170
66.98000 363.756
66.99000 357.980
67.00000 353.665
67.01000 347.988
67.02000 343.500
67.03000 342.192
67.04000 347.031
67.05000 352.024
67.06000 359.501
67.07000 370.259
67.08000 381.027
67.09000 383.024
67.10000 377.374
67.11000 371.778
67.12000 369.421
67.13000 368.979
67.14000 368.931
67.15000 377.523
67.16000 389.645
67.17000 400.989
67.18000 400.187
67.19000 396.343
67.20000 392.640
67.21000 389.908
67.22000 387.359
67.23000 385.922
67.24000 389.512
67.25000 393.714
67.26000 396.940
67.27000 404.834
67.28000 411.334
67.29000 417.642
67.30000 423.540
67.31000 429.424
67.32000 430.031
67.33000 422.877
67.34000 415.654
67.35000 412.857
67.36000 414.394
67.37000 415.948
67.38000 419.136
67.39000 423.393
67.40000 427.556
67.41000 429.116
67.42000 429.500
67.43000 429.863
67.44000 428.165
67.45000 426.012
67.46000 424.113
67.47000 424.206
67.48000 424.723
67.49000 426.199
67.50000 432.519
67.51000 439.512
67.52000 445.018
67.53000 453.802
67.54000 461.059
67.55000 464.805
67.56000 460.254
67.57000 455.353
67.58000 453.975
67.59000 458.350
67.60000 462.806
67.61000 465.142
67.62000 470.705
67.63000 474.473
67.64000 477.954
67.65000 481.227
67.66000 484.509
67.67000 488.146
67.68000 491.959
67.69000 495.601
67.70000 501.877
67.71000 508.558
67.72000 514.225
67.73000 510.797
67.74000 505.212
67.75000 500.864
67.76000 503.517
67.77000 507.269
67.78000 510.294
67.79000 514.597
67.80000 518.192
67.81000 522.451
67.82000 528.441
67.83000 534.521
67.84000 534.973
67.85000 525.238
67.86000 515.293
67.87000 509.798
67.88000 532.327
67.89000 547.894
67.90000 554.882
67.91000 554.899
67.92000 554.770
67.93000 547.529
67.94000 536.354
67.95000 525.586
67.96000 527.684
67.97000 534.287
67.98000 541.033
67.99000 549.246
68.00000 557.846
68.01000 565.151
68.02000 564.195
68.03000 561.779
68.04000 559.787
68.05000 577.357
68.06000 593.616
68.07000 603.945
68.08000 597.133
68.09000 589.239
68.10000 585.347
68.11000 589.469
68.12000 593.816
68.13000 596.338
68.14000 613.597
68.15000 625.765
68.16000 626.916
68.17000 618.048
68.18000 609.338
68.19000 611.703
68.20000 620.857
68.21000 629.748
68.22000 643.524
68.23000 658.569
68.24000 672.853
68.25000 677.976
68.26000 680.418
68.27000 681.265
68.28000 670.615
68.29000 657.686
68.30000 646.808
68.31000 667.250
68.32000 687.634
68.33000 703.784
68.34000 706.380
68.35000 707.960
68.36000 713.012
68.37000 725.756
68.38000 738.779
68.39000 746.681
68.40000 751.433
68.41000 754.799
68.42000 763.964
68.43000 779.053
68.44000 794.122
68.45000 806.853
68.46000 817.992
68.47000 828.885
68.48000 836.392
68.49000 842.069
68.50000 847.981
68.51000 857.218
68.52000 867.532
68.53000 879.607
68.54000 906.126
68.55000 935.843
68.56000 961.327
68.57000 987.487
68.58000 1009.669
68.59000 1036.761
68.60000 1081.271
68.61000 1127.313
68.62000 1171.563
68.63000 1211.424
68.64000 1251.085
68.65000 1276.176
68.66000 1374.430
68.67000 1446.528
68.68000 1513.536
68.69000 1574.708
68.70000 1635.939
68.71000 1711.204
68.72000 1797.096
68.73000 1881.587
68.74000 1948.372
68.75000 2004.133
68.76000 2060.449
68.77000 2126.176
68.78000 2195.281
68.79000 2266.122
68.80000 2353.307
68.81000 2444.521
68.82000 2524.144
68.83000 2677.897
68.84000 2819.852
68.85000 2982.050
68.86000 3223.985
68.87000 3474.062
68.88000 3778.235
68.89000 4228.952
68.90000 4687.869
68.91000 4989.630
68.92000 6613.719
68.93000 7831.921
68.94000 9740.470
68.95000 12533.337
68.96000 15331.520
68.97000 19301.977
68.98000 24263.557
68.99000 29168.533
69.00000 34851.414
69.01000 40833.945
69.02000 46777.398
69.03000 51913.859
69.04000 56729.980
69.05000 61398.258
69.06000 64456.355
69.07000 67073.477
69.08000 69395.945
69.09000 70398.148
69.10000 71055.781
69.11000 71704.758
69.12000 72315.797
69.13000 72922.391
69.14000 73593.672
69.15000 74458.828
69.16000 75337.031
69.17000 75935.617
69.18000 75937.328
69.19000 75924.836
69.20000 75124.547
69.21000 73200.266
69.22000 71267.266
69.23000 68255.180
69.24000 64220.707
69.25000 60215.996
69.26000 56282.434
69.27000 52458.223
69.28000 48674.859
69.29000 45943.184
69.30000 43673.094
69.31000 41464.871
69.32000 40044.395
69.33000 38863.160
69.34000 37798.840
69.35000 36759.047
69.36000 35851.223
69.37000 34838.691
69.38000 33313.992
69.39000 31720.730
69.40000 29900.441
69.41000 27326.535
69.42000 24692.682
69.43000 22836.367
69.44000 18844.959
69.45000 15753.820
69.46000 13033.511
69.47000 10900.998
69.48000 8775.887
69.49000 7122.350
69.50000 5971.122
69.51000 4824.874
69.52000 4037.735
69.53000 3509.793
69.54000 2987.811
69.55000 2663.046
69.56000 2434.008
69.57000 2208.999
69.58000 2044.764
69.59000 1900.967
69.60000 1769.573
69.61000 1677.191
69.62000 1603.115
69.63000 1530.142
69.64000 1463.210
69.65000 1397.194
69.66000 1337.603
69.67000 1301.663
69.68000 1267.921
69.69000 1243.387
69.70000 1206.591
69.71000 1177.817
69.72000 1146.531
69.73000 1110.831
69.74000 1075.048
69.75000 1048.895
69.76000 1034.232
69.77000 1019.619
69.78000 998.892
69.79000 973.478
69.80000 948.220
69.81000 929.919
69.82000 915.355
69.83000 901.119
69.84000 892.843
69.85000 886.786
69.86000 881.180
69.87000 872.655
69.88000 864.320
69.89000 855.793
69.90000 846.081
69.91000 836.166
69.92000 823.575
69.93000 800.036
69.94000 775.322
69.95000 756.822
69.96000 761.915
69.97000 766.992
69.98000 765.156
69.99000 749.867
70.00000 734.231
