20.00000 566.872
20.01000 563.527
20.02000 559.703
20.03000 557.772
20.04000 563.405
20.05000 569.826
20.06000 574.603
20.07000 566.485
20.08000 559.593
20.09000 558.438
20.10000 568.201
20.11000 578.227
20.12000 583.224
20.13000 581.681
20.14000 580.111
20.15000 578.581
20.16000 577.086
20.17000 575.551
20.18000 571.680
20.19000 566.450
20.20000 561.559
20.21000 563.874
20.22000 569.089
20.23000 573.962
20.24000 568.853
20.25000 561.702
20.26000 556.251
20.27000 562.316
20.28000 570.536
20.29000 575.804
20.30000 567.929
20.31000 558.483
20.32000 551.260
20.33000 546.546
20.34000 542.963
20.35000 541.801
20.36000 545.738
20.37000 549.839
20.38000 552.364
20.39000 552.609
20.40000 552.834
20.41000 553.920
20.42000 555.833
20.43000 557.734
20.44000 558.531
20.45000 558.615
20.46000 558.675
20.47000 558.088
20.48000 557.213
20.49000 556.387
20.50000 558.741
20.51000 561.800
20.52000 563.852
20.53000 558.162
20.54000 550.852
20.55000 546.499
20.56000 556.844
20.57000 569.191
20.58000 578.878
20.59000 567.188
20.60000 556.449
20.61000 552.340
20.62000 563.671
20.63000 575.632
20.64000 577.345
20.65000 562.577
20.66000 547.588
20.67000 539.796
20.68000 539.378
20.69000 539.094
20.70000 538.367
20.71000 537.321
20.72000 536.397
20.73000 539.661
20.74000 544.985
20.75000 550.065
20.76000 553.329
20.77000 555.784
20.78000 557.628
20.79000 554.109
20.80000 549.337
20.81000 545.541
20.82000 547.176
20.83000 549.649
20.84000 551.636
20.85000 553.920
20.86000 555.795
20.87000 558.162
20.88000 561.800
20.89000 565.502
20.90000 567.860
20.91000 567.823
20.92000 567.739
20.93000 567.693
20.94000 574.349
20.95000 578.911
20.96000 574.875
20.97000 563.962
20.98000 553.221
20.99000 550.392
21.00000 551.873
21.01000 553.299
21.02000 555.893
21.03000 558.740
21.04000 561.727
21.05000 566.128
21.06000 570.898
21.07000 574.652
21.08000 572.049
21.09000 568.341
21.10000 565.294
21.11000 557.060
21.12000 549.829
21.13000 545.938
21.14000 551.557
21.15000 557.760
21.16000 559.701
21.17000 553.227
21.18000 546.528
21.19000 542.668
21.20000 557.534
21.21000 568.007
21.22000 570.439
21.23000 565.683
21.24000 560.938
21.25000 556.970
21.26000 553.471
21.27000 550.076
21.28000 556.643
21.29000 566.811
21.30000 575.398
21.31000 565.404
21.32000 550.052
21.33000 537.577
21.34000 545.474
21.35000 557.341
21.36000 567.297
21.37000 566.236
21.38000 564.203
21.39000 562.468
21.40000 561.668
21.41000 560.938
21.42000 557.795
21.43000 549.385
21.44000 540.790
21.45000 535.608
21.46000 541.339
21.47000 545.496
21.48000 545.008
21.49000 539.856
21.50000 534.771
21.51000 536.639
21.52000 543.167
21.53000 549.545
21.54000 553.766
21.55000 556.855
21.56000 560.022
21.57000 564.264
21.58000 568.851
21.59000 572.032
21.60000 563.901
21.61000 553.304
21.62000 544.242
21.63000 548.830
21.64000 554.339
21.65000 560.547
21.66000 569.201
21.67000 578.066
21.68000 582.775
21.69000 577.454
21.70000 571.690
21.71000 568.064
21.72000 588.294
21.73000 603.193
21.74000 608.242
21.75000 602.186
21.76000 596.134
21.77000 592.874
21.78000 591.694
21.79000 590.535
21.80000 594.267
21.81000 600.287
21.82000 606.221
21.83000 610.740
21.84000 614.758
21.85000 618.606
21.86000 620.883
21.87000 622.780
21.88000 624.431
21.89000 640.626
21.90000 656.458
21.91000 670.654
21.92000 678.503
21.93000 685.717
21.94000 693.231
21.95000 701.544
21.96000 709.901
21.97000 715.366
21.98000 718.184
21.99000 720.211
22.00000 722.633
22.01000 725.552
22.02000 728.480
22.03000 735.356
22.04000 745.515
22.05000 755.550
22.06000 758.302
22.07000 756.972
22.08000 755.928
22.09000 760.601
22.10000 767.510
22.11000 773.243
22.12000 766.432
22.13000 756.238
22.14000 747.213
22.15000 750.385
22.16000 755.040
22.17000 758.080
22.18000 754.150
22.19000 749.419
22.20000 743.508
22.21000 734.116
22.22000 724.497
22.23000 717.973
22.24000 704.250
22.25000 693.857
22.26000 687.475
22.27000 686.727
22.28000 686.015
22.29000 679.343
22.30000 667.120
22.31000 654.993
22.32000 647.600
22.33000 643.250
22.34000 639.087
22.35000 639.555
22.36000 642.027
22.37000 644.192
22.38000 642.550
22.39000 639.770
22.40000 637.270
22.41000 631.991
22.42000 626.874
22.43000 618.749
22.44000 596.143
22.45000 571.634
22.46000 557.002
22.47000 574.666
22.48000 594.838
22.49000 608.987
22.50000 597.052
22.51000 587.266
22.52000 579.180
22.53000 573.751
22.54000 568.353
22.55000 562.454
22.56000 556.031
22.57000 549.638
22.58000 548.527
22.59000 551.065
22.60000 553.384
22.61000 548.701
22.62000 540.669
22.63000 533.136
22.64000 532.933
22.65000 535.158
22.66000 537.187
22.67000 534.448
22.68000 531.062
22.69000 527.402
22.70000 522.274
22.71000 516.927
22.72000 512.584
22.73000 511.881
22.74000 511.508
22.75000 511.238
22.76000 516.123
22.77000 520.062
22.78000 524.265
22.79000 528.923
22.80000 533.590
22.81000 535.492
22.82000 534.149
22.83000 532.803
22.84000 530.148
22.85000 526.499
22.86000 522.914
22.87000 522.044
22.88000 522.612
22.89000 523.085
22.90000 521.908
22.91000 520.126
22.92000 518.480
22.93000 515.586
22.94000 512.707
22.95000 511.011
22.96000 516.476
22.97000 523.146
22.98000 528.295
22.99000 527.322
23.00000 525.705
23.01000 524.500
23.02000 528.774
23.03000 532.351
23.04000 535.311
23.05000 537.087
23.06000 538.834
23.07000 535.747
23.08000 526.324
23.09000 516.879
23.10000 514.334
23.11000 517.753
23.12000 521.139
23.13000 522.463
23.14000 522.578
23.15000 522.586
23.16000 520.283
23.17000 517.043
23.18000 514.013
23.19000 512.958
23.20000 512.502
23.21000 511.360
23.22000 505.531
23.23000 498.817
23.24000 495.757
23.25000 509.082
23.26000 524.385
23.27000 536.108
23.28000 522.196
23.29000 509.800
23.30000 498.548
23.31000 489.721
23.32000 480.974
23.33000 480.477
23.34000 492.016
23.35000 503.657
23.36000 510.276
23.37000 512.017
23.38000 513.694
23.39000 509.501
23.40000 501.491
23.41000 493.746
23.42000 493.163
23.43000 495.792
23.44000 498.277
23.45000 501.526
23.46000 504.729
23.47000 507.465
23.48000 506.589
23.49000 504.951
23.50000 503.552
23.51000 503.352
23.52000 503.318
23.53000 503.291
23.54000 499.036
23.55000 495.351
23.56000 492.009
23.57000 489.471
23.58000 486.967
23.59000 485.769
23.60000 486.688
23.61000 487.636
23.62000 488.131
23.63000 512.801
23.64000 529.395
23.65000 530.253
23.66000 519.734
23.67000 509.442
23.68000 507.124
23.69000 508.759
23.70000 510.320
23.71000 510.420
23.72000 510.046
23.73000 509.356
23.74000 505.860
23.75000 501.703
23.76000 497.789
23.77000 495.234
23.78000 492.891
23.79000 491.005
23.80000 503.979
23.81000 515.661
23.82000 523.360
23.83000 520.728
23.84000 517.565
23.85000 514.010
23.86000 509.751
23.87000 505.477
23.88000 503.125
23.89000 516.982
23.90000 526.533
23.91000 528.683
23.92000 524.869
23.93000 521.152
23.94000 522.031
23.95000 525.433
23.96000 528.709
23.97000 524.172
23.98000 517.122
23.99000 510.975
24.00000 514.047
24.01000 519.532
24.02000 523.862
24.03000 520.894
24.04000 516.648
24.05000 513.153
24.06000 509.541
24.07000 506.561
24.08000 505.645
24.09000 510.651
24.10000 516.025
24.11000 516.892
24.12000 508.798
24.13000 500.458
24.14000 495.638
24.15000 508.981
24.16000 518.402
24.17000 521.304
24.18000 518.328
24.19000 515.310
24.20000 509.365
24.21000 501.641
24.22000 494.143
24.23000 494.696
24.24000 498.430
24.25000 501.557
24.26000 497.467
24.27000 491.281
24.28000 485.870
24.29000 486.001
24.30000 487.221
24.31000 488.246
24.32000 488.628
24.33000 488.878
24.34000 490.875
24.35000 498.417
24.36000 506.371
24.37000 509.016
24.38000 499.986
24.39000 490.540
24.40000 484.827
24.41000 491.163
24.42000 495.767
24.43000 497.749
24.44000 497.076
24.45000 496.419
24.46000 497.477
24.47000 499.693
24.48000 501.859
24.49000 505.877
24.50000 510.551
24.51000 514.087
24.52000 501.694
24.53000 484.173
24.54000 469.000
24.55000 472.902
24.56000 480.993
24.57000 487.922
24.58000 491.940
24.59000 494.978
24.60000 496.223
24.61000 491.157
24.62000 485.542
24.63000 480.552
24.64000 477.078
24.65000 473.673
24.66000 471.525
24.67000 478.858
24.68000 484.278
24.69000 487.010
24.70000 486.687
24.71000 486.365
24.72000 486.778
24.73000 487.744
24.74000 488.693
24.75000 484.988
24.76000 479.089
24.77000 473.553
24.78000 474.073
24.79000 476.751
24.80000 479.350
24.81000 481.218
24.82000 482.908
24.83000 484.381
24.84000 488.215
24.85000 491.821
24.86000 493.839
24.87000 489.649
24.88000 484.832
24.89000 480.005
24.90000 475.149
24.91000 470.291
24.92000 467.106
24.93000 479.246
24.94000 488.428
24.95000 492.793
24.96000 491.036
24.97000 489.257
24.98000 487.025
24.99000 484.414
25.00000 481.833
25.01000 478.763
25.02000 475.497
25.03000 472.553
25.04000 476.157
25.05000 482.340
25.06000 487.603
25.07000 482.955
25.08000 475.614
25.09000 469.107
25.10000 474.792
25.11000 481.641
25.12000 486.398
25.13000 482.058
25.14000 476.661
25.15000 473.865
25.16000 478.807
25.17000 484.263
25.18000 487.971
25.19000 482.217
25.20000 477.708
25.21000 474.182
25.22000 472.049
25.23000 469.926
25.24000 471.169
25.25000 475.572
25.26000 479.941
25.27000 479.840
25.28000 476.967
25.29000 474.278
25.30000 476.237
25.31000 480.221
25.32000 483.386
25.33000 476.240
25.34000 465.988
25.35000 456.760
25.36000 462.298
25.37000 469.799
25.38000 475.627
25.39000 473.344
25.40000 469.984
25.41000 469.387
25.42000 477.887
25.43000 487.103
25.44000 493.583
25.45000 472.154
25.46000 455.099
25.47000 447.315
25.48000 454.114
25.49000 461.091
25.50000 466.027
25.51000 468.810
25.52000 471.580
25.53000 473.014
25.54000 473.508
25.55000 473.991
25.56000 474.131
25.57000 474.107
25.58000 473.836
25.59000 469.895
25.60000 464.728
25.61000 460.012
25.62000 466.367
25.63000 474.248
25.64000 479.947
25.65000 473.801
25.66000 465.873
25.67000 458.991
25.68000 455.928
25.69000 453.216
25.70000 451.248
25.71000 453.469
25.72000 455.331
25.73000 457.867
25.74000 461.576
25.75000 465.306
25.76000 469.945
25.77000 475.658
25.78000 481.360
25.79000 483.592
25.80000 483.116
25.81000 482.558
25.82000 478.465
25.83000 472.488
25.84000 466.426
25.85000 458.857
25.86000 450.730
25.87000 443.216
25.88000 447.590
25.89000 454.231
25.90000 459.292
25.91000 454.717
25.92000 448.508
25.93000 443.639
25.94000 444.211
25.95000 445.362
25.96000 446.221
25.97000 442.082
25.98000 438.626
25.99000 439.801
26.00000 449.922
26.01000 460.268
26.02000 462.376
26.03000 453.600
26.04000 444.779
26.05000 449.866
26.06000 467.061
26.07000 483.958
26.08000 482.674
26.09000 470.654
26.10000 458.913
26.11000 453.297
26.12000 450.184
26.13000 447.270
26.14000 451.065
26.15000 456.233
26.16000 460.866
26.17000 461.812
26.18000 462.057
26.19000 462.063
26.20000 460.996
26.21000 459.798
26.22000 458.879
26.23000 460.341
26.24000 461.629
26.25000 460.605
26.26000 454.639
26.27000 448.509
26.28000 444.956
26.29000 445.194
26.30000 445.465
26.31000 444.147
26.32000 441.273
26.33000 438.447
26.34000 440.223
26.35000 445.014
26.36000 449.800
26.37000 454.433
26.38000 458.997
26.39000 463.315
26.40000 457.037
26.41000 448.222
26.42000 440.169
26.43000 438.082
26.44000 437.264
26.45000 437.430
26.46000 442.560
26.47000 448.378
26.48000 452.959
26.49000 456.128
26.50000 458.573
26.51000 458.332
26.52000 451.744
26.53000 444.889
26.54000 443.980
26.55000 452.778
26.56000 461.713
26.57000 466.396
26.58000 461.321
26.59000 457.891
26.60000 456.224
26.61000 455.840
26.62000 455.443
26.63000 454.576
26.64000 453.475
26.65000 452.424
26.66000 452.993
26.67000 454.045
26.68000 455.590
26.69000 461.550
26.70000 468.557
26.71000 472.961
26.72000 462.635
26.73000 449.996
26.74000 439.807
26.75000 437.323
26.76000 435.912
26.77000 434.783
26.78000 434.393
26.79000 434.042
26.80000 435.852
26.81000 441.571
26.82000 447.371
26.83000 450.575
26.84000 448.517
26.85000 447.085
26.86000 444.763
26.87000 441.717
26.88000 438.875
26.89000 445.893
26.90000 458.363
26.91000 470.380
26.92000 463.670
26.93000 450.626
26.94000 438.279
26.95000 433.121
26.96000 429.860
26.97000 427.928
26.98000 434.467
26.99000 442.503
27.00000 449.127
27.01000 449.807
27.02000 449.820
27.03000 450.325
27.04000 452.253
27.05000 454.271
27.06000 456.846
27.07000 460.538
27.08000 464.260
27.09000 466.419
27.10000 462.135
27.11000 459.102
27.12000 457.610
27.13000 457.518
27.14000 457.340
27.15000 451.050
27.16000 441.016
27.17000 431.271
27.18000 428.430
27.19000 428.507
27.20000 429.261
27.21000 438.135
27.22000 449.387
27.23000 458.223
27.24000 449.651
27.25000 437.629
27.26000 427.515
27.27000 431.258
27.28000 435.855
27.29000 438.967
27.30000 437.330
27.31000 435.337
27.32000 434.012
27.33000 434.166
27.34000 434.373
27.35000 434.499
27.36000 430.516
27.37000 427.643
27.38000 426.769
27.39000 427.939
27.40000 429.103
27.41000 429.613
27.42000 429.678
27.43000 429.742
27.44000 428.736
27.45000 427.291
27.46000 425.859
27.47000 424.623
27.48000 423.451
27.49000 422.898
27.50000 427.425
27.51000 433.077
27.52000 437.924
27.53000 441.530
27.54000 444.423
27.55000 445.798
27.56000 441.787
27.57000 437.302
27.58000 434.222
27.59000 434.579
27.60000 435.094
27.61000 435.419
27.62000 429.997
27.63000 425.998
27.64000 426.496
27.65000 432.150
27.66000 437.796
27.67000 440.608
27.68000 441.275
27.69000 441.931
27.70000 440.524
27.71000 438.128
27.72000 436.167
27.73000 441.595
27.74000 449.673
27.75000 456.476
27.76000 451.276
27.77000 443.119
27.78000 435.998
27.79000 437.742
27.80000 440.476
27.81000 443.403
27.82000 447.084
27.83000 450.843
27.84000 452.315
27.85000 447.596
27.86000 442.530
27.87000 439.199
27.88000 438.013
27.89000 437.177
27.90000 436.253
27.91000 435.219
27.92000 434.188
27.93000 435.160
27.94000 437.824
27.95000 440.458
27.96000 439.773
27.97000 437.248
27.98000 434.813
27.99000 434.233
28.00000 434.390
28.01000 434.376
28.02000 432.498
28.03000 430.110
28.04000 427.991
28.05000 434.861
28.06000 442.249
28.07000 447.064
28.08000 440.602
28.09000 432.818
28.10000 427.996
28.11000 432.052
28.12000 436.705
28.13000 439.876
28.14000 433.769
28.15000 428.991
28.16000 426.128
28.17000 425.996
28.18000 425.885
28.19000 427.291
28.20000 430.135
28.21000 432.958
28.22000 437.700
28.23000 443.563
28.24000 449.214
28.25000 449.404
28.26000 447.197
28.27000 445.146
28.28000 445.080
28.29000 445.616
28.30000 446.099
28.31000 439.172
28.32000 431.754
28.33000 426.254
28.34000 430.130
28.35000 435.260
28.36000 438.598
28.37000 435.990
28.38000 432.908
28.39000 430.737
28.40000 432.253
28.41000 433.513
28.42000 433.596
28.43000 431.815
28.44000 430.010
28.45000 426.271
28.46000 420.472
28.47000 414.697
28.48000 416.935
28.49000 424.755
28.50000 432.351
28.51000 432.548
28.52000 429.155
28.53000 425.540
28.54000 418.584
28.55000 410.506
28.56000 403.124
28.57000 408.904
28.58000 416.725
28.59000 422.893
28.60000 420.001
28.61000 415.736
28.62000 412.216
28.63000 411.437
28.64000 410.912
28.65000 410.531
28.66000 413.016
28.67000 415.037
28.68000 417.988
28.69000 422.573
28.70000 427.189
28.71000 428.277
28.72000 425.156
28.73000 422.034
28.74000 419.617
28.75000 417.766
28.76000 415.969
28.77000 416.614
28.78000 418.570
28.79000 420.606
28.80000 424.099
28.81000 428.133
28.82000 431.867
28.83000 431.230
28.84000 429.652
28.85000 427.250
28.86000 419.777
28.87000 411.437
28.88000 404.108
28.89000 400.915
28.90000 398.166
28.91000 396.108
28.92000 398.197
28.93000 400.021
28.94000 401.241
28.95000 401.286
28.96000 401.301
28.97000 404.960
28.98000 413.471
28.99000 422.001
29.00000 426.891
29.01000 428.577
29.02000 430.153
29.03000 424.838
29.04000 415.424
29.05000 406.624
29.06000 411.488
29.07000 421.973
29.08000 431.792
29.09000 429.842
29.10000 425.028
29.11000 420.360
29.12000 416.707
29.13000 413.248
29.14000 411.014
29.15000 414.359
29.16000 418.391
29.17000 421.491
29.18000 407.340
29.19000 395.168
29.20000 388.066
29.21000 391.873
29.22000 396.048
29.23000 399.001
29.24000 400.144
29.25000 401.270
29.26000 403.625
29.27000 407.195
29.28000 410.716
29.29000 409.532
29.30000 405.242
29.31000 401.204
29.32000 404.252
29.33000 410.524
29.34000 416.461
29.35000 410.977
29.36000 402.623
29.37000 395.329
29.38000 396.404
29.39000 399.274
29.40000 401.639
29.41000 401.437
29.42000 400.874
29.43000 400.430
29.44000 411.294
29.45000 420.770
29.46000 426.445
29.47000 423.072
29.48000 419.312
29.49000 415.756
29.50000 412.536
29.51000 409.321
29.52000 407.629
29.53000 408.523
29.54000 409.112
29.55000 406.436
29.56000 401.363
29.57000 396.452
29.58000 397.464
29.59000 401.455
29.60000 405.270
29.61000 406.775
29.62000 407.425
29.63000 408.170
29.64000 409.770
29.65000 411.574
29.66000 412.815
29.67000 410.843
29.68000 408.362
29.69000 406.358
29.70000 411.896
29.71000 416.997
29.72000 419.954
29.73000 417.269
29.74000 414.285
29.75000 411.624
29.76000 409.549
29.77000 407.487
29.78000 406.344
29.79000 418.781
29.80000 427.373
29.81000 426.099
29.82000 416.748
29.83000 407.594
29.84000 408.231
29.85000 414.321
29.86000 420.193
29.87000 424.590
29.88000 428.190
29.89000 431.480
29.90000 431.544
29.91000 430.751
29.92000 429.534
29.93000 425.602
29.94000 421.186
29.95000 417.541
29.96000 429.423
29.97000 440.655
29.98000 448.883
29.99000 448.368
30.00000 447.295
30.01000 444.332
30.02000 437.558
30.03000 430.674
30.04000 426.668
30.05000 441.672
30.06000 452.296
30.07000 456.848
30.08000 455.836
30.09000 454.843
30.10000 455.209
30.11000 456.413
30.12000 457.583
30.13000 457.361
30.14000 456.585
30.15000 456.031
30.16000 458.162
30.17000 461.085
30.18000 463.349
30.19000 460.816
30.20000 457.325
30.21000 454.384
30.22000 452.686
30.23000 451.402
30.24000 448.460
30.25000 440.173
30.26000 431.480
30.27000 426.679
30.28000 430.560
30.29000 434.761
30.30000 437.319
30.31000 439.059
30.32000 440.295
30.33000 434.561
30.34000 421.648
30.35000 408.809
30.36000 404.824
30.37000 406.908
30.38000 408.946
30.39000 413.085
30.40000 418.006
30.41000 423.233
30.42000 432.837
30.43000 443.871
30.44000 452.824
30.45000 444.535
30.46000 432.401
30.47000 421.982
30.48000 416.660
30.49000 412.790
30.50000 410.566
30.51000 414.220
30.52000 418.396
30.53000 424.185
30.54000 433.949
30.55000 443.898
30.56000 450.209
30.57000 453.365
30.58000 455.617
30.59000 455.068
30.60000 451.285
30.61000 447.523
30.62000 449.455
30.63000 455.731
30.64000 461.908
30.65000 461.868
30.66000 458.690
30.67000 455.558
30.68000 453.223
30.69000 451.175
30.70000 449.460
30.71000 450.916
30.72000 453.159
30.73000 455.120
30.74000 449.714
30.75000 444.042
30.76000 440.282
30.77000 444.108
30.78000 448.716
30.79000 451.540
30.80000 449.495
30.81000 447.175
30.82000 445.645
30.83000 459.029
30.84000 469.152
30.85000 473.884
30.86000 471.655
30.87000 469.413
30.88000 475.913
30.89000 489.861
30.90000 503.655
30.91000 509.908
30.92000 511.761
30.93000 513.876
30.94000 521.483
30.95000 531.286
30.96000 541.133
30.97000 551.456
30.98000 561.912
30.99000 571.200
31.00000 576.646
31.01000 580.751
31.02000 587.398
31.03000 605.271
31.04000 624.472
31.05000 643.944
31.06000 664.231
31.07000 684.572
31.08000 698.470
31.09000 749.751
31.10000 788.993
31.11000 823.107
31.12000 849.849
31.13000 876.536
31.14000 919.560
31.15000 978.186
31.16000 1036.394
31.17000 1094.767
31.18000 1152.308
31.19000 1210.756
31.20000 1292.920
31.21000 1385.563
31.22000 1478.078
31.23000 1568.937
31.24000 1659.290
31.25000 1740.780
31.26000 1878.819
31.27000 2010.347
31.28000 2137.382
31.29000 2242.270
31.30000 2344.167
31.31000 2444.335
31.32000 2538.723
31.33000 2632.646
31.34000 2698.989
31.35000 2790.929
31.36000 2861.508
31.37000 2933.183
31.38000 3006.609
31.39000 3080.059
31.40000 3120.631
31.41000 3125.905
31.42000 3131.147
31.43000 3118.363
31.44000 3092.992
31.45000 3067.224
31.46000 3028.100
31.47000 2982.449
31.48000 2934.265
31.49000 2847.424
31.50000 2747.492
31.51000 2656.094
31.52000 2535.677
31.53000 2422.660
31.54000 2309.974
31.55000 2199.113
31.56000 2088.531
31.57000 1978.402
31.58000 1869.952
31.59000 1761.660
31.60000 1682.759
31.61000 1573.302
31.62000 1487.833
31.63000 1407.229
31.64000 1335.237
31.65000 1263.410
31.66000 1196.452
31.67000 1135.349
31.68000 1074.370
31.69000 1018.158
31.70000 965.974
31.71000 914.079
31.72000 875.245
31.73000 843.478
31.74000 811.812
31.75000 782.025
31.76000 752.942
31.77000 726.000
31.78000 700.779
31.79000 678.489
31.80000 657.354
31.81000 643.389
31.82000 630.659
31.83000 616.223
31.84000 594.754
31.85000 572.524
31.86000 555.851
31.87000 551.842
31.88000 549.311
31.89000 544.766
31.90000 536.277
31.91000 527.685
31.92000 515.430
31.93000 498.263
31.94000 481.079
31.95000 475.997
31.96000 481.643
31.97000 487.153
31.98000 483.871
31.99000 475.320
32.00000 466.573
32.01000 453.405
32.02000 438.405
32.03000 424.345
32.04000 434.769
32.05000 450.638
32.06000 462.669
32.07000 447.769
32.08000 427.661
32.09000 410.902
32.10000 409.517
32.11000 410.042
32.12000 410.447
32.13000 412.638
32.14000 414.476
32.15000 414.852
32.16000 412.062
32.17000 409.162
32.18000 406.795
32.19000 405.223
32.20000 403.658
32.21000 407.669
32.22000 417.233
32.23000 426.639
32.24000 420.087
32.25000 402.923
32.26000 386.239
32.27000 383.271
32.28000 386.586
32.29000 389.726
32.30000 393.901
32.31000 398.046
32.32000 401.447
32.33000 398.905
32.34000 395.078
32.35000 392.626
32.36000 397.227
32.37000 402.824
32.38000 407.245
32.39000 405.526
32.40000 403.726
32.41000 401.929
32.42000 400.137
32.43000 398.346
32.44000 398.178
32.45000 400.700
32.46000 403.261
32.47000 404.614
32.48000 392.535
32.49000 384.360
32.50000 382.662
32.51000 385.754
32.52000 389.012
32.53000 398.452
32.54000 411.024
32.55000 423.050
32.56000 409.052
32.57000 387.512
32.58000 368.680
32.59000 374.591
32.60000 386.462
32.61000 396.090
32.62000 392.820
32.63000 387.488
32.64000 383.177
32.65000 385.665
32.66000 388.236
32.67000 389.333
32.68000 386.519
32.69000 383.496
32.70000 381.171
32.71000 380.128
32.72000 379.113
32.73000 378.548
32.74000 371.460
32.75000 366.552
32.76000 364.713
32.77000 365.407
32.78000 366.239
32.79000 374.065
32.80000 385.815
32.81000 397.151
32.82000 386.022
32.83000 367.335
32.84000 351.257
32.85000 362.666
32.86000 381.434
32.87000 397.843
32.88000 398.960
32.89000 397.329
32.90000 395.981
32.91000 389.463
32.92000 383.604
32.93000 378.959
32.94000 377.877
32.95000 377.025
32.96000 378.241
32.97000 383.659
32.98000 389.199
32.99000 392.435
33.00000 375.845
33.01000 364.086
33.02000 362.154
33.03000 369.301
33.04000 376.384
33.05000 378.729
33.06000 378.127
33.07000 377.541
33.08000 373.399
33.09000 368.007
33.10000 362.693
33.11000 358.332
33.12000 354.254
33.13000 349.783
33.14000 342.420
33.15000 334.476
33.16000 327.774
33.17000 338.500
33.18000 349.356
33.19000 356.106
33.20000 349.528
33.21000 341.926
33.22000 338.551
33.23000 344.670
33.24000 351.147
33.25000 355.101
33.26000 356.175
33.27000 356.920
33.28000 353.798
33.29000 346.661
33.30000 339.620
33.31000 344.354
33.32000 357.221
33.33000 369.815
33.34000 371.026
33.35000 366.999
33.36000 363.006
33.37000 359.506
33.38000 356.169
33.39000 352.981
33.40000 351.039
33.41000 349.376
33.42000 347.947
33.43000 344.174
33.44000 340.689
33.45000 338.115
33.46000 338.820
33.47000 339.820
33.48000 341.351
33.49000 344.202
33.50000 347.116
33.51000 348.969
33.52000 347.647
33.53000 346.647
33.54000 347.263
33.55000 349.759
33.56000 352.241
33.57000 350.430
33.58000 345.319
33.59000 340.287
33.60000 338.089
33.61000 337.402
33.62000 337.152
33.63000 344.516
33.64000 354.651
33.65000 363.376
33.66000 358.558
33.67000 350.351
33.68000 343.170
33.69000 342.048
33.70000 341.951
33.71000 343.094
33.72000 349.195
33.73000 355.813
33.74000 360.098
33.75000 357.974
33.76000 355.483
33.77000 353.835
33.78000 347.701
33.79000 343.095
33.80000 341.597
33.81000 344.140
33.82000 346.694
33.83000 345.913
33.84000 342.266
33.85000 338.658
33.86000 338.343
33.87000 339.908
33.88000 341.287
33.89000 338.725
33.90000 334.575
33.91000 330.911
33.92000 332.658
33.93000 335.908
33.94000 338.799
33.95000 338.543
33.96000 337.810
33.97000 336.674
33.98000 333.740
33.99000 330.591
34.00000 330.889
34.01000 341.667
34.02000 353.168
34.03000 361.044
34.04000 347.955
34.05000 337.650
34.06000 334.286
34.07000 340.974
34.08000 347.743
34.09000 348.747
34.10000 344.198
34.11000 339.681
34.12000 341.117
34.13000 346.316
34.14000 351.278
34.15000 349.971
34.16000 345.872
34.17000 342.246
34.18000 344.768
34.19000 349.185
34.20000 353.173
34.21000 344.429
34.22000 334.400
34.23000 325.995
34.24000 325.663
34.25000 326.431
34.26000 328.530
34.27000 335.116
34.28000 342.067
34.29000 346.988
34.30000 352.084
34.31000 355.962
34.32000 356.452
34.33000 351.492
34.34000 346.458
34.35000 341.981
34.36000 338.106
34.37000 334.245
34.38000 333.798
34.39000 335.781
34.40000 337.745
34.41000 339.094
34.42000 340.139
34.43000 340.979
34.44000 338.660
34.45000 335.263
34.46000 332.153
34.47000 329.981
34.48000 328.243
34.49000 326.768
34.50000 326.753
34.51000 326.964
34.52000 327.511
34.53000 329.314
34.54000 331.238
34.55000 332.642
34.56000 333.774
34.57000 334.637
34.58000 333.637
34.59000 329.317
34.60000 324.932
34.61000 322.352
34.62000 321.961
34.63000 321.575
34.64000 323.974
34.65000 328.580
34.66000 333.018
34.67000 329.659
34.68000 322.052
34.69000 315.081
34.70000 319.982
34.71000 329.364
34.72000 338.062
34.73000 337.124
34.74000 334.024
34.75000 331.201
34.76000 330.104
34.77000 329.308
34.78000 329.042
34.79000 330.977
34.80000 333.153
34.81000 334.789
34.82000 324.314
34.83000 315.542
34.84000 310.713
34.85000 313.667
34.86000 316.829
34.87000 322.200
34.88000 330.556
34.89000 338.926
34.90000 338.872
34.91000 331.294
34.92000 323.788
34.93000 320.962
34.94000 320.962
34.95000 320.991
34.96000 321.691
34.97000 322.670
34.98000 323.589
34.99000 317.629
35.00000 310.393
35.01000 304.742
35.02000 310.311
35.03000 318.067
35.04000 325.054
35.05000 328.485
35.06000 331.469
35.07000 333.773
35.08000 328.393
35.09000 323.682
35.10000 320.496
35.11000 320.642
35.12000 320.905
35.13000 319.724
35.14000 316.373
35.15000 313.000
35.16000 311.310
35.17000 314.416
35.18000 316.504
35.19000 320.131
35.20000 324.790
35.21000 329.188
35.22000 326.020
35.23000 319.360
35.24000 313.047
35.25000 313.448
35.26000 315.796
35.27000 317.275
35.28000 311.768
35.29000 304.739
35.30000 299.046
35.31000 300.264
35.32000 302.466
35.33000 304.210
35.34000 311.105
35.35000 317.001
35.36000 319.863
35.37000 315.398
35.38000 310.609
35.39000 307.566
35.40000 307.437
35.41000 307.353
35.42000 307.309
35.43000 304.181
35.44000 302.087
35.45000 306.733
35.46000 316.402
35.47000 325.875
35.48000 327.860
35.49000 326.022
35.50000 324.264
35.51000 316.409
35.52000 307.080
35.53000 298.874
35.54000 301.022
35.55000 305.684
35.56000 309.772
35.57000 310.528
35.58000 310.747
35.59000 310.924
35.60000 312.467
35.61000 313.835
35.62000 314.447
35.63000 313.040
35.64000 311.523
35.65000 310.981
35.66000 312.240
35.67000 313.538
35.68000 314.263
35.69000 312.114
35.70000 310.615
35.71000 307.081
35.72000 301.854
35.73000 296.727
35.74000 296.773
35.75000 299.743
35.76000 302.610
35.77000 305.373
35.78000 307.938
35.79000 310.259
35.80000 309.978
35.81000 308.995
35.82000 308.313
35.83000 309.597
35.84000 311.237
35.85000 312.595
35.86000 307.359
35.87000 302.411
35.88000 298.117
35.89000 295.754
35.90000 293.518
35.91000 293.124
35.92000 296.501
35.93000 299.990
35.94000 302.034
35.95000 304.508
35.96000 306.252
35.97000 305.594
35.98000 302.699
35.99000 299.857
36.00000 301.077
36.01000 304.841
36.02000 308.503
36.03000 308.097
36.04000 306.036
36.05000 303.961
36.06000 301.716
36.07000 299.420
36.08000 297.671
36.09000 299.983
36.10000 303.119
36.11000 305.768
36.12000 297.839
36.13000 290.048
36.14000 285.235
36.15000 290.163
36.16000 295.848
36.17000 301.029
36.18000 305.070
36.19000 309.068
36.20000 311.515
36.21000 321.685
36.22000 329.031
36.23000 328.062
36.24000 318.384
36.25000 308.727
36.26000 301.863
36.27000 296.945
36.28000 292.129
36.29000 296.298
36.30000 304.433
36.31000 311.924
36.32000 309.932
36.33000 304.799
36.34000 299.949
36.35000 297.494
36.36000 295.582
36.37000 293.936
36.38000 299.392
36.39000 304.910
36.40000 308.347
36.41000 304.239
36.42000 299.446
36.43000 296.771
36.44000 299.396
36.45000 302.275
36.46000 304.112
36.47000 302.820
36.48000 301.841
36.49000 299.815
36.50000 296.561
36.51000 293.319
36.52000 293.684
36.53000 296.845
36.54000 299.957
36.55000 299.608
36.56000 297.492
36.57000 295.427
36.58000 294.258
36.59000 293.417
36.60000 292.543
36.61000 291.338
36.62000 290.050
36.63000 288.922
36.64000 293.580
36.65000 298.412
36.66000 301.389
36.67000 296.899
36.68000 291.624
36.69000 289.623
36.70000 296.685
36.71000 304.275
36.72000 309.306
36.73000 301.981
36.74000 296.345
36.75000 294.010
36.76000 296.002
36.77000 298.009
36.78000 296.470
36.79000 291.860
36.80000 287.299
36.81000 287.706
36.82000 290.952
36.83000 294.115
36.84000 295.494
36.85000 296.149
36.86000 296.535
36.87000 293.895
36.88000 290.407
36.89000 287.302
36.90000 290.332
36.91000 293.972
36.92000 297.711
36.93000 301.894
36.94000 306.131
36.95000 307.876
36.96000 301.993
36.97000 295.578
36.98000 291.173
36.99000 288.992
37.00000 287.412
37.01000 288.663
37.02000 294.046
37.03000 299.464
37.04000 301.279
37.05000 299.595
37.06000 297.923
37.07000 300.893
37.08000 306.794
37.09000 312.501
37.10000 312.978
37.11000 311.111
37.12000 309.192
37.13000 306.592
37.14000 303.781
37.15000 301.240
37.16000 300.762
37.17000 300.725
37.18000 301.207
37.19000 304.290
37.20000 307.730
37.21000 309.276
37.22000 304.395
37.23000 298.985
37.24000 295.147
37.25000 292.385
37.26000 290.317
37.27000 289.977
37.28000 292.434
37.29000 294.930
37.30000 295.114
37.31000 292.775
37.32000 290.443
37.33000 294.135
37.34000 302.110
37.35000 309.864
37.36000 309.853
37.37000 305.991
37.38000 302.123
37.39000 298.140
37.40000 294.119
37.41000 290.435
37.42000 289.280
37.43000 288.782
37.44000 288.177
37.45000 286.970
37.46000 285.669
37.47000 285.409
37.48000 289.068
37.49000 293.102
37.50000 296.055
37.51000 293.489
37.52000 291.290
37.53000 289.545
37.54000 288.616
37.55000 287.704
37.56000 286.141
37.57000 283.783
37.58000 281.427
37.59000 285.280
37.60000 294.101
37.61000 302.779
37.62000 304.644
37.63000 302.771
37.64000 300.888
37.65000 298.805
37.66000 296.646
37.67000 294.643
37.68000 296.562
37.69000 299.216
37.70000 300.656
37.71000 294.427
37.72000 286.853
37.73000 281.914
37.74000 287.995
37.75000 295.297
37.76000 300.794
37.77000 289.996
37.78000 280.751
37.79000 277.102
37.80000 284.580
37.81000 292.363
37.82000 297.160
37.83000 297.889
37.84000 298.594
37.85000 297.598
37.86000 295.069
37.87000 292.605
37.88000 294.514
37.89000 299.084
37.90000 303.456
37.91000 303.227
37.92000 301.065
37.93000 299.035
37.94000 297.627
37.95000 296.509
37.96000 295.177
37.97000 292.322
37.98000 289.168
37.99000 287.370
38.00000 291.902
38.01000 297.236
38.02000 301.361
38.03000 300.548
38.04000 299.613
38.05000 298.357
38.06000 296.393
38.07000 294.405
38.08000 295.539
38.09000 301.405
38.10000 307.319
38.11000 310.295
38.12000 302.466
38.13000 297.249
38.14000 293.433
38.15000 290.564
38.16000 287.939
38.17000 292.545
38.18000 300.512
38.19000 308.070
38.20000 315.613
38.21000 322.564
38.22000 328.179
38.23000 322.926
38.24000 315.287
38.25000 309.555
38.26000 313.763
38.27000 319.402
38.28000 323.872
38.29000 319.857
38.30000 316.034
38.31000 314.932
38.32000 320.445
38.33000 326.256
38.34000 330.881
38.35000 333.509
38.36000 336.106
38.37000 337.488
38.38000 341.554
38.39000 344.328
38.40000 347.786
38.41000 351.757
38.42000 355.784
38.43000 361.949
38.44000 369.212
38.45000 376.168
38.46000 393.024
38.47000 412.032
38.48000 430.549
38.49000 444.503
38.50000 457.340
38.51000 470.461
38.52000 485.239
38.53000 500.286
38.54000 512.496
38.55000 546.063
38.56000 575.186
38.57000 601.395
38.58000 619.768
38.59000 637.710
38.60000 660.226
38.61000 691.263
38.62000 722.494
38.63000 739.997
38.64000 773.632
38.65000 797.002
38.66000 828.660
38.67000 867.268
38.68000 905.671
38.69000 933.092
38.70000 954.260
38.71000 974.707
38.72000 985.316
38.73000 991.663
38.74000 997.941
38.75000 1003.479
38.76000 1008.816
38.77000 1014.127
38.78000 1019.265
38.79000 1024.372
38.80000 1028.606
38.81000 1005.023
38.82000 982.870
38.83000 957.487
38.84000 922.491
38.85000 886.857
38.86000 849.593
38.87000 808.968
38.88000 768.242
38.89000 744.305
38.90000 719.332
38.91000 701.716
38.92000 677.683
38.93000 647.621
38.94000 617.577
38.95000 588.963
38.96000 561.250
38.97000 534.280
38.98000 511.327
38.99000 491.136
39.00000 470.961
39.01000 450.993
39.02000 431.086
39.03000 412.246
39.04000 401.381
39.05000 392.147
39.06000 384.335
39.07000 379.743
39.08000 376.257
39.09000 370.520
39.10000 357.367
39.11000 343.632
39.12000 331.767
39.13000 324.166
39.14000 316.731
39.15000 312.164
39.16000 308.206
39.17000 305.374
39.18000 303.261
39.19000 301.909
39.20000 300.569
39.21000 300.831
39.22000 302.216
39.23000 303.572
39.24000 303.289
39.25000 302.257
39.26000 301.025
39.27000 296.822
39.28000 291.626
39.29000 286.955
39.30000 286.753
39.31000 287.571
39.32000 288.277
39.33000 283.758
39.34000 279.260
39.35000 276.319
39.36000 279.060
39.37000 282.324
39.38000 284.254
39.39000 282.824
39.40000 281.231
39.41000 280.212
39.42000 282.709
39.43000 284.574
39.44000 282.900
39.45000 277.037
39.46000 271.182
39.47000 269.298
39.48000 270.518
39.49000 271.719
39.50000 275.674
39.51000 280.937
39.52000 285.648
39.53000 280.493
39.54000 271.694
39.55000 264.014
39.56000 267.297
39.57000 273.365
39.58000 278.687
39.59000 275.114
39.60000 270.750
39.61000 268.797
39.62000 276.629
39.63000 285.502
39.64000 291.263
39.65000 288.352
39.66000 284.929
39.67000 282.655
39.68000 276.749
39.69000 272.314
39.70000 270.829
39.71000 273.241
39.72000 275.666
39.73000 274.302
39.74000 269.630
39.75000 265.006
39.76000 261.437
39.77000 258.556
39.78000 255.824
39.79000 256.353
39.80000 258.215
39.81000 259.949
39.82000 260.234
39.83000 260.109
39.84000 259.998
39.85000 265.996
39.86000 272.223
39.87000 276.639
39.88000 272.870
39.89000 268.103
39.90000 263.903
39.91000 261.449
39.92000 259.118
39.93000 257.515
39.94000 261.340
39.95000 264.347
39.96000 266.266
39.97000 266.586
39.98000 266.893
39.99000 266.973
40.00000 266.831
40.01000 266.690
40.02000 264.755
40.03000 261.689
40.04000 258.682
40.05000 257.265
40.06000 256.566
40.07000 256.144
40.08000 259.420
40.09000 263.852
40.10000 267.861
40.11000 269.646
40.12000 270.801
40.13000 271.863
40.14000 272.456
40.15000 272.984
40.16000 272.715
40.17000 269.724
40.18000 266.507
40.19000 264.218
40.20000 258.740
40.21000 254.466
40.22000 252.247
40.23000 253.383
40.24000 254.567
40.25000 253.497
40.26000 249.946
40.27000 246.406
40.28000 244.541
40.29000 243.901
40.30000 243.379
40.31000 247.044
40.32000 252.802
40.33000 258.025
40.34000 254.785
40.35000 248.615
40.36000 242.955
40.37000 242.807
40.38000 243.840
40.39000 245.613
40.40000 251.579
40.41000 258.204
40.42000 262.787
40.43000 259.632
40.44000 255.727
40.45000 252.864
40.46000 257.556
40.47000 261.485
40.48000 263.388
40.49000 261.626
40.50000 259.788
40.51000 259.559
40.52000 261.311
40.53000 263.066
40.54000 262.680
40.55000 260.562
40.56000 258.529
40.57000 260.557
40.58000 264.831
40.59000 268.659
40.60000 263.934
40.61000 255.936
40.62000 248.506
40.63000 250.300
40.64000 254.111
40.65000 257.101
40.66000 254.864
40.67000 251.702
40.68000 248.970
40.69000 248.051
40.70000 247.335
40.71000 246.795
40.72000 247.443
40.73000 248.009
40.74000 248.728
40.75000 249.755
40.76000 250.791
40.77000 250.609
40.78000 248.756
40.79000 246.894
40.80000 245.862
40.81000 245.585
40.82000 245.327
40.83000 246.430
40.84000 248.368
40.85000 250.267
40.86000 251.251
40.87000 251.847
40.88000 252.406
40.89000 249.258
40.90000 245.394
40.91000 243.080
40.92000 251.936
40.93000 263.006
40.94000 270.552
40.95000 261.536
40.96000 250.403
40.97000 241.778
40.98000 248.060
40.99000 253.937
41.00000 253.903
41.01000 240.776
41.02000 227.173
41.03000 225.287
41.04000 241.289
41.05000 257.481
41.06000 265.664
41.07000 251.509
41.08000 242.090
41.09000 238.486
41.10000 238.839
41.11000 239.290
41.12000 242.711
41.13000 247.522
41.14000 252.090
41.15000 251.539
41.16000 249.497
41.17000 247.613
41.18000 247.009
41.19000 246.688
41.20000 246.661
41.21000 248.178
41.22000 249.920
41.23000 251.302
41.24000 244.488
41.25000 238.421
41.26000 235.968
41.27000 242.367
41.28000 249.169
41.29000 252.026
41.30000 248.201
41.31000 244.266
41.32000 242.163
41.33000 241.967
41.34000 241.844
41.35000 243.757
41.36000 247.212
41.37000 250.660
41.38000 253.815
41.39000 256.818
41.40000 259.697
41.41000 254.340
41.42000 246.584
41.43000 239.437
41.44000 238.034
41.45000 238.046
41.46000 238.201
41.47000 239.200
41.48000 240.337
41.49000 241.262
41.50000 241.962
41.51000 242.515
41.52000 242.141
41.53000 239.253
41.54000 236.225
41.55000 233.628
41.56000 231.838
41.57000 230.066
41.58000 229.070
41.59000 234.727
41.60000 238.670
41.61000 242.047
41.62000 244.946
41.63000 247.757
41.64000 245.724
41.65000 240.914
41.66000 236.265
41.67000 231.242
41.68000 226.365
41.69000 222.448
41.70000 228.985
41.71000 238.385
41.72000 246.012
41.73000 241.852
41.74000 235.519
41.75000 230.261
41.76000 237.836
41.77000 245.344
41.78000 249.048
41.79000 241.349
41.80000 232.885
41.81000 226.812
41.82000 225.705
41.83000 224.752
41.84000 224.190
41.85000 230.510
41.86000 235.008
41.87000 235.797
41.88000 233.074
41.89000 230.408
41.90000 232.432
41.91000 237.441
41.92000 242.317
41.93000 245.503
41.94000 247.833
41.95000 249.696
41.96000 245.623
41.97000 239.748
41.98000 235.115
41.99000 239.851
42.00000 246.518
42.01000 252.167
42.02000 243.846
42.03000 235.308
42.04000 229.939
42.05000 235.084
42.06000 241.065
42.07000 245.972
42.08000 248.415
42.09000 250.761
42.10000 252.206
42.11000 246.065
42.12000 241.589
42.13000 238.629
42.14000 237.283
42.15000 235.936
42.16000 234.438
42.17000 232.833
42.18000 231.259
42.19000 233.843
42.20000 238.270
42.21000 242.228
42.22000 239.121
42.23000 233.638
42.24000 229.520
42.25000 237.155
42.26000 247.493
42.27000 256.416
42.28000 250.089
42.29000 242.757
42.30000 236.635
42.31000 234.972
42.32000 233.723
42.33000 234.102
42.34000 238.615
42.35000 243.330
42.36000 246.356
42.37000 251.051
42.38000 254.496
42.39000 252.970
42.40000 245.514
42.41000 238.064
42.42000 235.281
42.43000 236.175
42.44000 237.055
42.45000 238.441
42.46000 240.051
42.47000 241.331
42.48000 236.631
42.49000 229.707
42.50000 223.595
42.51000 225.521
42.52000 229.505
42.53000 233.003
42.54000 231.811
42.55000 230.098
42.56000 229.689
42.57000 234.613
42.58000 240.110
42.59000 243.380
42.60000 240.396
42.61000 237.037
42.62000 234.800
42.63000 234.499
42.64000 234.313
42.65000 234.444
42.66000 234.996
42.67000 235.552
42.68000 237.661
42.69000 241.136
42.70000 244.576
42.71000 245.645
42.72000 245.309
42.73000 244.920
42.74000 243.342
42.75000 241.276
42.76000 239.154
42.77000 236.404
42.78000 233.476
42.79000 230.862
42.80000 231.344
42.81000 232.280
42.82000 231.885
42.83000 225.433
42.84000 218.235
42.85000 214.270
42.86000 220.350
42.87000 227.149
42.88000 231.839
42.89000 227.806
42.90000 224.554
42.91000 221.453
42.92000 218.576
42.93000 215.702
42.94000 216.530
42.95000 221.016
42.96000 225.475
42.97000 226.728
42.98000 225.878
42.99000 224.983
43.00000 222.855
43.01000 220.165
43.02000 218.032
43.03000 223.412
43.04000 231.158
43.05000 238.174
43.06000 233.496
43.07000 227.164
43.08000 221.885
43.09000 221.967
43.10000 222.800
43.11000 223.523
43.12000 223.868
43.13000 224.182
43.14000 224.406
43.15000 220.631
43.16000 217.624
43.17000 216.991
43.18000 220.265
43.19000 223.597
43.20000 225.285
43.21000 225.152
43.22000 225.017
43.23000 228.278
43.24000 233.986
43.25000 239.583
43.26000 241.142
43.27000 240.669
43.28000 240.018
43.29000 236.510
43.30000 232.005
43.31000 227.869
43.32000 226.713
43.33000 226.317
43.34000 226.654
43.35000 231.169
43.36000 236.347
43.37000 240.295
43.38000 239.551
43.39000 238.346
43.40000 237.461
43.41000 229.395
43.42000 222.864
43.43000 217.138
43.44000 212.876
43.45000 208.646
43.46000 212.153
43.47000 225.265
43.48000 238.387
43.49000 237.969
43.50000 226.504
43.51000 215.309
43.52000 217.585
43.53000 227.362
43.54000 236.536
43.55000 233.969
43.56000 226.875
43.57000 220.280
43.58000 220.630
43.59000 222.612
43.60000 225.064
43.61000 230.543
43.62000 236.562
43.63000 239.672
43.64000 230.426
43.65000 219.785
43.66000 211.742
43.67000 216.554
43.68000 220.972
43.69000 226.107
43.70000 232.691
43.71000 239.316
43.72000 240.264
43.73000 233.357
43.74000 226.402
43.75000 221.228
43.76000 217.688
43.77000 214.241
43.78000 217.531
43.79000 224.980
43.80000 232.046
43.81000 229.898
43.82000 223.821
43.83000 218.107
43.84000 217.052
43.85000 217.344
43.86000 218.327
43.87000 224.340
43.88000 231.357
43.89000 237.143
43.90000 237.093
43.91000 236.290
43.92000 235.666
43.93000 237.188
43.94000 238.528
43.95000 238.406
43.96000 235.021
43.97000 231.515
43.98000 229.391
43.99000 229.392
44.00000 229.416
44.01000 229.428
44.02000 223.739
44.03000 219.965
44.04000 220.587
44.05000 224.222
44.06000 227.711
44.07000 226.717
44.08000 223.609
44.09000 220.657
44.10000 220.996
44.11000 222.303
44.12000 223.242
44.13000 221.134
44.14000 218.346
44.15000 216.034
44.16000 216.238
44.17000 216.810
44.18000 217.265
44.19000 224.108
44.20000 230.081
44.21000 234.208
44.22000 233.783
44.23000 233.146
44.24000 233.775
44.25000 236.564
44.26000 239.390
44.27000 240.906
44.28000 234.843
44.29000 230.716
44.30000 230.847
44.31000 234.228
44.32000 237.445
44.33000 233.964
44.34000 226.990
44.35000 220.302
44.36000 220.833
44.37000 223.765
44.38000 226.201
44.39000 223.923
44.40000 220.474
44.41000 217.947
44.42000 220.911
44.43000 224.782
44.44000 227.934
44.45000 228.574
44.46000 228.886
44.47000 228.627
44.48000 226.812
44.49000 224.908
44.50000 224.948
44.51000 228.661
44.52000 232.460
44.53000 234.605
44.54000 239.012
44.55000 242.076
44.56000 242.811
44.57000 241.559
44.58000 240.378
44.59000 243.103
44.60000 248.087
44.61000 252.905
44.62000 251.591
44.63000 248.036
44.64000 244.844
44.65000 245.659
44.66000 247.579
44.67000 249.279
44.68000 249.508
44.69000 249.463
44.70000 249.426
44.71000 252.456
44.72000 255.264
44.73000 257.592
44.74000 258.471
44.75000 259.252
44.76000 260.244
44.77000 261.679
44.78000 263.128
44.79000 263.985
44.80000 267.195
44.81000 269.476
44.82000 271.413
44.83000 273.020
44.84000 274.600
44.85000 273.886
44.86000 271.701
44.87000 269.573
44.88000 277.394
44.89000 289.046
44.90000 299.615
44.91000 296.248
44.92000 288.618
44.93000 282.867
44.94000 291.415
44.95000 302.935
44.96000 312.709
44.97000 322.527
44.98000 330.764
44.99000 338.430
45.00000 344.183
45.01000 349.783
45.02000 354.661
45.03000 357.867
45.04000 361.007
45.05000 362.947
45.06000 368.942
45.07000 373.286
45.08000 375.010
45.09000 373.921
45.10000 372.865
45.11000 376.842
45.12000 384.403
45.13000 391.816
45.14000 391.056
45.15000 386.477
45.16000 381.793
45.17000 375.497
45.18000 368.655
45.19000 363.528
45.20000 373.306
45.21000 386.540
45.22000 397.977
45.23000 388.037
45.24000 376.815
45.25000 367.959
45.26000 367.871
45.27000 368.607
45.28000 368.473
45.29000 366.114
45.30000 363.645
45.31000 362.056
45.32000 348.561
45.33000 338.547
45.34000 334.010
45.35000 336.061
45.36000 338.118
45.37000 338.090
45.38000 336.407
45.39000 334.749
45.40000 327.941
45.41000 318.623
45.42000 309.834
45.43000 310.776
45.44000 315.364
45.45000 319.166
45.46000 315.094
45.47000 308.993
45.48000 303.628
45.49000 305.011
45.50000 307.202
45.51000 307.775
45.52000 301.681
45.53000 294.864
45.54000 290.994
45.55000 295.459
45.56000 300.430
45.57000 303.750
45.58000 295.452
45.59000 289.077
45.60000 284.512
45.61000 282.374
45.62000 280.248
45.63000 276.100
45.64000 270.159
45.65000 264.275
45.66000 261.671
45.67000 261.045
45.68000 260.650
45.69000 265.483
45.70000 272.482
45.71000 278.088
45.72000 267.497
45.73000 252.269
45.74000 238.665
45.75000 238.017
45.76000 239.637
45.77000 240.981
45.78000 241.065
45.79000 240.993
45.80000 240.487
45.81000 238.628
45.82000 236.671
45.83000 235.317
45.84000 239.273
45.85000 242.386
45.86000 243.677
45.87000 242.248
45.88000 240.793
45.89000 238.793
45.90000 236.251
45.91000 233.724
45.92000 231.878
45.93000 230.505
45.94000 229.199
45.95000 229.814
45.96000 231.310
45.97000 232.519
45.98000 229.824
45.99000 225.889
46.00000 222.322
46.01000 225.983
46.02000 230.590
46.03000 233.502
46.04000 227.712
46.05000 220.693
46.06000 215.722
46.07000 217.851
46.08000 220.585
46.09000 222.538
46.10000 218.700
46.11000 215.579
46.12000 213.518
46.13000 213.212
46.14000 212.933
46.15000 213.322
46.16000 214.460
46.17000 215.595
46.18000 213.716
46.19000 209.638
46.20000 205.729
46.21000 208.082
46.22000 213.610
46.23000 218.845
46.24000 219.315
46.25000 218.112
46.26000 217.007
46.27000 214.449
46.28000 211.852
46.29000 208.957
46.30000 204.341
46.31000 199.451
46.32000 196.041
46.33000 198.333
46.34000 201.188
46.35000 203.291
46.36000 205.421
46.37000 207.071
46.38000 208.439
46.39000 209.288
46.40000 210.126
46.41000 207.406
46.42000 200.233
46.43000 193.056
46.44000 192.327
46.45000 196.903
46.46000 201.449
46.47000 204.426
46.48000 206.523
46.49000 208.605
46.50000 210.424
46.51000 212.140
46.52000 213.736
46.53000 213.129
46.54000 212.048
46.55000 211.117
46.56000 211.153
46.57000 211.364
46.58000 210.200
46.59000 203.150
46.60000 195.428
46.61000 189.580
46.62000 192.268
46.63000 194.812
46.64000 196.452
46.65000 196.255
46.66000 196.005
46.67000 196.224
46.68000 197.098
46.69000 197.975
46.70000 198.854
46.71000 199.733
46.72000 200.641
46.73000 203.759
46.74000 208.251
46.75000 212.575
46.76000 212.757
46.77000 211.161
46.78000 209.659
46.79000 202.734
46.80000 194.932
46.81000 188.109
46.82000 188.477
46.83000 190.292
46.84000 192.300
46.85000 195.228
46.86000 198.276
46.87000 200.646
46.88000 201.811
46.89000 202.665
46.90000 203.140
46.91000 202.764
46.92000 202.357
46.93000 199.968
46.94000 194.510
46.95000 189.017
46.96000 186.217
46.97000 186.433
46.98000 186.600
46.99000 189.391
47.00000 193.995
47.01000 198.572
47.02000 202.307
47.03000 205.644
47.04000 208.816
47.05000 207.636
47.06000 205.221
47.07000 202.896
47.08000 201.323
47.09000 199.919
47.10000 197.832
47.11000 192.090
47.12000 185.810
47.13000 180.804
47.14000 181.800
47.15000 183.039
47.16000 183.474
47.17000 181.915
47.18000 180.261
47.19000 180.095
47.20000 182.484
47.21000 184.918
47.22000 186.229
47.23000 190.535
47.24000 193.466
47.25000 192.596
47.26000 188.803
47.27000 185.010
47.28000 181.238
47.29000 177.477
47.30000 173.868
47.31000 176.354
47.32000 180.751
47.33000 184.941
47.34000 187.138
47.35000 188.836
47.36000 190.266
47.37000 190.082
47.38000 189.630
47.39000 189.261
47.40000 187.842
47.41000 186.591
47.42000 185.452
47.43000 184.615
47.44000 183.796
47.45000 183.950
47.46000 185.956
47.47000 188.007
47.48000 189.169
47.49000 184.432
47.50000 181.123
47.51000 180.826
47.52000 183.116
47.53000 185.418
47.54000 188.397
47.55000 191.771
47.56000 195.035
47.57000 190.552
47.58000 183.371
47.59000 176.564
47.60000 173.918
47.61000 172.430
47.62000 171.731
47.63000 176.386
47.64000 182.043
47.65000 186.754
47.66000 189.533
47.67000 191.644
47.68000 193.134
47.69000 192.737
47.70000 192.210
47.71000 190.984
47.72000 188.284
47.73000 185.536
47.74000 183.905
47.75000 186.169
47.76000 187.792
47.77000 186.434
47.78000 182.204
47.79000 178.026
47.80000 178.394
47.81000 181.699
47.82000 184.919
47.83000 188.213
47.84000 191.387
47.85000 194.262
47.86000 193.239
47.87000 191.015
47.88000 188.865
47.89000 187.277
47.90000 185.807
47.91000 184.558
47.92000 185.955
47.93000 187.430
47.94000 188.715
47.95000 189.360
47.96000 189.953
47.97000 189.886
47.98000 188.282
47.99000 186.615
48.00000 185.582
48.01000 181.229
48.02000 178.066
48.03000 178.858
48.04000 183.929
48.05000 188.992
48.06000 192.476
48.07000 194.827
48.08000 197.132
48.09000 196.165
48.10000 193.680
48.11000 191.445
48.12000 193.088
48.13000 196.053
48.14000 198.453
48.15000 195.889
48.16000 192.165
48.17000 188.942
48.18000 188.872
48.19000 189.226
48.20000 188.751
48.21000 185.173
48.22000 181.302
48.23000 178.264
48.24000 177.373
48.25000 176.590
48.26000 176.085
48.27000 175.933
48.28000 175.827
48.29000 176.450
48.30000 177.957
48.31000 179.462
48.32000 179.643
48.33000 178.764
48.34000 177.897
48.35000 182.056
48.36000 188.760
48.37000 195.029
48.38000 193.164
48.39000 188.230
48.40000 183.612
48.41000 182.187
48.42000 181.592
48.43000 181.068
48.44000 180.053
48.45000 179.106
48.46000 178.642
48.47000 180.190
48.48000 181.958
48.49000 183.937
48.50000 186.519
48.51000 189.137
48.52000 190.891
48.53000 197.410
48.54000 202.340
48.55000 202.901
48.56000 197.553
48.57000 192.173
48.58000 188.004
48.59000 184.919
48.60000 181.863
48.61000 181.857
48.62000 183.657
48.63000 185.291
48.64000 183.124
48.65000 179.370
48.66000 175.924
48.67000 176.105
48.68000 177.333
48.69000 178.431
48.70000 178.330
48.71000 178.038
48.72000 178.362
48.73000 181.532
48.74000 185.060
48.75000 186.857
48.76000 183.194
48.77000 179.131
48.78000 176.315
48.79000 173.087
48.80000 170.646
48.81000 169.599
48.82000 170.651
48.83000 171.724
48.84000 175.655
48.85000 182.458
48.86000 189.222
48.87000 188.892
48.88000 183.874
48.89000 178.903
48.90000 175.315
48.91000 172.365
48.92000 169.894
48.93000 174.035
48.94000 180.290
48.95000 185.966
48.96000 185.448
48.97000 183.800
48.98000 182.017
48.99000 179.535
49.00000 176.953
49.01000 174.563
49.02000 172.845
49.03000 171.185
49.04000 169.996
49.05000 168.044
49.06000 166.526
49.07000 169.276
49.08000 179.150
49.09000 189.135
49.10000 194.831
49.11000 195.693
49.12000 196.548
49.13000 190.440
49.14000 179.225
49.15000 168.214
49.16000 164.974
49.17000 165.701
49.18000 166.544
49.19000 169.305
49.20000 172.744
49.21000 175.907
49.22000 176.471
49.23000 176.411
49.24000 176.165
49.25000 174.832
49.26000 173.325
49.27000 173.156
49.28000 178.182
49.29000 183.728
49.30000 187.820
49.31000 190.103
49.32000 191.796
49.33000 189.211
49.34000 178.716
49.35000 168.047
49.36000 163.295
49.37000 166.003
49.38000 168.733
49.39000 171.306
49.40000 173.741
49.41000 176.159
49.42000 177.668
49.43000 178.664
49.44000 179.624
49.45000 179.840
49.46000 179.767
49.47000 179.698
49.48000 175.566
49.49000 170.839
49.50000 167.485
49.51000 173.116
49.52000 180.375
49.53000 185.779
49.54000 183.178
49.55000 179.656
49.56000 176.983
49.57000 172.557
49.58000 168.990
49.59000 168.148
49.60000 172.885
49.61000 177.788
49.62000 181.381
49.63000 183.135
49.64000 184.877
49.65000 183.015
49.66000 177.799
49.67000 172.647
49.68000 172.449
49.69000 175.354
49.70000 178.208
49.71000 179.783
49.72000 180.804
49.73000 181.766
49.74000 179.924
49.75000 177.472
49.76000 175.420
49.77000 176.335
49.78000 177.851
49.79000 178.695
49.80000 176.297
49.81000 173.474
49.82000 171.274
49.83000 175.496
49.84000 179.256
49.85000 180.738
49.86000 177.062
49.87000 173.188
49.88000 171.069
49.89000 171.688
49.90000 172.339
49.91000 172.673
49.92000 175.035
49.93000 176.619
49.94000 177.735
49.95000 178.526
49.96000 179.269
49.97000 178.504
49.98000 177.017
49.99000 175.602
50.00000 178.783
50.01000 183.136
50.02000 186.879
50.03000 185.475
50.04000 182.904
50.05000 181.739
50.06000 188.141
50.07000 195.671
50.08000 201.682
50.09000 194.281
50.10000 187.320
50.11000 181.855
50.12000 180.132
50.13000 178.587
50.14000 177.745
50.15000 178.116
50.16000 178.509
50.17000 178.722
50.18000 177.014
50.19000 175.851
50.20000 176.637
50.21000 178.934
50.22000 181.207
50.23000 182.442
50.24000 183.128
50.25000 183.787
50.26000 181.765
50.27000 178.954
50.28000 176.360
50.29000 175.869
50.30000 175.908
50.31000 175.690
50.32000 173.916
50.33000 171.881
50.34000 170.218
50.35000 179.059
50.36000 187.198
50.37000 191.992
50.38000 187.525
50.39000 182.518
50.40000 180.865
50.41000 185.644
50.42000 190.582
50.43000 193.389
50.44000 188.756
50.45000 185.509
50.46000 185.912
50.47000 189.473
50.48000 193.043
50.49000 197.157
50.50000 201.590
50.51000 205.882
50.52000 205.845
50.53000 204.151
50.54000 203.035
50.55000 208.428
50.56000 215.644
50.57000 221.963
50.58000 222.161
50.59000 221.203
50.60000 220.404
50.61000 227.428
50.62000 234.036
50.63000 239.619
50.64000 242.061
50.65000 244.285
50.66000 246.174
50.67000 247.355
50.68000 248.512
50.69000 249.202
50.70000 256.230
50.71000 261.248
50.72000 265.951
50.73000 270.347
50.74000 274.693
50.75000 274.419
50.76000 271.139
50.77000 267.941
50.78000 266.743
50.79000 266.456
50.80000 266.145
50.81000 265.506
50.82000 264.766
50.83000 263.615
50.84000 259.280
50.85000 254.273
50.86000 250.014
50.87000 247.938
50.88000 246.446
50.89000 244.857
50.90000 242.937
50.91000 240.991
50.92000 238.362
50.93000 234.135
50.94000 229.841
50.95000 227.172
50.96000 228.771
50.97000 229.964
50.98000 229.044
50.99000 225.817
51.00000 222.582
51.01000 218.087
51.02000 212.682
51.03000 207.378
51.04000 207.262
51.05000 209.632
51.06000 211.701
51.07000 209.057
51.08000 204.794
51.09000 201.049
51.10000 201.894
51.11000 203.819
51.12000 205.487
51.13000 199.748
51.14000 193.883
51.15000 188.524
51.16000 185.073
51.17000 181.805
51.18000 181.210
51.19000 187.547
51.20000 194.241
51.21000 198.571
51.22000 191.889
51.23000 186.840
51.24000 184.619
51.25000 185.854
51.26000 187.088
51.27000 185.110
51.28000 180.543
51.29000 176.038
51.30000 173.681
51.31000 172.536
51.32000 171.548
51.33000 173.537
51.34000 176.658
51.35000 179.582
51.36000 180.495
51.37000 180.881
51.38000 181.220
51.39000 181.438
51.40000 181.606
51.41000 181.126
51.42000 177.934
51.43000 174.442
51.44000 172.294
51.45000 174.006
51.46000 175.958
51.47000 177.269
51.48000 172.152
51.49000 168.221
51.50000 168.421
51.51000 174.250
51.52000 180.107
51.53000 179.243
51.54000 172.318
51.55000 165.456
51.56000 164.983
51.57000 168.330
51.58000 171.536
51.59000 171.431
51.60000 169.933
51.61000 168.549
51.62000 168.509
51.63000 168.860
51.64000 169.174
51.65000 167.821
51.66000 166.354
51.67000 165.030
51.68000 164.373
51.69000 163.801
51.70000 163.921
51.71000 166.242
51.72000 168.725
51.73000 170.451
51.74000 168.608
51.75000 167.122
51.76000 165.385
51.77000 163.265
51.78000 161.142
51.79000 162.022
51.80000 165.944
51.81000 169.846
51.82000 170.133
51.83000 168.007
51.84000 165.843
51.85000 162.520
51.86000 158.660
51.87000 154.974
51.88000 153.728
51.89000 153.267
51.90000 152.849
51.91000 155.752
51.92000 158.960
51.93000 161.594
51.94000 161.233
51.95000 160.441
51.96000 159.844
51.97000 159.931
51.98000 160.079
51.99000 160.184
52.00000 160.563
52.01000 160.862
52.02000 160.350
52.03000 158.474
52.04000 156.576
52.05000 157.731
52.06000 162.357
52.07000 166.974
52.08000 168.608
52.09000 168.006
52.10000 167.479
52.11000 169.901
52.12000 173.839
52.13000 177.338
52.14000 173.512
52.15000 167.076
52.16000 161.151
52.17000 163.648
52.18000 167.724
52.19000 170.962
52.20000 169.303
52.21000 166.848
52.22000 163.816
52.23000 158.532
52.24000 153.020
52.25000 148.944
52.26000 153.733
52.27000 157.827
52.28000 162.863
52.29000 169.654
52.30000 176.484
52.31000 179.176
52.32000 176.607
52.33000 174.022
52.34000 168.612
52.35000 160.854
52.36000 153.204
52.37000 151.303
52.38000 152.677
52.39000 153.952
52.40000 153.229
52.41000 151.719
52.42000 150.313
52.43000 154.356
52.44000 159.356
52.45000 163.631
52.46000 163.127
52.47000 161.750
52.48000 161.044
52.49000 163.256
52.50000 165.807
52.51000 167.747
52.52000 163.319
52.53000 159.504
52.54000 156.683
52.55000 155.913
52.56000 155.205
52.57000 155.937
52.58000 158.708
52.59000 161.494
52.60000 161.203
52.61000 158.023
52.62000 154.867
52.63000 153.564
52.64000 153.432
52.65000 153.382
52.66000 155.431
52.67000 158.394
52.68000 161.186
52.69000 162.564
52.70000 163.436
52.71000 164.022
52.72000 162.467
52.73000 160.474
52.74000 158.429
52.75000 156.128
52.76000 153.793
52.77000 151.971
52.78000 161.139
52.79000 169.139
52.80000 172.983
52.81000 167.356
52.82000 161.359
52.83000 156.094
52.84000 151.978
52.85000 147.877
52.86000 145.770
52.87000 152.023
52.88000 156.200
52.89000 156.284
52.90000 153.497
52.91000 150.735
52.92000 148.804
52.93000 147.272
52.94000 145.814
52.95000 147.757
52.96000 150.608
52.97000 153.320
52.98000 154.843
52.99000 156.095
53.00000 156.876
53.01000 155.097
53.02000 152.932
53.03000 151.202
53.04000 156.724
53.05000 161.726
53.06000 165.730
53.07000 167.218
53.08000 168.583
53.09000 169.068
53.10000 168.016
53.11000 166.936
53.12000 166.350
53.13000 160.419
53.14000 156.359
53.15000 155.477
53.16000 157.077
53.17000 158.650
53.18000 159.044
53.19000 158.809
53.20000 158.584
53.21000 158.825
53.22000 159.211
53.23000 159.407
53.24000 157.733
53.25000 155.584
53.26000 154.419
53.27000 159.260
53.28000 165.119
53.29000 169.911
53.30000 169.473
53.31000 168.659
53.32000 167.789
53.33000 166.763
53.34000 165.728
53.35000 164.972
53.36000 164.754
53.37000 164.550
53.38000 164.433
53.39000 165.296
53.40000 165.898
53.41000 162.905
53.42000 156.775
53.43000 150.714
53.44000 148.834
53.45000 149.424
53.46000 149.996
53.47000 153.260
53.48000 157.387
53.49000 161.372
53.50000 163.731
53.51000 165.632
53.52000 167.629
53.53000 170.285
53.54000 173.067
53.55000 175.391
53.56000 169.178
53.57000 163.158
53.58000 160.018
53.59000 165.764
53.60000 172.138
53.61000 175.210
53.62000 171.225
53.63000 167.006
53.64000 164.486
53.65000 158.643
53.66000 154.477
53.67000 151.923
53.68000 150.947
53.69000 149.994
53.70000 151.128
53.71000 153.630
53.72000 156.071
53.73000 157.002
53.74000 157.241
53.75000 157.369
53.76000 156.037
53.77000 154.248
53.78000 152.872
53.79000 154.725
53.80000 157.265
53.81000 159.429
53.82000 159.804
53.83000 159.912
53.84000 159.906
53.85000 159.515
53.86000 159.093
53.87000 160.030
53.88000 164.180
53.89000 168.467
53.90000 171.139
53.91000 163.882
53.92000 158.548
53.93000 156.702
53.94000 158.692
53.95000 160.680
53.96000 161.823
53.97000 162.351
53.98000 162.868
53.99000 160.423
54.00000 156.637
54.01000 152.968
54.02000 151.169
54.03000 150.017
54.04000 149.258
54.05000 152.019
54.06000 155.614
54.07000 158.733
54.08000 161.361
54.09000 163.534
54.10000 164.214
54.11000 159.233
54.12000 153.703
54.13000 150.118
54.14000 151.614
54.15000 153.374
54.16000 154.516
54.17000 155.101
54.18000 155.520
54.19000 157.707
54.20000 162.070
54.21000 166.423
54.22000 164.404
54.23000 157.210
54.24000 150.109
54.25000 145.691
54.26000 142.834
54.27000 140.350
54.28000 145.008
54.29000 152.400
54.30000 159.391
54.31000 162.238
54.32000 163.991
54.33000 165.538
54.34000 163.877
54.35000 161.956
54.36000 160.705
54.37000 162.282
54.38000 164.174
54.39000 164.659
54.40000 161.074
54.41000 157.233
54.42000 154.647
54.43000 147.917
54.44000 142.828
54.45000 141.431
54.46000 145.105
54.47000 148.809
54.48000 152.216
54.49000 155.354
54.50000 158.465
54.51000 160.877
54.52000 162.823
54.53000 164.771
54.54000 166.749
54.55000 168.741
54.56000 170.180
54.57000 164.974
54.58000 157.824
54.59000 151.416
54.60000 149.001
54.61000 147.583
54.62000 146.803
54.63000 149.022
54.64000 151.625
54.65000 154.608
54.66000 158.806
54.67000 163.095
54.68000 166.083
54.69000 156.568
54.70000 149.047
54.71000 143.832
54.72000 142.139
54.73000 140.484
54.74000 140.447
54.75000 142.062
54.76000 143.668
54.77000 145.749
54.78000 148.123
54.79000 150.475
54.80000 152.155
54.81000 153.521
54.82000 154.815
54.83000 155.089
54.84000 155.033
54.85000 154.982
54.86000 153.602
54.87000 152.122
54.88000 151.269
54.89000 153.715
54.90000 156.640
54.91000 159.073
54.92000 159.765
54.93000 160.304
54.94000 160.691
54.95000 164.564
54.96000 167.650
54.97000 168.435
54.98000 165.322
54.99000 162.145
55.00000 160.014
55.01000 159.082
55.02000 158.154
55.03000 157.880
55.04000 158.101
55.05000 158.348
55.06000 159.627
55.07000 161.441
55.08000 163.247
55.09000 164.909
55.10000 166.518
55.11000 168.002
55.12000 164.921
55.13000 161.157
55.14000 158.207
55.15000 160.065
55.16000 162.712
55.17000 164.630
55.18000 163.684
55.19000 162.445
55.20000 161.527
55.21000 162.570
55.22000 163.465
55.23000 163.870
55.24000 163.355
55.25000 162.818
55.26000 165.206
55.27000 171.339
55.28000 177.481
55.29000 175.113
55.30000 165.576
55.31000 156.189
55.32000 155.076
55.33000 158.708
55.34000 162.334
55.35000 165.836
55.36000 169.290
55.37000 172.512
55.38000 171.701
55.39000 169.966
55.40000 168.512
55.41000 168.926
55.42000 169.683
55.43000 170.416
55.44000 171.040
55.45000 171.651
55.46000 172.116
55.47000 178.652
55.48000 184.119
55.49000 186.799
55.50000 183.691
55.51000 180.405
55.52000 181.333
55.53000 188.273
55.54000 195.258
55.55000 198.220
55.56000 197.372
55.57000 196.563
55.58000 199.025
55.59000 203.568
55.60000 207.951
55.61000 208.225
55.62000 206.695
55.63000 205.252
55.64000 213.258
55.65000 223.223
55.66000 232.522
55.67000 236.801
55.68000 240.044
55.69000 243.570
55.70000 248.478
55.71000 253.570
55.72000 257.551
55.73000 263.196
55.74000 267.807
55.75000 274.800
55.76000 287.265
55.77000 299.947
55.78000 315.846
55.79000 336.844
55.80000 357.907
55.81000 368.771
55.82000 365.139
55.83000 362.775
55.84000 372.146
55.85000 389.811
55.86000 407.375
55.87000 421.588
55.88000 434.174
55.89000 446.165
55.90000 455.987
55.91000 464.414
55.92000 473.357
55.93000 486.745
55.94000 501.156
55.95000 512.913
55.96000 510.134
55.97000 505.151
55.98000 501.159
55.99000 517.632
56.00000 532.496
56.01000 542.431
56.02000 539.850
56.03000 536.654
56.04000 533.677
56.05000 531.089
56.06000 528.509
56.07000 527.103
56.08000 500.741
56.09000 482.660
56.10000 476.723
56.11000 480.348
56.12000 483.754
56.13000 477.485
56.14000 466.019
56.15000 454.996
56.16000 439.357
56.17000 423.096
56.18000 407.629
56.19000 400.025
56.20000 394.434
56.21000 388.767
56.22000 382.635
56.23000 376.424
56.24000 371.336
56.25000 354.022
56.26000 338.750
56.27000 325.595
56.28000 318.384
56.29000 311.529
56.30000 304.456
56.31000 296.958
56.32000 289.450
56.33000 285.153
56.34000 273.929
56.35000 266.068
56.36000 259.837
56.37000 255.040
56.38000 250.277
56.39000 247.681
56.40000 246.375
56.41000 245.109
56.42000 239.260
56.43000 231.937
56.44000 224.782
56.45000 219.559
56.46000 214.885
56.47000 211.008
56.48000 212.670
56.49000 215.396
56.50000 217.676
56.51000 210.554
56.52000 203.675
56.53000 198.356
56.54000 197.884
56.55000 197.760
56.56000 195.844
56.57000 190.073
56.58000 184.171
56.59000 180.634
56.60000 184.482
56.61000 187.264
56.62000 185.841
56.63000 180.265
56.64000 174.690
56.65000 169.167
56.66000 163.680
56.67000 158.323
56.68000 159.131
56.69000 162.584
56.70000 166.019
56.71000 169.208
56.72000 172.320
56.73000 174.964
56.74000 173.898
56.75000 172.037
56.76000 170.449
56.77000 165.482
56.78000 160.903
56.79000 157.530
56.80000 158.312
56.81000 159.443
56.82000 160.550
56.83000 161.595
56.84000 162.638
56.85000 163.290
56.86000 155.767
56.87000 150.252
56.88000 150.351
56.89000 156.682
56.90000 162.985
56.91000 163.723
56.92000 160.376
56.93000 157.089
56.94000 154.232
56.95000 151.684
56.96000 149.217
56.97000 148.059
56.98000 147.356
56.99000 146.966
57.00000 149.402
57.01000 152.514
57.02000 155.217
57.03000 151.375
57.04000 147.216
57.05000 144.160
57.06000 145.319
57.07000 146.891
57.08000 149.089
57.09000 152.935
57.10000 156.868
57.11000 159.427
57.12000 153.505
57.13000 149.034
57.14000 147.102
57.15000 148.322
57.16000 149.547
57.17000 148.736
57.18000 146.257
57.19000 143.810
57.20000 140.531
57.21000 136.886
57.22000 133.612
57.23000 137.552
57.24000 144.274
57.25000 150.464
57.26000 151.114
57.27000 150.291
57.28000 149.565
57.29000 147.048
57.30000 144.600
57.31000 143.371
57.32000 147.328
57.33000 151.869
57.34000 155.176
57.35000 154.893
57.36000 154.380
57.37000 154.034
57.38000 147.454
57.39000 142.425
57.40000 141.992
57.41000 147.917
57.42000 153.879
57.43000 153.978
57.44000 148.702
57.45000 143.470
57.46000 142.868
57.47000 145.082
57.48000 147.191
57.49000 146.754
57.50000 145.231
57.51000 143.961
57.52000 145.760
57.53000 148.465
57.54000 150.891
57.55000 150.914
57.56000 150.515
57.57000 149.880
57.58000 148.127
57.59000 146.229
57.60000 144.471
57.61000 143.158
57.62000 141.879
57.63000 140.986
57.64000 143.417
57.65000 145.347
57.66000 146.144
57.67000 145.200
57.68000 144.236
57.69000 145.224
57.70000 148.223
57.71000 151.207
57.72000 153.552
57.73000 155.438
57.74000 157.160
57.75000 153.877
57.76000 148.234
57.77000 142.793
57.78000 140.244
57.79000 138.640
57.80000 137.181
57.81000 136.844
57.82000 136.768
57.83000 137.297
57.84000 141.034
57.85000 145.241
57.86000 148.101
57.87000 146.153
57.88000 143.777
57.89000 142.065
57.90000 143.002
57.91000 143.814
57.92000 141.996
57.93000 135.689
57.94000 129.306
57.95000 128.376
57.96000 133.748
57.97000 139.114
57.98000 141.192
57.99000 140.763
58.00000 140.411
58.01000 143.134
58.02000 147.462
58.03000 151.475
58.04000 150.092
58.05000 146.758
58.06000 143.682
58.07000 141.989
58.08000 140.781
58.09000 140.092
58.10000 142.497
58.11000 145.415
58.12000 148.142
58.13000 150.116
58.14000 152.012
58.15000 153.419
58.16000 146.094
58.17000 140.016
58.18000 137.834
58.19000 143.015
58.20000 148.370
58.21000 149.935
58.22000 146.607
58.23000 143.262
58.24000 139.758
58.25000 136.125
58.26000 132.570
58.27000 133.343
58.28000 136.617
58.29000 139.666
58.30000 138.008
58.31000 134.467
58.32000 131.162
58.33000 133.135
58.34000 136.243
58.35000 139.145
58.36000 140.660
58.37000 141.917
58.38000 142.607
58.39000 140.787
58.40000 138.670
58.41000 137.054
58.42000 137.072
58.43000 137.174
58.44000 136.988
58.45000 136.201
58.46000 135.395
58.47000 136.399
58.48000 140.005
58.49000 143.632
58.50000 145.052
58.51000 144.365
58.52000 143.658
58.53000 141.272
58.54000 137.811
58.55000 134.441
58.56000 133.434
58.57000 133.472
58.58000 133.508
58.59000 133.779
58.60000 134.093
58.61000 134.275
58.62000 133.450
58.63000 132.417
58.64000 131.621
58.65000 131.994
58.66000 132.526
58.67000 132.942
58.68000 134.099
58.69000 135.071
58.70000 136.135
58.71000 137.409
58.72000 138.692
58.73000 139.156
58.74000 138.312
58.75000 137.452
58.76000 137.006
58.77000 134.873
58.78000 133.433
58.79000 131.807
58.80000 130.049
58.81000 128.426
58.82000 131.361
58.83000 136.525
58.84000 141.448
58.85000 137.295
58.86000 130.593
58.87000 124.746
58.88000 126.333
58.89000 129.644
58.90000 132.744
58.91000 134.683
58.92000 136.444
58.93000 137.856
58.94000 139.445
58.95000 140.745
58.96000 140.668
58.97000 137.067
58.98000 133.291
58.99000 131.439
59.00000 132.995
59.01000 134.616
59.02000 135.501
59.03000 141.223
59.04000 145.140
59.05000 142.697
59.06000 135.206
59.07000 127.819
59.08000 125.150
59.09000 125.032
59.10000 124.919
59.11000 130.986
59.12000 138.846
59.13000 145.767
59.14000 143.286
59.15000 138.381
59.16000 134.106
59.17000 133.739
59.18000 134.045
59.19000 134.296
59.20000 131.762
59.21000 129.434
59.22000 128.342
59.23000 130.743
59.24000 133.357
59.25000 135.068
59.26000 135.010
59.27000 134.906
59.28000 134.846
59.29000 136.001
59.30000 136.811
59.31000 136.009
59.32000 133.777
59.33000 131.592
59.34000 132.517
59.35000 135.306
59.36000 138.011
59.37000 136.137
59.38000 132.563
59.39000 129.169
59.40000 127.862
59.41000 127.151
59.42000 126.789
59.43000 128.869
59.44000 131.422
59.45000 133.561
59.46000 131.483
59.47000 129.320
59.48000 128.953
59.49000 134.206
59.50000 139.867
59.51000 143.863
59.52000 144.250
59.53000 144.512
59.54000 144.670
59.55000 146.815
59.56000 148.354
59.57000 143.883
59.58000 133.426
59.59000 123.055
59.60000 121.323
59.61000 125.337
59.62000 129.258
59.63000 131.983
59.64000 134.067
59.65000 136.059
59.66000 136.797
59.67000 137.138
59.68000 137.684
59.69000 139.867
59.70000 142.403
59.71000 144.570
59.72000 138.839
59.73000 133.071
59.74000 129.351
59.75000 132.734
59.76000 136.722
59.77000 139.395
59.78000 138.917
59.79000 138.301
59.80000 137.915
59.81000 138.596
59.82000 139.100
59.83000 138.880
59.84000 137.851
59.85000 136.825
59.86000 136.446
59.87000 136.545
59.88000 136.643
59.89000 132.029
59.90000 125.266
59.91000 119.024
59.92000 121.263
59.93000 126.481
59.94000 131.269
59.95000 132.133
59.96000 132.052
59.97000 131.981
59.98000 129.043
59.99000 126.145
60.00000 124.659
60.01000 128.608
60.02000 133.096
60.03000 136.341
60.04000 136.292
60.05000 136.067
60.06000 135.919
60.07000 137.246
60.08000 138.243
60.09000 139.662
60.10000 141.610
60.11000 143.554
60.12000 143.802
60.13000 142.649
60.14000 141.509
60.15000 136.172
60.16000 128.677
60.17000 121.462
60.18000 119.801
60.19000 120.296
60.20000 121.048
60.21000 124.498
60.22000 128.671
60.23000 132.361
60.24000 137.844
60.25000 142.860
60.26000 146.082
60.27000 141.617
60.28000 136.276
60.29000 131.687
60.30000 129.306
60.31000 127.067
60.32000 125.553
60.33000 127.716
60.34000 129.407
60.35000 130.989
60.36000 132.419
60.37000 133.848
60.38000 135.488
60.39000 137.324
60.40000 139.144
60.41000 138.202
60.42000 135.589
60.43000 133.099
60.44000 133.635
60.45000 135.471
60.46000 137.243
60.47000 138.221
60.48000 138.963
60.49000 139.630
60.50000 141.199
60.51000 142.731
60.52000 143.355
60.53000 139.643
60.54000 135.366
60.55000 131.670
60.56000 129.860
60.57000 128.195
60.58000 127.030
60.59000 130.544
60.60000 133.334
60.61000 135.985
60.62000 138.421
60.63000 140.855
60.64000 139.677
60.65000 134.746
60.66000 129.838
60.67000 127.703
60.68000 127.487
60.69000 127.323
60.70000 128.776
60.71000 130.999
60.72000 133.300
60.73000 136.737
60.74000 140.547
60.75000 144.019
60.76000 146.324
60.77000 148.134
60.78000 148.703
60.79000 142.645
60.80000 135.607
60.81000 130.579
60.82000 132.785
60.83000 135.642
60.84000 137.706
60.85000 133.679
60.86000 130.370
60.87000 129.136
60.88000 131.470
60.89000 133.865
60.90000 133.699
60.91000 130.551
60.92000 127.406
60.93000 126.634
60.94000 127.683
60.95000 128.726
60.96000 129.515
60.97000 130.171
60.98000 130.918
60.99000 133.249
61.00000 136.157
61.01000 138.841
61.02000 140.408
61.03000 141.561
61.04000 142.435
61.05000 141.634
61.06000 140.553
61.07000 139.444
61.08000 138.220
61.09000 136.984
61.10000 136.065
61.11000 127.692
61.12000 120.845
61.13000 117.856
61.14000 122.214
61.15000 126.750
61.16000 131.198
61.17000 135.531
61.18000 139.861
61.19000 138.639
61.20000 132.663
61.21000 126.802
61.22000 127.705
61.23000 132.545
61.24000 137.271
61.25000 139.590
61.26000 140.940
61.27000 142.202
61.28000 141.267
61.29000 139.864
61.30000 138.230
61.31000 135.026
61.32000 131.529
61.33000 129.029
61.34000 130.971
61.35000 133.444
61.36000 135.336
61.37000 136.521
61.38000 137.418
61.39000 138.757
61.40000 141.027
61.41000 143.327
61.42000 143.317
61.43000 139.963
61.44000 136.580
61.45000 137.448
61.46000 142.410
61.47000 147.380
61.48000 153.074
61.49000 159.236
61.50000 165.308
61.51000 168.983
61.52000 171.592
61.53000 174.056
61.54000 184.274
61.55000 195.846
61.56000 207.817
61.57000 222.861
61.58000 238.549
61.59000 252.765
61.60000 259.665
61.61000 265.568
61.62000 270.200
61.63000 271.918
61.64000 273.103
61.65000 274.737
61.66000 277.417
61.67000 280.140
61.68000 281.777
61.69000 281.669
61.70000 281.536
61.71000 281.468
61.72000 289.540
61.73000 294.960
61.74000 295.020
61.75000 291.235
61.76000 287.220
61.77000 275.277
61.78000 259.429
61.79000 244.311
61.80000 227.760
61.81000 211.943
61.82000 196.917
61.83000 188.834
61.84000 182.373
61.85000 175.177
61.86000 163.889
61.87000 151.969
61.88000 142.391
61.89000 139.905
61.90000 138.436
61.91000 137.692
61.92000 138.813
61.93000 140.028
61.94000 141.026
61.95000 141.638
61.96000 142.242
61.97000 142.573
61.98000 149.118
61.99000 153.616
62.00000 153.493
62.01000 149.674
62.02000 145.834
62.03000 141.030
62.04000 135.701
62.05000 130.572
62.06000 131.215
62.07000 133.862
62.08000 136.577
62.09000 139.979
62.10000 143.560
62.11000 146.563
62.12000 145.949
62.13000 144.706
62.14000 143.685
62.15000 144.082
62.16000 144.536
62.17000 144.332
62.18000 142.255
62.19000 140.062
62.20000 137.860
62.21000 135.642
62.22000 133.423
62.23000 132.144
62.24000 145.332
62.25000 154.613
62.26000 154.975
62.27000 147.358
62.28000 139.821
62.29000 137.613
62.30000 138.622
62.31000 139.600
62.32000 141.366
62.33000 143.351
62.34000 145.032
62.35000 143.142
62.36000 140.221
62.37000 138.265
62.38000 143.137
62.39000 149.340
62.40000 154.545
62.41000 151.482
62.42000 148.070
62.43000 144.504
62.44000 140.453
62.45000 136.367
62.46000 133.758
62.47000 134.375
62.48000 135.105
62.49000 135.546
62.50000 135.788
62.51000 135.959
62.52000 136.810
62.53000 138.342
62.54000 139.882
62.55000 142.170
62.56000 144.959
62.57000 147.685
62.58000 146.998
62.59000 144.832
62.60000 142.907
62.61000 144.314
62.62000 146.787
62.63000 148.631
62.64000 145.422
62.65000 141.110
62.66000 137.423
62.67000 140.168
62.68000 143.256
62.69000 145.908
62.70000 147.040
62.71000 148.040
62.72000 148.480
62.73000 147.565
62.74000 146.591
62.75000 145.978
62.76000 143.028
62.77000 140.869
62.78000 139.257
62.79000 138.262
62.80000 137.286
62.81000 139.769
62.82000 144.833
62.83000 149.809
62.84000 148.872
62.85000 145.049
62.86000 141.385
62.87000 140.361
62.88000 140.272
62.89000 140.090
62.90000 139.056
62.91000 137.814
62.92000 136.733
62.93000 142.786
62.94000 148.938
62.95000 153.414
62.96000 151.386
62.97000 148.707
62.98000 147.192
62.99000 148.784
63.00000 150.545
63.01000 151.697
63.02000 146.177
63.03000 142.014
63.04000 141.866
63.05000 146.780
63.06000 151.700
63.07000 151.549
63.08000 147.178
63.09000 142.860
63.10000 140.876
63.11000 140.227
63.12000 139.617
63.13000 139.774
63.14000 140.231
63.15000 140.735
63.16000 141.726
63.17000 142.848
63.18000 143.842
63.19000 143.901
63.20000 143.804
63.21000 143.500
63.22000 142.299
63.23000 140.994
63.24000 140.183
63.25000 140.828
63.26000 141.568
63.27000 142.070
63.28000 150.846
63.29000 157.575
63.30000 160.037
63.31000 156.506
63.32000 152.934
63.33000 151.667
63.34000 152.549
63.35000 153.424
63.36000 153.298
63.37000 152.559
63.38000 151.963
63.39000 154.938
63.40000 159.457
63.41000 163.328
63.42000 159.124
63.43000 152.503
63.44000 146.549
63.45000 147.046
63.46000 148.627
63.47000 149.995
63.48000 150.336
63.49000 150.543
63.50000 151.072
63.51000 152.660
63.52000 154.331
63.53000 155.502
63.54000 150.278
63.55000 146.138
63.56000 141.260
63.57000 135.227
63.58000 129.181
63.59000 129.508
63.60000 136.511
63.61000 143.483
63.62000 145.481
63.63000 144.034
63.64000 142.752
63.65000 146.752
63.66000 153.280
63.67000 159.445
63.68000 160.285
63.69000 159.359
63.70000 158.515
63.71000 156.056
63.72000 153.551
63.73000 151.947
63.74000 155.198
63.75000 159.173
63.76000 161.625
63.77000 158.554
63.78000 154.980
63.79000 152.392
63.80000 154.345
63.81000 156.010
63.82000 155.351
63.83000 150.664
63.84000 145.906
63.85000 146.636
63.86000 153.810
63.87000 160.979
63.88000 163.689
63.89000 162.948
63.90000 162.142
63.91000 158.552
63.92000 153.489
63.93000 148.730
63.94000 149.354
63.95000 151.951
63.96000 154.351
63.97000 156.618
63.98000 158.623
63.99000 160.669
64.00000 162.968
64.01000 165.310
64.02000 166.137
64.03000 160.860
64.04000 154.942
64.05000 150.529
64.06000 156.541
64.07000 161.695
64.08000 163.857
64.09000 160.279
64.10000 156.560
64.11000 156.106
64.12000 159.934
64.13000 163.779
64.14000 164.988
64.15000 163.917
64.16000 162.845
64.17000 161.760
64.18000 160.666
64.19000 159.808
64.20000 164.036
64.21000 170.326
64.22000 176.209
64.23000 173.558
64.24000 168.981
64.25000 164.956
64.26000 164.696
64.27000 165.147
64.28000 165.422
64.29000 164.906
64.30000 164.295
64.31000 163.826
64.32000 165.734
64.33000 167.372
64.34000 168.896
64.35000 170.178
64.36000 171.453
64.37000 171.703
64.38000 170.455
64.39000 169.194
64.40000 167.655
64.41000 165.846
64.42000 164.066
64.43000 164.914
64.44000 167.472
64.45000 169.960
64.46000 170.564
64.47000 170.323
64.48000 170.095
64.49000 172.937
64.50000 176.424
64.51000 178.700
64.52000 171.588
64.53000 162.493
64.54000 155.316
64.55000 157.747
64.56000 161.500
64.57000 164.449
64.58000 164.006
64.59000 163.427
64.60000 164.472
64.61000 169.325
64.62000 174.337
64.63000 178.196
64.64000 180.184
64.65000 182.146
64.66000 183.170
64.67000 172.405
64.68000 165.158
64.69000 163.862
64.70000 166.870
64.71000 169.828
64.72000 171.016
64.73000 171.326
64.74000 171.622
64.75000 174.136
64.76000 177.179
64.77000 180.478
64.78000 186.044
64.79000 192.145
64.80000 196.677
64.81000 192.396
64.82000 186.744
64.83000 182.194
64.84000 186.332
64.85000 190.366
64.86000 193.717
64.87000 195.299
64.88000 196.790
64.89000 196.824
64.90000 194.239
64.91000 191.602
64.92000 190.150
64.93000 191.058
64.94000 191.685
64.95000 191.623
64.96000 191.005
64.97000 190.488
64.98000 194.748
64.99000 201.632
65.00000 208.262
65.01000 201.661
65.02000 190.740
65.03000 180.875
65.04000 181.819
65.05000 185.594
65.06000 189.916
65.07000 197.704
65.08000 206.100
65.09000 213.009
65.10000 209.529
65.11000 205.722
65.12000 203.896
65.13000 207.755
65.14000 211.967
65.15000 213.321
65.16000 208.990
65.17000 204.503
65.18000 201.909
65.19000 218.501
65.20000 230.204
65.21000 234.141
65.22000 231.075
65.23000 228.063
65.24000 228.697
65.25000 231.549
65.26000 234.318
65.27000 239.917
65.28000 246.358
65.29000 252.280
65.30000 252.029
65.31000 249.983
65.32000 248.411
65.33000 250.222
65.34000 252.699
65.35000 254.780
65.36000 258.247
65.37000 261.282
65.38000 265.759
65.39000 274.821
65.40000 284.223
65.41000 290.772
65.42000 291.043
65.43000 291.091
65.44000 291.119
65.45000 300.230
65.46000 306.789
65.47000 316.908
65.48000 330.633
65.49000 344.317
65.50000 353.534
65.51000 359.735
65.52000 365.796
65.53000 374.904
65.54000 384.989
65.55000 394.754
65.56000 400.024
65.57000 403.848
65.58000 408.164
65.59000 416.491
65.60000 425.699
65.61000 433.585
65.62000 451.703
65.63000 468.237
65.64000 481.930
65.65000 485.621
65.66000 488.442
65.67000 498.088
65.68000 524.337
65.69000 551.332
65.70000 568.360
65.71000 636.757
65.72000 686.877
65.73000 735.416
65.74000 782.155
65.75000 828.952
65.76000 887.968
65.77000 956.165
65.78000 1023.223
65.79000 1067.776
65.80000 1099.675
65.81000 1130.893
65.82000 1150.721
65.83000 1166.490
65.84000 1182.719
65.85000 1203.226
65.86000 1224.780
65.87000 1243.572
65.88000 1233.869
65.89000 1221.615
65.90000 1208.843
65.91000 1194.046
65.92000 1179.044
65.93000 1154.764
65.94000 1105.528
65.95000 1054.915
65.96000 1021.723
65.97000 908.723
65.98000 824.293
65.99000 754.864
66.00000 704.502
66.01000 654.210
66.02000 606.070
66.03000 559.734
66.04000 513.943
66.05000 479.382
66.06000 451.906
66.07000 424.615
66.08000 401.097
66.09000 379.066
66.10000 358.653
66.11000 355.660
66.12000 357.403
66.13000 358.948
66.14000 347.780
66.15000 336.100
66.16000 326.843
66.17000 328.122
66.18000 330.626
66.19000 333.590
66.20000 337.924
66.21000 342.348
66.22000 345.357
66.23000 347.625
66.24000 349.302
66.25000 352.914
66.26000 359.266
66.27000 365.640
66.28000 375.516
66.29000 388.683
66.30000 401.750
66.31000 415.600
66.32000 429.700
66.33000 443.413
66.34000 447.339
66.35000 446.999
66.36000 447.216
66.37000 454.444
66.38000 463.785
66.39000 472.192
66.40000 467.104
66.41000 460.223
66.42000 455.016
66.43000 457.932
66.44000 461.926
66.45000 465.968
66.46000 470.167
66.47000 474.379
66.48000 477.340
66.49000 470.095
66.50000 464.305
66.51000 453.921
66.52000 436.310
66.53000 418.611
66.54000 408.161
66.55000 405.369
66.56000 402.591
66.57000 389.349
66.58000 368.984
66.59000 349.204
66.60000 348.418
66.61000 356.785
66.62000 363.939
66.63000 353.032
66.64000 336.094
66.65000 320.632
66.66000 324.105
66.67000 331.024
66.68000 336.579
66.69000 334.725
66.70000 331.757
66.71000 330.130
66.72000 333.406
66.73000 337.132
66.74000 339.836
66.75000 334.314
66.76000 329.764
66.77000 326.969
66.78000 327.239
66.79000 327.565
66.80000 327.161
66.81000 325.891
66.82000 324.623
66.83000 323.446
66.84000 322.346
66.85000 321.563
66.86000 334.467
66.87000 354.670
66.88000 373.752
66.89000 372.768
66.90000 364.370
66.91000 356.604
66.92000 355.902
66.93000 356.884
66.94000 357.624
66.95000 356.882
66.96000 355.890
66.97000 356.046
66.98000 360.865
66.99000 366.179
67.00000 370.149
67.01000 367.660
67.02000 365.422
67.03000 365.864
67.04000 371.482
67.05000 377.230
67.06000 379.269
67.07000 376.404
67.08000 373.518
67.09000 376.285
67.10000 383.976
67.11000 391.456
67.12000 385.999
67.13000 372.900
67.14000 360.650
67.15000 366.994
67.16000 380.934
67.17000 393.980
67.18000 396.195
67.19000 395.430
67.20000 394.901
67.21000 395.995
67.22000 397.399
67.23000 398.312
67.24000 397.006
67.25000 395.429
67.26000 394.218
67.27000 392.487
67.28000 391.089
67.29000 389.990
67.30000 389.529
67.31000 389.089
67.32000 392.618
67.33000 401.985
67.34000 411.403
67.35000 412.871
67.36000 406.551
67.37000 400.309
67.38000 401.480
67.39000 407.508
67.40000 413.405
67.41000 415.684
67.42000 416.330
67.43000 416.941
67.44000 416.882
67.45000 416.636
67.46000 416.348
67.47000 415.726
67.48000 415.033
67.49000 415.420
67.50000 421.262
67.51000 427.861
67.52000 433.056
67.53000 433.347
67.54000 433.253
67.55000 432.659
67.56000 430.884
67.57000 429.059
67.58000 431.931
67.59000 442.473
67.60000 453.124
67.61000 458.707
67.62000 446.649
67.63000 438.533
67.64000 440.025
67.65000 448.518
67.66000 456.887
67.67000 460.824
67.68000 462.546
67.69000 464.191
67.70000 472.359
67.71000 482.052
67.72000 490.883
67.73000 491.996
67.74000 491.278
67.75000 491.854
67.76000 499.759
67.77000 508.816
67.78000 516.118
67.79000 510.341
67.80000 504.620
67.81000 501.080
67.82000 503.240
67.83000 505.697
67.84000 505.430
67.85000 500.231
67.86000 494.931
67.87000 492.003
67.88000 501.739
67.89000 508.481
67.90000 516.174
67.91000 524.642
67.92000 533.022
67.93000 537.118
67.94000 538.845
67.95000 540.509
67.96000 540.139
67.97000 539.060
67.98000 538.981
67.99000 549.238
68.00000 562.222
68.01000 573.847
68.02000 576.809
68.03000 578.238
68.04000 579.417
68.05000 576.790
68.06000 574.278
68.07000 572.122
68.08000 570.993
68.09000 569.929
68.10000 570.796
68.11000 575.533
68.12000 580.377
68.13000 583.188
68.14000 604.833
68.15000 620.098
68.16000 624.757
68.17000 619.775
68.18000 614.807
68.19000 610.828
68.20000 607.456
68.21000 604.182
68.22000 606.334
68.23000 610.560
68.24000 614.798
68.25000 619.168
68.26000 623.578
68.27000 629.087
68.28000 642.525
68.29000 657.535
68.30000 670.163
68.31000 672.328
68.32000 673.018
68.33000 674.823
68.34000 680.200
68.35000 685.844
68.36000 692.552
68.37000 701.615
68.38000 710.764
68.39000 716.316
68.40000 722.789
68.41000 727.414
68.42000 738.590
68.43000 756.459
68.44000 774.196
68.45000 777.039
68.46000 769.749
68.47000 762.619
68.48000 774.205
68.49000 793.719
68.50000 813.611
68.51000 838.872
68.52000 865.874
68.53000 890.791
68.54000 898.593
68.55000 902.606
68.56000 906.048
68.57000 943.364
68.58000 979.041
68.59000 1015.248
68.60000 1053.335
68.61000 1091.588
68.62000 1131.979
68.63000 1177.608
68.64000 1223.476
68.65000 1252.493
68.66000 1320.236
68.67000 1369.806
68.68000 1424.649
68.69000 1485.536
68.70000 1546.465
68.71000 1614.953
68.72000 1689.165
68.73000 1762.166
68.74000 1831.208
68.75000 1896.047
68.76000 1961.568
68.77000 2038.654
68.78000 2119.890
68.79000 2201.512
68.80000 2286.770
68.81000 2372.925
68.82000 2448.131
68.83000 2559.597
68.84000 2660.057
68.85000 2783.888
68.86000 2999.771
68.87000 3225.053
68.88000 3517.481
68.89000 3991.807
68.90000 4476.312
68.91000 4794.898
68.92000 6529.726
68.93000 7831.056
68.94000 9807.803
68.95000 12649.745
68.96000 15496.696
68.97000 19380.160
68.98000 24139.963
68.99000 28845.465
69.00000 34174.254
69.01000 39724.598
69.02000 45224.305
69.03000 49678.441
69.04000 53717.535
69.05000 57612.945
69.06000 59943.504
69.07000 61845.492
69.08000 63533.344
69.09000 64412.215
69.10000 65044.602
69.11000 65649.148
69.12000 66131.656
69.13000 66599.836
69.14000 67152.430
69.15000 67958.008
69.16000 68780.602
69.17000 69341.281
69.18000 69150.680
69.19000 68990.906
69.20000 67999.820
69.21000 65822.641
69.22000 63636.320
69.23000 60595.211
69.24000 56744.230
69.25000 52921.648
69.26000 49485.371
69.27000 46347.402
69.28000 43240.668
69.29000 40938.027
69.30000 38988.309
69.31000 37092.086
69.32000 35877.086
69.33000 34868.980
69.34000 33960.652
69.35000 33066.520
69.36000 32284.629
69.37000 31369.857
69.38000 29805.121
69.39000 28153.383
69.40000 26313.088
69.41000 23846.887
69.42000 21330.898
69.43000 19557.654
69.44000 15985.711
69.45000 13222.786
69.46000 10838.736
69.47000 9055.233
69.48000 7279.292
69.49000 5914.613
69.50000 4987.998
69.51000 4065.399
69.52000 3433.934
69.53000 3012.535
69.54000 2595.603
69.55000 2326.476
69.56000 2129.093
69.57000 1935.796
69.58000 1804.135
69.59000 1693.204
69.60000 1591.840
69.61000 1528.229
69.62000 1479.447
69.63000 1427.940
69.64000 1361.508
69.65000 1292.811
69.66000 1232.860
69.67000 1205.107
69.68000 1180.347
69.69000 1162.343
69.70000 1129.146
69.71000 1103.029
69.72000 1078.352
69.73000 1056.204
69.74000 1034.103
69.75000 1006.846
69.76000 973.437
69.77000 940.082
69.78000 918.690
69.79000 906.778
69.80000 894.902
69.81000 884.612
69.82000 875.174
69.83000 865.453
69.84000 850.586
69.85000 833.805
69.86000 818.272
69.87000 804.672
69.88000 792.893
69.89000 780.756
69.90000 766.423
69.91000 751.715
69.92000 739.734
69.93000 738.914
69.94000 739.293
69.95000 739.576
69.96000 733.179
69.97000 727.875
69.98000 721.286
69.99000 712.194
70.00000 703.038
