20.00000 562.865
20.01000 569.873
20.02000 577.882
20.03000 582.429
20.04000 573.137
20.05000 562.405
20.06000 554.421
20.07000 557.792
20.08000 560.923
20.09000 566.705
20.10000 577.532
20.11000 588.482
20.12000 587.147
20.13000 569.834
20.14000 552.468
20.15000 548.558
20.16000 556.189
20.17000 563.816
20.18000 571.233
20.19000 578.529
20.20000 585.473
20.21000 584.915
20.22000 581.338
20.23000 577.997
20.24000 573.329
20.25000 568.761
20.26000 565.109
20.27000 567.664
20.28000 571.381
20.29000 573.548
20.30000 568.820
20.31000 563.267
20.32000 559.021
20.33000 564.828
20.34000 569.954
20.35000 574.275
20.36000 576.898
20.37000 579.468
20.38000 582.423
20.39000 585.937
20.40000 589.455
20.41000 582.205
20.42000 564.590
20.43000 547.144
20.44000 544.576
20.45000 551.610
20.46000 558.709
20.47000 567.523
20.48000 577.101
20.49000 586.148
20.50000 582.209
20.51000 574.923
20.52000 568.216
20.53000 565.962
20.54000 564.639
20.55000 562.626
20.56000 557.179
20.57000 551.263
20.58000 546.623
20.59000 548.397
20.60000 550.233
20.61000 552.857
20.62000 557.314
20.63000 561.846
20.64000 566.745
20.65000 572.233
20.66000 577.728
20.67000 580.585
20.68000 554.227
20.69000 536.547
20.70000 538.585
20.71000 554.767
20.72000 570.479
20.73000 570.008
20.74000 561.571
20.75000 553.523
20.76000 555.162
20.77000 559.751
20.78000 564.225
20.79000 567.703
20.80000 570.947
20.81000 572.795
20.82000 566.874
20.83000 559.754
20.84000 554.033
20.85000 550.577
20.86000 547.951
20.87000 548.523
20.88000 557.334
20.89000 566.561
20.90000 570.811
20.91000 566.187
20.92000 561.388
20.93000 558.756
20.94000 562.236
20.95000 564.647
20.96000 569.673
20.97000 576.789
20.98000 583.629
20.99000 577.669
21.00000 564.734
21.01000 552.284
21.02000 552.849
21.03000 557.987
21.04000 562.966
21.05000 566.338
21.06000 569.291
21.07000 571.615
21.08000 569.995
21.09000 567.690
21.10000 565.796
21.11000 568.341
21.12000 570.831
21.13000 572.072
21.14000 569.758
21.15000 567.225
21.16000 563.446
21.17000 557.208
21.18000 550.903
21.19000 547.271
21.20000 550.922
21.21000 553.504
21.22000 555.445
21.23000 556.810
21.24000 558.173
21.25000 559.408
21.26000 560.564
21.27000 561.685
21.28000 565.351
21.29000 569.834
21.30000 573.657
21.31000 569.730
21.32000 563.568
21.33000 557.936
21.34000 556.055
21.35000 554.905
21.36000 553.940
21.37000 557.794
21.38000 561.503
21.39000 563.902
21.40000 562.168
21.41000 560.132
21.42000 560.418
21.43000 565.775
21.44000 571.309
21.45000 574.646
21.46000 567.167
21.47000 561.767
21.48000 558.195
21.49000 556.457
21.50000 554.799
21.51000 561.599
21.52000 574.065
21.53000 586.245
21.54000 589.401
21.55000 588.437
21.56000 587.951
21.57000 594.066
21.58000 602.291
21.59000 609.399
21.60000 607.514
21.61000 603.669
21.62000 600.381
21.63000 607.772
21.64000 615.288
21.65000 620.297
21.66000 616.551
21.67000 612.050
21.68000 611.139
21.69000 618.893
21.70000 627.029
21.71000 632.146
21.72000 627.214
21.73000 623.533
21.74000 629.662
21.75000 646.851
21.76000 664.024
21.77000 676.240
21.78000 684.760
21.79000 693.134
21.80000 700.092
21.81000 706.118
21.82000 712.053
21.83000 716.494
21.84000 720.405
21.85000 726.083
21.86000 748.043
21.87000 773.956
21.88000 796.519
21.89000 795.433
21.90000 791.252
21.91000 791.498
21.92000 808.916
21.93000 828.049
21.94000 843.004
21.95000 846.804
21.96000 849.997
21.97000 852.085
21.98000 862.497
21.99000 870.281
22.00000 884.288
22.01000 906.142
22.02000 927.980
22.03000 929.910
22.04000 915.282
22.05000 900.830
22.06000 889.650
22.07000 880.552
22.08000 871.559
22.09000 864.665
22.10000 858.592
22.11000 852.403
22.12000 844.986
22.13000 837.237
22.14000 830.377
22.15000 816.699
22.16000 803.800
22.17000 792.670
22.18000 789.170
22.19000 786.548
22.20000 780.123
22.21000 762.468
22.22000 744.077
22.23000 731.605
22.24000 713.279
22.25000 699.483
22.26000 690.683
22.27000 688.902
22.28000 687.168
22.29000 680.102
22.30000 668.069
22.31000 656.132
22.32000 652.485
22.33000 654.005
22.34000 655.106
22.35000 645.782
22.36000 631.950
22.37000 618.789
22.38000 613.978
22.39000 611.666
22.40000 609.587
22.41000 600.500
22.42000 591.297
22.43000 583.206
22.44000 580.464
22.45000 578.424
22.46000 575.238
22.47000 568.304
22.48000 561.079
22.49000 556.010
22.50000 562.942
22.51000 568.534
22.52000 570.800
22.53000 567.873
22.54000 564.885
22.55000 558.402
22.56000 548.260
22.57000 538.165
22.58000 533.860
22.59000 533.587
22.60000 533.494
22.61000 539.089
22.62000 547.406
22.63000 555.773
22.64000 564.876
22.65000 574.224
22.66000 582.749
22.67000 573.635
22.68000 562.012
22.69000 551.229
22.70000 544.968
22.71000 539.380
22.72000 534.050
22.73000 529.652
22.74000 525.340
22.75000 522.218
22.76000 520.140
22.77000 518.584
22.78000 520.361
22.79000 527.911
22.80000 535.563
22.81000 538.381
22.82000 535.525
22.83000 532.666
22.84000 532.343
22.85000 533.975
22.86000 535.462
22.87000 530.800
22.88000 522.883
22.89000 515.239
22.90000 512.411
22.91000 511.349
22.92000 510.368
22.93000 517.662
22.94000 526.079
22.95000 532.954
22.96000 530.498
22.97000 526.474
22.98000 523.478
22.99000 524.619
23.00000 526.196
23.01000 527.372
23.02000 516.069
23.03000 506.701
23.04000 501.242
23.05000 503.278
23.06000 505.498
23.07000 508.800
23.08000 513.521
23.09000 518.246
23.10000 524.817
23.11000 532.973
23.12000 541.002
23.13000 541.438
23.14000 537.423
23.15000 533.437
23.16000 530.064
23.17000 526.938
23.18000 524.016
23.19000 521.960
23.20000 520.315
23.21000 518.515
23.22000 515.664
23.23000 512.614
23.24000 510.598
23.25000 513.218
23.26000 516.398
23.27000 518.834
23.28000 516.325
23.29000 514.072
23.30000 512.576
23.31000 512.689
23.32000 512.854
23.33000 511.917
23.34000 509.372
23.35000 506.812
23.36000 506.086
23.37000 507.138
23.38000 508.201
23.39000 510.195
23.40000 512.793
23.41000 515.161
23.42000 511.305
23.43000 504.659
23.44000 498.377
23.45000 502.506
23.46000 509.266
23.47000 515.030
23.48000 513.058
23.49000 509.454
23.50000 505.898
23.51000 502.582
23.52000 499.299
23.53000 496.719
23.54000 514.891
23.55000 530.804
23.56000 538.332
23.57000 526.193
23.58000 513.238
23.59000 505.693
23.60000 506.913
23.61000 508.255
23.62000 508.955
23.63000 510.966
23.64000 512.330
23.65000 514.288
23.66000 516.674
23.67000 518.901
23.68000 515.505
23.69000 509.323
23.70000 503.420
23.71000 504.113
23.72000 506.862
23.73000 509.508
23.74000 511.243
23.75000 512.764
23.76000 514.824
23.77000 519.904
23.78000 525.455
23.79000 529.923
23.80000 522.116
23.81000 514.828
23.82000 506.724
23.83000 496.504
23.84000 486.176
23.85000 482.267
23.86000 489.886
23.87000 497.737
23.88000 502.058
23.89000 505.930
23.90000 508.582
23.91000 506.104
23.92000 499.492
23.93000 492.863
23.94000 485.452
23.95000 477.612
23.96000 470.061
23.97000 473.272
23.98000 480.128
23.99000 486.855
24.00000 492.258
24.01000 497.315
24.02000 501.918
24.03000 503.656
24.04000 504.893
24.05000 505.911
24.06000 509.893
24.07000 513.437
24.08000 516.071
24.09000 516.098
24.10000 515.963
24.11000 512.552
24.12000 502.629
24.13000 492.528
24.14000 486.688
24.15000 495.266
24.16000 501.335
24.17000 505.080
24.18000 506.728
24.19000 508.276
24.20000 502.886
24.21000 493.277
24.22000 483.950
24.23000 488.544
24.24000 498.455
24.25000 507.273
24.26000 503.112
24.27000 495.181
24.28000 487.758
24.29000 483.962
24.30000 480.880
24.31000 478.290
24.32000 486.986
24.33000 495.421
24.34000 501.083
24.35000 497.941
24.36000 494.146
24.37000 491.855
24.38000 492.869
24.39000 494.002
24.40000 494.686
24.41000 485.991
24.42000 479.726
24.43000 483.888
24.44000 498.610
24.45000 513.187
24.46000 511.925
24.47000 499.969
24.48000 488.283
24.49000 481.832
24.50000 477.982
24.51000 474.516
24.52000 476.435
24.53000 480.089
24.54000 483.569
24.55000 485.642
24.56000 487.407
24.57000 488.918
24.58000 489.150
24.59000 489.190
24.60000 489.070
24.61000 488.387
24.62000 487.654
24.63000 484.155
24.64000 473.931
24.65000 463.405
24.66000 456.767
24.67000 477.819
24.68000 493.381
24.69000 495.249
24.70000 481.548
24.71000 467.879
24.72000 463.817
24.73000 466.974
24.74000 470.077
24.75000 479.133
24.76000 490.850
24.77000 501.824
24.78000 500.372
24.79000 494.493
24.80000 489.093
24.81000 488.154
24.82000 488.307
24.83000 488.440
24.84000 488.330
24.85000 488.202
24.86000 487.395
24.87000 483.934
24.88000 480.205
24.89000 480.414
24.90000 491.211
24.91000 502.592
24.92000 510.054
24.93000 503.727
24.94000 498.845
24.95000 491.917
24.96000 482.389
24.97000 472.869
24.98000 472.563
24.99000 479.982
25.00000 487.314
25.01000 487.759
25.02000 484.368
25.03000 481.138
25.04000 481.185
25.05000 482.522
25.06000 483.724
25.07000 483.475
25.08000 482.831
25.09000 482.261
25.10000 484.041
25.11000 485.954
25.12000 488.005
25.13000 490.657
25.14000 493.378
25.15000 493.736
25.16000 487.065
25.17000 479.928
25.18000 475.075
25.19000 473.607
25.20000 472.587
25.21000 476.495
25.22000 487.377
25.23000 498.307
25.24000 495.806
25.25000 480.691
25.26000 465.692
25.27000 466.545
25.28000 477.219
25.29000 487.412
25.30000 485.405
25.31000 478.085
25.32000 471.408
25.33000 472.823
25.34000 476.677
25.35000 480.147
25.36000 475.914
25.37000 470.823
25.38000 467.576
25.39000 473.270
25.40000 480.150
25.41000 484.585
25.42000 480.965
25.43000 476.712
25.44000 473.721
25.45000 469.813
25.46000 466.824
25.47000 465.911
25.48000 468.259
25.49000 470.648
25.50000 471.347
25.51000 470.261
25.52000 469.181
25.53000 470.806
25.54000 474.292
25.55000 477.542
25.56000 473.171
25.57000 465.127
25.58000 457.363
25.59000 453.760
25.60000 451.547
25.61000 449.526
25.62000 462.319
25.63000 476.671
25.64000 487.349
25.65000 478.076
25.66000 465.803
25.67000 457.168
25.68000 461.822
25.69000 467.697
25.70000 471.958
25.71000 465.205
25.72000 459.604
25.73000 456.956
25.74000 459.459
25.75000 462.056
25.76000 463.846
25.77000 464.684
25.78000 465.518
25.79000 470.550
25.80000 478.817
25.81000 486.819
25.82000 483.317
25.83000 473.682
25.84000 464.272
25.85000 458.862
25.86000 454.931
25.87000 451.295
25.88000 451.962
25.89000 453.542
25.90000 455.743
25.91000 461.732
25.92000 468.362
25.93000 474.061
25.94000 475.976
25.95000 477.489
25.96000 478.620
25.97000 475.138
25.98000 472.211
25.99000 466.429
26.00000 455.130
26.01000 443.692
26.02000 440.610
26.03000 448.566
26.04000 456.568
26.05000 462.580
26.06000 466.848
26.07000 471.049
26.08000 471.199
26.09000 468.958
26.10000 466.756
26.11000 465.416
26.12000 464.429
26.13000 463.506
26.14000 469.089
26.15000 475.830
26.16000 481.399
26.17000 478.887
26.18000 474.837
26.19000 470.953
26.20000 467.823
26.21000 464.784
26.22000 462.451
26.23000 456.681
26.24000 451.928
26.25000 448.702
26.26000 448.736
26.27000 448.878
26.28000 452.004
26.29000 459.514
26.30000 467.064
26.31000 474.302
26.32000 481.235
26.33000 488.057
26.34000 484.408
26.35000 473.900
26.36000 463.703
26.37000 462.090
26.38000 464.355
26.39000 466.497
26.40000 464.808
26.41000 462.155
26.42000 459.586
26.43000 457.680
26.44000 455.914
26.45000 453.795
26.46000 449.891
26.47000 445.740
26.48000 442.471
26.49000 440.626
26.50000 439.242
26.51000 441.894
26.52000 454.083
26.53000 466.675
26.54000 471.999
26.55000 465.460
26.56000 458.752
26.57000 455.237
26.58000 450.951
26.59000 448.055
26.60000 446.525
26.61000 445.990
26.62000 445.559
26.63000 448.853
26.64000 454.007
26.65000 458.931
26.66000 460.187
26.67000 460.174
26.68000 459.866
26.69000 456.908
26.70000 453.322
26.71000 449.906
26.72000 447.454
26.73000 445.154
26.74000 443.299
26.75000 441.363
26.76000 439.785
26.77000 438.918
26.78000 439.911
26.79000 441.001
26.80000 445.322
26.81000 455.487
26.82000 465.772
26.83000 471.454
26.84000 462.330
26.85000 456.022
26.86000 454.169
26.87000 455.936
26.88000 457.687
26.89000 458.703
26.90000 459.313
26.91000 459.901
26.92000 459.767
26.93000 459.382
26.94000 458.243
26.95000 449.322
26.96000 438.348
26.97000 430.000
26.98000 438.385
26.99000 449.727
27.00000 459.075
27.01000 456.695
27.02000 453.657
27.03000 451.544
27.04000 452.102
27.05000 452.829
27.06000 455.351
27.07000 461.469
27.08000 467.687
27.09000 471.294
27.10000 456.997
27.11000 446.889
27.12000 439.877
27.13000 435.678
27.14000 431.564
27.15000 433.404
27.16000 438.892
27.17000 444.223
27.18000 450.181
27.19000 456.091
27.20000 460.893
27.21000 452.375
27.22000 439.958
27.23000 428.840
27.24000 427.088
27.25000 427.191
27.26000 427.277
27.27000 434.304
27.28000 440.903
27.29000 447.315
27.30000 453.132
27.31000 458.903
27.32000 461.988
27.33000 459.123
27.34000 456.042
27.35000 454.172
27.36000 442.867
27.37000 434.730
27.38000 435.425
27.39000 445.141
27.40000 454.813
27.41000 459.406
27.42000 460.543
27.43000 461.655
27.44000 462.120
27.45000 462.275
27.46000 462.389
27.47000 461.940
27.48000 461.307
27.49000 459.619
27.50000 449.261
27.51000 436.984
27.52000 426.457
27.53000 433.865
27.54000 442.321
27.55000 446.705
27.56000 436.653
27.57000 425.330
27.58000 421.320
27.59000 435.216
27.60000 449.929
27.61000 459.236
27.62000 454.210
27.63000 450.396
27.64000 449.634
27.65000 452.370
27.66000 455.087
27.67000 452.973
27.68000 447.202
27.69000 441.524
27.70000 438.314
27.71000 436.442
27.72000 434.745
27.73000 435.997
27.74000 438.306
27.75000 440.308
27.76000 439.420
27.77000 437.820
27.78000 436.423
27.79000 436.045
27.80000 435.864
27.81000 434.250
27.82000 426.991
27.83000 419.155
27.84000 416.830
27.85000 429.425
27.86000 442.855
27.87000 451.685
27.88000 445.362
27.89000 440.450
27.90000 439.456
27.91000 443.480
27.92000 447.511
27.93000 444.987
27.94000 436.921
27.95000 428.947
27.96000 426.311
27.97000 426.725
27.98000 427.439
27.99000 434.361
28.00000 443.746
28.01000 452.449
28.02000 453.727
28.03000 452.971
28.04000 452.301
28.05000 447.834
28.06000 443.357
28.07000 439.437
28.08000 437.953
28.09000 436.755
28.10000 436.154
28.11000 437.343
28.12000 438.652
28.13000 439.545
28.14000 436.336
28.15000 433.844
28.16000 433.385
28.17000 435.827
28.18000 438.290
28.19000 442.252
28.20000 447.631
28.21000 452.971
28.22000 449.127
28.23000 439.601
28.24000 430.296
28.25000 426.659
28.26000 425.509
28.27000 424.594
28.28000 426.670
28.29000 429.654
28.30000 432.342
28.31000 431.373
28.32000 429.862
28.33000 429.895
28.34000 437.477
28.35000 446.070
28.36000 452.019
28.37000 449.196
28.38000 445.674
28.39000 443.193
28.40000 446.720
28.41000 449.575
28.42000 449.081
28.43000 443.278
28.44000 437.410
28.45000 432.312
28.46000 428.037
28.47000 423.779
28.48000 421.882
28.49000 421.656
28.50000 421.518
28.51000 424.312
28.52000 428.529
28.53000 432.152
28.54000 426.817
28.55000 418.470
28.56000 410.843
28.57000 413.508
28.58000 417.977
28.59000 421.195
28.60000 417.568
28.61000 412.902
28.62000 411.057
28.63000 419.591
28.64000 429.089
28.65000 435.995
28.66000 444.224
28.67000 450.605
28.68000 450.641
28.69000 439.530
28.70000 428.211
28.71000 422.455
28.72000 423.335
28.73000 424.226
28.74000 427.364
28.75000 432.248
28.76000 436.932
28.77000 432.770
28.78000 423.858
28.79000 415.209
28.80000 411.338
28.81000 409.246
28.82000 407.309
28.83000 413.915
28.84000 421.817
28.85000 428.896
28.86000 430.901
28.87000 432.039
28.88000 433.150
28.89000 434.150
28.90000 435.139
28.91000 435.878
28.92000 425.866
28.93000 417.551
28.94000 411.070
28.95000 408.156
28.96000 405.333
28.97000 405.928
28.98000 411.071
28.99000 416.235
29.00000 419.340
29.01000 420.632
29.02000 421.889
29.03000 420.919
29.04000 418.625
29.05000 416.743
29.06000 424.040
29.07000 435.113
29.08000 445.482
29.09000 437.692
29.10000 425.914
29.11000 415.780
29.12000 417.085
29.13000 420.585
29.14000 424.108
29.15000 427.737
29.16000 431.380
29.17000 434.181
29.18000 429.201
29.19000 424.821
29.20000 420.318
29.21000 415.553
29.22000 410.778
29.23000 410.175
29.24000 415.750
29.25000 421.383
29.26000 422.094
29.27000 417.946
29.28000 413.828
29.29000 412.711
29.30000 413.574
29.31000 414.403
29.32000 414.266
29.33000 413.690
29.34000 413.144
29.35000 421.840
29.36000 432.517
29.37000 441.569
29.38000 437.767
29.39000 431.208
29.40000 424.677
29.41000 418.287
29.42000 411.917
29.43000 406.893
29.44000 411.104
29.45000 415.104
29.46000 416.697
29.47000 412.561
29.48000 408.180
29.49000 408.252
29.50000 415.650
29.51000 423.154
29.52000 427.102
29.53000 415.449
29.54000 407.585
29.55000 407.619
29.56000 413.451
29.57000 419.155
29.58000 420.134
29.59000 418.736
29.60000 417.399
29.61000 421.780
29.62000 427.709
29.63000 432.885
29.64000 431.243
29.65000 427.972
29.66000 424.900
29.67000 422.969
29.68000 421.218
29.69000 419.804
29.70000 419.604
29.71000 419.538
29.72000 419.157
29.73000 417.947
29.74000 416.692
29.75000 416.324
29.76000 417.572
29.77000 418.853
29.78000 419.564
29.79000 416.320
29.80000 414.080
29.81000 415.065
29.82000 418.690
29.83000 422.259
29.84000 423.057
29.85000 422.312
29.86000 421.594
29.87000 430.426
29.88000 442.196
29.89000 452.945
29.90000 453.045
29.91000 450.315
29.92000 447.226
29.93000 441.832
29.94000 436.028
29.95000 431.237
29.96000 437.392
29.97000 443.480
29.98000 447.971
29.99000 447.816
30.00000 447.364
30.01000 450.481
30.02000 460.796
30.03000 471.317
30.04000 477.439
30.05000 457.278
30.06000 443.000
30.07000 439.092
30.08000 444.687
30.09000 450.252
30.10000 453.690
30.11000 455.815
30.12000 457.880
30.13000 457.303
30.14000 455.685
30.15000 453.683
30.16000 447.006
30.17000 438.951
30.18000 431.871
30.19000 431.887
30.20000 433.319
30.21000 434.527
30.22000 438.496
30.23000 442.106
30.24000 443.173
30.25000 436.045
30.26000 428.294
30.27000 424.430
30.28000 429.238
30.29000 434.366
30.30000 437.488
30.31000 432.835
30.32000 429.450
30.33000 427.855
30.34000 428.104
30.35000 428.370
30.36000 430.663
30.37000 434.344
30.38000 437.946
30.39000 436.665
30.40000 433.227
30.41000 429.846
30.42000 427.286
30.43000 424.994
30.44000 422.922
30.45000 422.673
30.46000 422.830
30.47000 422.965
30.48000 425.606
30.49000 428.149
30.50000 430.367
30.51000 431.421
30.52000 432.372
30.53000 433.471
30.54000 434.934
30.55000 436.414
30.56000 437.353
30.57000 442.737
30.58000 446.698
30.59000 448.066
30.60000 446.438
30.61000 444.811
30.62000 444.143
30.63000 444.206
30.64000 444.268
30.65000 441.048
30.66000 436.271
30.67000 432.001
30.68000 436.432
30.69000 444.009
30.70000 451.644
30.71000 459.841
30.72000 468.177
30.73000 475.462
30.74000 474.011
30.75000 471.532
30.76000 469.963
30.77000 472.006
30.78000 474.422
30.79000 475.664
30.80000 473.706
30.81000 471.566
30.82000 470.156
30.83000 475.298
30.84000 479.202
30.85000 483.939
30.86000 489.754
30.87000 495.568
30.88000 498.154
30.89000 497.988
30.90000 497.825
30.91000 508.374
30.92000 524.721
30.93000 540.664
30.94000 548.164
30.95000 552.288
30.96000 557.160
30.97000 570.261
30.98000 585.631
30.99000 599.285
31.00000 614.053
31.01000 627.039
31.02000 644.342
31.03000 680.707
31.04000 719.330
31.05000 755.938
31.06000 786.469
31.07000 816.585
31.08000 837.162
31.09000 900.277
31.10000 948.494
31.11000 1005.455
31.12000 1074.982
31.13000 1144.609
31.14000 1218.392
31.15000 1296.144
31.16000 1373.342
31.17000 1471.978
31.18000 1582.549
31.19000 1693.416
31.20000 1812.016
31.21000 1934.033
31.22000 2055.726
31.23000 2173.230
31.24000 2289.454
31.25000 2394.279
31.26000 2539.325
31.27000 2674.027
31.28000 2807.640
31.29000 2935.885
31.30000 3063.405
31.31000 3171.768
31.32000 3216.094
31.33000 3255.269
31.34000 3282.941
31.35000 3341.242
31.36000 3386.437
31.37000 3418.906
31.38000 3431.062
31.39000 3442.953
31.40000 3426.204
31.41000 3378.705
31.42000 3331.388
31.43000 3267.278
31.44000 3191.948
31.45000 3115.845
31.46000 3013.688
31.47000 2898.795
31.48000 2783.558
31.49000 2663.052
31.50000 2540.761
31.51000 2428.916
31.52000 2299.546
31.53000 2180.940
31.54000 2064.791
31.55000 1962.204
31.56000 1861.692
31.57000 1758.136
31.58000 1643.296
31.59000 1527.396
31.60000 1442.953
31.61000 1349.094
31.62000 1276.450
31.63000 1210.339
31.64000 1155.794
31.65000 1101.469
31.66000 1041.374
31.67000 974.340
31.68000 907.413
31.69000 864.246
31.70000 840.043
31.71000 815.650
31.72000 782.620
31.73000 744.919
31.74000 707.791
31.75000 681.214
31.76000 658.590
31.77000 637.632
31.78000 613.486
31.79000 591.024
31.80000 571.226
31.81000 567.964
31.82000 567.553
31.83000 563.701
31.84000 545.670
31.85000 526.101
31.86000 511.425
31.87000 513.222
31.88000 515.407
31.89000 512.823
31.90000 500.898
31.91000 488.727
31.92000 477.542
31.93000 467.682
31.94000 457.833
31.95000 452.905
31.96000 452.341
31.97000 451.766
31.98000 450.447
31.99000 448.684
32.00000 446.761
32.01000 441.244
32.02000 434.236
32.03000 427.669
32.04000 432.409
32.05000 439.671
32.06000 445.824
32.07000 444.203
32.08000 441.078
32.09000 437.145
32.10000 429.503
32.11000 421.401
32.12000 415.158
32.13000 415.404
32.14000 415.971
32.15000 414.887
32.16000 410.224
32.17000 405.437
32.18000 404.066
32.19000 407.791
32.20000 411.565
32.21000 414.854
32.22000 417.661
32.23000 420.413
32.24000 417.627
32.25000 411.157
32.26000 404.904
32.27000 404.808
32.28000 407.534
32.29000 410.117
32.30000 412.447
32.31000 414.519
32.32000 416.474
32.33000 417.499
32.34000 418.321
32.35000 418.607
32.36000 416.136
32.37000 413.275
32.38000 411.014
32.39000 398.995
32.40000 388.680
32.41000 383.425
32.42000 390.297
32.43000 397.697
32.44000 402.204
32.45000 401.918
32.46000 401.560
32.47000 401.371
32.48000 408.805
32.49000 413.832
32.50000 414.322
32.51000 411.457
32.52000 408.637
32.53000 407.523
32.54000 407.274
32.55000 407.035
32.56000 405.557
32.57000 403.776
32.58000 402.129
32.59000 401.706
32.60000 401.578
32.61000 401.447
32.62000 401.302
32.63000 401.154
32.64000 401.035
32.65000 405.171
32.66000 408.879
32.67000 408.814
32.68000 398.748
32.69000 388.146
32.70000 383.569
32.71000 390.055
32.72000 396.779
32.73000 400.521
32.74000 399.366
32.75000 398.563
32.76000 400.551
32.77000 404.842
32.78000 409.083
32.79000 410.729
32.80000 410.920
32.81000 411.105
32.82000 409.926
32.83000 408.319
32.84000 407.197
32.85000 411.188
32.86000 416.549
32.87000 422.166
32.88000 429.447
32.89000 437.027
32.90000 443.293
32.91000 432.357
32.92000 421.724
32.93000 414.822
32.94000 418.859
32.95000 423.604
32.96000 424.959
32.97000 419.427
32.98000 413.695
32.99000 410.348
33.00000 401.197
33.01000 394.734
33.02000 393.982
33.03000 398.506
33.04000 402.924
33.05000 399.385
33.06000 390.898
33.07000 382.648
33.08000 378.754
33.09000 376.831
33.10000 375.031
33.11000 374.752
33.12000 374.925
33.13000 374.760
33.14000 372.118
33.15000 368.977
33.16000 366.328
33.17000 368.027
33.18000 369.920
33.19000 371.333
33.20000 371.190
33.21000 370.927
33.22000 369.302
33.23000 364.614
33.24000 359.811
33.25000 356.878
33.26000 355.373
33.27000 354.308
33.28000 352.194
33.29000 348.990
33.30000 345.821
33.31000 346.992
33.32000 351.160
33.33000 355.240
33.34000 361.329
33.35000 368.092
33.36000 374.540
33.37000 376.419
33.38000 376.794
33.39000 375.462
33.40000 359.855
33.41000 341.039
33.42000 324.861
33.43000 328.611
33.44000 334.275
33.45000 340.005
33.46000 345.974
33.47000 351.965
33.48000 355.319
33.49000 352.124
33.50000 348.621
33.51000 346.393
33.52000 348.347
33.53000 349.820
33.54000 351.536
33.55000 353.535
33.56000 355.528
33.57000 355.994
33.58000 355.286
33.59000 354.589
33.60000 352.539
33.61000 349.864
33.62000 347.182
33.63000 344.366
33.64000 341.502
33.65000 338.709
33.66000 336.605
33.67000 334.673
33.68000 332.982
33.69000 337.154
33.70000 341.567
33.71000 346.595
33.72000 354.079
33.73000 361.820
33.74000 366.167
33.75000 361.190
33.76000 355.678
33.77000 352.034
33.78000 355.603
33.79000 358.364
33.80000 360.017
33.81000 360.231
33.82000 360.439
33.83000 360.662
33.84000 360.900
33.85000 361.134
33.86000 358.274
33.87000 353.719
33.88000 349.288
33.89000 347.491
33.90000 346.754
33.91000 346.082
33.92000 346.116
33.93000 346.348
33.94000 346.554
33.95000 346.103
33.96000 345.606
33.97000 344.716
33.98000 342.079
33.99000 339.234
34.00000 336.709
34.01000 335.159
34.02000 333.676
34.03000 332.660
34.04000 336.485
34.05000 339.466
34.06000 341.443
34.07000 341.967
34.08000 342.479
34.09000 343.151
34.10000 343.978
34.11000 344.799
34.12000 342.688
34.13000 338.747
34.14000 334.957
34.15000 335.163
34.16000 337.147
34.17000 339.440
34.18000 345.738
34.19000 353.271
34.20000 360.071
34.21000 351.220
34.22000 340.558
34.23000 332.599
34.24000 338.064
34.25000 345.358
34.26000 351.141
34.27000 351.837
34.28000 352.119
34.29000 352.319
34.30000 347.202
34.31000 343.149
34.32000 339.189
34.33000 335.380
34.34000 331.573
34.35000 333.301
34.36000 341.020
34.37000 348.712
34.38000 349.425
34.39000 345.171
34.40000 340.971
34.41000 338.627
34.42000 337.197
34.43000 335.928
34.44000 337.150
34.45000 339.220
34.46000 341.116
34.47000 329.707
34.48000 316.793
34.49000 306.703
34.50000 312.336
34.51000 320.396
34.52000 327.433
34.53000 330.649
34.54000 333.502
34.55000 335.585
34.56000 332.219
34.57000 329.411
34.58000 327.899
34.59000 328.698
34.60000 329.542
34.61000 329.686
34.62000 328.984
34.63000 328.280
34.64000 326.675
34.65000 324.359
34.66000 322.048
34.67000 319.973
34.68000 318.027
34.69000 316.370
34.70000 320.100
34.71000 325.862
34.72000 331.206
34.73000 330.419
34.74000 328.276
34.75000 327.134
34.76000 332.255
34.77000 338.464
34.78000 342.025
34.79000 334.583
34.80000 325.937
34.81000 319.439
34.82000 320.434
34.83000 321.571
34.84000 323.074
34.85000 325.302
34.86000 327.549
34.87000 326.212
34.88000 320.029
34.89000 313.822
34.90000 310.962
34.91000 311.095
34.92000 311.239
34.93000 312.048
34.94000 313.261
34.95000 314.356
34.96000 312.778
34.97000 310.084
34.98000 307.556
34.99000 310.402
35.00000 314.406
35.01000 318.364
35.02000 321.996
35.03000 325.565
35.04000 328.215
35.05000 326.615
35.06000 324.483
35.07000 322.837
35.08000 327.682
35.09000 331.900
35.10000 334.443
35.11000 333.327
35.12000 332.083
35.13000 331.419
35.14000 331.627
35.15000 331.843
35.16000 331.952
35.17000 319.930
35.18000 311.933
35.19000 306.497
35.20000 302.777
35.21000 299.369
35.22000 305.036
35.23000 314.889
35.24000 324.230
35.25000 325.268
35.26000 323.779
35.27000 322.789
35.28000 325.817
35.29000 329.721
35.30000 332.501
35.31000 329.472
35.32000 325.613
35.33000 322.560
35.34000 313.305
35.35000 305.440
35.36000 300.835
35.37000 304.100
35.38000 307.714
35.39000 308.733
35.40000 305.425
35.41000 302.049
35.42000 300.259
35.43000 308.018
35.44000 313.309
35.45000 320.437
35.46000 328.936
35.47000 337.198
35.48000 336.506
35.49000 331.242
35.50000 326.204
35.51000 326.332
35.52000 328.154
35.53000 329.150
35.54000 322.528
35.55000 314.058
35.56000 307.860
35.57000 314.844
35.58000 323.953
35.59000 331.332
35.60000 331.901
35.61000 331.809
35.62000 329.764
35.63000 322.502
35.64000 314.957
35.65000 308.999
35.66000 305.976
35.67000 303.018
35.68000 301.366
35.69000 306.038
35.70000 309.284
35.71000 310.545
35.72000 310.157
35.73000 309.817
35.74000 312.019
35.75000 315.657
35.76000 319.169
35.77000 317.417
35.78000 313.828
35.79000 310.135
35.80000 305.347
35.81000 300.263
35.82000 296.156
35.83000 298.432
35.84000 301.865
35.85000 304.707
35.86000 311.694
35.87000 317.854
35.88000 321.327
35.89000 316.864
35.90000 311.881
35.91000 309.866
35.92000 313.927
35.93000 318.167
35.94000 320.652
35.95000 318.258
35.96000 316.550
35.97000 318.238
35.98000 323.091
35.99000 327.847
36.00000 325.214
36.01000 317.951
36.02000 310.886
36.03000 309.120
36.04000 309.621
36.05000 310.264
36.06000 312.667
36.07000 315.598
36.08000 317.546
36.09000 312.219
36.10000 305.414
36.11000 299.665
36.12000 299.934
36.13000 300.819
36.14000 301.762
36.15000 302.894
36.16000 304.040
36.17000 304.256
36.18000 302.365
36.19000 300.394
36.20000 299.187
36.21000 299.048
36.22000 298.958
36.23000 296.588
36.24000 291.830
36.25000 287.137
36.26000 290.768
36.27000 300.193
36.28000 309.421
36.29000 315.030
36.30000 318.757
36.31000 321.875
36.32000 316.049
36.33000 307.258
36.34000 299.327
36.35000 298.656
36.36000 299.630
36.37000 300.468
36.38000 299.438
36.39000 298.330
36.40000 297.436
36.41000 297.314
36.42000 297.263
36.43000 297.686
36.44000 299.295
36.45000 300.961
36.46000 302.024
36.47000 297.160
36.48000 293.546
36.49000 290.815
36.50000 289.122
36.51000 287.463
36.52000 293.860
36.53000 306.500
36.54000 318.949
36.55000 316.951
36.56000 307.600
36.57000 298.682
36.58000 297.402
36.59000 298.921
36.60000 300.171
36.61000 298.792
36.62000 296.750
36.63000 294.962
36.64000 295.488
36.65000 296.273
36.66000 296.592
36.67000 295.031
36.68000 293.272
36.69000 292.915
36.70000 296.436
36.71000 300.182
36.72000 302.665
36.73000 307.092
36.74000 310.398
36.75000 310.344
36.76000 305.886
36.77000 301.415
36.78000 302.028
36.79000 307.041
36.80000 312.002
36.81000 310.040
36.82000 304.153
36.83000 298.393
36.84000 295.363
36.85000 293.440
36.86000 292.293
36.87000 299.875
36.88000 309.902
36.89000 318.829
36.90000 314.746
36.91000 309.065
36.92000 305.415
36.93000 310.875
36.94000 317.435
36.95000 321.164
36.96000 316.221
36.97000 310.673
36.98000 306.864
36.99000 300.987
37.00000 296.531
37.01000 295.528
37.02000 299.564
37.03000 303.643
37.04000 307.128
37.05000 310.035
37.06000 312.922
37.07000 310.595
37.08000 304.962
37.09000 299.513
37.10000 299.040
37.11000 300.798
37.12000 302.389
37.13000 301.786
37.14000 300.501
37.15000 299.341
37.16000 304.406
37.17000 310.017
37.18000 314.709
37.19000 314.800
37.20000 314.257
37.21000 314.308
37.22000 316.377
37.23000 318.612
37.24000 320.197
37.25000 315.007
37.26000 310.844
37.27000 307.229
37.28000 304.503
37.29000 301.790
37.30000 301.062
37.31000 302.503
37.32000 303.939
37.33000 304.997
37.34000 305.774
37.35000 306.403
37.36000 301.799
37.37000 294.601
37.38000 287.759
37.39000 286.486
37.40000 287.126
37.41000 287.712
37.42000 292.680
37.43000 298.021
37.44000 302.379
37.45000 301.210
37.46000 299.182
37.47000 297.613
37.48000 297.777
37.49000 298.107
37.50000 298.348
37.51000 298.505
37.52000 298.624
37.53000 301.735
37.54000 310.222
37.55000 318.816
37.56000 323.414
37.57000 323.130
37.58000 322.834
37.59000 318.290
37.60000 310.353
37.61000 302.528
37.62000 299.983
37.63000 300.337
37.64000 300.657
37.65000 300.347
37.66000 299.799
37.67000 299.290
37.68000 297.671
37.69000 295.951
37.70000 294.642
37.71000 295.932
37.72000 297.678
37.73000 298.930
37.74000 298.115
37.75000 297.071
37.76000 296.285
37.77000 301.394
37.78000 305.680
37.79000 308.940
37.80000 310.163
37.81000 311.329
37.82000 311.247
37.83000 309.462
37.84000 307.668
37.85000 303.381
37.86000 296.854
37.87000 290.439
37.88000 291.703
37.89000 297.637
37.90000 303.499
37.91000 307.698
37.92000 311.198
37.93000 314.483
37.94000 316.545
37.95000 318.101
37.96000 319.384
37.97000 318.715
37.98000 317.663
37.99000 316.370
38.00000 313.957
38.01000 311.402
38.02000 309.427
38.03000 299.139
38.04000 290.487
38.05000 287.745
38.06000 297.999
38.07000 308.716
38.08000 313.306
38.09000 308.609
38.10000 303.817
38.11000 301.406
38.12000 308.888
38.13000 313.855
38.14000 315.404
38.15000 314.646
38.16000 313.917
38.17000 314.064
38.18000 314.618
38.19000 315.144
38.20000 322.918
38.21000 332.239
38.22000 341.033
38.23000 345.534
38.24000 349.093
38.25000 352.457
38.26000 354.804
38.27000 357.006
38.28000 358.751
38.29000 365.357
38.30000 371.011
38.31000 376.524
38.32000 381.695
38.33000 386.851
38.34000 390.370
38.35000 391.137
38.36000 391.859
38.37000 392.244
38.38000 403.177
38.39000 410.644
38.40000 421.317
38.41000 434.400
38.42000 447.494
38.43000 461.033
38.44000 474.801
38.45000 487.987
38.46000 505.672
38.47000 523.658
38.48000 541.885
38.49000 562.352
38.50000 583.367
38.51000 603.566
38.52000 618.989
38.53000 633.635
38.54000 645.520
38.55000 665.678
38.56000 682.791
38.57000 700.353
38.58000 719.118
38.59000 737.949
38.60000 752.640
38.61000 759.618
38.62000 766.422
38.63000 770.235
38.64000 782.844
38.65000 791.620
38.66000 808.284
38.67000 831.562
38.68000 854.147
38.69000 839.576
38.70000 803.853
38.71000 769.348
38.72000 766.892
38.73000 776.480
38.74000 784.880
38.75000 780.482
38.76000 772.608
38.77000 763.098
38.78000 742.805
38.79000 720.541
38.80000 702.081
38.81000 676.379
38.82000 654.452
38.83000 632.951
38.84000 612.719
38.85000 592.571
38.86000 572.350
38.87000 551.979
38.88000 531.602
38.89000 519.626
38.90000 511.574
38.91000 505.916
38.92000 495.365
38.93000 480.220
38.94000 465.101
38.95000 452.140
38.96000 440.540
38.97000 429.251
38.98000 419.374
38.99000 410.555
39.00000 401.987
39.01000 396.598
39.02000 392.167
39.03000 387.464
39.04000 380.725
39.05000 373.569
39.06000 367.515
39.07000 356.432
39.08000 346.597
39.09000 338.637
39.10000 336.856
39.11000 335.561
39.12000 334.581
39.13000 334.323
39.14000 334.093
39.15000 333.952
39.16000 323.489
39.17000 315.900
39.18000 313.120
39.19000 315.421
39.20000 317.722
39.21000 319.782
39.22000 321.674
39.23000 323.528
39.24000 318.635
39.25000 310.805
39.26000 303.196
39.27000 298.886
39.28000 295.677
39.29000 293.034
39.30000 295.217
39.31000 298.502
39.32000 301.334
39.33000 306.014
39.34000 310.218
39.35000 312.474
39.36000 307.612
39.37000 302.096
39.38000 297.147
39.39000 293.629
39.40000 290.180
39.41000 287.973
39.42000 288.925
39.43000 289.660
39.44000 287.446
39.45000 281.741
39.46000 276.049
39.47000 275.562
39.48000 279.141
39.49000 282.666
39.50000 281.982
39.51000 279.141
39.52000 276.420
39.53000 275.844
39.54000 276.061
39.55000 276.875
39.56000 283.552
39.57000 291.719
39.58000 298.882
39.59000 286.999
39.60000 274.021
39.61000 264.951
39.62000 271.738
39.63000 280.210
39.64000 286.450
39.65000 286.465
39.66000 286.113
39.67000 285.878
39.68000 273.375
39.69000 263.901
39.70000 261.314
39.71000 267.826
39.72000 274.373
39.73000 273.785
39.74000 266.971
39.75000 260.226
39.76000 263.244
39.77000 271.836
39.78000 280.142
39.79000 282.167
39.80000 281.628
39.81000 280.933
39.82000 278.471
39.83000 275.510
39.84000 272.871
39.85000 275.962
39.86000 279.598
39.87000 282.200
39.88000 280.123
39.89000 277.476
39.90000 275.372
39.91000 274.944
39.92000 274.634
39.93000 274.421
39.94000 272.110
39.95000 270.323
39.96000 270.190
39.97000 272.490
39.98000 274.812
39.99000 274.511
40.00000 271.643
40.01000 268.793
40.02000 268.722
40.03000 270.446
40.04000 272.067
40.05000 270.843
40.06000 268.336
40.07000 266.125
40.08000 267.874
40.09000 270.861
40.10000 273.563
40.11000 278.674
40.12000 283.626
40.13000 286.613
40.14000 279.682
40.15000 271.374
40.16000 265.311
40.17000 266.921
40.18000 269.169
40.19000 270.767
40.20000 273.557
40.21000 275.720
40.22000 277.731
40.23000 279.497
40.24000 281.259
40.25000 278.311
40.26000 270.180
40.27000 262.075
40.28000 262.491
40.29000 269.061
40.30000 275.505
40.31000 277.498
40.32000 277.267
40.33000 276.784
40.34000 272.303
40.35000 266.438
40.36000 261.059
40.37000 263.681
40.38000 267.711
40.39000 271.484
40.40000 273.811
40.41000 275.910
40.42000 276.256
40.43000 269.949
40.44000 262.998
40.45000 257.901
40.46000 264.470
40.47000 270.014
40.48000 272.001
40.49000 267.553
40.50000 262.972
40.51000 263.703
40.52000 270.976
40.53000 278.255
40.54000 276.659
40.55000 267.886
40.56000 259.264
40.57000 257.976
40.58000 260.741
40.59000 263.480
40.60000 265.688
40.61000 267.693
40.62000 269.555
40.63000 270.183
40.64000 270.455
40.65000 269.973
40.66000 264.687
40.67000 258.553
40.68000 254.017
40.69000 256.223
40.70000 259.183
40.71000 261.416
40.72000 258.960
40.73000 256.804
40.74000 253.557
40.75000 248.124
40.76000 242.629
40.77000 242.100
40.78000 248.389
40.79000 254.716
40.80000 259.531
40.81000 262.969
40.82000 266.385
40.83000 268.331
40.84000 269.376
40.85000 270.130
40.86000 263.981
40.87000 254.909
40.88000 246.385
40.89000 240.153
40.90000 235.079
40.91000 231.528
40.92000 238.966
40.93000 248.582
40.94000 256.703
40.95000 257.801
40.96000 258.001
40.97000 258.156
40.98000 260.864
40.99000 263.167
41.00000 266.470
41.01000 271.989
41.02000 277.589
41.03000 278.827
41.04000 273.408
41.05000 267.918
41.06000 265.144
41.07000 263.384
41.08000 262.196
41.09000 259.748
41.10000 256.443
41.11000 253.192
41.12000 251.578
41.13000 250.731
41.14000 249.926
41.15000 252.563
41.16000 256.028
41.17000 258.854
41.18000 256.449
41.19000 252.885
41.20000 249.223
41.21000 245.042
41.22000 240.786
41.23000 237.406
41.24000 246.096
41.25000 253.948
41.26000 258.880
41.27000 256.661
41.28000 254.116
41.29000 252.138
41.30000 251.123
41.31000 250.123
41.32000 249.588
41.33000 251.737
41.34000 253.197
41.35000 253.293
41.36000 252.355
41.37000 251.508
41.38000 254.262
41.39000 258.881
41.40000 263.308
41.41000 261.153
41.42000 256.937
41.43000 252.832
41.44000 249.771
41.45000 246.967
41.46000 243.954
41.47000 239.714
41.48000 235.273
41.49000 231.663
41.50000 235.095
41.51000 238.482
41.52000 242.636
41.53000 248.866
41.54000 255.212
41.55000 257.871
41.56000 253.610
41.57000 249.189
41.58000 246.703
41.59000 249.238
41.60000 251.009
41.61000 251.580
41.62000 251.138
41.63000 250.756
41.64000 253.721
41.65000 258.606
41.66000 263.326
41.67000 257.544
41.68000 248.157
41.69000 239.534
41.70000 239.221
41.71000 241.183
41.72000 243.472
41.73000 247.939
41.74000 252.808
41.75000 256.851
41.76000 253.654
41.77000 250.309
41.78000 247.950
41.79000 248.547
41.80000 249.343
41.81000 249.618
41.82000 248.815
41.83000 247.978
41.84000 247.484
41.85000 245.711
41.86000 244.452
41.87000 242.483
41.88000 239.841
41.89000 237.205
41.90000 235.014
41.91000 233.106
41.92000 231.248
41.93000 232.634
41.94000 235.312
41.95000 237.638
41.96000 235.503
41.97000 232.012
41.98000 229.925
41.99000 238.427
42.00000 249.114
42.01000 258.167
42.02000 256.977
42.03000 254.831
42.04000 252.475
42.05000 249.419
42.06000 246.307
42.07000 243.395
42.08000 240.941
42.09000 238.505
42.10000 237.004
42.11000 239.238
42.12000 240.875
42.13000 242.365
42.14000 243.699
42.15000 245.017
42.16000 244.144
42.17000 241.723
42.18000 239.350
42.19000 238.459
42.20000 238.293
42.21000 238.187
42.22000 238.981
42.23000 240.078
42.24000 240.779
42.25000 238.063
42.26000 234.561
42.27000 231.539
42.28000 230.506
42.29000 229.886
42.30000 230.968
42.31000 238.311
42.32000 246.237
42.33000 251.491
42.34000 249.964
42.35000 248.103
42.36000 246.909
42.37000 247.921
42.38000 248.689
42.39000 248.397
42.40000 246.842
42.41000 245.282
42.42000 243.083
42.43000 240.382
42.44000 237.720
42.45000 239.706
42.46000 244.057
42.47000 248.213
42.48000 248.833
42.49000 248.138
42.50000 247.343
42.51000 245.561
42.52000 243.527
42.53000 241.740
42.54000 238.982
42.55000 236.470
42.56000 234.497
42.57000 234.732
42.58000 235.204
42.59000 235.861
42.60000 237.041
42.61000 238.252
42.62000 239.058
42.63000 236.357
42.64000 234.291
42.65000 234.305
42.66000 237.088
42.67000 239.884
42.68000 240.861
42.69000 240.237
42.70000 239.620
42.71000 243.151
42.72000 249.022
42.73000 254.478
42.74000 250.697
42.75000 243.115
42.76000 236.102
42.77000 235.627
42.78000 237.010
42.79000 238.244
42.80000 239.435
42.81000 240.465
42.82000 241.523
42.83000 242.704
42.84000 243.900
42.85000 243.269
42.86000 236.961
42.87000 230.248
42.88000 225.616
42.89000 230.126
42.90000 233.746
42.91000 235.300
42.92000 233.792
42.93000 232.255
42.94000 233.235
42.95000 236.700
42.96000 240.143
42.97000 245.183
42.98000 251.192
42.99000 256.802
43.00000 251.221
43.01000 240.550
43.02000 230.794
43.03000 233.392
43.04000 239.880
43.05000 245.757
43.06000 243.329
43.07000 239.619
43.08000 236.188
43.09000 234.176
43.10000 232.363
43.11000 231.399
43.12000 233.360
43.13000 235.567
43.14000 237.140
43.15000 235.810
43.16000 234.702
43.17000 234.411
43.18000 235.466
43.19000 236.541
43.20000 237.872
43.21000 239.490
43.22000 241.102
43.23000 242.687
43.24000 244.241
43.25000 245.753
43.26000 245.791
43.27000 245.087
43.28000 244.229
43.29000 240.898
43.30000 236.705
43.31000 232.855
43.32000 233.926
43.33000 235.931
43.34000 237.755
43.35000 238.551
43.36000 239.185
43.37000 239.455
43.38000 238.335
43.39000 237.080
43.40000 236.158
43.41000 232.094
43.42000 228.823
43.43000 225.321
43.44000 221.398
43.45000 217.466
43.46000 219.281
43.47000 228.227
43.48000 237.182
43.49000 237.119
43.50000 229.697
43.51000 222.492
43.52000 226.037
43.53000 235.571
43.54000 244.765
43.55000 247.345
43.56000 247.376
43.57000 247.404
43.58000 241.387
43.59000 234.504
43.60000 228.733
43.61000 230.100
43.62000 232.740
43.63000 234.077
43.64000 229.880
43.65000 225.057
43.66000 221.412
43.67000 225.885
43.68000 229.800
43.69000 229.849
43.70000 222.101
43.71000 214.131
43.72000 211.445
43.73000 216.070
43.74000 220.740
43.75000 225.138
43.76000 229.284
43.77000 233.343
43.78000 231.055
43.79000 224.850
43.80000 219.013
43.81000 222.078
43.82000 228.937
43.83000 235.387
43.84000 236.135
43.85000 235.284
43.86000 234.536
43.87000 234.533
43.88000 234.679
43.89000 235.037
43.90000 236.398
43.91000 237.888
43.92000 239.045
43.93000 242.004
43.94000 244.466
43.95000 243.671
43.96000 235.609
43.97000 227.278
43.98000 224.826
43.99000 231.415
44.00000 238.104
44.01000 241.498
44.02000 231.170
44.03000 224.310
44.04000 224.308
44.05000 229.010
44.06000 233.591
44.07000 234.509
44.08000 233.699
44.09000 232.929
44.10000 234.770
44.11000 237.259
44.12000 239.297
44.13000 237.590
44.14000 235.048
44.15000 233.247
44.16000 235.366
44.17000 238.059
44.18000 240.202
44.19000 234.641
44.20000 229.607
44.21000 228.998
44.22000 239.303
44.23000 250.113
44.24000 256.564
44.25000 255.574
44.26000 254.459
44.27000 253.861
44.28000 251.943
44.29000 250.630
44.30000 248.802
44.31000 246.580
44.32000 244.471
44.33000 246.979
44.34000 251.895
44.35000 256.610
44.36000 255.633
44.37000 252.800
44.38000 249.994
44.39000 247.452
44.40000 244.974
44.41000 243.865
44.42000 250.902
44.43000 259.286
44.44000 266.111
44.45000 255.379
44.46000 245.134
44.47000 239.508
44.48000 246.477
44.49000 254.162
44.50000 262.199
44.51000 270.903
44.52000 279.622
44.53000 284.544
44.54000 276.066
44.55000 270.151
44.56000 272.175
44.57000 280.965
44.58000 289.657
44.59000 292.770
44.60000 292.661
44.61000 292.556
44.62000 295.856
44.63000 300.257
44.64000 304.722
44.65000 309.895
44.66000 315.264
44.67000 320.486
44.68000 324.716
44.69000 328.763
44.70000 332.129
44.71000 341.668
44.72000 350.168
44.73000 357.979
44.74000 363.710
44.75000 369.299
44.76000 375.873
44.77000 384.508
44.78000 393.208
44.79000 398.355
44.80000 412.995
44.81000 423.395
44.82000 432.239
44.83000 439.597
44.84000 446.911
44.85000 450.509
44.86000 451.727
44.87000 452.913
44.88000 462.997
44.89000 476.362
44.90000 488.981
44.91000 491.978
44.92000 492.031
44.93000 493.494
44.94000 505.691
44.95000 520.119
44.96000 532.360
44.97000 529.004
44.98000 524.424
44.99000 521.005
45.00000 521.471
45.01000 522.248
45.02000 524.569
45.03000 530.458
45.04000 536.491
45.05000 540.219
45.06000 534.517
45.07000 530.333
45.08000 524.046
45.09000 515.500
45.10000 506.955
45.11000 498.652
45.12000 490.523
45.13000 482.552
45.14000 473.409
45.15000 464.054
45.16000 455.388
45.17000 457.240
45.18000 462.655
45.19000 466.027
45.20000 451.637
45.21000 433.129
45.22000 417.133
45.23000 409.582
45.24000 404.265
45.25000 398.939
45.26000 393.580
45.27000 388.218
45.28000 381.071
45.29000 369.359
45.30000 357.418
45.31000 349.736
45.32000 356.340
45.33000 361.359
45.34000 357.679
45.35000 343.536
45.36000 329.408
45.37000 326.376
45.38000 332.149
45.39000 337.840
45.40000 335.773
45.41000 329.687
45.42000 323.895
45.43000 323.500
45.44000 325.128
45.45000 325.650
45.46000 315.101
45.47000 301.697
45.48000 289.911
45.49000 288.908
45.50000 289.643
45.51000 290.456
45.52000 291.583
45.53000 292.745
45.54000 291.234
45.55000 282.163
45.56000 272.633
45.57000 266.268
45.58000 269.811
45.59000 272.629
45.60000 272.456
45.61000 268.270
45.62000 264.065
45.63000 262.020
45.64000 261.891
45.65000 261.763
45.66000 261.617
45.67000 261.464
45.68000 261.181
45.69000 257.978
45.70000 253.564
45.71000 249.519
45.72000 249.753
45.73000 251.212
45.74000 252.516
45.75000 249.686
45.76000 246.524
45.77000 242.549
45.78000 234.840
45.79000 226.667
45.80000 222.871
45.81000 232.773
45.82000 243.668
45.83000 251.202
45.84000 240.832
45.85000 232.569
45.86000 227.391
45.87000 226.818
45.88000 226.289
45.89000 226.398
45.90000 227.145
45.91000 227.887
45.92000 228.571
45.93000 229.207
45.94000 229.658
45.95000 224.805
45.96000 217.523
45.97000 210.785
45.98000 211.487
45.99000 214.549
46.00000 217.324
46.01000 217.428
46.02000 217.009
46.03000 215.898
46.04000 211.229
46.05000 206.058
46.06000 202.941
46.07000 206.948
46.08000 211.562
46.09000 214.858
46.10000 207.588
46.11000 201.689
46.12000 200.515
46.13000 207.168
46.14000 213.940
46.15000 217.845
46.16000 218.542
46.17000 219.234
46.18000 218.358
46.19000 216.337
46.20000 214.349
46.21000 213.545
46.22000 213.342
46.23000 213.209
46.24000 214.203
46.25000 215.593
46.26000 216.870
46.27000 213.962
46.28000 210.466
46.29000 207.274
46.30000 205.831
46.31000 204.667
46.32000 204.416
46.33000 207.682
46.34000 211.295
46.35000 213.956
46.36000 211.616
46.37000 209.596
46.38000 206.772
46.39000 202.469
46.40000 198.134
46.41000 196.908
46.42000 199.571
46.43000 202.243
46.44000 205.336
46.45000 208.767
46.46000 212.140
46.47000 212.584
46.48000 211.383
46.49000 210.201
46.50000 209.379
46.51000 208.696
46.52000 208.062
46.53000 212.241
46.54000 217.181
46.55000 220.913
46.56000 216.813
46.57000 211.305
46.58000 207.337
46.59000 209.965
46.60000 213.345
46.61000 215.905
46.62000 215.466
46.63000 214.970
46.64000 214.336
46.65000 213.426
46.66000 212.507
46.67000 211.386
46.68000 209.983
46.69000 208.579
46.70000 209.389
46.71000 212.242
46.72000 215.012
46.73000 211.553
46.74000 204.220
46.75000 197.103
46.76000 195.303
46.77000 195.785
46.78000 196.239
46.79000 196.676
46.80000 197.072
46.81000 198.103
46.82000 203.799
46.83000 210.435
46.84000 215.651
46.85000 214.090
46.86000 211.646
46.87000 209.746
46.88000 205.493
46.89000 201.964
46.90000 198.516
46.91000 195.249
46.92000 191.989
46.93000 191.485
46.94000 195.251
46.95000 199.066
46.96000 201.010
46.97000 207.611
46.98000 212.000
46.99000 211.514
47.00000 207.662
47.01000 203.821
47.02000 200.351
47.03000 197.055
47.04000 193.923
47.05000 196.315
47.06000 200.207
47.07000 203.490
47.08000 201.680
47.09000 198.725
47.10000 196.278
47.11000 196.547
47.12000 197.218
47.13000 197.752
47.14000 194.861
47.15000 192.281
47.16000 191.752
47.17000 196.321
47.18000 201.130
47.19000 202.655
47.20000 198.533
47.21000 194.314
47.22000 192.043
47.23000 197.674
47.24000 201.529
47.25000 204.919
47.26000 207.950
47.27000 210.894
47.28000 210.202
47.29000 207.599
47.30000 205.101
47.31000 199.849
47.32000 194.002
47.33000 188.951
47.34000 191.537
47.35000 196.034
47.36000 199.907
47.37000 200.038
47.38000 199.546
47.39000 199.145
47.40000 200.585
47.41000 201.920
47.42000 202.136
47.43000 199.279
47.44000 196.245
47.45000 191.955
47.46000 185.272
47.47000 178.531
47.48000 174.713
47.49000 182.643
47.50000 188.196
47.51000 193.859
47.52000 199.617
47.53000 205.328
47.54000 208.333
47.55000 209.762
47.56000 211.145
47.57000 207.223
47.58000 201.499
47.59000 196.043
47.60000 193.561
47.61000 191.905
47.62000 189.824
47.63000 184.863
47.64000 179.363
47.65000 174.782
47.66000 181.329
47.67000 187.855
47.68000 191.462
47.69000 186.190
47.70000 180.307
47.71000 177.493
47.72000 181.144
47.73000 185.002
47.74000 187.292
47.75000 194.030
47.76000 198.823
47.77000 196.283
47.78000 186.680
47.79000 177.178
47.80000 176.588
47.81000 181.750
47.82000 186.782
47.83000 188.709
47.84000 189.229
47.85000 189.772
47.86000 190.610
47.87000 191.540
47.88000 192.252
47.89000 191.294
47.90000 189.985
47.91000 188.874
47.92000 188.874
47.93000 189.001
47.94000 189.179
47.95000 189.534
47.96000 189.902
47.97000 191.820
47.98000 197.347
47.99000 203.021
48.00000 206.538
48.01000 201.570
48.02000 197.916
48.03000 193.595
48.04000 188.553
48.05000 183.547
48.06000 183.966
48.07000 188.278
48.08000 192.507
48.09000 190.607
48.10000 185.867
48.11000 181.641
48.12000 185.353
48.13000 191.773
48.14000 197.126
48.15000 193.103
48.16000 186.889
48.17000 181.512
48.18000 177.621
48.19000 174.508
48.20000 173.251
48.21000 178.927
48.22000 185.262
48.23000 189.589
48.24000 188.745
48.25000 187.640
48.26000 186.928
48.27000 190.034
48.28000 192.358
48.29000 191.823
48.30000 187.821
48.31000 183.816
48.32000 181.406
48.33000 180.271
48.34000 179.151
48.35000 179.908
48.36000 181.638
48.37000 183.479
48.38000 187.388
48.39000 192.079
48.40000 196.280
48.41000 195.536
48.42000 193.507
48.43000 191.721
48.44000 188.873
48.45000 186.262
48.46000 184.176
48.47000 184.271
48.48000 184.604
48.49000 184.653
48.50000 183.889
48.51000 183.075
48.52000 182.530
48.53000 188.298
48.54000 192.702
48.55000 195.244
48.56000 195.269
48.57000 195.277
48.58000 192.446
48.59000 187.077
48.60000 181.758
48.61000 182.641
48.62000 187.176
48.63000 191.607
48.64000 193.652
48.65000 194.703
48.66000 195.171
48.67000 188.803
48.68000 180.463
48.69000 173.005
48.70000 177.133
48.71000 182.702
48.72000 187.507
48.73000 188.769
48.74000 189.588
48.75000 189.511
48.76000 186.608
48.77000 183.499
48.78000 181.343
48.79000 180.758
48.80000 180.360
48.81000 180.115
48.82000 180.103
48.83000 180.092
48.84000 184.608
48.85000 193.671
48.86000 202.682
48.87000 202.301
48.88000 195.712
48.89000 189.239
48.90000 186.113
48.91000 184.532
48.92000 183.095
48.93000 183.672
48.94000 184.893
48.95000 186.000
48.96000 183.514
48.97000 180.628
48.98000 178.248
48.99000 178.491
49.00000 179.106
49.01000 180.911
49.02000 186.868
49.03000 193.182
49.04000 197.703
49.05000 186.949
49.06000 178.219
49.07000 173.236
49.08000 174.510
49.09000 175.882
49.10000 175.844
49.11000 174.216
49.12000 172.592
49.13000 173.623
49.14000 176.612
49.15000 179.529
49.16000 179.686
49.17000 178.433
49.18000 177.228
49.19000 176.795
49.20000 176.636
49.21000 176.489
49.22000 179.342
49.23000 182.542
49.24000 185.574
49.25000 187.635
49.26000 189.539
49.27000 190.939
49.28000 190.380
49.29000 189.626
49.30000 189.069
49.31000 189.085
49.32000 189.121
49.33000 188.591
49.34000 187.013
49.35000 185.411
49.36000 182.219
49.37000 177.022
49.38000 171.824
49.39000 170.452
49.40000 172.259
49.41000 174.047
49.42000 174.839
49.43000 175.069
49.44000 175.320
49.45000 175.991
49.46000 176.827
49.47000 177.605
49.48000 176.251
49.49000 174.505
49.50000 173.478
49.51000 177.145
49.52000 181.663
49.53000 185.702
49.54000 187.670
49.55000 189.399
49.56000 190.712
49.57000 189.108
49.58000 187.697
49.59000 187.982
49.60000 191.737
49.61000 195.595
49.62000 193.980
49.63000 184.672
49.64000 175.313
49.65000 172.113
49.66000 174.651
49.67000 177.144
49.68000 176.177
49.69000 173.041
49.70000 170.019
49.71000 169.817
49.72000 170.836
49.73000 171.795
49.74000 171.939
49.75000 171.847
49.76000 172.064
49.77000 174.569
49.78000 177.539
49.79000 180.407
49.80000 182.786
49.81000 185.102
49.82000 186.905
49.83000 188.649
49.84000 190.034
49.85000 190.561
49.86000 189.143
49.87000 187.651
49.88000 184.558
49.89000 178.964
49.90000 173.341
49.91000 170.464
49.92000 175.575
49.93000 179.012
49.94000 182.737
49.95000 186.661
49.96000 190.511
49.97000 191.972
49.98000 192.289
49.99000 192.592
50.00000 189.122
50.01000 184.755
50.02000 180.915
50.03000 181.526
50.04000 183.144
50.05000 184.597
50.06000 185.158
50.07000 185.585
50.08000 185.926
50.09000 188.719
50.10000 191.154
50.11000 191.525
50.12000 186.733
50.13000 181.694
50.14000 179.982
50.15000 184.030
50.16000 188.180
50.17000 190.423
50.18000 191.778
50.19000 192.694
50.20000 190.926
50.21000 187.077
50.22000 183.400
50.23000 186.998
50.24000 194.445
50.25000 201.595
50.26000 204.721
50.27000 206.264
50.28000 207.611
50.29000 207.058
50.30000 206.027
50.31000 205.344
50.32000 206.770
50.33000 208.550
50.34000 210.004
50.35000 210.610
50.36000 211.034
50.37000 211.618
50.38000 212.648
50.39000 213.704
50.40000 214.451
50.41000 214.605
50.42000 214.744
50.43000 214.824
50.44000 225.711
50.45000 233.327
50.46000 238.753
50.47000 242.285
50.48000 245.787
50.49000 247.540
50.50000 248.268
50.51000 248.972
50.52000 255.923
50.53000 264.888
50.54000 273.139
50.55000 273.342
50.56000 271.293
50.57000 269.569
50.58000 270.072
50.59000 270.994
50.60000 271.764
50.61000 277.721
50.62000 283.179
50.63000 286.885
50.64000 285.221
50.65000 283.182
50.66000 281.525
50.67000 280.678
50.68000 279.858
50.69000 279.370
50.70000 282.071
50.71000 284.004
50.72000 281.995
50.73000 276.158
50.74000 270.372
50.75000 269.252
50.76000 271.167
50.77000 273.035
50.78000 265.178
50.79000 253.510
50.80000 242.682
50.81000 242.924
50.82000 246.602
50.83000 249.960
50.84000 250.831
50.85000 251.176
50.86000 251.470
50.87000 245.473
50.88000 239.709
50.89000 234.955
50.90000 233.630
50.91000 232.588
50.92000 231.463
50.93000 230.145
50.94000 228.820
50.95000 227.995
50.96000 211.816
50.97000 200.014
50.98000 195.421
50.99000 198.697
51.00000 201.961
51.01000 202.928
51.02000 202.233
51.03000 201.551
51.04000 202.303
51.05000 203.713
51.06000 204.896
51.07000 202.517
51.08000 198.914
51.09000 195.498
51.10000 193.745
51.11000 192.383
51.12000 191.203
51.13000 192.397
51.14000 193.728
51.15000 194.771
51.16000 194.725
51.17000 194.575
51.18000 192.785
51.19000 186.739
51.20000 180.474
51.21000 176.422
51.22000 184.818
51.23000 191.142
51.24000 194.553
51.25000 194.403
51.26000 194.235
51.27000 190.460
51.28000 183.779
51.29000 177.188
51.30000 172.049
51.31000 167.826
51.32000 163.869
51.33000 164.943
51.34000 167.931
51.35000 170.749
51.36000 171.837
51.37000 172.472
51.38000 173.031
51.39000 176.514
51.40000 179.959
51.41000 183.205
51.42000 185.622
51.43000 187.947
51.44000 188.900
51.45000 185.915
51.46000 182.685
51.47000 180.516
51.48000 177.998
51.49000 176.120
51.50000 175.430
51.51000 176.358
51.52000 177.295
51.53000 177.173
51.54000 176.098
51.55000 175.033
51.56000 174.585
51.57000 174.513
51.58000 174.402
51.59000 173.373
51.60000 171.958
51.61000 170.740
51.62000 171.864
51.63000 173.669
51.64000 175.285
51.65000 182.983
51.66000 190.743
51.67000 194.854
51.68000 181.943
51.69000 166.878
51.70000 156.456
51.71000 160.787
51.72000 166.212
51.73000 169.982
51.74000 165.075
51.75000 161.143
51.76000 159.962
51.77000 162.951
51.78000 165.982
51.79000 169.700
51.80000 174.114
51.81000 178.504
51.82000 177.201
51.83000 172.118
51.84000 167.110
51.85000 164.319
51.86000 162.560
51.87000 160.876
51.88000 160.255
51.89000 159.976
51.90000 159.723
51.91000 166.244
51.92000 173.319
51.93000 178.689
51.94000 175.168
51.95000 170.367
51.96000 166.988
51.97000 168.614
51.98000 170.675
51.99000 172.154
52.00000 174.256
52.01000 175.884
52.02000 176.376
52.03000 174.958
52.04000 173.509
52.05000 172.655
52.06000 172.478
52.07000 172.301
52.08000 171.788
52.09000 171.027
52.10000 170.293
52.11000 170.616
52.12000 171.481
52.13000 172.304
52.14000 172.420
52.15000 172.282
52.16000 172.156
52.17000 172.257
52.18000 172.398
52.19000 171.951
52.20000 168.066
52.21000 163.622
52.22000 161.154
52.23000 166.407
52.24000 172.440
52.25000 176.901
52.26000 172.189
52.27000 168.142
52.28000 164.118
52.29000 160.138
52.30000 156.159
52.31000 156.316
52.32000 161.730
52.33000 167.157
52.34000 169.857
52.35000 170.270
52.36000 170.630
52.37000 168.170
52.38000 164.105
52.39000 160.334
52.40000 162.535
52.41000 167.090
52.42000 171.335
52.43000 173.436
52.44000 174.810
52.45000 174.843
52.46000 166.029
52.47000 155.598
52.48000 147.944
52.49000 152.362
52.50000 158.183
52.51000 162.609
52.52000 166.052
52.53000 168.709
52.54000 169.942
52.55000 168.237
52.56000 166.443
52.57000 166.108
52.58000 167.838
52.59000 169.582
52.60000 168.916
52.61000 165.987
52.62000 163.119
52.63000 165.142
52.64000 170.253
52.65000 175.128
52.66000 174.056
52.67000 170.392
52.68000 166.938
52.69000 164.775
52.70000 163.151
52.71000 161.981
52.72000 164.201
52.73000 167.116
52.74000 169.471
52.75000 169.118
52.76000 168.406
52.77000 167.850
52.78000 166.903
52.79000 166.123
52.80000 164.492
52.81000 160.918
52.82000 157.268
52.83000 157.051
52.84000 162.233
52.85000 167.481
52.86000 170.177
52.87000 164.257
52.88000 160.268
52.89000 155.562
52.90000 150.352
52.91000 145.350
52.92000 147.098
52.93000 152.099
52.94000 156.859
52.95000 156.406
52.96000 154.374
52.97000 152.896
52.98000 156.146
52.99000 160.475
53.00000 164.158
53.01000 164.333
53.02000 163.981
53.03000 163.699
53.04000 166.167
53.05000 168.366
53.06000 170.119
53.07000 170.748
53.08000 171.322
53.09000 170.648
53.10000 167.795
53.11000 164.903
53.12000 163.334
53.13000 156.415
53.14000 151.684
53.15000 151.579
53.16000 155.089
53.17000 158.559
53.18000 160.297
53.19000 161.112
53.20000 161.895
53.21000 164.865
53.22000 168.401
53.23000 171.576
53.24000 171.203
53.25000 169.929
53.26000 168.895
53.27000 169.328
53.28000 170.010
53.29000 170.568
53.30000 167.787
53.31000 165.218
53.32000 162.911
53.33000 161.335
53.34000 159.801
53.35000 159.931
53.36000 163.273
53.37000 166.697
53.38000 168.649
53.39000 166.978
53.40000 165.801
53.41000 164.753
53.42000 163.819
53.43000 162.870
53.44000 161.037
53.45000 158.683
53.46000 156.402
53.47000 158.371
53.48000 161.876
53.49000 164.969
53.50000 163.374
53.51000 160.457
53.52000 158.007
53.53000 158.777
53.54000 160.159
53.55000 161.313
53.56000 158.436
53.57000 155.640
53.58000 154.602
53.59000 158.990
53.60000 163.760
53.61000 166.390
53.62000 164.443
53.63000 162.345
53.64000 161.091
53.65000 162.794
53.66000 164.020
53.67000 165.518
53.68000 167.281
53.69000 169.017
53.70000 168.234
53.71000 165.799
53.72000 163.424
53.73000 160.609
53.74000 157.729
53.75000 155.049
53.76000 155.049
53.77000 155.887
53.78000 156.645
53.79000 156.780
53.80000 156.783
53.81000 156.786
53.82000 162.970
53.83000 168.891
53.84000 172.129
53.85000 166.196
53.86000 159.499
53.87000 156.922
53.88000 164.082
53.89000 171.652
53.90000 176.373
53.91000 170.567
53.92000 166.274
53.93000 163.587
53.94000 162.668
53.95000 161.746
53.96000 160.193
53.97000 158.179
53.98000 156.202
53.99000 155.194
54.00000 154.689
54.01000 154.309
54.02000 155.916
54.03000 158.212
54.04000 160.028
54.05000 157.560
54.06000 154.076
54.07000 151.053
54.08000 153.241
54.09000 155.801
54.10000 158.380
54.11000 161.029
54.12000 163.684
54.13000 165.245
54.14000 163.950
54.15000 162.507
54.16000 161.570
54.17000 157.231
54.18000 154.003
54.19000 152.243
54.20000 152.292
54.21000 152.353
54.22000 155.194
54.23000 160.294
54.24000 165.328
54.25000 169.351
54.26000 172.723
54.27000 175.731
54.28000 171.739
54.29000 165.068
54.30000 158.856
54.31000 157.386
54.32000 157.167
54.33000 156.974
54.34000 161.505
54.35000 166.133
54.36000 169.008
54.37000 164.487
54.38000 159.139
54.39000 154.866
54.40000 153.698
54.41000 152.725
54.42000 152.071
54.43000 158.899
54.44000 164.130
54.45000 166.797
54.46000 165.943
54.47000 165.066
54.48000 161.625
54.49000 155.852
54.50000 150.130
54.51000 153.558
54.52000 162.421
54.53000 170.933
54.54000 171.119
54.55000 167.779
54.56000 164.583
54.57000 163.128
54.58000 162.181
54.59000 161.333
54.60000 159.813
54.61000 158.370
54.62000 157.805
54.63000 161.364
54.64000 165.450
54.65000 168.131
54.66000 166.318
54.67000 164.167
54.68000 162.669
54.69000 169.434
54.70000 174.763
54.71000 175.544
54.72000 169.379
54.73000 163.141
54.74000 159.186
54.75000 157.566
54.76000 155.954
54.77000 155.992
54.78000 157.138
54.79000 158.318
54.80000 160.511
54.81000 163.180
54.82000 165.626
54.83000 164.918
54.84000 163.187
54.85000 161.613
54.86000 164.931
54.87000 168.822
54.88000 172.158
54.89000 172.573
54.90000 172.563
54.91000 171.776
54.92000 168.232
54.93000 164.446
54.94000 161.722
54.95000 165.363
54.96000 168.372
54.97000 169.735
54.98000 168.312
54.99000 166.842
55.00000 167.215
55.01000 169.700
55.02000 172.180
55.03000 170.940
55.04000 166.909
55.05000 163.004
55.06000 164.137
55.07000 167.879
55.08000 171.474
55.09000 172.586
55.10000 172.807
55.11000 173.010
55.12000 173.652
55.13000 174.323
55.14000 174.599
55.15000 172.549
55.16000 170.116
55.17000 168.294
55.18000 168.875
55.19000 169.702
55.20000 170.314
55.21000 171.572
55.22000 172.576
55.23000 171.986
55.24000 168.405
55.25000 164.754
55.26000 165.417
55.27000 171.603
55.28000 177.804
55.29000 180.971
55.30000 181.571
55.31000 182.224
55.32000 185.807
55.33000 191.072
55.34000 196.189
55.35000 198.255
55.36000 199.111
55.37000 199.909
55.38000 203.975
55.39000 208.469
55.40000 212.407
55.41000 212.653
55.42000 212.219
55.43000 213.026
55.44000 219.274
55.45000 226.161
55.46000 231.407
55.47000 229.492
55.48000 227.606
55.49000 228.062
55.50000 233.384
55.51000 238.856
55.52000 245.155
55.53000 252.634
55.54000 260.121
55.55000 266.948
55.56000 273.148
55.57000 279.317
55.58000 282.988
55.59000 285.069
55.60000 287.274
55.61000 292.652
55.62000 299.422
55.63000 305.808
55.64000 322.671
55.65000 341.039
55.66000 358.910
55.67000 373.045
55.68000 386.409
55.69000 398.994
55.70000 407.769
55.71000 416.035
55.72000 422.497
55.73000 439.677
55.74000 454.070
55.75000 466.677
55.76000 475.184
55.77000 483.529
55.78000 490.511
55.79000 495.334
55.80000 500.130
55.81000 502.604
55.82000 510.658
55.83000 516.149
55.84000 530.506
55.85000 551.129
55.86000 571.174
55.87000 572.094
55.88000 563.733
55.89000 555.767
55.90000 565.884
55.91000 580.894
55.92000 593.968
55.93000 590.374
55.94000 582.945
55.95000 575.217
55.96000 565.845
55.97000 556.224
55.98000 548.518
55.99000 548.173
56.00000 548.447
56.01000 543.229
56.02000 524.064
56.03000 504.213
56.04000 490.114
56.05000 486.122
56.06000 482.319
56.07000 480.248
56.08000 474.530
56.09000 470.559
56.10000 454.183
56.11000 428.041
56.12000 402.252
56.13000 392.080
56.14000 390.296
56.15000 388.582
56.16000 382.683
56.17000 375.699
56.18000 368.193
56.19000 355.519
56.20000 341.523
56.21000 328.348
56.22000 320.225
56.23000 312.967
56.24000 307.022
56.25000 303.422
56.26000 300.677
56.27000 295.897
56.28000 285.402
56.29000 274.564
56.30000 265.192
56.31000 258.672
56.32000 252.226
56.33000 248.537
56.34000 243.911
56.35000 240.674
56.36000 234.540
56.37000 225.855
56.38000 217.283
56.39000 215.740
56.40000 218.379
56.41000 220.937
56.42000 217.144
56.43000 211.078
56.44000 205.043
56.45000 199.350
56.46000 193.755
56.47000 189.328
56.48000 193.032
56.49000 198.295
56.50000 202.698
56.51000 200.372
56.52000 197.752
56.53000 195.681
56.54000 195.320
56.55000 195.081
56.56000 193.871
56.57000 190.572
56.58000 187.201
56.59000 185.182
56.60000 192.639
56.61000 197.996
56.62000 197.670
56.63000 191.731
56.64000 185.791
56.65000 179.835
56.66000 173.867
56.67000 168.043
56.68000 168.483
56.69000 171.629
56.70000 174.513
56.71000 173.854
56.72000 172.080
56.73000 170.553
56.74000 170.975
56.75000 171.816
56.76000 172.533
56.77000 170.253
56.78000 167.980
56.79000 165.784
56.80000 163.853
56.81000 161.944
56.82000 160.172
56.83000 158.723
56.84000 157.289
56.85000 156.392
56.86000 153.437
56.87000 151.282
56.88000 150.844
56.89000 152.310
56.90000 153.784
56.91000 156.354
56.92000 159.729
56.93000 163.044
56.94000 160.863
56.95000 156.088
56.96000 151.670
56.97000 152.990
56.98000 156.311
56.99000 158.974
57.00000 155.700
57.01000 151.006
57.02000 146.929
57.03000 154.056
57.04000 161.645
57.05000 166.965
57.06000 163.612
57.07000 159.410
57.08000 156.561
57.09000 157.272
57.10000 158.172
57.11000 158.757
57.12000 152.531
57.13000 147.862
57.14000 145.501
57.15000 146.005
57.16000 146.519
57.17000 147.319
57.18000 148.355
57.19000 149.378
57.20000 151.444
57.21000 154.022
57.22000 156.318
57.23000 153.122
57.24000 147.808
57.25000 142.955
57.26000 142.911
57.27000 144.145
57.28000 145.235
57.29000 146.118
57.30000 146.849
57.31000 147.986
57.32000 150.853
57.33000 153.914
57.34000 156.342
57.35000 156.921
57.36000 157.383
57.37000 157.694
57.38000 153.323
57.39000 149.971
57.40000 149.856
57.41000 154.221
57.42000 158.611
57.43000 158.363
57.44000 153.861
57.45000 149.398
57.46000 147.333
57.47000 146.760
57.48000 146.071
57.49000 142.616
57.50000 137.982
57.51000 133.825
57.52000 135.481
57.53000 138.850
57.54000 141.873
57.55000 145.533
57.56000 148.845
57.57000 151.279
57.58000 149.556
57.59000 147.296
57.60000 145.039
57.61000 142.791
57.62000 140.543
57.63000 138.974
57.64000 142.984
57.65000 146.168
57.66000 147.485
57.67000 145.930
57.68000 144.342
57.69000 142.093
57.70000 139.163
57.71000 136.247
57.72000 137.219
57.73000 140.813
57.74000 144.278
57.75000 143.766
57.76000 141.379
57.77000 139.125
57.78000 138.780
57.79000 139.058
57.80000 139.311
57.81000 139.430
57.82000 139.509
57.83000 139.081
57.84000 135.962
57.85000 132.450
57.86000 130.441
57.87000 133.805
57.88000 137.648
57.89000 140.418
57.90000 141.978
57.91000 143.131
57.92000 142.371
57.93000 138.349
57.94000 134.272
57.95000 135.669
57.96000 143.393
57.97000 151.106
57.98000 154.488
57.99000 154.566
58.00000 154.588
58.01000 152.356
58.02000 148.949
58.03000 145.634
58.04000 143.924
58.05000 142.795
58.06000 141.753
58.07000 142.644
58.08000 143.872
58.09000 145.129
58.10000 146.552
58.11000 148.004
58.12000 148.775
58.13000 146.845
58.14000 144.636
58.15000 142.996
58.16000 142.256
58.17000 141.721
58.18000 141.209
58.19000 140.742
58.20000 140.276
58.21000 141.784
58.22000 145.839
58.23000 149.900
58.24000 147.898
58.25000 140.745
58.26000 133.754
58.27000 135.884
58.28000 143.284
58.29000 150.317
58.30000 149.659
58.31000 145.927
58.32000 142.443
58.33000 142.485
58.34000 143.405
58.35000 144.074
58.36000 143.055
58.37000 141.721
58.38000 141.249
58.39000 144.584
58.40000 148.370
58.41000 151.259
58.42000 147.393
58.43000 143.983
58.44000 141.235
58.45000 139.870
58.46000 138.549
58.47000 138.883
58.48000 141.597
58.49000 144.330
58.50000 143.867
58.51000 140.352
58.52000 136.867
58.53000 135.941
58.54000 136.655
58.55000 137.337
58.56000 137.205
58.57000 136.714
58.58000 136.250
58.59000 137.070
58.60000 138.183
58.61000 139.438
58.62000 141.780
58.63000 144.348
58.64000 146.531
58.65000 146.814
58.66000 146.840
58.67000 146.861
58.68000 144.507
58.69000 142.475
58.70000 140.646
58.71000 139.290
58.72000 137.953
58.73000 140.219
58.74000 148.238
58.75000 156.333
58.76000 160.525
58.77000 151.020
58.78000 144.611
58.79000 139.062
58.80000 134.125
58.81000 129.350
58.82000 130.062
58.83000 133.455
58.84000 136.689
58.85000 137.973
58.86000 138.551
58.87000 139.187
58.88000 140.326
58.89000 141.583
58.90000 142.960
58.91000 145.004
58.92000 147.151
58.93000 148.873
58.94000 145.519
58.95000 142.418
58.96000 140.127
58.97000 139.909
58.98000 139.794
58.99000 139.022
59.00000 137.088
59.01000 135.131
59.02000 134.061
59.03000 133.222
59.04000 132.649
59.05000 132.839
59.06000 133.633
59.07000 134.438
59.08000 135.701
59.09000 137.212
59.10000 138.665
59.11000 141.230
59.12000 144.026
59.13000 146.312
59.14000 143.500
59.15000 139.374
59.16000 135.424
59.17000 132.576
59.18000 129.917
59.19000 127.736
59.20000 128.845
59.21000 130.049
59.22000 130.966
59.23000 131.074
59.24000 131.133
59.25000 132.872
59.26000 137.903
59.27000 143.020
59.28000 145.959
59.29000 143.264
59.30000 141.360
59.31000 140.140
59.32000 139.528
59.33000 138.914
59.34000 138.140
59.35000 137.270
59.36000 136.427
59.37000 137.312
59.38000 138.830
59.39000 140.091
59.40000 138.354
59.41000 135.760
59.42000 133.379
59.43000 132.502
59.44000 131.916
59.45000 131.425
59.46000 131.059
59.47000 130.768
59.48000 130.582
59.49000 130.725
59.50000 130.892
59.51000 131.713
59.52000 133.949
59.53000 136.234
59.54000 137.607
59.55000 134.361
59.56000 132.021
59.57000 132.105
59.58000 134.603
59.59000 137.090
59.60000 138.562
59.61000 139.358
59.62000 140.135
59.63000 137.974
59.64000 134.618
59.65000 131.542
59.66000 132.313
59.67000 134.305
59.68000 135.930
59.69000 134.635
59.70000 132.709
59.71000 131.064
59.72000 135.221
59.73000 139.415
59.74000 141.959
59.75000 138.784
59.76000 135.121
59.77000 132.295
59.78000 131.476
59.79000 130.745
59.80000 130.286
59.81000 124.010
59.82000 119.412
59.83000 121.020
59.84000 129.569
59.85000 138.096
59.86000 141.690
59.87000 141.633
59.88000 141.577
59.89000 141.676
59.90000 141.848
59.91000 141.777
59.92000 137.769
59.93000 132.378
59.94000 127.534
59.95000 127.694
59.96000 129.060
59.97000 130.248
59.98000 130.880
59.99000 131.344
60.00000 131.863
60.01000 132.597
60.02000 133.352
60.03000 133.797
60.04000 133.417
60.05000 132.993
60.06000 132.716
60.07000 128.937
60.08000 126.108
60.09000 125.026
60.10000 126.131
60.11000 127.246
60.12000 130.072
60.13000 134.309
60.14000 138.494
60.15000 139.937
60.16000 139.842
60.17000 139.712
60.18000 138.864
60.19000 137.738
60.20000 136.486
60.21000 133.913
60.22000 130.985
60.23000 128.395
60.24000 129.121
60.25000 130.263
60.26000 130.968
60.27000 129.805
60.28000 128.428
60.29000 128.954
60.30000 135.056
60.31000 141.518
60.32000 145.890
60.33000 139.453
60.34000 134.422
60.35000 131.875
60.36000 132.789
60.37000 133.727
60.38000 134.920
60.39000 136.347
60.40000 137.762
60.41000 137.014
60.42000 134.957
60.43000 133.056
60.44000 134.988
60.45000 138.565
60.46000 141.806
60.47000 140.915
60.48000 138.795
60.49000 136.892
60.50000 136.456
60.51000 136.332
60.52000 136.424
60.53000 137.548
60.54000 138.805
60.55000 140.251
60.56000 142.310
60.57000 144.415
60.58000 145.888
60.59000 139.099
60.60000 133.731
60.61000 129.811
60.62000 128.137
60.63000 126.488
60.64000 126.750
60.65000 128.998
60.66000 131.234
60.67000 133.196
60.68000 134.947
60.69000 136.615
60.70000 135.701
60.71000 133.560
60.72000 131.466
60.73000 130.054
60.74000 128.866
60.75000 127.784
60.76000 129.277
60.77000 131.112
60.78000 133.042
60.79000 135.483
60.80000 137.999
60.81000 139.099
60.82000 135.099
60.83000 130.640
60.84000 127.419
60.85000 125.113
60.86000 123.378
60.87000 125.343
60.88000 133.669
60.89000 142.105
60.90000 143.859
60.91000 137.830
60.92000 131.804
60.93000 131.615
60.94000 135.891
60.95000 140.067
60.96000 140.130
60.97000 138.030
60.98000 136.091
60.99000 136.959
61.00000 138.848
61.01000 140.592
61.02000 138.671
61.03000 136.126
61.04000 134.721
61.05000 140.150
61.06000 146.718
61.07000 151.134
61.08000 146.939
61.09000 141.848
61.10000 138.059
61.11000 140.112
61.12000 141.971
61.13000 142.686
61.14000 141.224
61.15000 139.710
61.16000 139.324
61.17000 140.405
61.18000 141.492
61.19000 143.014
61.20000 144.905
61.21000 146.740
61.22000 145.244
61.23000 141.810
61.24000 138.487
61.25000 137.525
61.26000 137.513
61.27000 137.502
61.28000 142.021
61.29000 147.264
61.30000 151.193
61.31000 146.223
61.32000 139.587
61.33000 134.954
61.34000 139.244
61.35000 144.600
61.36000 148.696
61.37000 142.881
61.38000 137.756
61.39000 136.729
61.40000 144.337
61.41000 152.221
61.42000 157.099
61.43000 157.620
61.44000 158.105
61.45000 156.521
61.46000 152.944
61.47000 149.432
61.48000 151.656
61.49000 157.583
61.50000 163.716
61.51000 175.356
61.52000 189.447
61.53000 202.757
61.54000 217.826
61.55000 232.154
61.56000 247.043
61.57000 266.250
61.58000 286.361
61.59000 304.722
61.60000 314.391
61.61000 322.875
61.62000 329.532
61.63000 344.708
61.64000 357.399
61.65000 368.121
61.66000 374.254
61.67000 380.199
61.68000 382.656
61.69000 379.501
61.70000 376.271
61.71000 374.592
61.72000 365.350
61.73000 359.109
61.74000 353.398
61.75000 348.066
61.76000 342.541
61.77000 330.366
61.78000 314.916
61.79000 300.176
61.80000 277.572
61.81000 254.099
61.82000 231.309
61.83000 214.506
61.84000 199.102
61.85000 184.908
61.86000 177.455
61.87000 171.042
61.88000 165.889
61.89000 157.534
61.90000 150.516
61.91000 144.729
61.92000 142.114
61.93000 139.661
61.94000 139.405
61.95000 143.071
61.96000 146.813
61.97000 148.866
61.98000 146.545
61.99000 144.948
62.00000 145.175
62.01000 146.863
62.02000 148.457
62.03000 145.703
62.04000 140.579
62.05000 135.647
62.06000 136.196
62.07000 138.654
62.08000 140.941
62.09000 141.511
62.10000 141.634
62.11000 141.619
62.12000 140.742
62.13000 139.715
62.14000 138.870
62.15000 137.117
62.16000 135.595
62.17000 133.982
62.18000 132.113
62.19000 130.228
62.20000 131.282
62.21000 138.137
62.22000 145.148
62.23000 149.189
62.24000 147.617
62.25000 146.495
62.26000 145.303
62.27000 144.050
62.28000 142.815
62.29000 142.842
62.30000 143.630
62.31000 144.394
62.32000 145.169
62.33000 145.908
62.34000 146.350
62.35000 143.296
62.36000 139.234
62.37000 136.635
62.38000 144.398
62.39000 154.183
62.40000 162.391
62.41000 161.746
62.42000 160.285
62.43000 158.278
62.44000 154.552
62.45000 150.700
62.46000 147.916
62.47000 147.463
62.48000 147.093
62.49000 146.870
62.50000 140.274
62.51000 135.535
62.52000 135.179
62.53000 139.227
62.54000 143.267
62.55000 146.406
62.56000 148.941
62.57000 151.418
62.58000 148.793
62.59000 144.024
62.60000 139.400
62.61000 136.780
62.62000 134.801
62.63000 133.385
62.64000 136.511
62.65000 140.626
62.66000 144.146
62.67000 146.781
62.68000 148.896
62.69000 149.748
62.70000 146.188
62.71000 142.248
62.72000 139.450
62.73000 139.411
62.74000 139.494
62.75000 139.546
62.76000 143.989
62.77000 147.251
62.78000 149.100
62.79000 149.354
62.80000 149.598
62.81000 148.166
62.82000 145.483
62.83000 142.846
62.84000 143.534
62.85000 145.840
62.86000 147.880
62.87000 145.528
62.88000 141.621
62.89000 138.347
62.90000 140.902
62.91000 144.873
62.92000 148.331
62.93000 147.520
62.94000 146.241
62.95000 145.986
62.96000 149.705
62.97000 153.822
62.98000 155.302
62.99000 149.740
63.00000 143.795
63.01000 139.907
63.02000 150.847
63.03000 159.125
63.04000 161.150
63.05000 155.290
63.06000 149.414
63.07000 148.653
63.08000 152.148
63.09000 155.600
63.10000 154.850
63.11000 151.803
63.12000 148.789
63.13000 146.432
63.14000 144.332
63.15000 142.655
63.16000 145.486
63.17000 149.534
63.18000 153.118
63.19000 150.697
63.20000 147.661
63.21000 145.607
63.22000 147.784
63.23000 150.449
63.24000 152.875
63.25000 154.598
63.26000 156.274
63.27000 157.410
63.28000 155.744
63.29000 154.438
63.30000 154.102
63.31000 155.128
63.32000 156.162
63.33000 155.036
63.34000 151.897
63.35000 148.783
63.36000 145.196
63.37000 141.382
63.38000 137.734
63.39000 138.237
63.40000 140.536
63.41000 142.831
63.42000 145.074
63.43000 147.302
63.44000 149.305
63.45000 151.552
63.46000 153.564
63.47000 155.654
63.48000 158.126
63.49000 160.648
63.50000 163.281
63.51000 166.277
63.52000 169.302
63.53000 171.423
63.54000 167.258
63.55000 163.924
63.56000 160.071
63.57000 155.407
63.58000 150.734
63.59000 148.118
63.60000 147.657
63.61000 147.198
63.62000 150.460
63.63000 156.248
63.64000 161.938
63.65000 164.514
63.66000 165.600
63.67000 166.489
63.68000 164.472
63.69000 161.493
63.70000 158.776
63.71000 152.319
63.72000 145.843
63.73000 141.238
63.74000 146.717
63.75000 153.699
63.76000 159.745
63.77000 162.395
63.78000 164.736
63.79000 166.431
63.80000 161.974
63.81000 158.326
63.82000 156.956
63.83000 159.533
63.84000 162.179
63.85000 161.211
63.86000 155.999
63.87000 150.792
63.88000 148.598
63.89000 148.739
63.90000 148.869
63.91000 148.509
63.92000 147.889
63.93000 147.417
63.94000 149.541
63.95000 152.618
63.96000 155.461
63.97000 159.362
63.98000 163.100
63.99000 165.883
64.00000 162.873
64.01000 158.890
64.02000 156.031
64.03000 157.704
64.04000 159.853
64.05000 161.456
64.06000 162.042
64.07000 162.452
64.08000 162.944
64.09000 163.594
64.10000 164.248
64.11000 164.881
64.12000 165.485
64.13000 166.088
64.14000 164.280
64.15000 160.391
64.16000 156.627
64.17000 160.293
64.18000 168.316
64.19000 176.019
64.20000 176.823
64.21000 174.828
64.22000 172.964
64.23000 173.410
64.24000 174.402
64.25000 175.060
64.26000 173.430
64.27000 171.368
64.28000 169.578
64.29000 169.007
64.30000 168.584
64.31000 168.260
64.32000 170.688
64.33000 172.757
64.34000 174.206
64.35000 174.339
64.36000 174.430
64.37000 174.425
64.38000 174.279
64.39000 174.132
64.40000 175.357
64.41000 177.914
64.42000 180.417
64.43000 178.067
64.44000 172.560
64.45000 167.303
64.46000 168.835
64.47000 173.411
64.48000 177.737
64.49000 180.450
64.50000 182.481
64.51000 183.771
64.52000 179.308
64.53000 173.630
64.54000 169.010
64.55000 169.686
64.56000 171.091
64.57000 172.196
64.58000 173.963
64.59000 175.421
64.60000 176.220
64.61000 175.471
64.62000 174.657
64.63000 174.583
64.64000 175.707
64.65000 176.847
64.66000 177.442
64.67000 177.502
64.68000 177.551
64.69000 178.967
64.70000 181.371
64.71000 183.758
64.72000 185.548
64.73000 187.042
64.74000 188.468
64.75000 187.132
64.76000 185.009
64.77000 183.083
64.78000 182.912
64.79000 183.153
64.80000 183.717
64.81000 186.087
64.82000 188.737
64.83000 190.871
64.84000 192.852
64.85000 194.446
64.86000 195.048
64.87000 193.072
64.88000 190.963
64.89000 189.785
64.90000 190.278
64.91000 190.804
64.92000 191.094
64.93000 193.471
64.94000 195.119
64.95000 199.096
64.96000 204.951
64.97000 210.637
64.98000 208.317
64.99000 201.602
65.00000 195.134
65.01000 198.823
65.02000 205.915
65.03000 212.645
65.04000 215.676
65.05000 217.738
65.06000 219.754
65.07000 221.477
65.08000 223.148
65.09000 224.523
65.10000 230.178
65.11000 235.218
65.12000 238.245
65.13000 235.497
65.14000 232.390
65.15000 230.567
65.16000 231.300
65.17000 232.103
65.18000 232.568
65.19000 244.103
65.20000 252.232
65.21000 259.040
65.22000 264.656
65.23000 270.250
65.24000 274.285
65.25000 277.371
65.26000 280.368
65.27000 287.325
65.28000 295.506
65.29000 303.677
65.30000 311.717
65.31000 319.719
65.32000 326.519
65.33000 324.731
65.34000 321.253
65.35000 318.332
65.36000 328.567
65.37000 338.482
65.38000 346.508
65.39000 348.531
65.40000 350.110
65.41000 355.249
65.42000 368.220
65.43000 381.471
65.44000 389.487
65.45000 396.030
65.46000 400.682
65.47000 404.710
65.48000 408.107
65.49000 411.499
65.50000 414.445
65.51000 417.090
65.52000 419.675
65.53000 426.078
65.54000 433.914
65.55000 441.328
65.56000 442.823
65.57000 442.412
65.58000 442.900
65.59000 450.706
65.60000 460.119
65.61000 468.180
65.62000 483.697
65.63000 497.697
65.64000 513.227
65.65000 534.139
65.66000 555.520
65.67000 585.562
65.68000 636.667
65.69000 688.719
65.70000 721.553
65.71000 795.410
65.72000 849.366
65.73000 913.225
65.74000 988.347
65.75000 1063.502
65.76000 1142.960
65.77000 1225.652
65.78000 1306.963
65.79000 1365.329
65.80000 1410.370
65.81000 1455.129
65.82000 1495.175
65.83000 1533.542
65.84000 1570.327
65.85000 1592.372
65.86000 1610.811
65.87000 1626.887
65.88000 1607.705
65.89000 1586.409
65.90000 1563.480
65.91000 1534.169
65.92000 1504.214
65.93000 1462.431
65.94000 1388.842
65.95000 1313.498
65.96000 1264.087
65.97000 1148.635
65.98000 1062.631
65.99000 973.044
66.00000 878.904
66.01000 784.773
66.02000 704.046
66.03000 634.561
66.04000 565.892
66.05000 522.750
66.06000 494.844
66.07000 467.346
66.08000 448.166
66.09000 432.263
66.10000 416.435
66.11000 401.415
66.12000 386.613
66.13000 373.493
66.14000 371.355
66.15000 371.242
66.16000 370.661
66.17000 368.047
66.18000 365.198
66.19000 364.264
66.20000 369.029
66.21000 374.173
66.22000 377.670
66.23000 387.806
66.24000 395.523
66.25000 402.502
66.26000 408.435
66.27000 414.362
66.28000 425.500
66.29000 441.535
66.30000 457.447
66.31000 472.947
66.32000 487.927
66.33000 503.039
66.34000 521.491
66.35000 541.399
66.36000 560.207
66.37000 565.172
66.38000 565.964
66.39000 566.677
66.40000 570.862
66.41000 575.154
66.42000 578.724
66.43000 578.798
66.44000 578.409
66.45000 576.016
66.46000 567.021
66.47000 557.508
66.48000 550.818
66.49000 541.495
66.50000 534.354
66.51000 526.724
66.52000 518.325
66.53000 509.916
66.54000 494.815
66.55000 472.643
66.56000 450.568
66.57000 434.762
66.58000 423.473
66.59000 412.191
66.60000 401.176
66.61000 390.290
66.62000 379.747
66.63000 374.326
66.64000 370.615
66.65000 367.227
66.66000 367.420
66.67000 368.318
66.68000 369.037
66.69000 368.788
66.70000 368.393
66.71000 367.003
66.72000 361.981
66.73000 356.625
66.74000 352.739
66.75000 349.867
66.76000 347.698
66.77000 349.770
66.78000 359.243
66.79000 368.850
66.80000 372.986
66.81000 370.644
66.82000 368.296
66.83000 369.751
66.84000 374.154
66.85000 378.496
66.86000 380.211
66.87000 380.526
66.88000 380.840
66.89000 381.124
66.90000 381.397
66.91000 381.649
66.92000 387.611
66.93000 394.267
66.94000 399.548
66.95000 396.425
66.96000 391.877
66.97000 388.514
66.98000 389.960
66.99000 391.917
67.00000 393.380
67.01000 396.146
67.02000 398.362
67.03000 400.925
67.04000 404.159
67.05000 407.409
67.06000 408.890
67.07000 408.033
67.08000 407.166
67.09000 407.593
67.10000 409.147
67.11000 410.699
67.12000 412.044
67.13000 413.269
67.14000 414.445
67.15000 414.554
67.16000 414.228
67.17000 413.923
67.18000 421.888
67.19000 431.247
67.20000 438.615
67.21000 432.251
67.22000 423.273
67.23000 416.832
67.24000 421.862
67.25000 428.291
67.26000 433.225
67.27000 439.866
67.28000 445.211
67.29000 449.340
67.30000 450.872
67.31000 452.318
67.32000 450.202
67.33000 442.847
67.34000 435.446
67.35000 436.001
67.36000 444.350
67.37000 452.671
67.38000 458.402
67.39000 462.437
67.40000 466.516
67.41000 471.822
67.42000 477.682
67.43000 483.226
67.44000 486.690
67.45000 489.278
67.46000 491.344
67.47000 489.327
67.48000 486.441
67.49000 484.044
67.50000 484.119
67.51000 484.538
67.52000 484.868
67.53000 494.752
67.54000 503.310
67.55000 510.202
67.56000 513.157
67.57000 515.946
67.58000 515.120
67.59000 508.388
67.60000 501.572
67.61000 498.000
67.62000 509.362
67.63000 517.031
67.64000 519.390
67.65000 517.880
67.66000 516.623
67.67000 524.451
67.68000 536.817
67.69000 548.630
67.70000 550.031
67.71000 547.981
67.72000 546.489
67.73000 549.988
67.74000 554.672
67.75000 559.190
67.76000 562.766
67.77000 566.195
67.78000 568.959
67.79000 559.381
67.80000 550.630
67.81000 543.691
67.82000 541.485
67.83000 539.526
67.84000 542.811
67.85000 555.588
67.86000 568.560
67.87000 575.728
67.88000 586.628
67.89000 594.152
67.90000 600.901
67.91000 607.021
67.92000 613.101
67.93000 617.273
67.94000 620.389
67.95000 623.391
67.96000 627.788
67.97000 632.421
67.98000 636.514
67.99000 635.032
68.00000 632.079
68.01000 629.794
68.02000 631.764
68.03000 634.486
68.04000 636.729
68.05000 639.252
68.06000 641.354
68.07000 644.733
68.08000 651.801
68.09000 659.101
68.10000 667.130
68.11000 676.618
68.12000 686.146
68.13000 691.674
68.14000 693.745
68.15000 695.183
68.16000 694.713
68.17000 692.508
68.18000 690.391
68.19000 694.483
68.20000 702.381
68.21000 710.053
68.22000 716.719
68.23000 722.645
68.24000 728.400
68.25000 732.091
68.26000 735.178
68.27000 738.700
68.28000 745.356
68.29000 752.633
68.30000 758.755
68.31000 776.466
68.32000 792.471
68.33000 804.952
68.34000 806.159
68.35000 806.520
68.36000 809.837
68.37000 819.699
68.38000 829.800
68.39000 835.929
68.40000 845.158
68.41000 851.767
68.42000 861.301
68.43000 873.823
68.44000 886.361
68.45000 900.641
68.46000 916.105
68.47000 931.227
68.48000 959.131
68.49000 991.629
68.50000 1022.777
68.51000 1034.792
68.52000 1040.603
68.53000 1048.424
68.54000 1072.757
68.55000 1100.745
68.56000 1124.747
68.57000 1167.312
68.58000 1205.545
68.59000 1245.953
68.60000 1294.074
68.61000 1342.875
68.62000 1398.482
68.63000 1470.767
68.64000 1543.813
68.65000 1590.023
68.66000 1718.317
68.67000 1812.298
68.68000 1891.836
68.69000 1954.817
68.70000 2017.810
68.71000 2087.231
68.72000 2161.522
68.73000 2234.601
68.74000 2336.506
68.75000 2449.587
68.76000 2561.963
68.77000 2662.395
68.78000 2758.538
68.79000 2859.394
68.80000 3004.609
68.81000 3160.758
68.82000 3297.066
68.83000 3535.562
68.84000 3753.959
68.85000 4004.048
68.86000 4378.958
68.87000 4766.611
68.88000 5274.719
68.89000 6109.135
68.90000 6961.811
68.91000 7522.488
68.92000 10167.358
68.93000 12150.054
68.94000 15153.366
68.95000 19464.070
68.96000 23781.920
68.97000 29420.885
68.98000 36176.813
68.99000 42855.668
69.00000 50103.031
69.01000 57495.414
69.02000 64825.664
69.03000 70873.047
69.04000 76411.188
69.05000 81740.578
69.06000 84796.391
69.07000 87229.539
69.08000 89388.750
69.09000 90451.805
69.10000 91197.930
69.11000 91964.266
69.12000 92819.188
69.13000 93684.508
69.14000 94587.055
69.15000 95601.164
69.16000 96622.781
69.17000 97319.125
69.18000 96336.797
69.19000 95563.922
69.20000 93684.297
69.21000 90225.594
69.22000 86754.805
69.23000 82592.836
69.24000 77776.016
69.25000 72994.727
69.26000 68528.445
69.27000 64332.848
69.28000 60171.883
69.29000 56902.512
69.30000 54024.461
69.31000 51241.801
69.32000 49673.738
69.33000 48474.563
69.34000 47394.074
69.35000 45817.617
69.36000 44344.773
69.37000 42726.145
69.38000 40394.387
69.39000 37967.176
69.40000 35283.492
69.41000 31748.443
69.42000 28145.672
69.43000 25606.473
69.44000 21213.057
69.45000 17825.461
69.46000 14783.479
69.47000 12289.315
69.48000 9802.052
69.49000 7890.127
69.50000 6591.040
69.51000 5297.583
69.52000 4420.488
69.53000 3843.557
69.54000 3273.210
69.55000 2920.793
69.56000 2674.155
69.57000 2433.001
69.58000 2274.561
69.59000 2143.940
69.60000 2024.584
69.61000 1916.210
69.62000 1822.203
69.63000 1732.712
69.64000 1667.962
69.65000 1606.965
69.66000 1548.675
69.67000 1500.350
69.68000 1452.950
69.69000 1418.487
69.70000 1377.768
69.71000 1346.204
69.72000 1311.782
69.73000 1272.338
69.74000 1232.800
69.75000 1198.728
69.76000 1171.176
69.77000 1143.690
69.78000 1120.292
69.79000 1100.212
69.80000 1080.159
69.81000 1061.347
69.82000 1043.201
69.83000 1025.222
69.84000 1010.288
69.85000 996.486
69.86000 983.711
69.87000 968.349
69.88000 953.946
69.89000 939.959
69.90000 928.528
69.91000 917.535
69.92000 905.268
69.93000 887.790
69.94000 869.753
69.95000 856.251
69.96000 838.773
69.97000 824.950
69.98000 818.167
69.99000 825.085
70.00000 832.357
