20.00000 580.476
20.01000 575.635
20.02000 570.102
20.03000 565.602
20.04000 565.232
20.05000 565.292
20.06000 565.336
20.07000 572.730
20.08000 578.810
20.09000 584.745
20.10000 590.403
20.11000 596.055
20.12000 592.654
20.13000 577.481
20.14000 562.270
20.15000 559.224
20.16000 566.608
20.17000 573.982
20.18000 580.726
20.19000 587.103
20.20000 592.860
20.21000 585.436
20.22000 572.706
20.23000 560.813
20.24000 563.571
20.25000 569.766
20.26000 574.849
20.27000 572.396
20.28000 568.531
20.29000 563.963
20.30000 556.260
20.31000 548.182
20.32000 542.005
20.33000 542.935
20.34000 544.054
20.35000 545.689
20.36000 548.409
20.37000 551.163
20.38000 555.067
20.39000 560.636
20.40000 566.218
20.41000 567.508
20.42000 564.668
20.43000 561.865
20.44000 562.425
20.45000 565.156
20.46000 567.822
20.47000 568.772
20.48000 568.959
20.49000 569.136
20.50000 569.113
20.51000 569.035
20.52000 568.445
20.53000 563.928
20.54000 558.587
20.55000 554.129
20.56000 554.055
20.57000 554.577
20.58000 554.987
20.59000 560.411
20.60000 565.074
20.61000 568.247
20.62000 567.950
20.63000 567.511
20.64000 566.648
20.65000 565.104
20.66000 563.550
20.67000 562.742
20.68000 578.325
20.69000 588.775
20.70000 587.362
20.71000 577.438
20.72000 567.733
20.73000 565.566
20.74000 567.108
20.75000 568.580
20.76000 566.479
20.77000 563.397
20.78000 561.185
20.79000 566.608
20.80000 573.814
20.81000 579.445
20.82000 576.311
20.83000 571.824
20.84000 568.219
20.85000 572.074
20.86000 575.772
20.87000 575.926
20.88000 566.954
20.89000 557.520
20.90000 551.542
20.91000 551.727
20.92000 552.032
20.93000 552.199
20.94000 542.858
20.95000 536.441
20.96000 537.552
20.97000 544.683
20.98000 551.712
20.99000 553.964
21.00000 553.615
21.01000 553.278
21.02000 554.384
21.03000 555.932
21.04000 557.181
21.05000 555.405
21.06000 552.843
21.07000 551.597
21.08000 558.592
21.09000 567.021
21.10000 573.946
21.11000 570.646
21.12000 567.015
21.13000 562.452
21.14000 555.233
21.15000 547.851
21.16000 545.757
21.17000 554.100
21.18000 562.722
21.19000 567.690
21.20000 577.677
21.21000 584.682
21.22000 584.015
21.23000 576.490
21.24000 568.928
21.25000 558.952
21.26000 547.517
21.27000 536.423
21.28000 533.410
21.29000 533.750
21.30000 534.630
21.31000 541.859
21.32000 550.919
21.33000 558.434
21.34000 555.012
21.35000 549.457
21.36000 544.797
21.37000 541.794
21.38000 539.468
21.39000 538.282
21.40000 540.691
21.41000 543.363
21.42000 548.912
21.43000 560.739
21.44000 572.786
21.45000 580.050
21.46000 571.075
21.47000 564.573
21.48000 560.597
21.49000 559.158
21.50000 557.704
21.51000 554.722
21.52000 550.716
21.53000 546.802
21.54000 547.668
21.55000 550.610
21.56000 553.666
21.57000 558.297
21.58000 563.430
21.59000 567.362
21.60000 561.617
21.61000 553.765
21.62000 547.048
21.63000 554.743
21.64000 562.963
21.65000 567.991
21.66000 561.870
21.67000 554.790
21.68000 549.828
21.69000 549.979
21.70000 550.356
21.71000 550.593
21.72000 559.062
21.73000 565.281
21.74000 564.333
21.75000 555.307
21.76000 546.298
21.77000 541.858
21.78000 540.825
21.79000 539.810
21.80000 541.677
21.81000 544.903
21.82000 548.301
21.83000 554.527
21.84000 561.754
21.85000 568.760
21.86000 573.725
21.87000 578.195
21.88000 582.087
21.89000 573.207
21.90000 563.866
21.91000 556.272
21.92000 555.451
21.93000 555.307
21.94000 554.578
21.95000 552.287
21.96000 549.911
21.97000 548.357
21.98000 541.487
21.99000 536.355
22.00000 539.814
22.01000 554.103
22.02000 568.399
22.03000 568.582
22.04000 557.027
22.05000 545.611
22.06000 544.614
22.07000 549.381
22.08000 553.892
22.09000 553.262
22.10000 550.622
22.11000 548.198
22.12000 548.074
22.13000 548.570
22.14000 549.010
22.15000 542.857
22.16000 536.503
22.17000 532.429
22.18000 538.195
22.19000 545.094
22.20000 551.436
22.21000 556.131
22.22000 560.718
22.23000 563.829
22.24000 546.556
22.25000 533.224
22.26000 529.913
22.27000 540.678
22.28000 551.539
22.29000 556.143
22.30000 554.919
22.31000 553.706
22.32000 553.180
22.33000 553.086
22.34000 552.978
22.35000 552.511
22.36000 551.887
22.37000 550.543
22.38000 540.243
22.39000 527.263
22.40000 515.592
22.41000 515.903
22.42000 518.304
22.43000 520.503
22.44000 521.732
22.45000 522.834
22.46000 524.654
22.47000 528.823
22.48000 533.174
22.49000 536.226
22.50000 541.922
22.51000 546.308
22.52000 551.015
22.53000 556.221
22.54000 561.432
22.55000 561.549
22.56000 556.331
22.57000 551.136
22.58000 547.581
22.59000 545.192
22.60000 542.859
22.61000 542.271
22.62000 542.517
22.63000 542.934
22.64000 545.856
22.65000 549.607
22.66000 553.027
22.67000 553.567
22.68000 553.467
22.69000 551.759
22.70000 541.386
22.71000 529.723
22.72000 522.350
22.73000 530.535
22.74000 540.133
22.75000 547.082
22.76000 539.791
22.77000 533.672
22.78000 529.958
22.79000 530.409
22.80000 530.934
22.81000 532.747
22.82000 536.072
22.83000 539.392
22.84000 538.417
22.85000 534.136
22.86000 529.952
22.87000 529.824
22.88000 531.841
22.89000 533.839
22.90000 535.482
22.91000 536.994
22.92000 538.392
22.93000 538.067
22.94000 537.387
22.95000 538.222
22.96000 548.233
22.97000 559.787
22.98000 566.314
22.99000 552.595
23.00000 536.746
23.01000 524.932
23.02000 527.879
23.03000 530.844
23.04000 533.175
23.05000 534.291
23.06000 535.377
23.07000 534.995
23.08000 532.689
23.09000 530.376
23.10000 531.850
23.11000 536.595
23.12000 541.285
23.13000 542.771
23.14000 542.377
23.15000 542.004
23.16000 542.078
23.17000 542.332
23.18000 542.570
23.19000 545.195
23.20000 548.185
23.21000 550.544
23.22000 548.589
23.23000 545.821
23.24000 542.438
23.25000 536.299
23.26000 529.827
23.27000 524.869
23.28000 528.569
23.29000 531.968
23.30000 533.389
23.31000 530.617
23.32000 527.708
23.33000 524.512
23.34000 520.899
23.35000 517.282
23.36000 517.116
23.37000 520.300
23.38000 523.504
23.39000 528.465
23.40000 534.570
23.41000 540.576
23.42000 543.900
23.43000 546.021
23.44000 548.027
23.45000 549.827
23.46000 551.421
23.47000 551.840
23.48000 543.139
23.49000 532.513
23.50000 523.970
23.51000 525.859
23.52000 529.182
23.53000 531.794
23.54000 536.790
23.55000 540.946
23.56000 547.303
23.57000 558.824
23.58000 570.559
23.59000 571.880
23.60000 556.328
23.61000 540.544
23.62000 532.305
23.63000 528.074
23.64000 525.237
23.65000 526.065
23.66000 529.543
23.67000 532.974
23.68000 534.765
23.69000 535.742
23.70000 536.674
23.71000 537.877
23.72000 539.081
23.73000 539.856
23.74000 536.839
23.75000 532.930
23.76000 529.388
23.77000 527.911
23.78000 526.754
23.79000 525.824
23.80000 531.757
23.81000 537.104
23.82000 541.192
23.83000 542.015
23.84000 542.669
23.85000 542.708
23.86000 541.642
23.87000 540.553
23.88000 539.954
23.89000 550.072
23.90000 557.022
23.91000 550.386
23.92000 532.804
23.93000 515.506
23.94000 511.713
23.95000 515.332
23.96000 518.818
23.97000 524.550
23.98000 530.734
23.99000 536.559
24.00000 538.728
24.01000 539.939
24.02000 539.460
24.03000 528.304
24.04000 515.277
24.05000 504.558
24.06000 508.862
24.07000 513.768
24.08000 519.279
24.09000 526.523
24.10000 533.876
24.11000 537.295
24.12000 532.892
24.13000 528.275
24.14000 525.606
24.15000 537.850
24.16000 546.487
24.17000 547.148
24.18000 540.620
24.19000 534.165
24.20000 532.707
24.21000 534.287
24.22000 535.820
24.23000 535.458
24.24000 534.358
24.25000 533.301
24.26000 532.744
24.27000 532.333
24.28000 532.060
24.29000 532.775
24.30000 533.684
24.31000 534.448
24.32000 543.874
24.33000 552.640
24.34000 558.262
24.35000 553.901
24.36000 548.799
24.37000 544.832
24.38000 543.357
24.39000 541.972
24.40000 541.134
24.41000 531.440
24.42000 524.467
24.43000 522.669
24.44000 526.112
24.45000 529.563
24.46000 533.943
24.47000 538.951
24.48000 543.846
24.49000 540.981
24.50000 534.779
24.51000 528.961
24.52000 528.513
24.53000 529.794
24.54000 530.866
24.55000 530.231
24.56000 529.223
24.57000 528.359
24.58000 528.857
24.59000 529.443
24.60000 530.213
24.61000 531.631
24.62000 533.106
24.63000 533.922
24.64000 533.136
24.65000 532.277
24.66000 531.736
24.67000 548.635
24.68000 561.073
24.69000 563.931
24.70000 555.899
24.71000 547.883
24.72000 545.172
24.73000 546.447
24.74000 547.701
24.75000 543.393
24.76000 536.463
24.77000 529.789
24.78000 527.413
24.79000 526.567
24.80000 525.608
24.81000 523.589
24.82000 521.310
24.83000 519.324
24.84000 524.430
24.85000 529.780
24.86000 533.842
24.87000 532.873
24.88000 531.394
24.89000 530.318
24.90000 530.324
24.91000 530.389
24.92000 530.431
24.93000 546.334
24.94000 558.291
24.95000 559.796
24.96000 548.018
24.97000 536.213
24.98000 534.212
24.99000 540.430
25.00000 546.576
25.01000 548.405
25.02000 547.793
25.03000 547.072
25.04000 544.142
25.05000 540.342
25.06000 536.671
25.07000 534.384
25.08000 532.474
25.09000 530.781
25.10000 528.060
25.11000 525.541
25.12000 525.167
25.13000 534.119
25.14000 544.155
25.15000 550.174
25.16000 544.242
25.17000 537.516
25.18000 532.944
25.19000 533.449
25.20000 533.941
25.21000 536.373
25.22000 541.553
25.23000 546.751
25.24000 546.999
25.25000 542.596
25.26000 538.227
25.27000 537.828
25.28000 539.900
25.29000 541.795
25.30000 539.239
25.31000 534.744
25.32000 530.595
25.33000 530.799
25.34000 532.315
25.35000 533.679
25.36000 533.576
25.37000 533.223
25.38000 533.391
25.39000 536.086
25.40000 539.116
25.41000 539.547
25.42000 531.413
25.43000 522.606
25.44000 516.413
25.45000 522.558
25.46000 527.577
25.47000 529.659
25.48000 527.123
25.49000 524.530
25.50000 523.208
25.51000 523.229
25.52000 523.249
25.53000 521.285
25.54000 517.965
25.55000 514.846
25.56000 518.250
25.57000 524.797
25.58000 530.802
25.59000 528.744
25.60000 523.994
25.61000 519.659
25.62000 525.643
25.63000 533.043
25.64000 539.797
25.65000 543.043
25.66000 545.761
25.67000 546.671
25.68000 540.979
25.69000 534.680
25.70000 530.110
25.71000 536.193
25.72000 541.265
25.73000 543.690
25.74000 541.500
25.75000 539.226
25.76000 535.753
25.77000 530.862
25.78000 525.979
25.79000 523.091
25.80000 521.770
25.81000 520.552
25.82000 523.775
25.83000 529.367
25.84000 534.955
25.85000 540.459
25.86000 545.933
25.87000 550.995
25.88000 544.686
25.89000 536.427
25.90000 529.345
25.91000 529.451
25.92000 530.774
25.93000 531.875
25.94000 532.068
25.95000 532.166
25.96000 532.238
25.97000 535.294
25.98000 537.812
25.99000 540.332
26.00000 542.852
26.01000 545.373
26.02000 546.143
26.03000 544.602
26.04000 543.051
26.05000 539.993
26.06000 535.628
26.07000 531.314
26.08000 530.098
26.09000 530.713
26.10000 531.129
26.11000 527.215
26.12000 521.533
26.13000 516.215
26.14000 520.560
26.15000 526.985
26.16000 533.014
26.17000 536.311
26.18000 539.088
26.19000 540.665
26.20000 536.814
26.21000 532.303
26.22000 528.840
26.23000 534.369
26.24000 539.241
26.25000 541.841
26.26000 539.589
26.27000 537.175
26.28000 536.852
26.29000 539.604
26.30000 542.383
26.31000 542.888
26.32000 541.167
26.33000 539.427
26.34000 535.960
26.35000 531.362
26.36000 527.053
26.37000 530.718
26.38000 537.983
26.39000 544.856
26.40000 550.294
26.41000 554.882
26.42000 557.845
26.43000 548.095
26.44000 535.640
26.45000 525.541
26.46000 527.341
26.47000 530.791
26.48000 533.507
26.49000 538.880
26.50000 543.362
26.51000 544.530
26.52000 537.871
26.53000 530.882
26.54000 530.597
26.55000 541.256
26.56000 552.071
26.57000 557.738
26.58000 549.317
26.59000 543.592
26.60000 535.056
26.61000 524.474
26.62000 514.288
26.63000 518.262
26.64000 529.308
26.65000 539.861
26.66000 540.504
26.67000 537.914
26.68000 535.434
26.69000 533.933
26.70000 532.664
26.71000 531.281
26.72000 529.257
26.73000 527.132
26.74000 525.419
26.75000 530.218
26.76000 534.629
26.77000 539.875
26.78000 547.303
26.79000 554.845
26.80000 556.307
26.81000 546.768
26.82000 537.003
26.83000 531.608
26.84000 535.868
26.85000 538.823
26.86000 541.364
26.87000 543.568
26.88000 545.567
26.89000 537.563
26.90000 524.029
26.91000 510.987
26.92000 516.920
26.93000 529.322
26.94000 540.620
26.95000 540.529
26.96000 537.434
26.97000 534.635
26.98000 533.724
26.99000 533.148
27.00000 532.672
27.01000 531.772
27.02000 530.991
27.03000 531.892
27.04000 537.651
27.05000 543.717
27.06000 547.781
27.07000 547.839
27.08000 547.785
27.09000 547.754
27.10000 543.567
27.11000 540.612
27.12000 539.076
27.13000 538.828
27.14000 538.581
27.15000 538.412
27.16000 538.290
27.17000 538.171
27.18000 550.854
27.19000 568.043
27.20000 583.721
27.21000 581.244
27.22000 573.455
27.23000 566.332
27.24000 564.012
27.25000 562.644
27.26000 561.493
27.27000 568.970
27.28000 576.125
27.29000 579.367
27.30000 570.096
27.31000 559.886
27.32000 553.489
27.33000 555.539
27.34000 557.897
27.35000 559.327
27.36000 556.962
27.37000 555.246
27.38000 557.592
27.39000 564.089
27.40000 570.500
27.41000 567.276
27.42000 557.498
27.43000 547.937
27.44000 550.943
27.45000 559.466
27.46000 566.869
27.47000 558.416
27.48000 544.821
27.49000 533.777
27.50000 543.655
27.51000 558.163
27.52000 570.604
27.53000 566.096
27.54000 560.210
27.55000 555.549
27.56000 555.237
27.57000 555.307
27.58000 555.618
27.59000 556.519
27.60000 557.447
27.61000 558.034
27.62000 562.553
27.63000 565.876
27.64000 568.944
27.65000 571.720
27.66000 574.457
27.67000 568.954
27.68000 557.212
27.69000 545.662
27.70000 547.424
27.71000 555.802
27.72000 563.827
27.73000 565.885
27.74000 565.803
27.75000 565.980
27.76000 568.596
27.77000 571.815
27.78000 574.624
27.79000 564.543
27.80000 554.111
27.81000 546.832
27.82000 551.966
27.83000 558.367
27.84000 561.182
27.85000 554.289
27.86000 546.853
27.87000 541.963
27.88000 557.401
27.89000 569.113
27.90000 570.311
27.91000 558.047
27.92000 545.750
27.93000 542.926
27.94000 548.108
27.95000 553.230
27.96000 557.925
27.97000 562.268
27.98000 566.583
27.99000 570.308
28.00000 573.799
28.01000 576.705
28.02000 573.246
28.03000 568.044
28.04000 563.427
28.05000 567.479
28.06000 572.374
28.07000 575.261
28.08000 569.357
28.09000 562.421
28.10000 556.474
28.11000 553.488
28.12000 550.702
28.13000 548.803
28.14000 548.497
28.15000 548.306
28.16000 548.257
28.17000 548.411
28.18000 548.568
28.19000 548.863
28.20000 549.291
28.21000 549.715
28.22000 551.085
28.23000 553.025
28.24000 555.041
28.25000 559.043
28.26000 563.916
28.27000 568.527
28.28000 569.812
28.29000 570.088
28.30000 570.337
28.31000 565.378
28.32000 560.085
28.33000 557.345
28.34000 567.081
28.35000 578.486
28.36000 585.161
28.37000 576.141
28.38000 565.873
28.39000 558.637
28.40000 563.897
28.41000 568.261
28.42000 571.051
28.43000 571.347
28.44000 571.612
28.45000 570.441
28.46000 567.743
28.47000 565.056
28.48000 567.266
28.49000 572.878
28.50000 578.461
28.51000 583.075
28.52000 587.219
28.53000 590.658
28.54000 583.477
28.55000 572.726
28.56000 562.902
28.57000 560.422
28.58000 559.719
28.59000 560.769
28.60000 571.419
28.61000 583.523
28.62000 590.104
28.63000 576.358
28.64000 560.724
28.65000 549.357
28.66000 557.368
28.67000 564.265
28.68000 569.814
28.69000 572.995
28.70000 576.131
28.71000 578.310
28.72000 579.345
28.73000 580.376
28.74000 578.833
28.75000 575.282
28.76000 571.882
28.77000 575.164
28.78000 582.033
28.79000 588.640
28.80000 590.483
28.81000 590.553
28.82000 590.618
28.83000 584.398
28.84000 577.362
28.85000 571.836
28.86000 575.614
28.87000 580.983
28.88000 584.924
28.89000 583.031
28.90000 580.511
28.91000 578.625
28.92000 586.644
28.93000 593.363
28.94000 594.581
28.95000 585.095
28.96000 575.334
28.97000 575.276
28.98000 588.134
28.99000 601.049
29.00000 607.917
29.01000 609.462
29.02000 610.958
29.03000 609.322
29.04000 605.824
29.05000 602.223
29.06000 596.354
29.07000 589.551
29.08000 583.180
29.09000 586.013
29.10000 590.967
29.11000 595.880
29.12000 600.508
29.13000 605.082
29.14000 608.951
29.15000 609.611
29.16000 609.875
29.17000 610.079
29.18000 600.588
29.19000 592.531
29.20000 587.793
29.21000 590.199
29.22000 592.847
29.23000 596.737
29.24000 602.466
29.25000 608.211
29.26000 611.835
29.27000 613.362
29.28000 614.787
29.29000 606.321
29.30000 591.326
29.31000 576.746
29.32000 573.797
29.33000 576.136
29.34000 578.351
29.35000 587.355
29.36000 597.606
29.37000 606.819
29.38000 607.826
29.39000 607.073
29.40000 606.176
29.41000 604.544
29.42000 602.809
29.43000 601.440
29.44000 608.675
29.45000 615.058
29.46000 618.496
29.47000 614.925
29.48000 611.054
29.49000 607.765
29.50000 605.435
29.51000 603.119
29.52000 601.901
29.53000 603.050
29.54000 603.851
29.55000 608.062
29.56000 614.778
29.57000 621.085
29.58000 612.449
29.59000 596.295
29.60000 580.854
29.61000 588.814
29.62000 603.810
29.63000 617.481
29.64000 619.174
29.65000 618.004
29.66000 615.871
29.67000 608.238
29.68000 599.733
29.69000 592.866
29.70000 604.763
29.71000 615.928
29.72000 624.561
29.73000 626.534
29.74000 628.154
29.75000 627.164
29.76000 621.416
29.77000 615.568
29.78000 612.326
29.79000 602.107
29.80000 595.064
29.81000 599.262
29.82000 612.663
29.83000 625.749
29.84000 623.112
29.85000 611.718
29.86000 600.732
29.87000 605.300
29.88000 615.236
29.89000 624.286
29.90000 624.095
29.91000 621.449
29.92000 618.993
29.93000 617.758
29.94000 616.740
29.95000 615.900
29.96000 610.517
29.97000 605.661
29.98000 602.472
29.99000 604.138
30.00000 606.115
30.01000 608.541
30.02000 611.872
30.03000 615.230
30.04000 617.184
30.05000 634.115
30.06000 646.074
30.07000 650.314
30.08000 647.482
30.09000 644.584
30.10000 636.848
30.11000 626.126
30.12000 615.708
30.13000 615.456
30.14000 619.337
30.15000 623.435
30.16000 630.192
30.17000 637.732
30.18000 643.239
30.19000 633.958
30.20000 621.724
30.21000 611.417
30.22000 622.842
30.23000 634.717
30.24000 642.563
30.25000 637.427
30.26000 631.306
30.27000 625.080
30.28000 618.619
30.29000 612.151
30.30000 608.214
30.31000 627.775
30.32000 641.932
30.33000 643.791
30.34000 632.983
30.35000 622.262
30.36000 621.863
30.37000 628.539
30.38000 635.071
30.39000 634.847
30.40000 631.575
30.41000 628.565
30.42000 629.296
30.43000 631.249
30.44000 633.530
30.45000 638.538
30.46000 644.154
30.47000 648.977
30.48000 642.860
30.49000 636.333
30.50000 631.241
30.51000 631.271
30.52000 631.756
30.53000 632.201
30.54000 632.546
30.55000 632.887
30.56000 633.103
30.57000 634.191
30.58000 634.991
30.59000 635.953
30.60000 637.101
30.61000 638.270
30.62000 644.139
30.63000 653.594
30.64000 662.898
30.65000 657.918
30.66000 645.878
30.67000 634.375
30.68000 632.093
30.69000 633.142
30.70000 634.512
30.71000 638.930
30.72000 644.104
30.73000 648.627
30.74000 647.674
30.75000 646.084
30.76000 645.600
30.77000 649.506
30.78000 653.866
30.79000 657.490
30.80000 659.112
30.81000 660.620
30.82000 661.614
30.83000 664.096
30.84000 665.951
30.85000 667.103
30.86000 667.347
30.87000 667.583
30.88000 665.280
30.89000 660.814
30.90000 656.399
30.91000 657.017
30.92000 660.462
30.93000 663.644
30.94000 661.352
30.95000 656.872
30.96000 652.831
30.97000 653.629
30.98000 655.762
30.99000 657.657
31.00000 662.269
31.01000 666.706
31.02000 669.819
31.03000 667.087
31.04000 663.663
31.05000 662.175
31.06000 666.531
31.07000 671.285
31.08000 674.534
31.09000 666.908
31.10000 660.948
31.11000 660.411
31.12000 667.667
31.13000 674.985
31.14000 675.468
31.15000 669.424
31.16000 663.423
31.17000 660.894
31.18000 660.593
31.19000 660.493
31.20000 665.621
31.21000 673.061
31.22000 679.717
31.23000 676.290
31.24000 669.779
31.25000 663.907
31.26000 664.697
31.27000 666.607
31.28000 668.244
31.29000 668.536
31.30000 668.646
31.31000 668.162
31.32000 665.690
31.33000 663.059
31.34000 661.201
31.35000 662.555
31.36000 663.682
31.37000 667.443
31.38000 675.412
31.39000 683.435
31.40000 685.222
31.41000 680.313
31.42000 675.422
31.43000 680.003
31.44000 691.219
31.45000 702.186
31.46000 704.746
31.47000 703.198
31.48000 701.192
31.49000 692.197
31.50000 680.836
31.51000 670.445
31.52000 678.913
31.53000 690.327
31.54000 699.910
31.55000 699.382
31.56000 697.307
31.57000 694.023
31.58000 686.254
31.59000 678.065
31.60000 672.098
31.61000 668.133
31.62000 665.157
31.63000 665.664
31.64000 672.336
31.65000 679.127
31.66000 684.540
31.67000 688.297
31.68000 692.043
31.69000 692.855
31.70000 691.344
31.71000 689.896
31.72000 691.275
31.73000 694.183
31.74000 697.002
31.75000 698.181
31.76000 698.746
31.77000 699.269
31.78000 699.531
31.79000 699.706
31.80000 700.656
31.81000 706.417
31.82000 713.007
31.83000 717.270
31.84000 711.943
31.85000 705.577
31.86000 700.802
31.87000 704.511
31.88000 707.809
31.89000 710.442
31.90000 711.772
31.91000 713.068
31.92000 711.115
31.93000 704.804
31.94000 698.473
31.95000 693.507
31.96000 689.756
31.97000 686.153
31.98000 692.025
31.99000 703.575
32.00000 714.706
32.01000 716.346
32.02000 714.053
32.03000 711.904
32.04000 714.962
32.05000 719.102
32.06000 722.873
32.07000 724.056
32.08000 724.738
32.09000 724.913
32.10000 722.755
32.11000 720.308
32.12000 718.422
32.13000 718.287
32.14000 718.281
32.15000 717.312
32.16000 714.257
32.17000 711.130
32.18000 713.045
32.19000 722.485
32.20000 731.997
32.21000 738.017
32.22000 740.558
32.23000 742.955
32.24000 730.710
32.25000 708.729
32.26000 687.653
32.27000 692.415
32.28000 709.014
32.29000 724.739
32.30000 728.245
32.31000 727.905
32.32000 727.908
32.33000 730.650
32.34000 733.984
32.35000 737.093
32.36000 739.045
32.37000 740.833
32.38000 742.246
32.39000 735.700
32.40000 729.902
32.41000 727.915
32.42000 735.065
32.43000 742.613
32.44000 745.679
32.45000 741.317
32.46000 736.844
32.47000 734.481
32.48000 740.342
32.49000 744.367
32.50000 755.867
32.51000 772.896
32.52000 789.443
32.53000 787.981
32.54000 777.394
32.55000 767.268
32.56000 765.761
32.57000 767.176
32.58000 767.662
32.59000 759.672
32.60000 749.641
32.61000 741.943
32.62000 747.679
32.63000 755.560
32.64000 761.935
32.65000 751.812
32.66000 742.247
32.67000 738.278
32.68000 749.138
32.69000 760.793
32.70000 769.292
32.71000 771.997
32.72000 774.576
32.73000 776.012
32.74000 767.136
32.75000 760.994
32.76000 761.979
32.77000 768.846
32.78000 775.538
32.79000 773.281
32.80000 766.005
32.81000 758.984
32.82000 755.148
32.83000 752.702
32.84000 750.919
32.85000 756.132
32.86000 763.217
32.87000 770.173
32.88000 776.293
32.89000 782.262
32.90000 787.197
32.91000 772.823
32.92000 759.157
32.93000 751.250
32.94000 760.227
32.95000 770.296
32.96000 776.096
32.97000 773.222
32.98000 770.097
32.99000 768.272
33.00000 781.080
33.01000 790.157
33.02000 797.917
33.03000 804.459
33.04000 810.899
33.05000 809.748
33.06000 803.877
33.07000 798.168
33.08000 798.583
33.09000 801.478
33.10000 803.431
33.11000 793.801
33.12000 780.731
33.13000 769.844
33.14000 774.989
33.15000 783.360
33.16000 790.423
33.17000 786.239
33.18000 781.520
33.19000 777.880
33.20000 777.742
33.21000 777.872
33.22000 779.327
33.23000 783.757
33.24000 788.300
33.25000 791.073
33.26000 786.876
33.27000 783.818
33.28000 785.028
33.29000 790.671
33.30000 796.296
33.31000 799.691
33.32000 801.548
33.33000 803.364
33.34000 802.586
33.35000 800.654
33.36000 799.461
33.37000 808.992
33.38000 822.050
33.39000 832.987
33.40000 826.183
33.41000 815.392
33.42000 806.114
33.43000 795.161
33.44000 785.682
33.45000 780.540
33.46000 791.011
33.47000 802.885
33.48000 810.875
33.49000 809.213
33.50000 807.096
33.51000 805.750
33.52000 805.699
33.53000 805.678
33.54000 811.962
33.55000 825.590
33.56000 839.171
33.57000 838.933
33.58000 828.071
33.59000 817.378
33.60000 818.895
33.61000 826.582
33.62000 833.320
33.63000 823.537
33.64000 807.738
33.65000 794.490
33.66000 805.724
33.67000 823.084
33.68000 838.275
33.69000 837.322
33.70000 834.198
33.71000 831.923
33.72000 833.042
33.73000 834.514
33.74000 837.058
33.75000 842.547
33.76000 848.206
33.77000 851.946
33.78000 843.541
33.79000 837.124
33.80000 836.084
33.81000 842.037
33.82000 848.013
33.83000 848.523
33.84000 844.341
33.85000 840.203
33.86000 834.446
33.87000 827.899
33.88000 822.104
33.89000 832.287
33.90000 848.902
33.91000 864.670
33.92000 871.012
33.93000 874.734
33.94000 878.044
33.95000 867.762
33.96000 856.628
33.97000 849.765
33.98000 861.913
33.99000 876.335
34.00000 884.758
34.01000 874.946
34.02000 863.878
34.03000 856.297
34.04000 866.023
34.05000 873.722
34.06000 877.251
34.07000 874.742
34.08000 872.184
34.09000 871.793
34.10000 873.491
34.11000 875.177
34.12000 870.483
34.13000 861.808
34.14000 853.437
34.15000 853.189
34.16000 856.556
34.17000 859.473
34.18000 856.532
34.19000 851.787
34.20000 847.503
34.21000 858.987
34.22000 871.983
34.23000 883.860
34.24000 890.177
34.25000 895.735
34.26000 896.982
34.27000 883.708
34.28000 869.253
34.29000 859.019
34.30000 867.150
34.31000 873.899
34.32000 878.702
34.33000 880.376
34.34000 882.008
34.35000 883.584
34.36000 885.100
34.37000 886.610
34.38000 891.764
34.39000 899.459
34.40000 906.687
34.41000 897.832
34.42000 881.060
34.43000 865.630
34.44000 870.960
34.45000 883.373
34.46000 894.736
34.47000 890.056
34.48000 882.558
34.49000 876.876
34.50000 881.306
34.51000 887.296
34.52000 893.558
34.53000 900.833
34.54000 908.205
34.55000 913.587
34.56000 915.615
34.57000 917.047
34.58000 917.869
34.59000 917.604
34.60000 917.317
34.61000 913.237
34.62000 904.557
34.63000 895.881
34.64000 891.628
34.65000 890.913
34.66000 890.346
34.67000 896.645
34.68000 906.686
34.69000 916.149
34.70000 914.850
34.71000 909.489
34.72000 904.518
34.73000 907.391
34.74000 911.813
34.75000 916.619
34.76000 923.829
34.77000 931.457
34.78000 936.448
34.79000 930.490
34.80000 923.333
34.81000 917.955
34.82000 925.216
34.83000 931.500
34.84000 935.103
34.85000 933.417
34.86000 931.588
34.87000 932.612
34.88000 937.492
34.89000 942.392
34.90000 942.064
34.91000 937.068
34.92000 932.066
34.93000 926.664
34.94000 921.020
34.95000 915.469
34.96000 912.046
34.97000 909.511
34.98000 907.134
34.99000 907.633
35.00000 908.844
35.01000 911.614
35.02000 925.417
35.03000 941.370
35.04000 954.077
35.05000 951.758
35.06000 947.555
35.07000 944.310
35.08000 945.114
35.09000 945.987
35.10000 948.899
35.11000 956.265
35.12000 963.787
35.13000 966.857
35.14000 963.231
35.15000 959.539
35.16000 957.688
35.17000 957.640
35.18000 957.629
35.19000 959.812
35.20000 963.466
35.21000 966.979
35.22000 966.395
35.23000 963.920
35.24000 961.573
35.25000 964.483
35.26000 968.713
35.27000 972.605
35.28000 973.777
35.29000 974.357
35.30000 975.931
35.31000 982.645
35.32000 990.092
35.33000 995.986
35.34000 996.661
35.35000 996.842
35.36000 995.594
35.37000 990.894
35.38000 986.042
35.39000 983.298
35.40000 984.072
35.41000 984.900
35.42000 985.339
35.43000 974.796
35.44000 967.647
35.45000 965.838
35.46000 968.010
35.47000 970.462
35.48000 983.556
35.49000 1002.083
35.50000 1019.815
35.51000 1007.243
35.52000 985.540
35.53000 965.853
35.54000 964.758
35.55000 968.175
35.56000 972.636
35.57000 983.146
35.58000 994.631
35.59000 1003.936
35.60000 989.787
35.61000 976.354
35.62000 970.309
35.63000 983.983
35.64000 998.730
35.65000 1004.538
35.66000 993.815
35.67000 982.726
35.68000 976.534
35.69000 995.857
35.70000 1009.273
35.71000 1012.963
35.72000 1008.563
35.73000 1004.297
35.74000 1007.041
35.75000 1013.748
35.76000 1020.222
35.77000 1024.429
35.78000 1027.557
35.79000 1030.566
35.80000 1032.309
35.81000 1033.710
35.82000 1034.532
35.83000 1031.565
35.84000 1027.911
35.85000 1024.886
35.86000 1023.425
35.87000 1022.368
35.88000 1023.970
35.89000 1033.426
35.90000 1043.396
35.91000 1049.238
35.92000 1046.634
35.93000 1043.780
35.94000 1042.107
35.95000 1041.546
35.96000 1041.158
35.97000 1044.323
35.98000 1050.799
35.99000 1057.209
36.00000 1058.550
36.01000 1056.716
36.02000 1054.931
36.03000 1051.015
36.04000 1046.411
36.05000 1041.954
36.06000 1039.317
36.07000 1037.224
36.08000 1036.822
36.09000 1048.945
36.10000 1063.609
36.11000 1075.998
36.12000 1075.322
36.13000 1073.321
36.14000 1069.922
36.15000 1061.949
36.16000 1053.621
36.17000 1047.504
36.18000 1046.391
36.19000 1045.469
36.20000 1044.904
36.21000 1046.560
36.22000 1047.764
36.23000 1050.238
36.24000 1054.043
36.25000 1057.846
36.26000 1061.448
36.27000 1064.911
36.28000 1068.302
36.29000 1070.550
36.30000 1072.185
36.31000 1073.541
36.32000 1070.784
36.33000 1066.665
36.34000 1064.009
36.35000 1073.708
36.36000 1086.207
36.37000 1096.966
36.38000 1091.869
36.39000 1085.550
36.40000 1081.564
36.41000 1086.043
36.42000 1091.291
36.43000 1091.823
36.44000 1080.553
36.45000 1068.720
36.46000 1061.171
36.47000 1067.998
36.48000 1073.149
36.49000 1081.924
36.50000 1094.953
36.51000 1107.943
36.52000 1109.436
36.53000 1102.019
36.54000 1094.714
36.55000 1101.603
36.56000 1115.567
36.57000 1128.397
36.58000 1121.209
36.59000 1106.682
36.60000 1094.156
36.61000 1101.042
36.62000 1112.822
36.63000 1123.141
36.64000 1107.417
36.65000 1090.170
36.66000 1079.334
36.67000 1094.324
36.68000 1112.031
36.69000 1125.281
36.70000 1126.195
36.71000 1126.391
36.72000 1126.521
36.73000 1118.083
36.74000 1111.694
36.75000 1111.427
36.76000 1119.182
36.77000 1126.968
36.78000 1130.548
36.79000 1130.487
36.80000 1130.427
36.81000 1132.004
36.82000 1134.486
36.83000 1137.121
36.84000 1143.059
36.85000 1150.336
36.86000 1156.963
36.87000 1156.260
36.88000 1153.505
36.89000 1151.052
36.90000 1155.594
36.91000 1160.686
36.92000 1162.869
36.93000 1151.998
36.94000 1139.552
36.95000 1133.169
36.96000 1145.355
36.97000 1158.836
36.98000 1168.091
36.99000 1158.448
37.00000 1150.757
37.01000 1148.063
37.02000 1152.664
37.03000 1157.327
37.04000 1158.900
37.05000 1157.471
37.06000 1156.051
37.07000 1155.984
37.08000 1156.784
37.09000 1157.292
37.10000 1149.894
37.11000 1138.951
37.12000 1129.736
37.13000 1143.299
37.14000 1163.931
37.15000 1182.578
37.16000 1180.730
37.17000 1175.298
37.18000 1171.852
37.19000 1178.351
37.20000 1186.218
37.21000 1191.162
37.22000 1186.191
37.23000 1180.405
37.24000 1176.298
37.25000 1181.408
37.26000 1185.587
37.27000 1191.807
37.28000 1201.338
37.29000 1210.914
37.30000 1208.352
37.31000 1192.541
37.32000 1176.781
37.33000 1170.561
37.34000 1171.234
37.35000 1172.081
37.36000 1179.098
37.37000 1189.173
37.38000 1198.865
37.39000 1202.539
37.40000 1204.145
37.41000 1205.618
37.42000 1204.117
37.43000 1202.158
37.44000 1202.497
37.45000 1215.732
37.46000 1230.975
37.47000 1242.630
37.48000 1240.786
37.49000 1237.647
37.50000 1235.350
37.51000 1236.350
37.52000 1237.253
37.53000 1238.325
37.54000 1239.703
37.55000 1241.087
37.56000 1240.978
37.57000 1239.046
37.58000 1237.112
37.59000 1233.193
37.60000 1227.694
37.61000 1222.414
37.62000 1227.471
37.63000 1238.202
37.64000 1248.368
37.65000 1247.858
37.66000 1243.290
37.67000 1239.050
37.68000 1230.347
37.69000 1221.450
37.70000 1214.226
37.71000 1217.565
37.72000 1222.756
37.73000 1226.640
37.74000 1225.055
37.75000 1222.865
37.76000 1221.216
37.77000 1238.403
37.78000 1252.771
37.79000 1260.791
37.80000 1256.190
37.81000 1251.243
37.82000 1248.144
37.83000 1247.564
37.84000 1246.998
37.85000 1247.937
37.86000 1250.231
37.87000 1252.404
37.88000 1246.340
37.89000 1235.265
37.90000 1224.970
37.91000 1232.888
37.92000 1248.460
37.93000 1263.078
37.94000 1259.979
37.95000 1252.459
37.96000 1246.159
37.97000 1248.570
37.98000 1252.694
37.99000 1255.053
38.00000 1249.182
38.01000 1242.270
38.02000 1236.924
38.03000 1263.275
38.04000 1286.049
38.05000 1299.351
38.06000 1291.823
38.07000 1283.552
38.08000 1280.495
38.09000 1285.341
38.10000 1290.268
38.11000 1292.747
38.12000 1288.171
38.13000 1285.147
38.14000 1285.743
38.15000 1288.784
38.16000 1291.670
38.17000 1289.964
38.18000 1286.124
38.19000 1282.481
38.20000 1291.477
38.21000 1303.524
38.22000 1314.486
38.23000 1316.623
38.24000 1316.822
38.25000 1316.517
38.26000 1313.589
38.27000 1310.283
38.28000 1307.662
38.29000 1308.457
38.30000 1309.336
38.31000 1308.945
38.32000 1305.466
38.33000 1301.849
38.34000 1303.414
38.35000 1313.693
38.36000 1324.110
38.37000 1329.656
38.38000 1342.594
38.39000 1351.364
38.40000 1351.001
38.41000 1343.777
38.42000 1336.601
38.43000 1331.262
38.44000 1326.869
38.45000 1322.661
38.46000 1334.384
38.47000 1350.609
38.48000 1364.732
38.49000 1359.275
38.50000 1349.029
38.51000 1339.479
38.52000 1334.001
38.53000 1329.185
38.54000 1325.278
38.55000 1322.593
38.56000 1320.505
38.57000 1322.624
38.58000 1336.054
38.59000 1350.109
38.60000 1360.294
38.61000 1363.271
38.62000 1366.085
38.63000 1367.662
38.64000 1357.312
38.65000 1350.112
38.66000 1345.409
38.67000 1342.799
38.68000 1340.261
38.69000 1341.592
38.70000 1345.125
38.71000 1348.538
38.72000 1357.979
38.73000 1369.117
38.74000 1379.447
38.75000 1381.069
38.76000 1380.325
38.77000 1379.810
38.78000 1380.811
38.79000 1382.088
38.80000 1383.147
38.81000 1396.257
38.82000 1408.242
38.83000 1419.367
38.84000 1427.932
38.85000 1436.327
38.86000 1436.278
38.87000 1418.827
38.88000 1400.850
38.89000 1390.283
38.90000 1415.844
38.91000 1434.047
38.92000 1428.418
38.93000 1400.400
38.94000 1372.659
38.95000 1366.944
38.96000 1375.132
38.97000 1383.102
38.98000 1395.832
38.99000 1409.931
39.00000 1422.772
39.01000 1419.801
39.02000 1412.064
39.03000 1404.704
39.04000 1400.162
39.05000 1396.197
39.06000 1392.842
39.07000 1412.754
39.08000 1432.001
39.09000 1446.492
39.10000 1445.317
39.11000 1442.910
39.12000 1440.041
39.13000 1436.118
39.14000 1432.153
39.15000 1429.718
39.16000 1435.330
39.17000 1439.422
39.18000 1438.332
39.19000 1431.769
39.20000 1425.236
39.21000 1422.881
39.22000 1423.455
39.23000 1424.018
39.24000 1428.309
39.25000 1434.164
39.26000 1440.257
39.27000 1449.907
39.28000 1460.744
39.29000 1469.607
39.30000 1461.634
39.31000 1449.818
39.32000 1439.632
39.33000 1442.576
39.34000 1446.746
39.35000 1451.189
39.36000 1456.629
39.37000 1462.161
39.38000 1466.921
39.39000 1469.732
39.40000 1472.449
39.41000 1474.187
39.42000 1460.253
39.43000 1449.900
39.44000 1447.745
39.45000 1455.292
39.46000 1462.841
39.47000 1466.485
39.48000 1467.079
39.49000 1467.664
39.50000 1453.365
39.51000 1431.791
39.52000 1411.565
39.53000 1415.443
39.54000 1428.225
39.55000 1441.816
39.56000 1463.344
39.57000 1486.889
39.58000 1507.540
39.59000 1496.394
39.60000 1482.193
39.61000 1474.661
39.62000 1494.203
39.63000 1516.623
39.64000 1530.707
39.65000 1521.553
39.66000 1511.028
39.67000 1504.034
39.68000 1500.855
39.69000 1498.575
39.70000 1491.609
39.71000 1478.453
39.72000 1465.287
39.73000 1468.240
39.74000 1485.264
39.75000 1502.114
39.76000 1510.307
39.77000 1513.321
39.78000 1516.152
39.79000 1514.966
39.80000 1512.141
39.81000 1509.470
39.82000 1508.561
39.83000 1508.150
39.84000 1507.784
39.85000 1522.540
39.86000 1537.874
39.87000 1550.873
39.88000 1553.317
39.89000 1554.474
39.90000 1555.373
39.91000 1555.479
39.92000 1555.527
39.93000 1555.561
39.94000 1549.604
39.95000 1544.984
39.96000 1539.288
39.97000 1532.009
39.98000 1524.716
39.99000 1523.603
40.00000 1528.540
40.01000 1533.446
40.02000 1529.702
40.03000 1520.429
40.04000 1511.430
40.05000 1510.004
40.06000 1511.997
40.07000 1515.528
40.08000 1539.565
40.09000 1570.013
40.10000 1597.560
40.11000 1593.313
40.12000 1583.617
40.13000 1574.963
40.14000 1571.572
40.15000 1568.912
40.16000 1567.563
40.17000 1570.697
40.18000 1574.204
40.19000 1576.698
40.20000 1582.414
40.21000 1586.870
40.22000 1585.816
40.23000 1575.768
40.24000 1565.591
40.25000 1561.442
40.26000 1563.926
40.27000 1566.405
40.28000 1566.669
40.29000 1565.331
40.30000 1564.124
40.31000 1567.654
40.32000 1573.548
40.33000 1579.120
40.34000 1579.575
40.35000 1578.258
40.36000 1577.051
40.37000 1583.207
40.38000 1590.251
40.39000 1593.888
40.40000 1578.247
40.41000 1559.579
40.42000 1548.882
40.43000 1568.411
40.44000 1590.869
40.45000 1607.337
40.46000 1589.822
40.47000 1574.923
40.48000 1570.302
40.49000 1584.275
40.50000 1598.631
40.51000 1604.471
40.52000 1599.823
40.53000 1595.154
40.54000 1588.136
40.55000 1579.245
40.56000 1570.568
40.57000 1572.378
40.58000 1579.986
40.59000 1587.397
40.60000 1591.059
40.61000 1593.284
40.62000 1595.351
40.63000 1595.836
40.64000 1595.896
40.65000 1597.191
40.66000 1606.351
40.67000 1616.901
40.68000 1628.192
40.69000 1642.607
40.70000 1657.371
40.71000 1668.510
40.72000 1649.014
40.73000 1632.227
40.74000 1620.691
40.75000 1619.668
40.76000 1618.939
40.77000 1622.445
40.78000 1631.765
40.79000 1641.117
40.80000 1643.363
40.81000 1639.153
40.82000 1635.081
40.83000 1640.691
40.84000 1652.234
40.85000 1663.214
40.86000 1660.839
40.87000 1652.811
40.88000 1645.269
40.89000 1649.458
40.90000 1656.413
40.91000 1661.693
40.92000 1654.893
40.93000 1645.699
40.94000 1638.745
40.95000 1642.318
40.96000 1647.237
40.97000 1651.048
40.98000 1662.960
40.99000 1672.903
41.00000 1681.951
41.01000 1689.016
41.02000 1696.009
41.03000 1697.509
41.04000 1690.623
41.05000 1683.647
41.06000 1680.122
41.07000 1670.357
41.08000 1663.885
41.09000 1664.332
41.10000 1669.486
41.11000 1674.557
41.12000 1677.098
41.13000 1678.457
41.14000 1679.746
41.15000 1692.346
41.16000 1707.360
41.17000 1721.250
41.18000 1725.914
41.19000 1728.537
41.20000 1727.767
41.21000 1709.163
41.22000 1687.970
41.23000 1671.139
41.24000 1679.997
41.25000 1688.949
41.26000 1701.883
41.27000 1724.570
41.28000 1747.702
41.29000 1752.680
41.30000 1726.908
41.31000 1700.633
41.32000 1686.594
41.33000 1690.861
41.34000 1693.815
41.35000 1703.168
41.36000 1717.367
41.37000 1731.086
41.38000 1725.804
41.39000 1710.682
41.40000 1696.189
41.41000 1705.492
41.42000 1722.142
41.43000 1735.935
41.44000 1722.826
41.45000 1703.088
41.46000 1688.277
41.47000 1702.542
41.48000 1721.574
41.49000 1737.041
41.50000 1738.543
41.51000 1738.606
41.52000 1732.312
41.53000 1708.802
41.54000 1684.328
41.55000 1674.889
41.56000 1693.662
41.57000 1713.086
41.58000 1724.012
41.59000 1750.568
41.60000 1769.027
41.61000 1780.327
41.62000 1785.574
41.63000 1790.542
41.64000 1780.097
41.65000 1760.813
41.66000 1742.175
41.67000 1744.967
41.68000 1755.623
41.69000 1765.060
41.70000 1761.216
41.71000 1753.737
41.72000 1748.244
41.73000 1755.975
41.74000 1766.141
41.75000 1774.583
41.76000 1757.840
41.77000 1741.553
41.78000 1727.235
41.79000 1718.818
41.80000 1710.797
41.81000 1712.487
41.82000 1734.339
41.83000 1756.813
41.84000 1770.065
41.85000 1770.317
41.86000 1770.424
41.87000 1768.932
41.88000 1765.922
41.89000 1762.932
41.90000 1761.466
41.91000 1760.970
41.92000 1760.486
41.93000 1757.931
41.94000 1754.629
41.95000 1751.950
41.96000 1757.204
41.97000 1764.866
41.98000 1770.833
41.99000 1764.009
42.00000 1754.548
42.01000 1746.533
42.02000 1761.823
42.03000 1777.245
42.04000 1792.764
42.05000 1808.603
42.06000 1824.467
42.07000 1832.903
42.08000 1824.285
42.09000 1814.993
42.10000 1809.268
42.11000 1825.726
42.12000 1837.737
42.13000 1844.320
42.14000 1845.124
42.15000 1845.985
42.16000 1855.047
42.17000 1869.905
42.18000 1884.466
42.19000 1880.677
42.20000 1868.462
42.21000 1857.278
42.22000 1861.622
42.23000 1871.189
42.24000 1878.716
42.25000 1868.690
42.26000 1854.625
42.27000 1842.485
42.28000 1842.731
42.29000 1844.534
42.30000 1845.436
42.31000 1843.019
42.32000 1840.295
42.33000 1838.815
42.34000 1840.496
42.35000 1842.333
42.36000 1843.511
42.37000 1865.621
42.38000 1882.024
42.39000 1888.700
42.40000 1883.772
42.41000 1878.817
42.42000 1872.558
42.43000 1865.273
42.44000 1858.093
42.45000 1850.894
42.46000 1843.895
42.47000 1837.349
42.48000 1839.037
42.49000 1843.787
42.50000 1848.638
42.51000 1854.482
42.52000 1860.580
42.53000 1865.936
42.54000 1885.555
42.55000 1904.514
42.56000 1918.655
42.57000 1913.089
42.58000 1905.407
42.59000 1897.749
42.60000 1890.159
42.61000 1882.573
42.62000 1877.518
42.63000 1868.607
42.64000 1861.938
42.65000 1854.506
42.66000 1846.057
42.67000 1837.604
42.68000 1828.975
42.69000 1820.191
42.70000 1811.494
42.71000 1830.297
42.72000 1864.718
42.73000 1897.849
42.74000 1902.286
42.75000 1894.919
42.76000 1888.823
42.77000 1897.337
42.78000 1910.002
42.79000 1921.304
42.80000 1918.136
42.81000 1912.962
42.82000 1907.081
42.83000 1897.974
42.84000 1888.469
42.85000 1883.629
42.86000 1893.282
42.87000 1903.971
42.88000 1911.346
42.89000 1931.008
42.90000 1946.093
42.91000 1953.908
42.92000 1950.954
42.93000 1947.901
42.94000 1946.480
42.95000 1946.673
42.96000 1946.864
42.97000 1947.981
42.98000 1949.684
42.99000 1950.687
43.00000 1932.036
43.01000 1904.446
43.02000 1879.724
43.03000 1893.734
43.04000 1919.942
43.05000 1943.677
43.06000 1950.239
43.07000 1952.775
43.08000 1954.103
43.09000 1949.288
43.10000 1943.613
43.11000 1937.327
43.12000 1928.935
43.13000 1920.366
43.14000 1914.258
43.15000 1917.465
43.16000 1920.214
43.17000 1925.245
43.18000 1934.028
43.19000 1942.865
43.20000 1955.397
43.21000 1972.025
43.22000 1988.602
43.23000 1989.690
43.24000 1979.490
43.25000 1969.446
43.26000 1965.138
43.27000 1963.715
43.28000 1962.935
43.29000 1972.484
43.30000 1985.635
43.31000 1997.708
43.32000 1996.005
43.33000 1991.549
43.34000 1988.198
43.35000 1991.152
43.36000 1995.105
43.37000 1997.519
43.38000 1994.054
43.39000 1990.013
43.40000 1987.043
43.41000 1994.099
43.42000 1999.966
43.43000 2005.149
43.44000 2009.088
43.45000 2013.000
43.46000 2025.857
43.47000 2049.814
43.48000 2073.771
43.49000 2075.362
43.50000 2058.698
43.51000 2042.390
43.52000 2043.855
43.53000 2055.218
43.54000 2066.004
43.55000 2065.562
43.56000 2060.789
43.57000 2056.352
43.58000 2062.980
43.59000 2071.617
43.60000 2080.964
43.61000 2094.870
43.62000 2109.589
43.63000 2120.596
43.64000 2115.832
43.65000 2109.289
43.66000 2104.343
43.67000 2148.308
43.68000 2185.235
43.69000 2209.127
43.70000 2206.727
43.71000 2203.577
43.72000 2209.259
43.73000 2227.163
43.74000 2245.140
43.75000 2273.812
43.76000 2312.260
43.77000 2350.569
43.78000 2378.735
43.79000 2400.639
43.80000 2422.094
43.81000 2432.692
43.82000 2438.661
43.83000 2444.274
43.84000 2478.733
43.85000 2517.972
43.86000 2557.699
43.87000 2600.974
43.88000 2644.958
43.89000 2690.541
43.90000 2743.697
43.91000 2797.830
43.92000 2839.847
43.93000 2929.484
43.94000 3003.623
43.95000 3077.538
43.96000 3150.954
43.97000 3224.351
43.98000 3309.872
43.99000 3414.043
44.00000 3518.420
44.01000 3571.383
44.02000 3759.882
44.03000 3886.405
44.04000 4040.128
44.05000 4212.498
44.06000 4384.023
44.07000 4529.625
44.08000 4663.005
44.09000 4789.725
44.10000 4968.003
44.11000 5148.242
44.12000 5323.858
44.13000 5461.169
44.14000 5589.936
44.15000 5726.124
44.16000 5901.641
44.17000 6082.916
44.18000 6227.127
44.19000 6368.832
44.20000 6482.852
44.21000 6592.044
44.22000 6689.326
44.23000 6786.056
44.24000 6853.021
44.25000 6869.196
44.26000 6884.517
44.27000 6892.735
44.28000 6861.298
44.29000 6839.777
44.30000 6812.600
44.31000 6781.106
44.32000 6748.236
44.33000 6659.552
44.34000 6541.753
44.35000 6428.786
44.36000 6290.190
44.37000 6152.089
44.38000 6011.881
44.39000 5851.635
44.40000 5686.414
44.41000 5523.070
44.42000 5370.899
44.43000 5220.577
44.44000 5098.210
44.45000 4867.838
44.46000 4670.580
44.47000 4491.693
44.48000 4362.926
44.49000 4237.000
44.50000 4118.167
44.51000 4012.737
44.52000 3907.624
44.53000 3848.295
44.54000 3663.509
44.55000 3534.795
44.56000 3433.101
44.57000 3354.429
44.58000 3275.896
44.59000 3205.211
44.60000 3139.061
44.61000 3075.092
44.62000 2995.979
44.63000 2915.582
44.64000 2837.966
44.65000 2790.953
44.66000 2752.382
44.67000 2712.263
44.68000 2661.757
44.69000 2609.321
44.70000 2565.714
44.71000 2541.303
44.72000 2522.982
44.73000 2499.269
44.74000 2459.285
44.75000 2418.193
44.76000 2389.547
44.77000 2386.929
44.78000 2385.129
44.79000 2384.064
44.80000 2346.363
44.81000 2319.512
44.82000 2294.580
44.83000 2271.482
44.84000 2248.503
44.85000 2235.682
44.86000 2229.369
44.87000 2223.219
44.88000 2214.610
44.89000 2205.363
44.90000 2197.510
44.91000 2207.615
44.92000 2223.213
44.93000 2235.780
44.94000 2225.269
44.95000 2209.962
44.96000 2196.976
44.97000 2172.288
44.98000 2150.262
44.99000 2136.472
45.00000 2150.221
45.01000 2166.185
45.02000 2173.663
45.03000 2161.512
45.04000 2148.573
45.05000 2140.578
45.06000 2167.215
45.07000 2186.674
45.08000 2191.288
45.09000 2179.964
45.10000 2168.612
45.11000 2153.955
45.12000 2136.946
45.13000 2120.269
45.14000 2123.299
45.15000 2135.491
45.16000 2147.076
45.17000 2149.399
45.18000 2148.583
45.19000 2144.862
45.20000 2115.870
45.21000 2081.020
45.22000 2050.901
45.23000 2065.224
45.24000 2083.165
45.25000 2098.541
45.26000 2104.403
45.27000 2109.371
45.28000 2111.977
45.29000 2108.545
45.30000 2104.811
45.31000 2102.409
45.32000 2102.851
45.33000 2103.213
45.34000 2113.035
45.35000 2134.232
45.36000 2155.372
45.37000 2152.017
45.38000 2129.225
45.39000 2106.754
45.40000 2099.329
45.41000 2100.021
45.42000 2101.011
45.43000 2107.455
45.44000 2115.943
45.45000 2123.679
45.46000 2123.881
45.47000 2122.141
45.48000 2120.611
45.49000 2091.196
45.50000 2061.755
45.51000 2043.269
45.52000 2069.929
45.53000 2101.485
45.54000 2121.551
45.55000 2109.118
45.56000 2094.714
45.57000 2085.094
45.58000 2077.036
45.59000 2071.097
45.60000 2073.880
45.61000 2088.367
45.62000 2102.903
45.63000 2103.483
45.64000 2091.682
45.65000 2079.994
45.66000 2089.984
45.67000 2112.492
45.68000 2134.051
45.69000 2134.127
45.70000 2125.303
45.71000 2117.716
45.72000 2124.503
45.73000 2135.405
45.74000 2145.145
45.75000 2123.704
45.76000 2099.772
45.77000 2081.462
45.78000 2088.965
45.79000 2099.674
45.80000 2106.356
45.81000 2100.428
45.82000 2093.588
45.83000 2088.858
45.84000 2096.605
45.85000 2102.756
45.86000 2113.713
45.87000 2131.846
45.88000 2150.047
45.89000 2160.080
45.90000 2161.977
45.91000 2163.862
45.92000 2160.648
45.93000 2154.133
45.94000 2147.713
45.95000 2144.031
45.96000 2141.603
45.97000 2139.450
45.98000 2141.052
45.99000 2143.847
46.00000 2146.380
46.01000 2144.959
46.02000 2142.952
46.03000 2142.255
46.04000 2148.286
46.05000 2155.268
46.06000 2154.313
46.07000 2125.828
46.08000 2094.999
46.09000 2072.975
46.10000 2118.623
46.11000 2155.706
46.12000 2169.255
46.13000 2143.811
46.14000 2117.779
46.15000 2113.960
46.16000 2134.989
46.17000 2155.970
46.18000 2157.706
46.19000 2145.298
46.20000 2133.070
46.21000 2127.589
46.22000 2125.526
46.23000 2123.544
46.24000 2122.874
46.25000 2122.664
46.26000 2122.472
46.27000 2134.849
46.28000 2148.603
46.29000 2162.000
46.30000 2173.344
46.31000 2184.361
46.32000 2188.690
46.33000 2167.270
46.34000 2143.303
46.35000 2125.654
46.36000 2144.105
46.37000 2159.886
46.38000 2170.653
46.39000 2172.214
46.40000 2173.576
46.41000 2170.867
46.42000 2163.064
46.43000 2155.256
46.44000 2153.188
46.45000 2155.848
46.46000 2158.558
46.47000 2163.757
46.48000 2170.352
46.49000 2176.917
46.50000 2182.895
46.51000 2188.644
46.52000 2193.993
46.53000 2176.547
46.54000 2155.272
46.55000 2135.883
46.56000 2128.723
46.57000 2123.761
46.58000 2122.837
46.59000 2139.207
46.60000 2157.548
46.61000 2171.439
46.62000 2152.577
46.63000 2136.107
46.64000 2130.872
46.65000 2148.466
46.66000 2166.725
46.67000 2178.270
46.68000 2180.453
46.69000 2182.574
46.70000 2183.176
46.71000 2182.376
46.72000 2181.584
46.73000 2181.380
46.74000 2181.540
46.75000 2181.841
46.76000 2185.603
46.77000 2190.851
46.78000 2195.789
46.79000 2181.269
46.80000 2162.714
46.81000 2148.541
46.82000 2166.541
46.83000 2191.018
46.84000 2211.003
46.85000 2209.536
46.86000 2205.276
46.87000 2201.963
46.88000 2185.684
46.89000 2171.937
46.90000 2159.124
46.91000 2148.410
46.92000 2137.776
46.93000 2137.273
46.94000 2152.474
46.95000 2167.854
46.96000 2175.690
46.97000 2183.304
46.98000 2188.481
46.99000 2202.103
47.00000 2221.557
47.01000 2240.323
47.02000 2237.560
47.03000 2224.572
47.04000 2212.225
47.05000 2207.458
47.06000 2205.356
47.07000 2203.982
47.08000 2208.693
47.09000 2214.773
47.10000 2217.741
47.11000 2204.091
47.12000 2187.985
47.13000 2175.150
47.14000 2171.197
47.15000 2168.652
47.16000 2171.647
47.17000 2188.410
47.18000 2205.821
47.19000 2218.182
47.20000 2221.863
47.21000 2225.395
47.22000 2227.296
47.23000 2218.299
47.24000 2212.139
47.25000 2206.340
47.26000 2200.820
47.27000 2195.248
47.28000 2187.524
47.29000 2178.670
47.30000 2170.173
47.31000 2168.635
47.32000 2169.567
47.33000 2171.819
47.34000 2186.754
47.35000 2204.864
47.36000 2220.291
47.37000 2219.619
47.38000 2216.264
47.39000 2213.528
47.40000 2202.981
47.41000 2193.693
47.42000 2189.934
47.43000 2201.366
47.44000 2213.672
47.45000 2217.717
47.46000 2206.035
47.47000 2193.972
47.48000 2187.140
47.49000 2211.578
47.50000 2228.647
47.51000 2228.080
47.52000 2212.364
47.53000 2196.756
47.54000 2187.460
47.55000 2181.837
47.56000 2176.396
47.57000 2183.520
47.58000 2195.029
47.59000 2205.611
47.60000 2205.891
47.61000 2203.306
47.62000 2200.988
47.63000 2200.471
47.64000 2200.291
47.65000 2200.141
47.66000 2211.818
47.67000 2222.662
47.68000 2227.587
47.69000 2214.510
47.70000 2200.194
47.71000 2188.328
47.72000 2181.628
47.73000 2175.093
47.74000 2171.215
47.75000 2194.196
47.76000 2210.613
47.77000 2212.997
47.78000 2201.863
47.79000 2190.973
47.80000 2201.384
47.81000 2225.546
47.82000 2249.096
47.83000 2242.258
47.84000 2222.822
47.85000 2204.902
47.86000 2206.743
47.87000 2214.672
47.88000 2222.090
47.89000 2225.583
47.90000 2228.253
47.91000 2230.521
47.92000 2218.392
47.93000 2206.566
47.94000 2197.268
47.95000 2196.489
47.96000 2196.402
47.97000 2197.663
47.98000 2202.062
47.99000 2206.590
48.00000 2209.396
48.01000 2222.161
48.02000 2231.439
48.03000 2234.116
48.04000 2229.647
48.05000 2225.224
48.06000 2228.103
48.07000 2236.221
48.08000 2244.184
48.09000 2243.089
48.10000 2237.738
48.11000 2232.497
48.12000 2228.970
48.13000 2226.027
48.14000 2223.839
48.15000 2228.280
48.16000 2234.270
48.17000 2239.453
48.18000 2257.717
48.19000 2274.962
48.20000 2284.301
48.21000 2264.105
48.22000 2241.106
48.23000 2226.069
48.24000 2231.536
48.25000 2238.043
48.26000 2242.240
48.27000 2221.050
48.28000 2205.205
48.29000 2199.528
48.30000 2206.178
48.31000 2212.837
48.32000 2213.023
48.33000 2208.034
48.34000 2203.114
48.35000 2230.894
48.36000 2275.218
48.37000 2316.687
48.38000 2304.905
48.39000 2273.025
48.40000 2242.928
48.41000 2230.860
48.42000 2223.477
48.43000 2216.977
48.44000 2204.253
48.45000 2192.366
48.46000 2184.683
48.47000 2194.463
48.48000 2206.157
48.49000 2218.246
48.50000 2231.462
48.51000 2244.747
48.52000 2253.643
48.53000 2246.432
48.54000 2240.761
48.55000 2236.276
48.56000 2233.393
48.57000 2230.517
48.58000 2226.770
48.59000 2222.241
48.60000 2217.754
48.61000 2231.307
48.62000 2255.261
48.63000 2278.570
48.64000 2287.046
48.65000 2289.331
48.66000 2291.336
48.67000 2290.045
48.68000 2287.803
48.69000 2285.797
48.70000 2279.097
48.71000 2272.456
48.72000 2265.070
48.73000 2254.232
48.74000 2242.961
48.75000 2241.289
48.76000 2269.885
48.77000 2300.698
48.78000 2322.061
48.79000 2294.924
48.80000 2273.214
48.81000 2264.185
48.82000 2274.231
48.83000 2284.467
48.84000 2289.154
48.85000 2288.267
48.86000 2287.385
48.87000 2285.544
48.88000 2283.094
48.89000 2280.496
48.90000 2273.570
48.91000 2264.648
48.92000 2257.036
48.93000 2267.548
48.94000 2283.851
48.95000 2298.645
48.96000 2282.137
48.97000 2261.544
48.98000 2243.120
48.99000 2235.912
49.00000 2230.303
49.01000 2227.359
49.02000 2233.731
49.03000 2240.905
49.04000 2246.041
49.05000 2255.866
49.06000 2263.530
49.07000 2263.755
49.08000 2251.563
49.09000 2239.178
49.10000 2238.199
49.11000 2250.084
49.12000 2261.945
49.13000 2278.659
49.14000 2298.843
49.15000 2318.172
49.16000 2304.972
49.17000 2275.167
49.18000 2247.409
49.19000 2253.445
49.20000 2271.435
49.21000 2287.982
49.22000 2302.548
49.23000 2315.133
49.24000 2323.787
49.25000 2309.635
49.26000 2291.807
49.27000 2280.537
49.28000 2294.701
49.29000 2311.408
49.30000 2323.737
49.31000 2276.383
49.32000 2237.176
49.33000 2219.504
49.34000 2241.657
49.35000 2264.690
49.36000 2275.556
49.37000 2271.081
49.38000 2266.562
49.39000 2267.189
49.40000 2272.086
49.41000 2276.941
49.42000 2279.663
49.43000 2281.179
49.44000 2283.202
49.45000 2295.395
49.46000 2311.567
49.47000 2326.625
49.48000 2313.878
49.49000 2295.569
49.50000 2278.631
49.51000 2270.655
49.52000 2264.304
49.53000 2262.882
49.54000 2282.729
49.55000 2305.025
49.56000 2321.944
49.57000 2320.436
49.58000 2318.302
49.59000 2311.813
49.60000 2296.411
49.61000 2280.744
49.62000 2274.822
49.63000 2282.594
49.64000 2290.459
49.65000 2299.088
49.66000 2308.425
49.67000 2317.495
49.68000 2306.001
49.69000 2281.622
49.70000 2258.612
49.71000 2269.715
49.72000 2295.574
49.73000 2319.927
49.74000 2331.351
49.75000 2338.263
49.76000 2343.108
49.77000 2332.646
49.78000 2319.076
49.79000 2305.918
49.80000 2294.743
49.81000 2283.829
49.82000 2275.327
49.83000 2264.644
49.84000 2255.999
49.85000 2255.379
49.86000 2272.925
49.87000 2291.166
49.88000 2300.682
49.89000 2296.576
49.90000 2292.308
49.91000 2290.125
49.92000 2279.358
49.93000 2272.163
49.94000 2269.841
49.95000 2270.912
49.96000 2272.010
49.97000 2273.980
49.98000 2276.368
49.99000 2278.640
50.00000 2284.494
50.01000 2291.008
50.02000 2296.339
50.03000 2291.668
50.04000 2284.731
50.05000 2279.815
50.06000 2285.779
50.07000 2293.365
50.08000 2299.420
50.09000 2294.628
50.10000 2289.962
50.11000 2286.219
50.12000 2284.783
50.13000 2283.457
50.14000 2288.425
50.15000 2304.292
50.16000 2320.353
50.17000 2329.032
50.18000 2342.768
50.19000 2352.128
50.20000 2349.427
50.21000 2337.378
50.22000 2325.550
50.23000 2323.041
50.24000 2325.465
50.25000 2327.793
50.26000 2315.261
50.27000 2298.440
50.28000 2282.692
50.29000 2277.356
50.30000 2274.645
50.31000 2272.767
50.32000 2275.936
50.33000 2279.953
50.34000 2283.233
50.35000 2300.788
50.36000 2316.382
50.37000 2322.878
50.38000 2304.190
50.39000 2284.034
50.40000 2281.467
50.41000 2312.633
50.42000 2344.632
50.43000 2362.820
50.44000 2333.708
50.45000 2313.301
50.46000 2307.889
50.47000 2315.463
50.48000 2322.766
50.49000 2313.895
50.50000 2295.541
50.51000 2277.773
50.52000 2285.001
50.53000 2301.418
50.54000 2316.098
50.55000 2311.247
50.56000 2300.927
50.57000 2293.612
50.58000 2306.824
50.59000 2323.912
50.60000 2338.165
50.61000 2323.363
50.62000 2308.179
50.63000 2295.902
50.64000 2292.527
50.65000 2289.773
50.66000 2293.871
50.67000 2312.510
50.68000 2331.622
50.69000 2343.003
50.70000 2349.502
50.71000 2354.077
50.72000 2364.696
50.73000 2381.185
50.74000 2397.380
50.75000 2386.844
50.76000 2358.922
50.77000 2331.694
50.78000 2327.021
50.79000 2332.218
50.80000 2337.440
50.81000 2343.008
50.82000 2348.683
50.83000 2352.945
50.84000 2346.236
50.85000 2337.211
50.86000 2329.533
50.87000 2328.182
50.88000 2327.779
50.89000 2325.700
50.90000 2317.937
50.91000 2309.707
50.92000 2304.909
50.93000 2308.165
50.94000 2311.756
50.95000 2313.988
50.96000 2318.503
50.97000 2321.776
50.98000 2326.280
50.99000 2332.127
51.00000 2337.938
51.01000 2337.874
51.02000 2333.562
51.03000 2329.331
51.04000 2327.612
51.05000 2327.155
51.06000 2326.878
51.07000 2329.427
51.08000 2332.948
51.09000 2336.890
51.10000 2344.579
51.11000 2353.150
51.12000 2360.576
51.13000 2354.988
51.14000 2348.507
51.15000 2342.509
51.16000 2338.323
51.17000 2334.312
51.18000 2330.263
51.19000 2326.122
51.20000 2321.975
51.21000 2319.292
51.22000 2322.755
51.23000 2325.378
51.24000 2323.390
51.25000 2315.767
51.26000 2308.173
51.27000 2315.622
51.28000 2335.197
51.29000 2354.509
51.30000 2353.375
51.31000 2341.358
51.32000 2330.000
51.33000 2331.130
51.34000 2337.006
51.35000 2342.712
51.36000 2346.676
51.37000 2350.184
51.38000 2353.275
51.39000 2356.489
51.40000 2359.276
51.41000 2360.624
51.42000 2355.946
51.43000 2350.601
51.44000 2343.435
51.45000 2331.044
51.46000 2318.327
51.47000 2309.789
51.48000 2338.043
51.49000 2359.774
51.50000 2371.499
51.51000 2369.592
51.52000 2367.604
51.53000 2362.817
51.54000 2355.507
51.55000 2348.262
51.56000 2341.462
51.57000 2335.061
51.58000 2328.505
51.59000 2318.353
51.60000 2306.689
51.61000 2297.126
51.62000 2312.542
51.63000 2335.216
51.64000 2355.515
51.65000 2357.760
51.66000 2356.622
51.67000 2353.993
51.68000 2344.409
51.69000 2333.945
51.70000 2326.381
51.71000 2328.030
51.72000 2330.362
51.73000 2331.982
51.74000 2326.317
51.75000 2321.851
51.76000 2320.547
51.77000 2324.033
51.78000 2327.568
51.79000 2335.688
51.80000 2348.455
51.81000 2361.151
51.82000 2366.442
51.83000 2366.729
51.84000 2367.232
51.85000 2374.173
51.86000 2384.106
51.87000 2393.205
51.88000 2390.633
51.89000 2384.303
51.90000 2378.553
51.91000 2370.705
51.92000 2363.364
51.93000 2358.398
51.94000 2365.823
51.95000 2375.030
51.96000 2384.391
51.97000 2394.297
51.98000 2404.250
51.99000 2411.392
52.00000 2373.070
52.01000 2342.203
52.02000 2330.109
52.03000 2349.582
52.04000 2369.558
52.05000 2372.741
52.06000 2356.832
52.07000 2340.948
52.08000 2345.177
52.09000 2364.384
52.10000 2382.818
52.11000 2371.192
52.12000 2344.111
52.13000 2318.359
52.14000 2314.823
52.15000 2319.204
52.16000 2323.237
52.17000 2339.633
52.18000 2357.000
52.19000 2371.534
52.20000 2369.486
52.21000 2364.744
52.22000 2359.285
52.23000 2351.022
52.24000 2342.476
52.25000 2336.157
52.26000 2367.463
52.27000 2393.354
52.28000 2406.393
52.29000 2395.488
52.30000 2384.041
52.31000 2375.177
52.32000 2369.595
52.33000 2364.030
52.34000 2364.624
52.35000 2370.367
52.36000 2375.904
52.37000 2370.344
52.38000 2358.468
52.39000 2347.351
52.40000 2351.679
52.41000 2362.094
52.42000 2371.800
52.43000 2371.148
52.44000 2368.010
52.45000 2366.773
52.46000 2378.078
52.47000 2391.675
52.48000 2399.938
52.49000 2385.008
52.50000 2367.383
52.51000 2353.982
52.52000 2357.846
52.53000 2361.786
52.54000 2365.322
52.55000 2368.025
52.56000 2370.703
52.57000 2366.476
52.58000 2352.474
52.59000 2338.402
52.60000 2331.853
52.61000 2332.371
52.62000 2332.928
52.63000 2336.682
52.64000 2342.453
52.65000 2348.444
52.66000 2360.000
52.67000 2373.982
52.68000 2387.158
52.69000 2377.842
52.70000 2363.103
52.71000 2350.508
52.72000 2353.932
52.73000 2360.634
52.74000 2365.723
52.75000 2362.990
52.76000 2359.219
52.77000 2356.276
52.78000 2356.646
52.79000 2357.148
52.80000 2360.079
52.81000 2368.547
52.82000 2377.230
52.83000 2378.680
52.84000 2368.753
52.85000 2358.687
52.86000 2353.515
52.87000 2376.236
52.88000 2391.346
52.89000 2382.846
52.90000 2357.789
52.91000 2333.819
52.92000 2345.161
52.93000 2373.518
52.94000 2400.515
52.95000 2407.843
52.96000 2408.547
52.97000 2408.934
52.98000 2406.609
52.99000 2403.666
53.00000 2400.441
53.01000 2395.691
53.02000 2390.710
53.03000 2386.728
53.04000 2375.281
53.05000 2365.475
53.06000 2358.794
53.07000 2359.991
53.08000 2361.570
53.09000 2366.288
53.10000 2376.483
53.11000 2386.779
53.12000 2392.363
53.13000 2386.890
53.14000 2383.116
53.15000 2376.940
53.16000 2368.888
53.17000 2361.288
53.18000 2373.289
53.19000 2395.740
53.20000 2417.312
53.21000 2396.865
53.22000 2363.194
53.23000 2333.573
53.24000 2343.656
53.25000 2363.826
53.26000 2379.651
53.27000 2368.948
53.28000 2353.747
53.29000 2341.314
53.30000 2370.248
53.31000 2397.550
53.32000 2418.426
53.33000 2421.385
53.34000 2423.286
53.35000 2424.342
53.36000 2423.767
53.37000 2423.150
53.38000 2422.799
53.39000 2395.494
53.40000 2376.371
53.41000 2366.064
53.42000 2363.451
53.43000 2360.955
53.44000 2365.580
53.45000 2374.411
53.46000 2382.965
53.47000 2377.483
53.48000 2366.872
53.49000 2357.541
53.50000 2362.775
53.51000 2372.116
53.52000 2380.356
53.53000 2381.000
53.54000 2380.198
53.55000 2379.528
53.56000 2397.074
53.57000 2413.480
53.58000 2424.283
53.59000 2417.799
53.60000 2410.094
53.61000 2400.157
53.62000 2385.453
53.63000 2370.590
53.64000 2361.711
53.65000 2358.557
53.66000 2356.357
53.67000 2368.130
53.68000 2393.591
53.69000 2418.778
53.70000 2418.216
53.71000 2400.780
53.72000 2383.770
53.73000 2377.718
53.74000 2376.663
53.75000 2375.829
53.76000 2377.936
53.77000 2380.962
53.78000 2386.117
53.79000 2407.947
53.80000 2433.326
53.81000 2454.945
53.82000 2440.247
53.83000 2423.650
53.84000 2411.519
53.85000 2414.652
53.86000 2419.055
53.87000 2417.746
53.88000 2402.941
53.89000 2387.565
53.90000 2377.979
53.91000 2377.844
53.92000 2377.843
53.93000 2381.309
53.94000 2388.590
53.95000 2395.805
53.96000 2391.743
53.97000 2379.466
53.98000 2367.412
53.99000 2375.311
54.00000 2392.547
54.01000 2409.184
54.02000 2416.326
54.03000 2420.182
54.04000 2422.793
54.05000 2414.259
54.06000 2403.080
54.07000 2393.382
54.08000 2377.377
54.09000 2362.902
54.10000 2356.345
54.11000 2379.819
54.12000 2406.204
54.13000 2419.721
54.14000 2399.618
54.15000 2377.762
54.16000 2363.583
54.17000 2375.486
54.18000 2384.594
54.19000 2382.311
54.20000 2365.998
54.21000 2349.689
54.22000 2349.052
54.23000 2361.148
54.24000 2373.086
54.25000 2379.119
54.26000 2381.813
54.27000 2385.004
54.28000 2397.728
54.29000 2414.102
54.30000 2428.964
54.31000 2428.213
54.32000 2423.344
54.33000 2419.047
54.34000 2401.536
54.35000 2384.415
54.36000 2370.572
54.37000 2370.553
54.38000 2372.079
54.39000 2377.249
54.40000 2392.948
54.41000 2409.311
54.42000 2420.325
54.43000 2434.673
54.44000 2445.408
54.45000 2449.901
54.46000 2445.821
54.47000 2441.687
54.48000 2434.054
54.49000 2423.239
54.50000 2412.518
54.51000 2406.575
54.52000 2403.617
54.53000 2400.519
54.54000 2394.099
54.55000 2386.271
54.56000 2378.643
54.57000 2373.423
54.58000 2368.906
54.59000 2364.859
54.60000 2377.530
54.61000 2391.491
54.62000 2403.285
54.63000 2404.889
54.64000 2405.189
54.65000 2401.713
54.66000 2386.151
54.67000 2369.683
54.68000 2358.211
54.69000 2386.916
54.70000 2409.674
54.71000 2421.714
54.72000 2417.390
54.73000 2412.891
54.74000 2413.852
54.75000 2420.391
54.76000 2426.896
54.77000 2422.692
54.78000 2411.342
54.79000 2400.547
54.80000 2406.499
54.81000 2420.291
54.82000 2433.353
54.83000 2436.069
54.84000 2435.430
54.85000 2434.849
54.86000 2429.021
54.87000 2422.841
54.88000 2416.436
54.89000 2408.843
54.90000 2401.079
54.91000 2393.457
54.92000 2386.346
54.93000 2379.279
54.94000 2374.196
54.95000 2392.321
54.96000 2407.006
54.97000 2412.504
54.98000 2402.442
54.99000 2392.124
55.00000 2383.944
55.01000 2378.215
55.02000 2372.504
55.03000 2366.232
55.04000 2359.578
55.05000 2353.378
55.06000 2365.186
55.07000 2386.321
55.08000 2406.023
55.09000 2401.433
55.10000 2388.126
55.11000 2375.863
55.12000 2380.861
55.13000 2389.142
55.14000 2396.238
55.15000 2396.345
55.16000 2395.306
55.17000 2394.220
55.18000 2392.949
55.19000 2391.660
55.20000 2390.704
55.21000 2388.006
55.22000 2385.835
55.23000 2390.849
55.24000 2409.345
55.25000 2428.154
55.26000 2435.304
55.27000 2427.524
55.28000 2419.696
55.29000 2412.402
55.30000 2405.577
55.31000 2398.868
55.32000 2398.485
55.33000 2401.731
55.34000 2404.990
55.35000 2408.538
55.36000 2412.198
55.37000 2415.614
55.38000 2400.604
55.39000 2382.441
55.40000 2369.075
55.41000 2387.639
55.42000 2412.085
55.43000 2431.937
55.44000 2431.654
55.45000 2429.009
55.46000 2426.993
55.47000 2411.771
55.48000 2399.087
55.49000 2390.306
55.50000 2389.628
55.51000 2389.200
55.52000 2390.620
55.53000 2394.677
55.54000 2398.755
55.55000 2404.757
55.56000 2412.580
55.57000 2420.298
55.58000 2419.418
55.59000 2413.068
55.60000 2406.996
55.61000 2408.072
55.62000 2412.286
55.63000 2416.261
55.64000 2421.017
55.65000 2425.592
55.66000 2427.760
55.67000 2411.765
55.68000 2392.024
55.69000 2379.708
55.70000 2403.705
55.71000 2432.562
55.72000 2455.123
55.73000 2437.292
55.74000 2420.496
55.75000 2407.912
55.76000 2405.000
55.77000 2402.470
55.78000 2398.900
55.79000 2393.679
55.80000 2388.438
55.81000 2385.735
55.82000 2421.866
55.83000 2445.999
55.84000 2440.703
55.85000 2414.608
55.86000 2388.867
55.87000 2374.871
55.88000 2366.574
55.89000 2358.670
55.90000 2378.089
55.91000 2404.599
55.92000 2428.399
55.93000 2428.854
55.94000 2423.938
55.95000 2417.532
55.96000 2402.973
55.97000 2387.177
55.98000 2374.526
55.99000 2392.625
56.00000 2409.578
56.01000 2424.239
56.02000 2433.081
56.03000 2441.636
56.04000 2444.076
56.05000 2435.768
56.06000 2427.260
56.07000 2422.627
56.08000 2428.848
56.09000 2433.096
56.10000 2427.406
56.11000 2413.889
56.12000 2400.479
56.13000 2391.818
56.14000 2385.706
56.15000 2379.830
56.16000 2396.053
56.17000 2418.955
56.18000 2439.315
56.19000 2434.499
56.20000 2423.240
56.21000 2414.677
56.22000 2422.720
56.23000 2433.603
56.24000 2442.518
56.25000 2447.025
56.26000 2450.332
56.27000 2451.080
56.28000 2444.642
56.29000 2437.775
56.30000 2425.779
56.31000 2403.804
56.32000 2381.573
56.33000 2368.849
56.34000 2404.976
56.35000 2430.352
56.36000 2433.781
56.37000 2417.895
56.38000 2402.181
56.39000 2397.303
56.40000 2398.872
56.41000 2400.393
56.42000 2400.766
56.43000 2400.671
56.44000 2400.883
56.45000 2404.626
56.46000 2409.374
56.47000 2414.592
56.48000 2423.089
56.49000 2432.216
56.50000 2439.850
56.51000 2451.466
56.52000 2461.524
56.53000 2461.534
56.54000 2430.319
56.55000 2396.872
56.56000 2379.278
56.57000 2395.812
56.58000 2413.501
56.59000 2424.102
56.60000 2430.597
56.61000 2435.183
56.62000 2430.459
56.63000 2416.540
56.64000 2402.824
56.65000 2408.891
56.66000 2428.020
56.67000 2446.692
56.68000 2440.142
56.69000 2422.906
56.70000 2406.794
56.71000 2405.842
56.72000 2409.666
56.73000 2412.288
56.74000 2405.418
56.75000 2396.511
56.76000 2388.914
56.77000 2399.714
56.78000 2410.973
56.79000 2415.311
56.80000 2395.815
56.81000 2374.312
56.82000 2362.978
56.83000 2375.847
56.84000 2389.755
56.85000 2398.451
56.86000 2401.829
56.87000 2404.211
56.88000 2399.385
56.89000 2386.560
56.90000 2373.854
56.91000 2382.683
56.92000 2407.324
56.93000 2431.524
56.94000 2435.977
56.95000 2430.683
56.96000 2425.733
56.97000 2426.302
56.98000 2428.795
56.99000 2431.761
57.00000 2439.000
57.01000 2447.260
57.02000 2454.435
57.03000 2433.790
57.04000 2412.434
57.05000 2398.112
57.06000 2410.672
57.07000 2425.865
57.08000 2439.886
57.09000 2450.820
57.10000 2461.591
57.11000 2468.598
57.12000 2439.929
57.13000 2418.363
57.14000 2412.762
57.15000 2426.979
57.16000 2441.218
57.17000 2441.376
57.18000 2430.002
57.19000 2418.773
57.20000 2415.340
57.21000 2416.226
57.22000 2416.906
57.23000 2413.596
57.24000 2408.746
57.25000 2405.394
57.26000 2417.660
57.27000 2434.077
57.28000 2448.580
57.29000 2451.598
57.30000 2452.436
57.31000 2452.216
57.32000 2447.496
57.33000 2442.267
57.34000 2435.652
57.35000 2424.999
57.36000 2414.088
57.37000 2406.726
57.38000 2403.320
57.39000 2400.869
57.40000 2395.717
57.41000 2386.824
57.42000 2377.912
57.43000 2375.639
57.44000 2379.454
57.45000 2383.236
57.46000 2392.430
57.47000 2404.733
57.48000 2416.673
57.49000 2419.838
57.50000 2419.261
57.51000 2418.693
57.52000 2418.219
57.53000 2417.772
57.54000 2417.372
57.55000 2425.353
57.56000 2433.794
57.57000 2441.898
57.58000 2448.407
57.59000 2454.711
57.60000 2458.484
57.61000 2454.100
57.62000 2449.098
57.63000 2445.605
57.64000 2406.066
57.65000 2375.198
57.66000 2363.581
57.67000 2381.578
57.68000 2399.901
57.69000 2412.891
57.70000 2420.386
57.71000 2427.844
57.72000 2423.653
57.73000 2411.620
57.74000 2399.903
57.75000 2397.886
57.76000 2400.444
57.77000 2403.088
57.78000 2406.968
57.79000 2411.250
57.80000 2415.149
57.81000 2409.527
57.82000 2402.672
57.83000 2394.541
57.84000 2379.645
57.85000 2363.757
57.86000 2355.325
57.87000 2373.530
57.88000 2394.105
57.89000 2408.936
57.90000 2404.411
57.91000 2400.257
57.92000 2403.213
57.93000 2418.303
57.94000 2433.598
57.95000 2443.167
57.96000 2446.121
57.97000 2449.058
57.98000 2431.888
57.99000 2399.576
58.00000 2368.139
58.01000 2372.197
58.02000 2394.774
58.03000 2415.934
58.04000 2412.773
58.05000 2400.818
58.06000 2389.793
58.07000 2410.072
58.08000 2435.203
58.09000 2454.438
58.10000 2438.581
58.11000 2416.923
58.12000 2402.000
58.13000 2413.804
58.14000 2428.365
58.15000 2439.175
58.16000 2423.063
58.17000 2409.355
58.18000 2406.206
58.19000 2423.017
58.20000 2440.301
58.21000 2442.764
58.22000 2426.094
58.23000 2409.364
58.24000 2407.370
58.25000 2417.912
58.26000 2428.251
58.27000 2427.140
58.28000 2419.414
58.29000 2412.485
58.30000 2422.251
58.31000 2438.693
58.32000 2454.042
58.33000 2452.058
58.34000 2445.926
58.35000 2438.453
58.36000 2421.989
58.37000 2403.855
58.38000 2386.733
58.39000 2374.086
58.40000 2361.969
58.41000 2352.720
58.42000 2371.571
58.43000 2387.933
58.44000 2397.167
58.45000 2391.491
58.46000 2385.347
58.47000 2390.786
58.48000 2412.879
58.49000 2435.101
58.50000 2437.948
58.51000 2422.289
58.52000 2406.911
58.53000 2415.391
58.54000 2439.158
58.55000 2461.700
58.56000 2452.165
58.57000 2428.451
58.58000 2406.067
58.59000 2401.008
58.60000 2401.228
58.61000 2402.171
58.62000 2408.622
58.63000 2416.217
58.64000 2423.578
58.65000 2429.786
58.66000 2435.838
58.67000 2440.578
58.68000 2430.927
58.69000 2422.291
58.70000 2419.411
58.71000 2429.843
58.72000 2440.811
58.73000 2440.922
58.74000 2423.698
58.75000 2406.248
58.76000 2397.211
58.77000 2407.067
58.78000 2413.692
58.79000 2416.463
58.80000 2416.487
58.81000 2416.345
58.82000 2410.570
58.83000 2402.042
58.84000 2393.911
58.85000 2395.083
58.86000 2399.092
58.87000 2402.996
58.88000 2405.978
58.89000 2408.746
58.90000 2409.676
58.91000 2400.449
58.92000 2389.669
58.93000 2381.021
58.94000 2408.203
58.95000 2432.939
58.96000 2448.965
58.97000 2442.712
58.98000 2435.347
58.99000 2427.147
59.00000 2417.469
59.01000 2407.764
59.02000 2402.459
59.03000 2401.455
59.04000 2400.786
59.05000 2404.643
59.06000 2412.091
59.07000 2419.350
59.08000 2418.072
59.09000 2412.175
59.10000 2406.502
59.11000 2391.387
59.12000 2373.898
59.13000 2357.612
59.14000 2353.380
59.15000 2352.257
59.16000 2352.210
59.17000 2358.850
59.18000 2366.642
59.19000 2373.035
59.20000 2395.588
59.21000 2415.535
59.22000 2427.178
59.23000 2415.334
59.24000 2402.064
59.25000 2390.878
59.26000 2383.777
59.27000 2376.784
59.28000 2372.768
59.29000 2400.071
59.30000 2419.267
59.31000 2428.390
59.32000 2428.578
59.33000 2428.865
59.34000 2435.609
59.35000 2446.223
59.36000 2456.516
59.37000 2451.955
59.38000 2441.801
59.39000 2431.516
59.40000 2419.707
59.41000 2407.460
59.42000 2398.032
59.43000 2408.382
59.44000 2422.558
59.45000 2434.433
59.46000 2432.270
59.47000 2429.020
59.48000 2426.046
59.49000 2423.935
59.50000 2421.887
59.51000 2417.802
59.52000 2409.304
59.53000 2400.654
59.54000 2395.453
59.55000 2408.580
59.56000 2418.037
59.57000 2417.955
59.58000 2408.370
59.59000 2398.939
59.60000 2404.973
59.61000 2421.295
59.62000 2437.235
59.63000 2432.922
59.64000 2419.915
59.65000 2407.093
59.66000 2396.808
59.67000 2387.329
59.68000 2379.087
59.69000 2380.729
59.70000 2384.508
59.71000 2387.735
59.72000 2399.616
59.73000 2410.655
59.74000 2422.357
59.75000 2436.361
59.76000 2450.560
59.77000 2451.370
59.78000 2420.077
59.79000 2387.385
59.80000 2366.883
59.81000 2371.153
59.82000 2374.507
59.83000 2381.442
59.84000 2392.381
59.85000 2403.270
59.86000 2404.419
59.87000 2398.360
59.88000 2392.407
59.89000 2389.764
59.90000 2388.832
59.91000 2387.612
59.92000 2381.711
59.93000 2374.166
59.94000 2367.923
59.95000 2373.570
59.96000 2382.081
59.97000 2389.483
59.98000 2393.226
59.99000 2395.920
60.00000 2399.284
60.01000 2405.228
60.02000 2411.427
60.03000 2414.563
60.04000 2409.575
60.05000 2404.152
60.06000 2400.615
60.07000 2399.619
60.08000 2398.928
60.09000 2403.803
60.10000 2415.641
60.11000 2427.490
60.12000 2434.564
60.13000 2437.697
60.14000 2440.791
60.15000 2436.356
60.16000 2427.919
60.17000 2420.128
60.18000 2425.112
60.19000 2435.058
60.20000 2443.421
60.21000 2435.089
60.22000 2422.285
60.23000 2410.962
60.24000 2394.567
60.25000 2379.612
60.26000 2368.882
60.27000 2376.243
60.28000 2385.667
60.29000 2393.805
60.30000 2398.172
60.31000 2402.294
60.32000 2405.083
60.33000 2391.895
60.34000 2381.724
60.35000 2385.458
60.36000 2408.584
60.37000 2431.834
60.38000 2439.944
60.39000 2434.064
60.40000 2428.231
60.41000 2421.609
60.42000 2414.622
60.43000 2407.930
60.44000 2408.436
60.45000 2412.033
60.46000 2415.230
60.47000 2413.497
60.48000 2410.300
60.49000 2407.428
60.50000 2407.193
60.51000 2407.453
60.52000 2406.761
60.53000 2401.531
60.54000 2395.709
60.55000 2392.293
60.56000 2396.690
60.57000 2401.687
60.58000 2405.184
60.59000 2415.749
60.60000 2423.938
60.61000 2430.744
60.62000 2435.407
60.63000 2440.046
60.64000 2432.343
60.65000 2411.819
60.66000 2391.393
60.67000 2379.432
60.68000 2373.389
60.69000 2367.830
60.70000 2377.421
60.71000 2394.207
60.72000 2410.208
60.73000 2414.794
60.74000 2415.624
60.75000 2416.380
60.76000 2409.320
60.77000 2401.509
60.78000 2395.619
60.79000 2399.987
60.80000 2405.871
60.81000 2414.464
60.82000 2432.807
60.83000 2452.027
60.84000 2465.911
60.85000 2443.399
60.86000 2424.818
60.87000 2426.154
60.88000 2461.733
60.89000 2497.903
60.90000 2498.274
60.91000 2456.943
60.92000 2415.649
60.93000 2398.686
60.94000 2400.425
60.95000 2402.070
60.96000 2399.821
60.97000 2395.524
60.98000 2391.294
60.99000 2388.225
61.00000 2385.578
61.01000 2383.135
61.02000 2388.191
61.03000 2394.408
61.04000 2399.516
61.05000 2397.968
61.06000 2395.311
61.07000 2394.391
61.08000 2400.417
61.09000 2407.168
61.10000 2412.190
61.11000 2416.418
61.12000 2419.671
61.13000 2421.635
61.14000 2421.144
61.15000 2420.594
61.16000 2418.671
61.17000 2414.965
61.18000 2411.253
61.19000 2411.352
61.20000 2414.716
61.21000 2417.993
61.22000 2416.227
61.23000 2411.525
61.24000 2407.303
61.25000 2413.309
61.26000 2423.432
61.27000 2432.890
61.28000 2424.593
61.29000 2412.588
61.30000 2401.841
61.31000 2399.609
61.32000 2398.973
61.33000 2398.374
61.34000 2397.941
61.35000 2397.528
61.36000 2397.213
61.37000 2397.492
61.38000 2397.744
61.39000 2398.620
61.40000 2400.809
61.41000 2403.041
61.42000 2406.257
61.43000 2410.901
61.44000 2415.557
61.45000 2423.553
61.46000 2434.768
61.47000 2445.832
61.48000 2443.694
61.49000 2433.031
61.50000 2422.642
61.51000 2419.553
61.52000 2419.714
61.53000 2419.865
61.54000 2418.713
61.55000 2417.286
61.56000 2416.943
61.57000 2424.939
61.58000 2434.681
61.59000 2441.642
61.60000 2434.783
61.61000 2426.040
61.62000 2419.180
61.63000 2415.755
61.64000 2413.239
61.65000 2412.604
61.66000 2416.351
61.67000 2420.277
61.68000 2425.090
61.69000 2431.329
61.70000 2437.587
61.71000 2440.841
61.72000 2401.833
61.73000 2375.661
61.74000 2377.839
61.75000 2400.361
61.76000 2422.466
61.77000 2430.179
61.78000 2430.806
61.79000 2431.404
61.80000 2424.580
61.81000 2415.895
61.82000 2408.258
61.83000 2409.828
61.84000 2413.549
61.85000 2420.260
61.86000 2443.621
61.87000 2469.552
61.88000 2490.389
61.89000 2477.003
61.90000 2463.520
61.91000 2450.726
61.92000 2439.709
61.93000 2428.782
61.94000 2417.399
61.95000 2405.204
61.96000 2392.992
61.97000 2386.293
61.98000 2395.370
61.99000 2401.611
62.00000 2398.577
62.01000 2388.127
62.02000 2378.235
62.03000 2394.276
62.04000 2424.450
62.05000 2453.494
62.06000 2450.887
62.07000 2437.231
62.08000 2423.783
62.09000 2412.440
62.10000 2401.643
62.11000 2393.488
62.12000 2401.875
62.13000 2413.139
62.14000 2422.394
62.15000 2433.388
62.16000 2442.575
62.17000 2449.996
62.18000 2452.384
62.19000 2454.463
62.20000 2448.423
62.21000 2426.355
62.22000 2403.856
62.23000 2390.891
62.24000 2418.800
62.25000 2438.483
62.26000 2443.650
62.27000 2435.832
62.28000 2428.137
62.29000 2428.683
62.30000 2434.206
62.31000 2439.564
62.32000 2437.897
62.33000 2433.537
62.34000 2429.828
62.35000 2433.773
62.36000 2439.926
62.37000 2444.799
62.38000 2440.604
62.39000 2434.641
62.40000 2429.638
62.41000 2422.291
62.42000 2415.931
62.43000 2407.630
62.44000 2393.208
62.45000 2378.338
62.46000 2372.563
62.47000 2386.651
62.48000 2401.437
62.49000 2410.353
62.50000 2398.169
62.51000 2389.347
62.52000 2391.486
62.53000 2404.637
62.54000 2417.652
62.55000 2416.408
62.56000 2405.607
62.57000 2395.054
62.58000 2396.338
62.59000 2402.799
62.60000 2408.732
62.61000 2407.352
62.62000 2403.635
62.63000 2401.982
62.64000 2416.950
62.65000 2435.539
62.66000 2451.438
62.67000 2440.944
62.68000 2428.921
62.69000 2420.711
62.70000 2425.824
62.71000 2432.084
62.72000 2431.589
62.73000 2414.784
62.74000 2397.258
62.75000 2386.234
62.76000 2408.821
62.77000 2425.535
62.78000 2428.207
62.79000 2415.041
62.80000 2401.879
62.81000 2392.379
62.82000 2385.611
62.83000 2378.958
62.84000 2394.202
62.85000 2419.743
62.86000 2443.702
62.87000 2441.548
62.88000 2430.155
62.89000 2420.415
62.90000 2425.923
62.91000 2435.132
62.92000 2443.151
62.93000 2435.127
62.94000 2426.065
62.95000 2420.170
62.96000 2426.557
62.97000 2434.173
62.98000 2438.893
62.99000 2435.880
63.00000 2432.446
63.01000 2430.200
63.02000 2418.924
63.03000 2410.493
63.04000 2398.582
63.05000 2382.279
63.06000 2366.023
63.07000 2379.023
63.08000 2416.365
63.09000 2453.257
63.10000 2461.191
63.11000 2452.969
63.12000 2444.687
63.13000 2435.197
63.14000 2425.234
63.15000 2416.888
63.16000 2425.775
63.17000 2439.311
63.18000 2451.296
63.19000 2445.102
63.20000 2436.895
63.21000 2434.025
63.22000 2454.189
63.23000 2477.003
63.24000 2483.935
63.25000 2443.949
63.26000 2400.886
63.27000 2371.681
63.28000 2382.533
63.29000 2391.513
63.30000 2399.641
63.31000 2406.571
63.32000 2413.492
63.33000 2417.781
63.34000 2419.619
63.35000 2421.441
63.36000 2421.233
63.37000 2419.779
63.38000 2418.360
63.39000 2417.828
63.40000 2417.680
63.41000 2418.111
63.42000 2425.746
63.43000 2435.538
63.44000 2444.341
63.45000 2441.251
63.46000 2436.431
63.47000 2431.157
63.48000 2423.696
63.49000 2415.948
63.50000 2409.599
63.51000 2407.823
63.52000 2406.402
63.53000 2405.405
63.54000 2413.880
63.55000 2420.568
63.56000 2426.283
63.57000 2430.479
63.58000 2434.657
63.59000 2434.741
63.60000 2430.538
63.61000 2426.354
63.62000 2432.303
63.63000 2445.164
63.64000 2457.526
63.65000 2454.007
63.66000 2442.889
63.67000 2432.555
63.68000 2433.747
63.69000 2438.758
63.70000 2443.328
63.71000 2431.702
63.72000 2418.140
63.73000 2403.763
63.74000 2384.989
63.75000 2365.560
63.76000 2353.568
63.77000 2368.549
63.78000 2385.982
63.79000 2398.603
63.80000 2402.454
63.81000 2405.088
63.82000 2406.534
63.83000 2405.920
63.84000 2405.271
63.85000 2410.230
63.86000 2421.777
63.87000 2433.309
63.88000 2443.111
63.89000 2451.525
63.90000 2459.879
63.91000 2465.709
63.92000 2470.204
63.93000 2473.418
63.94000 2454.055
63.95000 2426.411
63.96000 2400.868
63.97000 2419.163
63.98000 2445.499
63.99000 2466.766
64.00000 2457.350
64.01000 2442.774
64.02000 2431.440
64.03000 2433.166
64.04000 2436.267
64.05000 2438.579
64.06000 2448.093
64.07000 2455.829
64.08000 2473.572
64.09000 2510.506
64.10000 2547.915
64.11000 2560.953
64.12000 2542.037
64.13000 2522.991
64.14000 2519.932
64.15000 2530.696
64.16000 2541.182
64.17000 2535.176
64.18000 2519.498
64.19000 2504.497
64.20000 2504.125
64.21000 2509.685
64.22000 2514.884
64.23000 2528.196
64.24000 2542.347
64.25000 2555.338
64.26000 2560.404
64.27000 2563.974
64.28000 2572.077
64.29000 2600.521
64.30000 2631.423
64.31000 2655.098
64.32000 2651.071
64.33000 2646.365
64.34000 2644.867
64.35000 2650.180
64.36000 2655.714
64.37000 2663.948
64.38000 2676.123
64.39000 2688.330
64.40000 2700.833
64.41000 2713.623
64.42000 2726.359
64.43000 2734.271
64.44000 2739.045
64.45000 2744.312
64.46000 2762.922
64.47000 2787.516
64.48000 2810.765
64.49000 2812.161
64.50000 2807.211
64.51000 2804.692
64.52000 2821.040
64.53000 2841.373
64.54000 2854.656
64.55000 2832.625
64.56000 2805.736
64.57000 2784.602
64.58000 2791.577
64.59000 2799.012
64.60000 2806.351
64.61000 2813.461
64.62000 2820.562
64.63000 2818.120
64.64000 2800.212
64.65000 2782.090
64.66000 2772.629
64.67000 2761.925
64.68000 2754.766
64.69000 2760.665
64.70000 2776.005
64.71000 2790.861
64.72000 2788.707
64.73000 2778.116
64.74000 2768.005
64.75000 2760.752
64.76000 2754.926
64.77000 2749.786
64.78000 2750.733
64.79000 2753.113
64.80000 2750.001
64.81000 2716.059
64.82000 2677.316
64.83000 2646.132
64.84000 2653.223
64.85000 2661.955
64.86000 2663.327
64.87000 2645.604
64.88000 2626.898
64.89000 2615.355
64.90000 2616.681
64.91000 2618.266
64.92000 2619.138
64.93000 2634.366
64.94000 2644.800
64.95000 2626.678
64.96000 2585.536
64.97000 2545.197
64.98000 2543.031
64.99000 2561.819
65.00000 2579.915
65.01000 2571.552
65.02000 2554.254
65.03000 2537.748
65.04000 2529.347
65.05000 2523.067
65.06000 2518.742
65.07000 2526.758
65.08000 2536.938
65.09000 2545.317
65.10000 2518.559
65.11000 2493.361
65.12000 2479.072
65.13000 2496.091
65.14000 2515.060
65.15000 2524.628
65.16000 2515.503
65.17000 2505.866
65.18000 2500.294
65.19000 2472.298
65.20000 2452.596
65.21000 2450.225
65.22000 2463.484
65.23000 2476.559
65.24000 2477.082
65.25000 2469.967
65.26000 2463.060
65.27000 2438.822
65.28000 2408.909
65.29000 2383.069
65.30000 2405.641
65.31000 2442.282
65.32000 2475.895
65.33000 2487.870
65.34000 2495.591
65.35000 2502.077
65.36000 2480.270
65.37000 2459.117
65.38000 2443.381
65.39000 2444.853
65.40000 2447.601
65.41000 2447.861
65.42000 2442.645
65.43000 2437.234
65.44000 2433.961
65.45000 2430.992
65.46000 2428.878
65.47000 2416.879
65.48000 2394.865
65.49000 2373.131
65.50000 2381.920
65.51000 2411.322
65.52000 2440.061
65.53000 2445.145
65.54000 2439.481
65.55000 2433.747
65.56000 2427.043
65.57000 2420.028
65.58000 2412.705
65.59000 2402.887
65.60000 2392.521
65.61000 2383.642
65.62000 2417.315
65.63000 2450.902
65.64000 2473.699
65.65000 2458.510
65.66000 2440.015
65.67000 2426.004
65.68000 2422.900
65.69000 2420.286
65.70000 2418.637
65.71000 2398.148
65.72000 2383.094
65.73000 2376.692
65.74000 2380.127
65.75000 2383.540
65.76000 2380.199
65.77000 2371.784
65.78000 2363.510
65.79000 2371.708
65.80000 2387.832
65.81000 2402.597
65.82000 2394.654
65.83000 2378.619
65.84000 2363.783
65.85000 2360.119
65.86000 2359.188
65.87000 2358.376
65.88000 2376.071
65.89000 2393.769
65.90000 2412.330
65.91000 2434.267
65.92000 2456.546
65.93000 2468.012
65.94000 2450.400
65.95000 2431.183
65.96000 2418.581
65.97000 2399.911
65.98000 2386.080
65.99000 2376.993
66.00000 2373.933
66.01000 2370.895
66.02000 2367.864
66.03000 2364.837
66.04000 2361.847
66.05000 2368.223
66.06000 2379.646
66.07000 2390.491
66.08000 2389.600
66.09000 2384.083
66.10000 2380.140
66.11000 2393.150
66.12000 2410.770
66.13000 2426.388
66.14000 2408.048
66.15000 2386.799
66.16000 2370.827
66.17000 2377.807
66.18000 2387.454
66.19000 2392.894
66.20000 2385.815
66.21000 2377.905
66.22000 2372.527
66.23000 2378.006
66.24000 2382.342
66.25000 2387.717
66.26000 2394.564
66.27000 2401.420
66.28000 2398.704
66.29000 2386.994
66.30000 2375.374
66.31000 2371.754
66.32000 2373.161
66.33000 2374.838
66.34000 2383.359
66.35000 2394.861
66.36000 2405.795
66.37000 2409.564
66.38000 2411.174
66.39000 2412.623
66.40000 2414.994
66.41000 2417.237
66.42000 2417.917
66.43000 2411.015
66.44000 2403.106
66.45000 2399.112
66.46000 2408.013
66.47000 2417.928
66.48000 2424.900
66.49000 2408.358
66.50000 2395.132
66.51000 2389.217
66.52000 2394.803
66.53000 2400.529
66.54000 2397.960
66.55000 2386.630
66.56000 2375.347
66.57000 2379.808
66.58000 2395.149
66.59000 2410.036
66.60000 2410.154
66.61000 2403.156
66.62000 2396.144
66.63000 2388.918
66.64000 2381.620
66.65000 2374.959
66.66000 2385.026
66.67000 2397.349
66.68000 2404.939
66.69000 2386.820
66.70000 2364.834
66.71000 2353.251
66.72000 2379.677
66.73000 2409.598
66.74000 2431.306
66.75000 2396.580
66.76000 2367.786
66.77000 2358.908
66.78000 2384.774
66.79000 2411.272
66.80000 2421.299
66.81000 2411.826
66.82000 2402.339
66.83000 2383.660
66.84000 2357.937
66.85000 2333.129
66.86000 2347.960
66.87000 2383.928
66.88000 2418.196
66.89000 2422.029
66.90000 2414.620
66.91000 2407.768
66.92000 2397.958
66.93000 2388.473
66.94000 2379.967
66.95000 2377.442
66.96000 2375.931
66.97000 2373.228
66.98000 2365.687
66.99000 2357.631
67.00000 2351.613
67.01000 2378.667
67.02000 2401.280
67.03000 2421.224
67.04000 2436.014
67.05000 2450.674
67.06000 2450.852
67.07000 2431.894
67.08000 2412.858
67.09000 2394.780
67.10000 2377.568
67.11000 2360.677
67.12000 2363.493
67.13000 2377.950
67.14000 2391.667
67.15000 2389.148
67.16000 2379.998
67.17000 2371.435
67.18000 2377.640
67.19000 2387.066
67.20000 2398.208
67.21000 2421.180
67.22000 2446.404
67.23000 2465.697
67.24000 2458.173
67.25000 2447.379
67.26000 2439.093
67.27000 2429.386
67.28000 2421.635
67.29000 2414.396
67.30000 2408.252
67.31000 2402.145
67.32000 2402.460
67.33000 2412.218
67.34000 2422.061
67.35000 2417.352
67.36000 2398.390
67.37000 2379.462
67.38000 2363.715
67.39000 2350.052
67.40000 2337.041
67.41000 2341.999
67.42000 2355.073
67.43000 2367.442
67.44000 2387.792
67.45000 2408.794
67.46000 2426.597
67.47000 2419.349
67.48000 2406.767
67.49000 2396.822
67.50000 2400.189
67.51000 2405.404
67.52000 2409.510
67.53000 2409.986
67.54000 2410.126
67.55000 2405.003
67.56000 2387.444
67.57000 2369.359
67.58000 2367.106
67.59000 2390.704
67.60000 2414.670
67.61000 2427.231
67.62000 2408.829
67.63000 2396.396
67.64000 2391.205
67.65000 2391.290
67.66000 2391.185
67.67000 2384.241
67.68000 2373.881
67.69000 2363.985
67.70000 2365.665
67.71000 2370.952
67.72000 2376.078
67.73000 2379.756
67.74000 2383.090
67.75000 2387.653
67.76000 2399.168
67.77000 2411.776
67.78000 2421.940
67.79000 2422.682
67.80000 2422.543
67.81000 2420.407
67.82000 2413.053
67.83000 2405.427
67.84000 2394.208
67.85000 2376.490
67.86000 2358.639
67.87000 2348.775
67.88000 2338.007
67.89000 2330.605
67.90000 2333.161
67.91000 2343.808
67.92000 2354.641
67.93000 2374.536
67.94000 2399.443
67.95000 2423.446
67.96000 2440.677
67.97000 2454.433
67.98000 2464.302
67.99000 2434.031
68.00000 2393.169
68.01000 2358.113
68.02000 2360.062
68.03000 2368.553
68.04000 2375.552
68.05000 2364.190
68.06000 2353.150
68.07000 2351.161
68.08000 2375.334
68.09000 2401.158
68.10000 2414.833
68.11000 2404.175
68.12000 2392.834
68.13000 2386.256
68.14000 2373.311
68.15000 2364.203
68.16000 2361.715
68.17000 2365.245
68.18000 2368.766
68.19000 2371.624
68.20000 2374.075
68.21000 2376.456
68.22000 2378.354
68.23000 2379.961
68.24000 2380.991
68.25000 2375.070
68.26000 2367.115
68.27000 2361.032
68.28000 2368.447
68.29000 2378.537
68.30000 2387.026
68.31000 2380.608
68.32000 2373.667
68.33000 2367.701
68.34000 2364.855
68.35000 2362.242
68.36000 2360.031
68.37000 2358.709
68.38000 2357.420
68.39000 2356.638
68.40000 2381.458
68.41000 2399.361
68.42000 2412.481
68.43000 2420.715
68.44000 2428.839
68.45000 2424.569
68.46000 2411.864
68.47000 2399.440
68.48000 2385.797
68.49000 2372.167
68.50000 2359.878
68.51000 2366.595
68.52000 2379.477
68.53000 2389.815
68.54000 2379.279
68.55000 2364.121
68.56000 2351.122
68.57000 2360.016
68.58000 2370.214
68.59000 2378.291
68.60000 2378.843
68.61000 2378.734
68.62000 2379.543
68.63000 2382.600
68.64000 2385.760
68.65000 2387.760
68.66000 2379.912
68.67000 2374.106
68.68000 2366.516
68.69000 2356.879
68.70000 2347.318
68.71000 2354.364
68.72000 2373.988
68.73000 2393.292
68.74000 2402.603
68.75000 2406.603
68.76000 2409.690
68.77000 2397.301
68.78000 2379.358
68.79000 2363.367
68.80000 2365.765
68.81000 2372.695
68.82000 2378.745
68.83000 2387.937
68.84000 2396.243
68.85000 2403.383
68.86000 2405.928
68.87000 2408.004
68.88000 2409.690
68.89000 2410.319
68.90000 2410.890
68.91000 2411.265
68.92000 2388.828
68.93000 2371.920
68.94000 2365.722
68.95000 2373.242
68.96000 2380.828
68.97000 2396.896
68.98000 2420.134
68.99000 2443.108
69.00000 2439.744
69.01000 2421.715
69.02000 2404.053
69.03000 2393.967
69.04000 2386.888
69.05000 2379.360
69.06000 2366.939
69.07000 2353.179
69.08000 2340.968
69.09000 2371.156
69.10000 2404.081
69.11000 2425.794
69.12000 2398.357
69.13000 2365.153
69.14000 2346.113
69.15000 2369.531
69.16000 2395.803
69.17000 2413.711
69.18000 2392.120
69.19000 2375.073
69.20000 2366.885
69.21000 2371.339
69.22000 2375.888
69.23000 2380.070
69.24000 2383.904
69.25000 2387.709
69.26000 2390.079
69.27000 2391.510
69.28000 2392.720
69.29000 2388.207
69.30000 2381.181
69.31000 2374.657
69.32000 2374.516
69.33000 2376.314
69.34000 2377.934
69.35000 2401.062
69.36000 2425.245
69.37000 2441.875
69.38000 2421.557
69.39000 2396.293
69.40000 2376.709
69.41000 2375.975
69.42000 2376.741
69.43000 2377.281
69.44000 2402.964
69.45000 2423.196
69.46000 2432.430
69.47000 2424.231
69.48000 2415.813
69.49000 2402.135
69.50000 2382.856
69.51000 2363.658
69.52000 2354.327
69.53000 2351.995
69.54000 2349.863
69.55000 2354.372
69.56000 2362.103
69.57000 2370.107
69.58000 2382.228
69.59000 2395.733
69.60000 2408.073
69.61000 2400.122
69.62000 2388.913
69.63000 2378.282
69.64000 2370.821
69.65000 2363.840
69.66000 2361.138
69.67000 2374.190
69.68000 2388.706
69.69000 2399.260
69.70000 2376.939
69.71000 2358.521
69.72000 2354.082
69.73000 2374.211
69.74000 2394.799
69.75000 2396.372
69.76000 2375.255
69.77000 2354.135
69.78000 2348.641
69.79000 2355.418
69.80000 2362.110
69.81000 2364.982
69.82000 2365.802
69.83000 2367.256
69.84000 2380.202
69.85000 2397.423
69.86000 2413.363
69.87000 2409.010
69.88000 2400.428
69.89000 2391.785
69.90000 2382.762
69.91000 2373.674
69.92000 2365.711
69.93000 2362.351
69.94000 2359.485
69.95000 2357.340
69.96000 2346.633
69.97000 2337.879
69.98000 2337.080
69.99000 2351.764
70.00000 2366.847
