20.00000 553.238
20.01000 549.603
20.02000 545.448
20.03000 543.249
20.04000 548.870
20.05000 555.306
20.06000 560.094
20.07000 555.526
20.08000 551.554
20.09000 550.334
20.10000 554.351
20.11000 558.495
20.12000 559.457
20.13000 556.281
20.14000 553.091
20.15000 561.906
20.16000 580.990
20.17000 599.679
20.18000 595.421
20.19000 577.812
20.20000 561.182
20.21000 565.366
20.22000 577.929
20.23000 589.666
20.24000 582.271
20.25000 570.740
20.26000 559.617
20.27000 551.257
20.28000 543.414
20.29000 538.172
20.30000 544.509
20.31000 552.229
20.32000 558.133
20.33000 570.727
20.34000 581.026
20.35000 583.862
20.36000 570.981
20.37000 557.598
20.38000 552.671
20.39000 559.988
20.40000 567.406
20.41000 570.484
20.42000 569.383
20.43000 568.288
20.44000 567.703
20.45000 567.446
20.46000 567.283
20.47000 569.600
20.48000 573.020
20.49000 576.251
20.50000 580.144
20.51000 583.903
20.52000 586.323
20.53000 578.449
20.54000 568.418
20.55000 560.233
20.56000 561.216
20.57000 563.449
20.58000 565.200
20.59000 567.927
20.60000 570.171
20.61000 569.260
20.62000 561.002
20.63000 552.443
20.64000 547.424
20.65000 548.095
20.66000 548.843
20.67000 549.232
20.68000 552.612
20.69000 554.900
20.70000 557.738
20.71000 560.970
20.72000 564.224
20.73000 568.203
20.74000 572.538
20.75000 576.675
20.76000 571.141
20.77000 562.944
20.78000 555.717
20.79000 557.009
20.80000 560.291
20.81000 563.052
20.82000 562.909
20.83000 562.319
20.84000 561.845
20.85000 563.679
20.86000 565.343
20.87000 566.661
20.88000 567.087
20.89000 567.467
20.90000 565.685
20.91000 560.044
20.92000 554.329
20.93000 551.194
20.94000 557.850
20.95000 562.440
20.96000 565.561
20.97000 567.507
20.98000 569.383
20.99000 568.005
21.00000 564.854
21.01000 561.821
21.02000 573.642
21.03000 589.993
21.04000 604.444
21.05000 599.699
21.06000 589.967
21.07000 581.304
21.08000 579.338
21.09000 578.537
21.10000 577.878
21.11000 573.311
21.12000 569.208
21.13000 565.641
21.14000 563.602
21.15000 561.655
21.16000 558.000
21.17000 550.971
21.18000 543.852
21.19000 539.750
21.20000 545.443
21.21000 549.461
21.22000 546.880
21.23000 538.398
21.24000 530.131
21.25000 536.140
21.26000 550.768
21.27000 564.959
21.28000 574.737
21.29000 582.263
21.30000 589.022
21.31000 586.778
21.32000 581.937
21.33000 577.161
21.34000 572.849
21.35000 568.627
21.36000 565.086
21.37000 569.802
21.38000 574.589
21.39000 576.937
21.40000 571.597
21.41000 565.694
21.42000 562.296
21.43000 564.366
21.44000 566.627
21.45000 567.991
21.46000 558.960
21.47000 552.458
21.48000 554.322
21.49000 564.586
21.50000 574.781
21.51000 577.739
21.52000 575.848
21.53000 574.000
21.54000 581.738
21.55000 593.382
21.56000 603.736
21.57000 596.262
21.58000 583.090
21.59000 571.562
21.60000 573.264
21.61000 577.847
21.62000 581.767
21.63000 588.277
21.64000 594.078
21.65000 598.345
21.66000 597.255
21.67000 595.704
21.68000 595.627
21.69000 599.107
21.70000 602.745
21.71000 605.033
21.72000 608.830
21.73000 611.594
21.74000 618.562
21.75000 630.271
21.76000 641.935
21.77000 644.204
21.78000 639.469
21.79000 634.815
21.80000 642.437
21.81000 655.860
21.82000 669.125
21.83000 679.802
21.84000 689.563
21.85000 699.446
21.86000 710.446
21.87000 721.718
21.88000 731.532
21.89000 749.731
21.90000 766.426
21.91000 781.133
21.92000 788.132
21.93000 794.359
21.94000 800.829
21.95000 807.947
21.96000 815.099
21.97000 819.777
21.98000 835.508
21.99000 847.242
22.00000 856.299
22.01000 861.981
22.02000 867.642
22.03000 868.929
22.04000 866.578
22.05000 864.255
22.06000 865.020
22.07000 867.467
22.08000 869.709
22.09000 867.849
22.10000 864.384
22.11000 860.145
22.12000 847.651
22.13000 832.930
22.14000 819.897
22.15000 814.901
22.16000 811.838
22.17000 806.445
22.18000 790.995
22.19000 774.388
22.20000 759.432
22.21000 749.352
22.22000 739.591
22.23000 732.971
22.24000 717.814
22.25000 706.322
22.26000 694.547
22.27000 682.373
22.28000 670.198
22.29000 663.017
22.30000 660.488
22.31000 657.979
22.32000 648.681
22.33000 635.368
22.34000 622.465
22.35000 619.746
22.36000 621.433
22.37000 622.698
22.38000 618.715
22.39000 613.163
22.40000 608.170
22.41000 608.552
22.42000 609.841
22.43000 610.033
22.44000 604.946
22.45000 599.166
22.46000 593.496
22.47000 588.190
22.48000 582.912
22.49000 579.209
22.50000 575.749
22.51000 573.137
22.52000 571.781
22.53000 572.384
22.54000 573.010
22.55000 572.992
22.56000 572.299
22.57000 571.610
22.58000 568.226
22.59000 563.025
22.60000 557.896
22.61000 555.074
22.62000 553.357
22.63000 551.829
22.64000 553.097
22.65000 555.291
22.66000 557.292
22.67000 553.347
22.68000 548.655
22.69000 544.186
22.70000 540.911
22.71000 537.813
22.72000 534.477
22.73000 530.273
22.74000 525.991
22.75000 522.891
22.76000 532.645
22.77000 540.606
22.78000 539.969
22.79000 524.447
22.80000 508.660
22.81000 507.650
22.82000 523.985
22.83000 540.310
22.84000 542.397
22.85000 533.500
22.86000 524.768
22.87000 523.014
22.88000 524.953
22.89000 526.510
22.90000 521.315
22.91000 513.645
22.92000 506.558
22.93000 510.364
22.94000 516.243
22.95000 521.683
22.96000 524.464
22.97000 526.799
22.98000 527.906
22.99000 524.069
23.00000 519.712
23.01000 516.464
23.02000 520.454
23.03000 523.889
23.04000 525.312
23.05000 522.877
23.06000 520.346
23.07000 518.630
23.08000 517.982
23.09000 517.339
23.10000 517.471
23.11000 518.272
23.12000 519.096
23.13000 521.291
23.14000 524.291
23.15000 526.816
23.16000 519.106
23.17000 507.245
23.18000 496.156
23.19000 497.393
23.20000 501.650
23.21000 505.711
23.22000 508.431
23.23000 510.899
23.24000 514.642
23.25000 524.104
23.26000 534.258
23.27000 542.036
23.28000 532.857
23.29000 524.675
23.30000 518.888
23.31000 518.180
23.32000 517.638
23.33000 513.868
23.34000 505.390
23.35000 496.872
23.36000 497.607
23.37000 507.327
23.38000 516.978
23.39000 520.420
23.40000 519.823
23.41000 519.283
23.42000 520.310
23.43000 522.037
23.44000 523.671
23.45000 517.671
23.46000 509.985
23.47000 503.781
23.48000 509.065
23.49000 516.774
23.50000 521.898
23.51000 514.074
23.52000 504.470
23.53000 496.922
23.54000 502.164
23.55000 507.203
23.56000 511.936
23.57000 515.948
23.58000 519.931
23.59000 521.310
23.60000 518.469
23.61000 515.570
23.62000 514.057
23.63000 521.413
23.64000 526.376
23.65000 528.841
23.66000 529.500
23.67000 530.053
23.68000 526.858
23.69000 521.806
23.70000 516.983
23.71000 512.128
23.72000 507.607
23.73000 503.071
23.74000 498.396
23.75000 493.689
23.76000 490.335
23.77000 494.576
23.78000 499.998
23.79000 504.363
23.80000 503.862
23.81000 503.077
23.82000 502.134
23.83000 500.783
23.84000 499.411
23.85000 499.915
23.86000 503.787
23.87000 507.728
23.88000 509.897
23.89000 505.881
23.90000 503.099
23.91000 498.762
23.92000 493.171
23.93000 487.789
23.94000 492.322
23.95000 502.297
23.96000 511.904
23.97000 517.109
23.98000 520.424
23.99000 522.415
24.00000 510.870
24.01000 495.782
24.02000 483.411
24.03000 488.199
24.04000 495.995
24.05000 502.410
24.06000 499.500
24.07000 496.259
24.08000 495.139
24.09000 500.103
24.10000 505.446
24.11000 506.568
24.12000 499.298
24.13000 491.799
24.14000 487.464
24.15000 500.596
24.16000 509.868
24.17000 513.509
24.18000 512.075
24.19000 510.586
24.20000 505.389
24.21000 497.936
24.22000 490.701
24.23000 491.571
24.24000 495.628
24.25000 498.919
24.26000 493.107
24.27000 484.650
24.28000 478.166
24.29000 485.767
24.30000 496.136
24.31000 504.847
24.32000 497.152
24.33000 489.012
24.34000 482.452
24.35000 480.906
24.36000 479.732
24.37000 480.797
24.38000 486.787
24.39000 492.953
24.40000 496.683
24.41000 488.546
24.42000 482.660
24.43000 479.061
24.44000 477.776
24.45000 476.502
24.46000 476.315
24.47000 476.863
24.48000 477.399
24.49000 479.468
24.50000 482.133
24.51000 484.830
24.52000 487.965
24.53000 491.240
24.54000 494.057
24.55000 493.154
24.56000 491.433
24.57000 489.959
24.58000 492.842
24.59000 495.804
24.60000 499.158
24.61000 503.892
24.62000 508.746
24.63000 510.780
24.64000 505.959
24.65000 500.829
24.66000 497.594
24.67000 480.299
24.68000 467.614
24.69000 466.868
24.70000 479.694
24.71000 492.475
24.72000 493.545
24.73000 485.816
24.74000 478.217
24.75000 474.743
24.76000 473.434
24.77000 472.266
24.78000 473.458
24.79000 475.489
24.80000 477.459
24.81000 478.855
24.82000 480.110
24.83000 481.205
24.84000 482.829
24.85000 484.292
24.86000 487.739
24.87000 498.943
24.88000 510.930
24.89000 517.997
24.90000 511.833
24.91000 504.940
24.92000 500.420
24.93000 485.155
24.94000 473.752
24.95000 470.069
24.96000 476.196
24.97000 482.356
24.98000 487.556
24.99000 491.952
25.00000 496.296
25.01000 497.734
25.02000 497.523
25.03000 497.062
25.04000 491.524
25.05000 483.985
25.06000 477.414
25.07000 481.268
25.08000 487.955
25.09000 493.883
25.10000 496.996
25.11000 499.245
25.12000 501.837
25.13000 505.913
25.14000 510.161
25.15000 512.299
25.16000 508.156
25.17000 503.597
25.18000 500.498
25.19000 490.947
25.20000 483.671
25.21000 480.332
25.22000 482.562
25.23000 484.833
25.24000 485.161
25.25000 483.664
25.26000 482.178
25.27000 484.002
25.28000 487.849
25.29000 491.285
25.30000 484.340
25.31000 472.873
25.32000 462.329
25.33000 463.397
25.34000 467.965
25.35000 472.076
25.36000 480.448
25.37000 488.549
25.38000 494.072
25.39000 487.087
25.40000 478.444
25.41000 472.746
25.42000 476.751
25.43000 481.518
25.44000 484.870
25.45000 484.934
25.46000 484.886
25.47000 485.038
25.48000 485.505
25.49000 485.975
25.50000 484.830
25.51000 481.977
25.52000 479.137
25.53000 475.955
25.54000 472.570
25.55000 469.235
25.56000 467.559
25.57000 466.682
25.58000 466.368
25.59000 474.433
25.60000 485.294
25.61000 495.209
25.62000 491.909
25.63000 486.305
25.64000 481.046
25.65000 477.665
25.66000 474.566
25.67000 470.655
25.68000 463.774
25.69000 456.620
25.70000 451.430
25.71000 459.924
25.72000 466.962
25.73000 474.811
25.74000 484.076
25.75000 493.367
25.76000 489.560
25.77000 470.254
25.78000 450.961
25.79000 446.962
25.80000 454.867
25.81000 462.684
25.82000 466.685
25.83000 468.654
25.84000 470.540
25.85000 470.949
25.86000 470.812
25.87000 470.686
25.88000 471.794
25.89000 473.071
25.90000 473.676
25.91000 470.189
25.92000 466.008
25.93000 463.278
25.94000 466.433
25.95000 470.214
25.96000 473.039
25.97000 463.622
25.98000 455.719
25.99000 451.127
26.00000 452.932
26.01000 454.897
26.02000 456.738
26.03000 458.414
26.04000 460.088
26.05000 463.213
26.06000 467.598
26.07000 471.798
26.08000 464.727
26.09000 451.000
26.10000 438.012
26.11000 441.206
26.12000 451.008
26.13000 460.181
26.14000 459.227
26.15000 455.764
26.16000 452.656
26.17000 451.987
26.18000 451.782
26.19000 452.810
26.20000 459.405
26.21000 466.679
26.22000 472.263
26.23000 467.992
26.24000 464.067
26.25000 462.732
26.26000 466.930
26.27000 471.312
26.28000 472.737
26.29000 469.815
26.30000 466.854
26.31000 466.341
26.32000 468.226
26.33000 470.046
26.34000 465.733
26.35000 457.401
26.36000 449.613
26.37000 456.799
26.38000 470.747
26.39000 483.942
26.40000 480.815
26.41000 473.250
26.42000 465.990
26.43000 461.117
26.44000 456.753
26.45000 453.061
26.46000 452.763
26.47000 452.936
26.48000 453.072
26.49000 459.942
26.50000 465.895
26.51000 467.071
26.52000 456.958
26.53000 446.370
26.54000 440.511
26.55000 442.374
26.56000 444.347
26.57000 445.380
26.58000 442.405
26.59000 440.408
26.60000 441.589
26.61000 445.085
26.62000 448.494
26.63000 448.810
26.64000 447.582
26.65000 446.408
26.66000 450.049
26.67000 454.984
26.68000 459.097
26.69000 455.862
26.70000 450.884
26.71000 446.821
26.72000 447.933
26.73000 449.856
26.74000 451.407
26.75000 450.859
26.76000 450.248
26.77000 449.941
26.78000 450.427
26.79000 450.953
26.80000 451.473
26.81000 451.980
26.82000 452.487
26.83000 452.766
26.84000 448.792
26.85000 446.062
26.86000 450.596
26.87000 461.030
26.88000 471.191
26.89000 468.057
26.90000 457.573
26.91000 447.470
26.92000 447.320
26.93000 450.760
26.94000 453.251
26.95000 445.962
26.96000 436.093
26.97000 428.948
26.98000 439.158
26.99000 452.436
27.00000 463.379
27.01000 458.406
27.02000 452.850
27.03000 448.438
27.04000 447.331
27.05000 446.433
27.06000 445.366
27.07000 443.959
27.08000 442.543
27.09000 441.722
27.10000 453.702
27.11000 462.158
27.12000 461.148
27.13000 451.534
27.14000 442.037
27.15000 440.774
27.16000 444.555
27.17000 448.228
27.18000 450.077
27.19000 451.099
27.20000 451.926
27.21000 450.396
27.22000 448.178
27.23000 446.168
27.24000 445.664
27.25000 445.458
27.26000 445.286
27.27000 448.641
27.28000 451.814
27.29000 454.696
27.30000 456.643
27.31000 458.519
27.32000 456.506
27.33000 445.876
27.34000 434.933
27.35000 428.294
27.36000 438.084
27.37000 445.193
27.38000 448.482
27.39000 447.869
27.40000 447.250
27.41000 445.998
27.42000 444.315
27.43000 442.670
27.44000 445.512
27.45000 450.253
27.46000 454.584
27.47000 453.125
27.48000 449.789
27.49000 446.617
27.50000 444.796
27.51000 443.274
27.52000 441.969
27.53000 441.970
27.54000 442.131
27.55000 443.740
27.56000 450.486
27.57000 457.684
27.58000 460.535
27.59000 452.741
27.60000 444.461
27.61000 439.224
27.62000 435.939
27.63000 433.580
27.64000 435.268
27.65000 441.593
27.66000 447.892
27.67000 447.475
27.68000 441.974
27.69000 436.563
27.70000 436.217
27.71000 438.421
27.72000 440.390
27.73000 438.390
27.74000 434.965
27.75000 432.243
27.76000 436.120
27.77000 441.624
27.78000 446.429
27.79000 438.921
27.80000 430.770
27.81000 425.074
27.82000 429.044
27.83000 434.000
27.84000 435.474
27.85000 427.514
27.86000 419.026
27.87000 413.446
27.88000 421.595
27.89000 427.828
27.90000 429.708
27.91000 426.014
27.92000 422.304
27.93000 421.704
27.94000 423.733
27.95000 425.739
27.96000 427.159
27.97000 428.217
27.98000 429.501
27.99000 435.446
28.00000 443.241
28.01000 450.082
28.02000 446.535
28.03000 440.144
28.04000 434.473
28.05000 427.076
28.06000 420.392
28.07000 416.152
28.08000 422.628
28.09000 430.360
28.10000 436.244
28.11000 436.587
28.12000 436.558
28.13000 436.538
28.14000 439.228
28.15000 441.301
28.16000 443.068
28.17000 444.400
28.18000 445.728
28.19000 442.952
28.20000 436.289
28.21000 429.676
28.22000 430.580
28.23000 436.172
28.24000 441.564
28.25000 441.820
28.26000 439.822
28.27000 437.952
28.28000 437.706
28.29000 437.953
28.30000 438.176
28.31000 440.477
28.32000 442.871
28.33000 443.702
28.34000 436.886
28.35000 429.047
28.36000 424.479
28.37000 430.762
28.38000 437.909
28.39000 442.945
28.40000 446.049
28.41000 448.346
28.42000 447.412
28.43000 441.362
28.44000 435.247
28.45000 430.412
28.46000 426.941
28.47000 423.485
28.48000 422.757
28.49000 423.946
28.50000 425.187
28.51000 428.171
28.52000 432.001
28.53000 435.624
28.54000 436.139
28.55000 435.609
28.56000 435.125
28.57000 438.296
28.58000 441.859
28.59000 444.744
28.60000 443.918
28.61000 442.530
28.62000 439.167
28.63000 428.534
28.64000 417.226
28.65000 409.004
28.66000 420.063
28.67000 429.301
28.68000 434.447
28.69000 432.405
28.70000 430.229
28.71000 427.465
28.72000 424.000
28.73000 420.541
28.74000 419.074
28.75000 419.175
28.76000 419.305
28.77000 420.694
28.78000 422.760
28.79000 424.766
28.80000 425.707
28.81000 426.250
28.82000 426.753
28.83000 426.403
28.84000 425.891
28.85000 425.113
28.86000 422.690
28.87000 419.985
28.88000 417.703
28.89000 417.152
28.90000 416.787
28.91000 416.513
28.92000 413.543
28.93000 411.099
28.94000 411.979
28.95000 419.325
28.96000 426.837
28.97000 429.293
28.98000 425.016
28.99000 420.708
29.00000 421.199
29.01000 425.906
29.02000 430.562
29.03000 432.067
29.04000 431.696
29.05000 431.208
29.06000 428.086
29.07000 423.882
29.08000 419.945
29.09000 419.383
29.10000 419.744
29.11000 420.014
29.12000 419.649
29.13000 419.163
29.14000 418.058
29.15000 414.136
29.16000 409.866
29.17000 406.583
29.18000 413.338
29.19000 419.250
29.20000 423.426
29.21000 423.863
29.22000 424.175
29.23000 422.468
29.24000 417.771
29.25000 413.047
29.26000 417.598
29.27000 431.308
29.28000 444.919
29.29000 448.981
29.30000 446.740
29.31000 444.282
29.32000 435.736
29.33000 424.421
29.34000 413.710
29.35000 414.288
29.36000 418.089
29.37000 421.141
29.38000 418.274
29.39000 414.136
29.40000 410.515
29.41000 409.519
29.42000 408.892
29.43000 408.397
29.44000 413.969
29.45000 418.847
29.46000 421.292
29.47000 417.947
29.48000 414.353
29.49000 413.908
29.50000 418.643
29.51000 423.453
29.52000 425.984
29.53000 428.758
29.54000 430.592
29.55000 424.123
29.56000 411.560
29.57000 399.241
29.58000 395.816
29.59000 396.865
29.60000 397.868
29.61000 400.919
29.62000 404.422
29.63000 408.557
29.64000 418.409
29.65000 429.627
29.66000 438.346
29.67000 432.804
29.68000 425.004
29.69000 418.705
29.70000 417.439
29.71000 416.809
29.72000 416.327
29.73000 416.230
29.74000 416.153
29.75000 417.093
29.76000 419.884
29.77000 422.715
29.78000 424.285
29.79000 429.446
29.80000 433.015
29.81000 435.349
29.82000 436.673
29.83000 437.934
29.84000 436.026
29.85000 432.353
29.86000 428.812
29.87000 428.400
29.88000 429.148
29.89000 430.148
29.90000 433.795
29.91000 438.145
29.92000 442.518
29.93000 447.038
29.94000 451.585
29.95000 455.338
29.96000 447.151
29.97000 439.297
29.98000 434.490
29.99000 438.551
30.00000 443.178
30.01000 445.248
30.02000 442.161
30.03000 438.928
30.04000 437.046
30.05000 446.275
30.06000 452.805
30.07000 453.405
30.08000 448.568
30.09000 443.787
30.10000 443.029
30.11000 444.753
30.12000 446.429
30.13000 447.717
30.14000 448.784
30.15000 450.056
30.16000 453.808
30.17000 458.292
30.18000 461.370
30.19000 454.223
30.20000 445.034
30.21000 437.293
30.22000 441.895
30.23000 447.064
30.24000 450.936
30.25000 450.626
30.26000 449.999
30.27000 448.927
30.28000 446.862
30.29000 444.761
30.30000 443.483
30.31000 440.158
30.32000 437.767
30.33000 436.796
30.34000 437.290
30.35000 437.746
30.36000 433.793
30.37000 426.820
30.38000 419.997
30.39000 419.865
30.40000 422.765
30.41000 425.826
30.42000 431.185
30.43000 437.295
30.44000 442.498
30.45000 440.197
30.46000 436.222
30.47000 432.808
30.48000 427.987
30.49000 423.737
30.50000 422.041
30.51000 429.471
30.52000 437.713
30.53000 444.116
30.54000 445.983
30.55000 447.640
30.56000 448.691
30.57000 442.654
30.58000 438.187
30.59000 438.614
30.60000 444.696
30.61000 450.760
30.62000 451.063
30.63000 446.969
30.64000 442.941
30.65000 447.458
30.66000 456.150
30.67000 464.540
30.68000 467.767
30.69000 469.127
30.70000 469.922
30.71000 465.332
30.72000 459.406
30.73000 454.228
30.74000 452.014
30.75000 450.538
30.76000 449.318
30.77000 449.110
30.78000 449.006
30.79000 450.230
30.80000 455.076
30.81000 460.126
30.82000 463.456
30.83000 469.376
30.84000 473.784
30.85000 481.438
30.86000 493.280
30.87000 505.123
30.88000 506.370
30.89000 498.591
30.90000 490.898
30.91000 493.824
30.92000 502.670
30.93000 511.654
30.94000 523.511
30.95000 536.517
30.96000 548.530
30.97000 549.633
30.98000 547.725
30.99000 546.030
31.00000 559.933
31.01000 574.502
31.02000 590.929
31.03000 615.560
31.04000 641.163
31.05000 666.831
31.06000 692.694
31.07000 718.571
31.08000 736.251
31.09000 784.822
31.10000 821.885
31.11000 868.053
31.12000 927.306
31.13000 986.663
31.14000 1054.906
31.15000 1131.635
31.16000 1207.816
31.17000 1293.886
31.18000 1384.812
31.19000 1475.891
31.20000 1570.960
31.21000 1667.791
31.22000 1766.893
31.23000 1895.218
31.24000 2032.482
31.25000 2156.283
31.26000 2295.759
31.27000 2421.091
31.28000 2548.539
31.29000 2686.417
31.30000 2825.703
31.31000 2962.094
31.32000 3088.805
31.33000 3214.739
31.34000 3303.691
31.35000 3382.103
31.36000 3441.308
31.37000 3500.280
31.38000 3558.881
31.39000 3617.477
31.40000 3644.436
31.41000 3637.427
31.42000 3630.437
31.43000 3593.738
31.44000 3536.447
31.45000 3478.733
31.46000 3406.786
31.47000 3327.882
31.48000 3248.306
31.49000 3158.478
31.50000 3065.178
31.51000 2979.847
31.52000 2849.427
31.53000 2724.208
31.54000 2597.467
31.55000 2462.321
31.56000 2325.889
31.57000 2195.505
31.58000 2087.544
31.59000 1981.689
31.60000 1904.563
31.61000 1753.168
31.62000 1633.721
31.63000 1525.099
31.64000 1435.634
31.65000 1346.536
31.66000 1263.989
31.67000 1189.320
31.68000 1114.803
31.69000 1057.660
31.70000 1014.503
31.71000 971.414
31.72000 931.399
31.73000 893.045
31.74000 854.931
31.75000 821.199
31.76000 789.110
31.77000 759.383
31.78000 734.557
31.79000 713.360
31.80000 691.452
31.81000 665.127
31.82000 638.041
31.83000 612.099
31.84000 590.870
31.85000 570.152
31.86000 554.614
31.87000 542.974
31.88000 534.067
31.89000 525.786
31.90000 518.731
31.91000 511.709
31.92000 504.094
31.93000 495.686
31.94000 487.277
31.95000 480.191
31.96000 474.289
31.97000 468.405
31.98000 463.750
31.99000 459.832
32.00000 455.884
32.01000 451.261
32.02000 446.357
32.03000 441.761
32.04000 438.709
32.05000 436.334
32.06000 434.658
32.07000 437.891
32.08000 442.072
32.09000 443.490
32.10000 432.216
32.11000 419.367
32.12000 409.467
32.13000 420.544
32.14000 430.518
32.15000 436.051
32.16000 431.956
32.17000 427.531
32.18000 422.454
32.19000 416.404
32.20000 410.345
32.21000 409.279
32.22000 413.183
32.23000 417.063
32.24000 418.488
32.25000 418.279
32.26000 417.961
32.27000 414.510
32.28000 409.623
32.29000 404.993
32.30000 403.382
32.31000 402.781
32.32000 402.377
32.33000 403.553
32.34000 405.070
32.35000 406.938
32.36000 410.609
32.37000 414.534
32.38000 417.634
32.39000 420.843
32.40000 423.426
32.41000 425.619
32.42000 426.877
32.43000 428.094
32.44000 426.596
32.45000 420.601
32.46000 414.538
32.47000 411.336
32.48000 409.089
32.49000 407.571
32.50000 407.388
32.51000 408.192
32.52000 408.981
32.53000 409.190
32.54000 409.105
32.55000 409.024
32.56000 406.952
32.57000 404.372
32.58000 401.590
32.59000 396.960
32.60000 391.886
32.61000 388.212
32.62000 392.594
32.63000 398.263
32.64000 402.849
32.65000 400.098
32.66000 397.269
32.67000 397.718
32.68000 406.853
32.69000 416.453
32.70000 418.794
32.71000 407.807
32.72000 396.532
32.73000 390.258
32.74000 393.368
32.75000 395.533
32.76000 395.433
32.77000 393.463
32.78000 391.624
32.79000 396.440
32.80000 404.990
32.81000 413.238
32.82000 417.136
32.83000 419.214
32.84000 421.648
32.85000 427.833
32.86000 435.023
32.87000 442.897
32.88000 455.201
32.89000 468.301
32.90000 479.130
32.91000 474.229
32.92000 468.710
32.93000 466.919
32.94000 476.058
32.95000 485.905
32.96000 492.008
32.97000 490.503
32.98000 488.776
32.99000 487.768
33.00000 485.785
33.01000 484.383
33.02000 475.392
33.03000 459.390
33.04000 443.480
33.05000 434.505
33.06000 429.844
33.07000 425.311
33.08000 418.912
33.09000 412.065
33.10000 405.283
33.11000 399.309
33.12000 393.574
33.13000 387.992
33.14000 383.522
33.15000 379.277
33.16000 375.696
33.17000 370.166
33.18000 365.335
33.19000 362.453
33.20000 365.898
33.21000 369.829
33.22000 373.082
33.23000 374.814
33.24000 376.489
33.25000 377.511
33.26000 365.491
33.27000 356.790
33.28000 353.311
33.29000 355.258
33.30000 357.210
33.31000 359.748
33.32000 362.691
33.33000 365.572
33.34000 365.785
33.35000 364.774
33.36000 363.887
33.37000 364.809
33.38000 366.326
33.39000 367.315
33.40000 363.889
33.41000 359.470
33.42000 355.670
33.43000 353.253
33.44000 351.380
33.45000 351.668
33.46000 359.736
33.47000 368.503
33.48000 371.420
33.49000 359.802
33.50000 347.501
33.51000 339.675
33.52000 344.689
33.53000 348.492
33.54000 350.667
33.55000 350.945
33.56000 351.219
33.57000 351.132
33.58000 350.769
33.59000 350.411
33.60000 350.024
33.61000 349.635
33.62000 349.443
33.63000 352.674
33.64000 357.153
33.65000 360.673
33.66000 354.995
33.67000 347.016
33.68000 340.034
33.69000 343.972
33.70000 348.907
33.71000 352.673
33.72000 351.766
33.73000 350.371
33.74000 349.277
33.75000 349.008
33.76000 348.786
33.77000 348.640
33.78000 345.100
33.79000 342.428
33.80000 341.124
33.81000 341.599
33.82000 342.080
33.83000 341.250
33.84000 339.294
33.85000 337.359
33.86000 340.293
33.87000 345.930
33.88000 351.177
33.89000 348.162
33.90000 341.820
33.91000 336.037
33.92000 336.481
33.93000 338.655
33.94000 340.589
33.95000 343.724
33.96000 346.639
33.97000 348.853
33.98000 347.945
33.99000 346.663
34.00000 347.379
34.01000 354.174
34.02000 361.387
34.03000 366.327
34.04000 357.415
34.05000 350.408
34.06000 346.298
34.07000 346.385
34.08000 346.506
34.09000 345.308
34.10000 342.839
34.11000 340.388
34.12000 339.928
34.13000 340.740
34.14000 341.549
34.15000 342.277
34.16000 342.968
34.17000 343.528
34.18000 342.394
34.19000 340.736
34.20000 339.240
34.21000 341.308
34.22000 343.782
34.23000 345.486
34.24000 343.369
34.25000 340.732
34.26000 339.067
34.27000 340.678
34.28000 342.556
34.29000 343.885
34.30000 336.034
34.31000 329.784
34.32000 324.514
34.33000 320.822
34.34000 317.152
34.35000 321.104
34.36000 333.309
34.37000 345.471
34.38000 348.356
34.39000 344.622
34.40000 340.922
34.41000 338.414
34.42000 336.494
34.43000 334.714
34.44000 335.119
34.45000 336.270
34.46000 337.323
34.47000 336.166
34.48000 334.676
34.49000 333.021
34.50000 330.441
34.51000 327.719
34.52000 326.158
34.53000 328.934
34.54000 332.121
34.55000 334.449
34.56000 334.858
34.57000 335.100
34.58000 330.958
34.59000 319.004
34.60000 306.896
34.61000 307.586
34.62000 323.789
34.63000 340.000
34.64000 339.836
34.65000 326.636
34.66000 313.784
34.67000 317.025
34.68000 329.036
34.69000 340.338
34.70000 338.411
34.71000 331.491
34.72000 325.076
34.73000 327.000
34.74000 330.684
34.75000 333.860
34.76000 333.857
34.77000 333.300
34.78000 333.287
34.79000 335.526
34.80000 338.012
34.81000 339.880
34.82000 337.276
34.83000 335.025
34.84000 332.593
34.85000 329.804
34.86000 327.005
34.87000 328.448
34.88000 335.626
34.89000 342.832
34.90000 341.900
34.91000 333.700
34.92000 325.660
34.93000 328.271
34.94000 337.312
34.95000 346.012
34.96000 346.882
34.97000 344.486
34.98000 342.238
34.99000 332.260
35.00000 321.139
35.01000 312.411
35.02000 320.617
35.03000 332.125
35.04000 340.508
35.05000 334.433
35.06000 326.544
35.07000 320.455
35.08000 323.746
35.09000 326.899
35.10000 330.103
35.11000 333.415
35.12000 336.732
35.13000 337.415
35.14000 334.136
35.15000 330.818
35.16000 329.156
35.17000 335.420
35.18000 339.499
35.19000 333.124
35.20000 319.744
35.21000 306.602
35.22000 300.389
35.23000 297.374
35.24000 294.515
35.25000 298.999
35.26000 305.292
35.27000 311.054
35.28000 312.540
35.29000 313.095
35.30000 314.007
35.31000 316.768
35.32000 319.793
35.33000 322.187
35.34000 322.186
35.35000 322.021
35.36000 321.097
35.37000 318.346
35.38000 315.513
35.39000 314.332
35.40000 315.906
35.41000 317.523
35.42000 318.380
35.43000 325.949
35.44000 331.070
35.45000 330.289
35.46000 325.110
35.47000 319.958
35.48000 315.879
35.49000 312.348
35.50000 308.968
35.51000 312.483
35.52000 318.032
35.53000 322.944
35.54000 321.981
35.55000 319.592
35.56000 318.085
35.57000 321.702
35.58000 326.145
35.59000 329.743
35.60000 323.962
35.61000 318.491
35.62000 314.718
35.63000 315.484
35.64000 316.496
35.65000 317.216
35.66000 317.395
35.67000 317.562
35.68000 317.655
35.69000 308.199
35.70000 301.651
35.71000 304.468
35.72000 315.078
35.73000 325.477
35.74000 324.853
35.75000 318.000
35.76000 311.384
35.77000 307.176
35.78000 304.100
35.79000 301.442
35.80000 303.233
35.81000 306.224
35.82000 308.891
35.83000 309.436
35.84000 309.596
35.85000 309.729
35.86000 309.940
35.87000 310.121
35.88000 309.635
35.89000 307.177
35.90000 304.590
35.91000 301.025
35.92000 295.458
35.93000 289.831
35.94000 286.535
35.95000 296.629
35.96000 303.802
35.97000 307.924
35.98000 309.204
35.99000 310.505
36.00000 313.478
36.01000 317.499
36.02000 321.411
36.03000 318.659
36.04000 313.298
36.05000 308.228
36.06000 306.768
36.07000 306.388
36.08000 306.121
36.09000 306.689
36.10000 307.426
36.11000 308.049
36.12000 312.744
36.13000 317.117
36.14000 319.481
36.15000 315.274
36.16000 310.557
36.17000 308.488
36.18000 312.414
36.19000 316.568
36.20000 319.113
36.21000 321.613
36.22000 323.402
36.23000 319.735
36.24000 310.354
36.25000 301.047
36.26000 301.380
36.27000 308.421
36.28000 315.315
36.29000 314.151
36.30000 309.329
36.31000 304.415
36.32000 298.143
36.33000 291.420
36.34000 286.170
36.35000 293.356
36.36000 303.360
36.37000 311.972
36.38000 311.878
36.39000 310.698
36.40000 309.727
36.41000 309.506
36.42000 309.353
36.43000 309.190
36.44000 309.001
36.45000 308.811
36.46000 308.689
36.47000 303.269
36.48000 299.258
36.49000 296.952
36.50000 296.647
36.51000 296.358
36.52000 299.572
36.53000 305.501
36.54000 311.340
36.55000 312.498
36.56000 311.219
36.57000 309.870
36.58000 307.295
36.59000 304.269
36.60000 301.688
36.61000 303.419
36.62000 306.238
36.63000 308.707
36.64000 305.280
36.65000 301.489
36.66000 298.585
36.67000 299.256
36.68000 300.302
36.69000 302.019
36.70000 305.592
36.71000 309.273
36.72000 311.713
36.73000 308.734
36.74000 306.435
36.75000 303.117
36.76000 298.462
36.77000 293.810
36.78000 295.268
36.79000 302.016
36.80000 308.694
36.81000 310.914
36.82000 310.530
36.83000 309.998
36.84000 306.270
36.85000 301.246
36.86000 296.994
36.87000 301.431
36.88000 308.301
36.89000 314.417
36.90000 321.043
36.91000 326.883
36.92000 330.453
36.93000 323.839
36.94000 315.995
36.95000 309.615
36.96000 307.717
36.97000 306.132
36.98000 305.044
36.99000 310.626
37.00000 314.974
37.01000 317.737
37.02000 318.185
37.03000 318.614
37.04000 316.914
37.05000 313.148
37.06000 309.407
37.07000 306.788
37.08000 304.928
37.09000 303.205
37.10000 305.195
37.11000 308.850
37.12000 312.281
37.13000 312.763
37.14000 312.330
37.15000 311.939
37.16000 308.996
37.17000 305.933
37.18000 303.324
37.19000 302.991
37.20000 302.971
37.21000 303.140
37.22000 303.953
37.23000 304.818
37.24000 305.432
37.25000 307.338
37.26000 308.830
37.27000 308.375
37.28000 304.767
37.29000 301.115
37.30000 299.032
37.31000 298.660
37.32000 298.290
37.33000 302.829
37.34000 310.844
37.35000 318.539
37.36000 314.981
37.37000 305.843
37.38000 297.317
37.39000 298.372
37.40000 302.718
37.41000 306.701
37.42000 305.587
37.43000 303.527
37.44000 300.751
37.45000 293.959
37.46000 286.543
37.47000 282.167
37.48000 289.238
37.49000 297.406
37.50000 303.383
37.51000 308.676
37.52000 312.733
37.53000 314.121
37.54000 310.713
37.55000 307.209
37.56000 302.684
37.57000 296.910
37.58000 291.142
37.59000 293.218
37.60000 301.581
37.61000 309.689
37.62000 305.657
37.63000 294.964
37.64000 284.728
37.65000 283.151
37.66000 284.866
37.67000 286.458
37.68000 289.234
37.69000 292.014
37.70000 294.677
37.71000 296.604
37.72000 298.402
37.73000 299.454
37.74000 297.379
37.75000 294.959
37.76000 293.137
37.77000 296.081
37.78000 298.617
37.79000 300.769
37.80000 302.156
37.81000 303.523
37.82000 301.909
37.83000 296.234
37.84000 290.537
37.85000 289.469
37.86000 292.572
37.87000 295.634
37.88000 295.891
37.89000 294.442
37.90000 293.110
37.91000 294.522
37.92000 297.088
37.93000 299.496
37.94000 300.728
37.95000 301.539
37.96000 302.551
37.97000 304.999
37.98000 307.730
37.99000 309.617
38.00000 307.574
38.01000 305.034
38.02000 303.070
38.03000 305.360
38.04000 307.428
38.05000 308.835
38.06000 308.792
38.07000 308.697
38.08000 308.743
38.09000 309.002
38.10000 309.263
38.11000 309.394
38.12000 309.424
38.13000 309.462
38.14000 311.541
38.15000 314.998
38.16000 318.304
38.17000 317.154
38.18000 313.933
38.19000 310.878
38.20000 309.801
38.21000 309.397
38.22000 309.984
38.23000 318.641
38.24000 329.070
38.25000 338.539
38.26000 343.000
38.27000 346.741
38.28000 349.707
38.29000 357.091
38.30000 363.339
38.31000 367.770
38.32000 367.780
38.33000 367.592
38.34000 368.777
38.35000 372.272
38.36000 375.804
38.37000 377.684
38.38000 388.361
38.39000 395.645
38.40000 404.521
38.41000 414.594
38.42000 424.495
38.43000 427.686
38.44000 427.428
38.45000 427.181
38.46000 449.073
38.47000 476.844
38.48000 503.189
38.49000 516.249
38.50000 526.060
38.51000 536.938
38.52000 554.062
38.53000 572.200
38.54000 586.918
38.55000 599.922
38.56000 610.383
38.57000 624.398
38.58000 647.975
38.59000 672.079
38.60000 694.773
38.61000 714.843
38.62000 734.853
38.63000 746.067
38.64000 746.189
38.65000 746.268
38.66000 757.655
38.67000 778.525
38.68000 799.220
38.69000 810.522
38.70000 816.477
38.71000 822.229
38.72000 824.140
38.73000 824.515
38.74000 823.853
38.75000 812.036
38.76000 797.187
38.77000 782.948
38.78000 772.731
38.79000 763.250
38.80000 755.388
38.81000 735.835
38.82000 718.560
38.83000 699.253
38.84000 673.902
38.85000 648.149
38.86000 627.278
38.87000 616.469
38.88000 605.963
38.89000 599.789
38.90000 564.836
38.91000 540.044
38.92000 521.764
38.93000 509.600
38.94000 497.405
38.95000 482.774
38.96000 466.605
38.97000 450.869
38.98000 439.785
38.99000 431.159
39.00000 422.587
39.01000 414.693
39.02000 407.004
39.03000 399.183
39.04000 390.371
39.05000 381.358
39.06000 373.732
39.07000 358.170
39.08000 344.265
39.09000 332.511
39.10000 327.847
39.11000 323.739
39.12000 322.196
39.13000 326.496
39.14000 331.023
39.15000 333.804
39.16000 317.527
39.17000 305.694
39.18000 302.391
39.19000 308.096
39.20000 313.800
39.21000 319.119
39.22000 324.166
39.23000 329.111
39.24000 321.987
39.25000 309.545
39.26000 297.803
39.27000 296.486
39.28000 298.649
39.29000 300.807
39.30000 302.919
39.31000 305.022
39.32000 306.834
39.33000 305.451
39.34000 303.871
39.35000 301.735
39.36000 297.568
39.37000 293.214
39.38000 289.309
39.39000 286.533
39.40000 283.813
39.41000 282.072
39.42000 284.317
39.43000 286.005
39.44000 288.652
39.45000 292.433
39.46000 296.217
39.47000 299.963
39.48000 303.680
39.49000 307.341
39.50000 300.199
39.51000 287.682
39.52000 275.929
39.53000 277.828
39.54000 284.769
39.55000 290.371
39.56000 282.844
39.57000 271.983
39.58000 262.456
39.59000 268.419
39.60000 275.794
39.61000 280.569
39.62000 274.792
39.63000 267.893
39.64000 264.009
39.65000 268.531
39.66000 273.549
39.67000 276.884
39.68000 270.630
39.69000 265.827
39.70000 267.400
39.71000 277.397
39.72000 287.423
39.73000 288.834
39.74000 282.725
39.75000 276.678
39.76000 279.416
39.77000 287.170
39.78000 294.405
39.79000 290.271
39.80000 281.495
39.81000 273.127
39.82000 269.416
39.83000 267.019
39.84000 264.881
39.85000 268.771
39.86000 273.150
39.87000 276.275
39.88000 273.734
39.89000 270.503
39.90000 268.325
39.91000 269.400
39.92000 270.705
39.93000 271.603
39.94000 272.211
39.95000 272.660
39.96000 271.598
39.97000 268.315
39.98000 265.012
39.99000 266.737
40.00000 273.387
40.01000 279.994
40.02000 280.324
40.03000 276.596
40.04000 273.080
40.05000 275.433
40.06000 280.435
40.07000 284.852
40.08000 281.456
40.09000 275.618
40.10000 270.335
40.11000 274.500
40.12000 279.937
40.13000 283.938
40.14000 280.685
40.15000 276.426
40.16000 273.150
40.17000 273.231
40.18000 273.592
40.19000 273.849
40.20000 276.500
40.21000 278.596
40.22000 279.604
40.23000 278.838
40.24000 278.046
40.25000 274.668
40.26000 268.445
40.27000 262.241
40.28000 264.249
40.29000 272.171
40.30000 279.822
40.31000 277.778
40.32000 270.892
40.33000 264.257
40.34000 261.610
40.35000 260.343
40.36000 259.181
40.37000 259.277
40.38000 259.629
40.39000 259.493
40.40000 256.593
40.41000 253.259
40.42000 250.763
40.43000 251.444
40.44000 252.433
40.45000 253.159
40.46000 256.819
40.47000 259.764
40.48000 261.688
40.49000 261.763
40.50000 261.801
40.51000 263.889
40.52000 268.503
40.53000 273.117
40.54000 272.513
40.55000 267.687
40.56000 262.956
40.57000 262.812
40.58000 265.205
40.59000 267.399
40.60000 265.773
40.61000 262.684
40.62000 259.815
40.63000 259.689
40.64000 260.227
40.65000 260.648
40.66000 260.325
40.67000 259.871
40.68000 259.917
40.69000 262.076
40.70000 264.472
40.71000 266.279
40.72000 260.284
40.73000 255.203
40.74000 251.513
40.75000 250.610
40.76000 249.785
40.77000 251.701
40.78000 257.380
40.79000 263.081
40.80000 263.988
40.81000 260.541
40.82000 257.128
40.83000 256.081
40.84000 256.485
40.85000 256.827
40.86000 255.709
40.87000 253.973
40.88000 252.342
40.89000 253.187
40.90000 254.619
40.91000 255.985
40.92000 256.883
40.93000 257.687
40.94000 258.724
40.95000 260.857
40.96000 263.130
40.97000 264.890
40.98000 258.481
40.99000 252.903
41.00000 249.861
41.01000 252.434
41.02000 255.212
41.03000 259.416
41.04000 265.796
41.05000 272.200
41.06000 275.436
41.07000 255.685
41.08000 242.539
41.09000 237.021
41.10000 236.695
41.11000 236.662
41.12000 245.496
41.13000 258.480
41.14000 270.807
41.15000 269.180
41.16000 263.501
41.17000 258.290
41.18000 256.907
41.19000 256.372
41.20000 255.972
41.21000 256.287
41.22000 256.706
41.23000 257.039
41.24000 253.159
41.25000 249.736
41.26000 248.776
41.27000 253.847
41.28000 259.193
41.29000 260.684
41.30000 255.646
41.31000 250.501
41.32000 247.752
41.33000 241.194
41.34000 236.737
41.35000 235.877
41.36000 237.742
41.37000 239.623
41.38000 242.164
41.39000 245.047
41.40000 247.809
41.41000 250.798
41.42000 253.664
41.43000 256.406
41.44000 257.999
41.45000 259.307
41.46000 259.875
41.47000 256.068
41.48000 251.545
41.49000 247.869
41.50000 246.255
41.51000 245.110
41.52000 243.831
41.53000 242.186
41.54000 240.521
41.55000 239.266
41.56000 238.778
41.57000 238.308
41.58000 238.043
41.59000 247.312
41.60000 253.761
41.61000 255.588
41.62000 253.508
41.63000 251.383
41.64000 246.825
41.65000 240.872
41.66000 235.117
41.67000 233.696
41.68000 233.977
41.69000 234.427
41.70000 236.711
41.71000 239.498
41.72000 241.428
41.73000 237.660
41.74000 232.843
41.75000 228.843
41.76000 230.521
41.77000 232.460
41.78000 235.641
41.79000 242.545
41.80000 249.699
41.81000 254.945
41.82000 256.229
41.83000 257.390
41.84000 258.075
41.85000 251.638
41.86000 247.056
41.87000 246.153
41.88000 248.734
41.89000 251.300
41.90000 252.701
41.91000 253.360
41.92000 254.001
41.93000 255.163
41.94000 256.487
41.95000 257.322
41.96000 251.928
41.97000 244.641
41.98000 238.791
41.99000 243.775
42.00000 250.994
42.01000 257.109
42.02000 251.027
42.03000 244.564
42.04000 238.922
42.05000 236.000
42.06000 233.295
42.07000 232.251
42.08000 235.021
42.09000 237.943
42.10000 239.742
42.11000 237.943
42.12000 236.619
42.13000 237.014
42.14000 239.241
42.15000 241.472
42.16000 244.205
42.17000 247.295
42.18000 250.322
42.19000 249.878
42.20000 247.830
42.21000 245.804
42.22000 244.123
42.23000 242.557
42.24000 241.348
42.25000 243.209
42.26000 245.777
42.27000 247.993
42.28000 244.560
42.29000 240.919
42.30000 237.132
42.31000 232.804
42.32000 228.427
42.33000 226.267
42.34000 229.738
42.35000 233.486
42.36000 235.891
42.37000 238.397
42.38000 240.225
42.39000 240.894
42.40000 240.178
42.41000 239.460
42.42000 239.036
42.43000 238.843
42.44000 238.653
42.45000 235.330
42.46000 230.473
42.47000 225.989
42.48000 228.292
42.49000 233.119
42.50000 237.661
42.51000 239.368
42.52000 240.350
42.53000 241.212
42.54000 236.726
42.55000 232.084
42.56000 228.474
42.57000 229.082
42.58000 230.143
42.59000 230.644
42.60000 229.570
42.61000 228.403
42.62000 227.625
42.63000 235.031
42.64000 240.670
42.65000 243.875
42.66000 243.842
42.67000 243.788
42.68000 239.754
42.69000 232.216
42.70000 224.753
42.71000 227.838
42.72000 237.001
42.73000 245.787
42.74000 246.193
42.75000 243.151
42.76000 240.347
42.77000 240.278
42.78000 240.985
42.79000 241.617
42.80000 234.079
42.81000 226.154
42.82000 221.175
42.83000 229.614
42.84000 239.705
42.85000 246.177
42.86000 241.408
42.87000 235.834
42.88000 231.989
42.89000 232.517
42.90000 233.025
42.91000 235.330
42.92000 240.297
42.93000 245.288
42.94000 243.354
42.95000 234.581
42.96000 225.862
42.97000 226.517
42.98000 233.266
42.99000 239.823
43.00000 241.021
43.01000 239.780
43.02000 238.552
43.03000 237.479
43.04000 236.456
43.05000 235.530
43.06000 233.388
43.07000 231.271
43.08000 229.676
43.09000 230.743
43.10000 232.182
43.11000 233.740
43.12000 235.708
43.13000 237.709
43.14000 239.136
43.15000 234.050
43.16000 229.961
43.17000 227.857
43.18000 229.021
43.19000 230.232
43.20000 232.195
43.21000 234.992
43.22000 237.779
43.23000 236.672
43.24000 232.736
43.25000 228.958
43.26000 230.962
43.27000 235.874
43.28000 240.421
43.29000 239.078
43.30000 235.683
43.31000 232.566
43.32000 232.760
43.33000 233.639
43.34000 234.227
43.35000 233.153
43.36000 231.815
43.37000 230.769
43.38000 230.839
43.39000 231.019
43.40000 231.150
43.41000 229.325
43.42000 227.834
43.43000 228.496
43.44000 233.082
43.45000 237.751
43.46000 237.202
43.47000 230.175
43.48000 223.140
43.49000 222.682
43.50000 227.592
43.51000 232.442
43.52000 234.281
43.53000 234.444
43.54000 234.564
43.55000 233.855
43.56000 232.827
43.57000 231.871
43.58000 234.585
43.59000 237.915
43.60000 240.617
43.61000 239.286
43.62000 237.237
43.63000 235.354
43.64000 234.180
43.65000 233.087
43.66000 232.260
43.67000 226.132
43.68000 221.061
43.69000 219.532
43.70000 225.148
43.71000 230.968
43.72000 233.498
43.73000 231.476
43.74000 229.426
43.75000 230.180
43.76000 233.502
43.77000 236.747
43.78000 234.385
43.79000 228.562
43.80000 223.027
43.81000 224.434
43.82000 228.801
43.83000 232.908
43.84000 234.924
43.85000 236.202
43.86000 236.848
43.87000 232.893
43.88000 228.019
43.89000 224.259
43.90000 225.772
43.91000 227.966
43.92000 229.668
43.93000 224.831
43.94000 220.591
43.95000 218.946
43.96000 223.095
43.97000 227.457
43.98000 229.725
43.99000 228.772
44.00000 227.783
44.01000 227.282
44.02000 234.853
44.03000 239.886
44.04000 240.367
44.05000 237.726
44.06000 235.228
44.07000 237.111
44.08000 241.061
44.09000 244.813
44.10000 240.689
44.11000 234.503
44.12000 229.332
44.13000 232.578
44.14000 237.701
44.15000 241.714
44.16000 239.849
44.17000 237.124
44.18000 234.955
44.19000 235.222
44.20000 235.611
44.21000 234.895
44.22000 231.453
44.23000 227.885
44.24000 227.165
44.25000 231.304
44.26000 235.524
44.27000 237.788
44.28000 242.216
44.29000 245.220
44.30000 243.401
44.31000 237.902
44.32000 232.515
44.33000 231.632
44.34000 233.100
44.35000 234.507
44.36000 235.847
44.37000 237.077
44.38000 238.350
44.39000 240.048
44.40000 241.850
44.41000 243.317
44.42000 242.789
44.43000 241.932
44.44000 241.233
44.45000 247.710
44.46000 253.603
44.47000 256.896
44.48000 253.093
44.49000 248.887
44.50000 247.648
44.51000 252.014
44.52000 256.512
44.53000 259.052
44.54000 258.569
44.55000 258.229
44.56000 260.235
44.57000 264.240
44.58000 268.227
44.59000 271.175
44.60000 273.522
44.61000 275.791
44.62000 280.324
44.63000 285.456
44.64000 290.228
44.65000 291.035
44.66000 290.749
44.67000 291.005
44.68000 294.897
44.69000 299.465
44.70000 303.263
44.71000 309.292
44.72000 314.501
44.73000 319.293
44.74000 322.829
44.75000 326.278
44.76000 332.753
44.77000 345.555
44.78000 358.555
44.79000 366.247
44.80000 365.944
44.81000 365.687
44.82000 373.975
44.83000 390.423
44.84000 406.798
44.85000 416.914
44.86000 423.019
44.87000 428.967
44.88000 431.762
44.89000 433.097
44.90000 434.756
44.91000 440.593
44.92000 447.708
44.93000 454.280
44.94000 456.721
44.95000 458.303
44.96000 459.646
44.97000 465.399
44.98000 470.722
44.99000 475.805
45.00000 480.085
45.01000 484.300
45.02000 490.031
45.03000 499.269
45.04000 508.648
45.05000 514.444
45.06000 499.603
45.07000 488.748
45.08000 482.403
45.09000 480.899
45.10000 479.384
45.11000 475.941
45.12000 471.126
45.13000 466.406
45.14000 461.311
45.15000 456.230
45.16000 451.132
45.17000 445.781
45.18000 440.345
45.19000 434.973
45.20000 430.159
45.21000 425.475
45.22000 421.427
45.23000 406.338
45.24000 392.087
45.25000 380.780
45.26000 380.392
45.27000 381.028
45.28000 380.858
45.29000 378.622
45.30000 376.284
45.31000 374.779
45.32000 368.227
45.33000 363.375
45.34000 355.210
45.35000 343.061
45.36000 330.931
45.37000 326.930
45.38000 329.380
45.39000 331.795
45.40000 330.202
45.41000 326.547
45.42000 322.899
45.43000 319.354
45.44000 315.849
45.45000 311.798
45.46000 302.286
45.47000 291.366
45.48000 281.764
45.49000 280.070
45.50000 279.784
45.51000 279.564
45.52000 279.614
45.53000 279.693
45.54000 278.708
45.55000 274.718
45.56000 270.545
45.57000 267.757
45.58000 260.738
45.59000 255.454
45.60000 255.372
45.61000 262.270
45.62000 269.200
45.63000 271.543
45.64000 269.817
45.65000 268.107
45.66000 264.728
45.67000 260.438
45.68000 256.295
45.69000 255.456
45.70000 255.986
45.71000 256.160
45.72000 252.186
45.73000 247.025
45.74000 242.414
45.75000 240.111
45.76000 238.495
45.77000 236.418
45.78000 232.232
45.79000 227.782
45.80000 225.041
45.81000 227.643
45.82000 230.631
45.83000 232.698
45.84000 228.471
45.85000 225.129
45.86000 222.844
45.87000 222.136
45.88000 221.444
45.89000 223.579
45.90000 228.530
45.91000 233.452
45.92000 232.605
45.93000 227.984
45.94000 223.723
45.95000 229.716
45.96000 240.406
45.97000 250.003
45.98000 244.678
45.99000 234.619
46.00000 225.500
46.01000 223.826
46.02000 223.769
46.03000 223.335
46.04000 220.965
46.05000 218.321
46.06000 216.704
46.07000 218.653
46.08000 220.904
46.09000 222.513
46.10000 217.571
46.11000 213.581
46.12000 213.317
46.13000 219.226
46.14000 225.227
46.15000 224.321
46.16000 215.689
46.17000 207.078
46.18000 206.191
46.19000 210.982
46.20000 215.627
46.21000 214.838
46.22000 211.294
46.23000 207.803
46.24000 205.152
46.25000 202.796
46.26000 200.631
46.27000 206.626
46.28000 213.732
46.29000 219.683
46.30000 218.983
46.31000 217.221
46.32000 215.483
46.33000 213.838
46.34000 212.202
46.35000 210.998
46.36000 206.870
46.37000 203.554
46.38000 201.298
46.39000 200.987
46.40000 200.719
46.41000 201.992
46.42000 205.195
46.43000 208.400
46.44000 208.998
46.45000 207.449
46.46000 205.897
46.47000 204.210
46.48000 202.445
46.49000 200.779
46.50000 201.047
46.51000 202.065
46.52000 203.013
46.53000 206.106
46.54000 209.418
46.55000 212.097
46.56000 210.664
46.57000 208.492
46.58000 206.689
46.59000 206.471
46.60000 206.434
46.61000 206.405
46.62000 205.593
46.63000 204.916
46.64000 205.610
46.65000 209.090
46.66000 212.651
46.67000 212.591
46.68000 207.482
46.69000 202.340
46.70000 199.380
46.71000 198.438
46.72000 197.514
46.73000 197.990
46.74000 199.337
46.75000 200.531
46.76000 197.951
46.77000 193.750
46.78000 189.797
46.79000 194.257
46.80000 200.617
46.81000 206.599
46.82000 209.806
46.83000 212.454
46.84000 213.125
46.85000 204.354
46.86000 194.354
46.87000 186.578
46.88000 187.874
46.89000 189.461
46.90000 191.977
46.91000 196.585
46.92000 201.271
46.93000 203.689
46.94000 202.590
46.95000 201.452
46.96000 200.871
46.97000 191.954
46.98000 186.023
46.99000 186.575
47.00000 191.604
47.01000 196.623
47.02000 201.358
47.03000 205.957
47.04000 210.330
47.05000 206.997
47.06000 201.572
47.07000 196.214
47.08000 191.419
47.09000 186.750
47.10000 183.673
47.11000 189.097
47.12000 195.777
47.13000 201.101
47.14000 201.905
47.15000 202.227
47.16000 201.549
47.17000 198.391
47.18000 195.116
47.19000 193.589
47.20000 195.068
47.21000 196.599
47.22000 197.423
47.23000 189.749
47.24000 184.516
47.25000 184.374
47.26000 188.148
47.27000 191.909
47.28000 195.137
47.29000 198.084
47.30000 200.913
47.31000 199.814
47.32000 197.450
47.33000 195.246
47.34000 194.578
47.35000 194.294
47.36000 194.298
47.37000 196.028
47.38000 198.045
47.39000 199.690
47.40000 202.110
47.41000 204.154
47.42000 204.562
47.43000 200.476
47.44000 196.132
47.45000 192.368
47.46000 189.710
47.47000 187.079
47.48000 185.589
47.49000 188.061
47.50000 189.788
47.51000 188.471
47.52000 184.538
47.53000 180.675
47.54000 180.905
47.55000 183.518
47.56000 186.045
47.57000 190.152
47.58000 194.632
47.59000 198.547
47.60000 196.166
47.61000 192.036
47.62000 188.444
47.63000 188.491
47.64000 189.220
47.65000 189.827
47.66000 188.273
47.67000 186.772
47.68000 184.982
47.69000 182.310
47.70000 179.577
47.71000 180.789
47.72000 190.308
47.73000 200.092
47.74000 205.900
47.75000 206.071
47.76000 206.159
47.77000 204.300
47.78000 200.563
47.79000 196.869
47.80000 196.841
47.81000 199.180
47.82000 201.460
47.83000 197.378
47.84000 190.779
47.85000 184.756
47.86000 186.241
47.87000 190.038
47.88000 193.079
47.89000 190.314
47.90000 186.331
47.91000 182.948
47.92000 183.900
47.93000 185.195
47.94000 186.848
47.95000 189.711
47.96000 192.672
47.97000 192.195
47.98000 183.710
47.99000 174.898
48.00000 169.437
48.01000 178.782
48.02000 185.645
48.03000 187.587
48.04000 184.199
48.05000 180.841
48.06000 182.221
48.07000 186.999
48.08000 191.686
48.09000 190.533
48.10000 186.652
48.11000 183.112
48.12000 184.851
48.13000 188.391
48.14000 191.544
48.15000 191.301
48.16000 190.265
48.17000 189.368
48.18000 190.893
48.19000 192.507
48.20000 192.788
48.21000 188.090
48.22000 182.919
48.23000 180.296
48.24000 184.234
48.25000 188.506
48.26000 191.261
48.27000 191.858
48.28000 192.263
48.29000 191.446
48.30000 189.146
48.31000 186.850
48.32000 186.472
48.33000 187.630
48.34000 188.772
48.35000 187.247
48.36000 184.351
48.37000 181.430
48.38000 178.034
48.39000 174.459
48.40000 171.549
48.41000 175.364
48.42000 180.927
48.43000 185.824
48.44000 190.829
48.45000 195.154
48.46000 197.724
48.47000 193.008
48.48000 187.494
48.49000 182.634
48.50000 179.641
48.51000 176.762
48.52000 174.834
48.53000 184.743
48.54000 192.329
48.55000 194.679
48.56000 189.949
48.57000 185.183
48.58000 183.401
48.59000 184.288
48.60000 185.167
48.61000 188.264
48.62000 192.612
48.63000 196.675
48.64000 194.205
48.65000 189.009
48.66000 183.671
48.67000 176.677
48.68000 169.206
48.69000 162.524
48.70000 171.001
48.71000 180.969
48.72000 189.181
48.73000 189.265
48.74000 188.329
48.75000 185.859
48.76000 178.556
48.77000 170.898
48.78000 165.590
48.79000 167.389
48.80000 168.931
48.81000 172.255
48.82000 178.259
48.83000 184.290
48.84000 186.808
48.85000 185.799
48.86000 184.795
48.87000 184.238
48.88000 183.983
48.89000 183.894
48.90000 188.598
48.91000 195.514
48.92000 201.782
48.93000 199.078
48.94000 193.507
48.95000 188.451
48.96000 184.628
48.97000 181.490
48.98000 179.131
48.99000 180.802
49.00000 183.047
49.01000 184.400
49.02000 182.634
49.03000 180.599
49.04000 179.142
49.05000 185.817
49.06000 191.191
49.07000 192.597
49.08000 187.381
49.09000 182.062
49.10000 178.428
49.11000 176.694
49.12000 174.967
49.13000 177.184
49.14000 182.303
49.15000 187.293
49.16000 187.346
49.17000 184.879
49.18000 182.492
49.19000 181.418
49.20000 180.810
49.21000 180.250
49.22000 177.794
49.23000 175.188
49.24000 173.624
49.25000 178.097
49.26000 183.544
49.27000 187.470
49.28000 185.497
49.29000 182.933
49.30000 181.041
49.31000 180.639
49.32000 180.390
49.33000 181.725
49.34000 185.992
49.35000 190.323
49.36000 191.268
49.37000 187.942
49.38000 184.606
49.39000 184.795
49.40000 187.908
49.41000 190.903
49.42000 187.790
49.43000 181.224
49.44000 175.048
49.45000 176.682
49.46000 181.370
49.47000 185.736
49.48000 182.721
49.49000 178.193
49.50000 174.334
49.51000 174.848
49.52000 176.154
49.53000 177.997
49.54000 182.154
49.55000 186.577
49.56000 189.934
49.57000 186.706
49.58000 183.831
49.59000 182.477
49.60000 184.236
49.61000 186.087
49.62000 185.527
49.63000 181.579
49.64000 177.609
49.65000 175.371
49.66000 174.746
49.67000 174.140
49.68000 174.866
49.69000 176.427
49.70000 177.853
49.71000 175.905
49.72000 172.499
49.73000 169.291
49.74000 171.670
49.75000 175.375
49.76000 178.539
49.77000 177.690
49.78000 176.027
49.79000 174.744
49.80000 175.289
49.81000 176.074
49.82000 176.685
49.83000 176.224
49.84000 175.790
49.85000 177.034
49.86000 182.079
49.87000 187.268
49.88000 190.023
49.89000 188.977
49.90000 187.886
49.91000 187.328
49.92000 182.863
49.93000 179.860
49.94000 176.470
49.95000 172.811
49.96000 169.350
49.97000 172.214
49.98000 178.104
49.99000 183.707
50.00000 183.876
50.01000 182.366
50.02000 181.118
50.03000 182.085
50.04000 183.553
50.05000 184.459
50.06000 182.331
50.07000 179.751
50.08000 177.692
50.09000 178.573
50.10000 179.499
50.11000 181.848
50.12000 187.755
50.13000 193.832
50.14000 194.696
50.15000 186.534
50.16000 178.211
50.17000 173.713
50.18000 180.210
50.19000 184.660
50.20000 186.815
50.21000 187.190
50.22000 187.538
50.23000 186.763
50.24000 185.393
50.25000 184.078
50.26000 185.589
50.27000 187.972
50.28000 190.159
50.29000 190.435
50.30000 190.229
50.31000 191.160
50.32000 198.962
50.33000 207.920
50.34000 215.234
50.35000 209.388
50.36000 203.471
50.37000 199.433
50.38000 200.595
50.39000 202.060
50.40000 203.848
50.41000 206.253
50.42000 208.674
50.43000 210.050
50.44000 216.453
50.45000 220.925
50.46000 222.661
50.47000 222.026
50.48000 221.452
50.49000 224.501
50.50000 229.674
50.51000 234.683
50.52000 243.047
50.53000 252.240
50.54000 261.099
50.55000 266.198
50.56000 270.244
50.57000 273.528
50.58000 271.602
50.59000 268.693
50.60000 266.266
50.61000 270.926
50.62000 275.499
50.63000 279.073
50.64000 279.585
50.65000 279.883
50.66000 279.986
50.67000 279.674
50.68000 279.350
50.69000 279.156
50.70000 278.283
50.71000 277.660
50.72000 276.877
50.73000 275.939
50.74000 275.055
50.75000 279.051
50.76000 286.222
50.77000 293.215
50.78000 294.030
50.79000 292.164
50.80000 290.058
50.81000 284.797
50.82000 278.556
50.83000 273.017
50.84000 272.921
50.85000 273.973
50.86000 274.869
50.87000 267.771
50.88000 260.886
50.89000 256.719
50.90000 261.780
50.91000 267.601
50.92000 266.906
50.93000 250.926
50.94000 234.311
50.95000 223.982
50.96000 225.485
50.97000 226.685
50.98000 226.196
50.99000 223.862
51.00000 221.517
51.01000 217.608
51.02000 212.569
51.03000 207.624
51.04000 208.027
51.05000 210.973
51.06000 213.808
51.07000 214.896
51.08000 215.385
51.09000 215.150
51.10000 208.501
51.11000 200.341
51.12000 193.272
51.13000 191.831
51.14000 191.350
51.15000 190.828
51.16000 190.148
51.17000 189.453
51.18000 188.893
51.19000 188.685
51.20000 188.495
51.21000 188.372
51.22000 192.734
51.23000 195.991
51.24000 196.509
51.25000 193.680
51.26000 190.846
51.27000 189.159
51.28000 188.395
51.29000 187.641
51.30000 185.007
51.31000 181.441
51.32000 177.988
51.33000 176.682
51.34000 176.191
51.35000 175.659
51.36000 174.703
51.37000 173.636
51.38000 172.696
51.39000 171.840
51.40000 171.115
51.41000 171.174
51.42000 174.518
51.43000 178.225
51.44000 180.494
51.45000 178.636
51.46000 176.522
51.47000 175.103
51.48000 177.512
51.49000 179.379
51.50000 180.466
51.51000 180.492
51.52000 180.510
51.53000 179.287
51.54000 176.942
51.55000 174.619
51.56000 174.866
51.57000 176.641
51.58000 178.415
51.59000 180.177
51.60000 181.933
51.61000 182.982
51.62000 175.631
51.63000 165.840
51.64000 157.074
51.65000 166.470
51.66000 177.785
51.67000 186.464
51.68000 182.849
51.69000 177.678
51.70000 172.816
51.71000 168.937
51.72000 165.129
51.73000 162.484
51.74000 162.495
51.75000 162.575
51.76000 162.307
51.77000 161.511
51.78000 160.709
51.79000 164.144
51.80000 171.870
51.81000 179.554
51.82000 178.280
51.83000 171.049
51.84000 164.001
51.85000 162.376
51.86000 163.270
51.87000 164.333
51.88000 167.758
51.89000 171.943
51.90000 175.745
51.91000 173.313
51.92000 169.954
51.93000 166.624
51.94000 163.435
51.95000 160.268
51.96000 157.990
51.97000 158.848
51.98000 159.978
51.99000 160.789
52.00000 160.005
52.01000 159.350
52.02000 159.174
52.03000 159.803
52.04000 160.445
52.05000 162.837
52.06000 167.219
52.07000 171.591
52.08000 172.867
52.09000 171.823
52.10000 170.736
52.11000 167.959
52.12000 164.314
52.13000 160.775
52.14000 159.008
52.15000 157.872
52.16000 156.826
52.17000 159.902
52.18000 163.553
52.19000 166.992
52.20000 169.182
52.21000 171.169
52.22000 172.061
52.23000 168.672
52.24000 164.851
52.25000 162.025
52.26000 160.824
52.27000 159.961
52.28000 158.178
52.29000 154.677
52.30000 151.138
52.31000 152.016
52.32000 158.507
52.33000 165.011
52.34000 166.751
52.35000 164.501
52.36000 162.301
52.37000 162.752
52.38000 164.712
52.39000 166.604
52.40000 167.139
52.41000 167.138
52.42000 167.137
52.43000 167.414
52.44000 167.732
52.45000 167.356
52.46000 162.394
52.47000 156.593
52.48000 152.568
52.49000 156.267
52.50000 160.862
52.51000 164.356
52.52000 164.901
52.53000 165.175
52.54000 163.945
52.55000 159.614
52.56000 155.189
52.57000 153.819
52.58000 156.777
52.59000 159.765
52.60000 162.232
52.61000 164.207
52.62000 166.164
52.63000 166.653
52.64000 166.215
52.65000 165.794
52.66000 165.795
52.67000 165.981
52.68000 166.156
52.69000 165.887
52.70000 165.519
52.71000 165.299
52.72000 166.196
52.73000 167.321
52.74000 167.812
52.75000 165.224
52.76000 162.228
52.77000 159.889
52.78000 160.757
52.79000 161.650
52.80000 161.797
52.81000 160.240
52.82000 158.618
52.83000 158.243
52.84000 159.831
52.85000 161.443
52.86000 162.271
52.87000 168.941
52.88000 173.386
52.89000 172.184
52.90000 167.021
52.91000 161.933
52.92000 159.272
52.93000 157.780
52.94000 156.359
52.95000 155.127
52.96000 154.043
52.97000 153.130
52.98000 153.663
52.99000 154.527
53.00000 155.479
53.01000 156.908
53.02000 158.409
53.03000 159.609
53.04000 158.423
53.05000 157.287
53.06000 156.522
53.07000 156.695
53.08000 156.913
53.09000 157.107
53.10000 157.258
53.11000 157.409
53.12000 157.490
53.13000 164.904
53.14000 169.970
53.15000 168.739
53.16000 162.588
53.17000 156.588
53.18000 157.104
53.19000 161.094
53.20000 164.928
53.21000 161.280
53.22000 155.278
53.23000 150.344
53.24000 155.884
53.25000 164.085
53.26000 170.188
53.27000 163.479
53.28000 154.598
53.29000 147.335
53.30000 157.846
53.31000 168.003
53.32000 174.861
53.33000 172.518
53.34000 169.633
53.35000 166.742
53.36000 163.842
53.37000 160.942
53.38000 159.288
53.39000 163.394
53.40000 166.277
53.41000 169.237
53.42000 172.264
53.43000 175.205
53.44000 172.826
53.45000 167.304
53.46000 161.956
53.47000 159.097
53.48000 157.354
53.49000 155.967
53.50000 158.626
53.51000 162.425
53.52000 165.137
53.53000 160.361
53.54000 154.159
53.55000 148.978
53.56000 155.740
53.57000 162.561
53.58000 168.746
53.59000 172.970
53.60000 177.056
53.61000 179.033
53.62000 176.501
53.63000 173.820
53.64000 172.218
53.65000 164.279
53.66000 158.607
53.67000 157.259
53.68000 160.146
53.69000 163.017
53.70000 164.397
53.71000 164.800
53.72000 165.193
53.73000 162.282
53.74000 158.075
53.75000 154.320
53.76000 156.607
53.77000 160.783
53.78000 164.641
53.79000 166.009
53.80000 166.847
53.81000 167.560
53.82000 164.624
53.83000 161.729
53.84000 160.235
53.85000 163.528
53.86000 167.220
53.87000 168.780
53.88000 165.303
53.89000 161.613
53.90000 159.313
53.91000 161.014
53.92000 162.281
53.93000 163.212
53.94000 163.775
53.95000 164.339
53.96000 165.245
53.97000 166.401
53.98000 167.536
53.99000 167.540
54.00000 166.999
54.01000 166.362
54.02000 164.203
54.03000 161.517
54.04000 159.094
54.05000 159.031
54.06000 159.528
54.07000 159.959
54.08000 156.539
54.09000 153.111
54.10000 151.184
54.11000 154.951
54.12000 159.270
54.13000 162.087
54.14000 160.983
54.15000 159.674
54.16000 158.825
54.17000 165.034
54.18000 169.686
54.19000 170.596
54.20000 166.898
54.21000 163.192
54.22000 160.883
54.23000 159.709
54.24000 158.551
54.25000 157.767
54.26000 157.206
54.27000 156.690
54.28000 157.047
54.29000 157.738
54.30000 158.457
54.31000 159.465
54.32000 160.550
54.33000 161.508
54.34000 160.844
54.35000 160.024
54.36000 159.133
54.37000 157.940
54.38000 156.714
54.39000 156.515
54.40000 159.286
54.41000 162.244
54.42000 164.235
54.43000 158.842
54.44000 154.679
54.45000 152.510
54.46000 153.079
54.47000 153.665
54.48000 153.800
54.49000 153.524
54.50000 153.251
54.51000 158.096
54.52000 165.925
54.53000 173.538
54.54000 176.000
54.55000 176.281
54.56000 176.348
54.57000 173.849
54.58000 170.598
54.59000 167.684
54.60000 165.960
54.61000 164.661
54.62000 163.482
54.63000 162.871
54.64000 162.333
54.65000 161.334
54.66000 158.861
54.67000 156.278
54.68000 154.478
54.69000 156.020
54.70000 157.275
54.71000 158.342
54.72000 159.122
54.73000 159.899
54.74000 159.619
54.75000 158.257
54.76000 156.903
54.77000 156.080
54.78000 155.626
54.79000 155.239
54.80000 156.898
54.81000 159.515
54.82000 162.103
54.83000 164.267
54.84000 166.293
54.85000 168.136
54.86000 163.857
54.87000 158.874
54.88000 154.833
54.89000 155.743
54.90000 157.371
54.91000 158.763
54.92000 159.318
54.93000 159.800
54.94000 160.146
54.95000 158.798
54.96000 157.707
54.97000 156.875
54.98000 156.482
54.99000 156.096
55.00000 157.197
55.01000 160.000
55.02000 162.799
55.03000 164.376
55.04000 165.025
55.05000 165.656
55.06000 165.567
55.07000 165.106
55.08000 164.695
55.09000 165.132
55.10000 165.874
55.11000 166.557
55.12000 165.367
55.13000 163.889
55.14000 162.926
55.15000 164.999
55.16000 167.570
55.17000 169.609
55.18000 169.555
55.19000 169.287
55.20000 169.088
55.21000 170.200
55.22000 171.121
55.23000 172.195
55.24000 173.556
55.25000 174.925
55.26000 175.846
55.27000 176.195
55.28000 176.541
55.29000 174.751
55.30000 171.164
55.31000 167.697
55.32000 170.832
55.33000 177.755
55.34000 184.455
55.35000 186.557
55.36000 186.834
55.37000 187.092
55.38000 194.594
55.39000 203.185
55.40000 210.921
55.41000 212.970
55.42000 213.971
55.43000 214.317
55.44000 211.794
55.45000 208.934
55.46000 206.755
55.47000 214.873
55.48000 221.808
55.49000 228.307
55.50000 233.897
55.51000 239.458
55.52000 241.430
55.53000 238.280
55.54000 235.091
55.55000 239.028
55.56000 249.713
55.57000 260.334
55.58000 265.658
55.59000 267.614
55.60000 269.887
55.61000 280.324
55.62000 294.346
55.63000 307.570
55.64000 310.233
55.65000 309.735
55.66000 310.426
55.67000 320.095
55.68000 331.616
55.69000 343.470
55.70000 356.957
55.71000 370.663
55.72000 381.379
55.73000 400.254
55.74000 415.837
55.75000 427.956
55.76000 432.118
55.77000 435.966
55.78000 441.808
55.79000 450.811
55.80000 459.853
55.81000 464.517
55.82000 501.210
55.83000 525.826
55.84000 535.466
55.85000 534.524
55.86000 533.820
55.87000 541.015
55.88000 552.042
55.89000 562.549
55.90000 564.643
55.91000 563.961
55.92000 564.397
55.93000 574.454
55.94000 586.724
55.95000 595.776
55.96000 587.197
55.97000 575.945
55.98000 566.933
55.99000 563.419
56.00000 560.989
56.01000 556.064
56.02000 544.802
56.03000 533.228
56.04000 523.719
56.05000 517.838
56.06000 512.024
56.07000 508.859
56.08000 496.614
56.09000 488.188
56.10000 476.676
56.11000 462.733
56.12000 448.798
56.13000 435.159
56.14000 421.680
56.15000 408.721
56.16000 398.560
56.17000 390.016
56.18000 382.063
56.19000 379.977
56.20000 379.393
56.21000 376.747
56.22000 361.410
56.23000 343.903
56.24000 329.562
56.25000 315.487
56.26000 303.971
56.27000 294.897
56.28000 292.685
56.29000 290.883
56.30000 288.756
56.31000 285.996
56.32000 283.220
56.33000 281.631
56.34000 267.766
56.35000 258.044
56.36000 251.018
56.37000 246.365
56.38000 241.718
56.39000 237.423
56.40000 233.339
56.41000 229.381
56.42000 228.367
56.43000 228.555
56.44000 228.330
56.45000 223.372
56.46000 217.069
56.47000 211.354
56.48000 209.735
56.49000 208.902
56.50000 208.205
56.51000 204.305
56.52000 200.737
56.53000 196.893
56.54000 192.193
56.55000 187.431
56.56000 184.377
56.57000 184.997
56.58000 185.742
56.59000 186.188
56.60000 175.204
56.61000 167.329
56.62000 165.147
56.63000 168.589
56.64000 172.019
56.65000 174.354
56.66000 175.965
56.67000 177.538
56.68000 174.704
56.69000 170.076
56.70000 165.754
56.71000 165.566
56.72000 166.680
56.73000 167.974
56.74000 170.694
56.75000 173.719
56.76000 176.300
56.77000 171.171
56.78000 165.947
56.79000 162.126
56.80000 163.143
56.81000 164.567
56.82000 164.891
56.83000 162.598
56.84000 160.192
56.85000 158.688
56.86000 157.808
56.87000 157.180
56.88000 156.214
56.89000 154.874
56.90000 153.539
56.91000 153.094
56.92000 153.302
56.93000 153.506
56.94000 156.808
56.95000 161.500
56.96000 165.852
56.97000 164.741
56.98000 161.726
56.99000 158.734
57.00000 155.951
57.01000 153.219
57.02000 150.845
57.03000 151.755
57.04000 152.974
57.05000 154.022
57.06000 154.420
57.07000 154.755
57.08000 154.965
57.09000 154.849
57.10000 154.716
57.11000 154.630
57.12000 151.608
57.13000 149.348
57.14000 147.858
57.15000 147.323
57.16000 146.792
57.17000 146.536
57.18000 146.505
57.19000 146.475
57.20000 144.814
57.21000 142.312
57.22000 140.095
57.23000 143.412
57.24000 148.863
57.25000 153.790
57.26000 153.246
57.27000 151.248
57.28000 149.482
57.29000 147.360
57.30000 145.472
57.31000 144.023
57.32000 144.443
57.33000 145.074
57.34000 144.278
57.35000 139.327
57.36000 134.111
57.37000 130.591
57.38000 134.965
57.39000 138.387
57.40000 141.091
57.41000 142.802
57.42000 144.506
57.43000 145.773
57.44000 146.639
57.45000 147.497
57.46000 146.883
57.47000 145.386
57.48000 144.014
57.49000 145.635
57.50000 148.531
57.51000 151.311
57.52000 152.668
57.53000 153.605
57.54000 154.446
57.55000 155.341
57.56000 156.132
57.57000 156.630
57.58000 155.737
57.59000 154.666
57.60000 152.888
57.61000 148.837
57.62000 144.613
57.63000 141.663
57.64000 144.125
57.65000 146.135
57.66000 146.140
57.67000 143.062
57.68000 139.950
57.69000 140.031
57.70000 143.403
57.71000 146.758
57.72000 146.784
57.73000 144.554
57.74000 142.390
57.75000 142.216
57.76000 142.981
57.77000 143.874
57.78000 146.597
57.79000 149.918
57.80000 152.941
57.81000 150.733
57.82000 147.747
57.83000 144.905
57.84000 142.827
57.85000 140.860
57.86000 138.461
57.87000 134.520
57.88000 130.441
57.89000 127.502
57.90000 132.801
57.91000 137.153
57.92000 141.143
57.93000 144.512
57.94000 147.871
57.95000 147.866
57.96000 143.974
57.97000 140.087
57.98000 138.275
57.99000 138.047
58.00000 137.939
58.01000 142.688
58.02000 149.972
58.03000 156.755
58.04000 154.947
58.05000 150.035
58.06000 145.504
58.07000 147.204
58.08000 150.113
58.09000 152.333
58.10000 150.455
58.11000 147.899
58.12000 145.304
58.13000 142.556
58.14000 139.791
58.15000 137.738
58.16000 144.447
58.17000 150.046
58.18000 151.718
58.19000 145.964
58.20000 140.035
58.21000 138.589
58.22000 142.929
58.23000 147.288
58.24000 147.703
58.25000 144.763
58.26000 141.833
58.27000 139.414
58.28000 137.290
58.29000 135.277
58.30000 135.604
58.31000 136.866
58.32000 138.045
58.33000 137.104
58.34000 135.720
58.35000 134.536
58.36000 134.686
58.37000 135.084
58.38000 136.103
58.39000 139.864
58.40000 143.951
58.41000 147.070
58.42000 142.362
58.43000 138.231
58.44000 137.114
58.45000 142.297
58.46000 147.679
58.47000 149.198
58.48000 145.163
58.49000 141.085
58.50000 137.496
58.51000 134.376
58.52000 131.290
58.53000 131.095
58.54000 132.755
58.55000 134.395
58.56000 135.556
58.57000 136.504
58.58000 137.399
58.59000 139.825
58.60000 142.480
58.61000 144.805
58.62000 144.622
58.63000 143.916
58.64000 143.397
58.65000 143.793
58.66000 144.313
58.67000 144.720
58.68000 143.622
58.69000 142.647
58.70000 141.565
58.71000 140.234
58.72000 138.893
58.73000 137.918
58.74000 137.526
58.75000 137.142
58.76000 136.943
58.77000 139.569
58.78000 141.322
58.79000 140.259
58.80000 137.191
58.81000 134.166
58.82000 132.577
58.83000 131.691
58.84000 130.846
58.85000 129.976
58.86000 129.161
58.87000 128.719
58.88000 131.515
58.89000 135.063
58.90000 137.618
58.91000 134.694
58.92000 130.932
58.93000 127.915
58.94000 130.231
58.95000 132.512
58.96000 134.152
58.97000 134.153
58.98000 134.072
58.99000 132.743
59.00000 129.205
59.01000 125.625
59.02000 123.669
59.03000 129.662
59.04000 133.787
59.05000 136.527
59.06000 138.169
59.07000 139.791
59.08000 140.476
59.09000 140.655
59.10000 140.826
59.11000 140.246
59.12000 139.437
59.13000 138.844
59.14000 140.409
59.15000 142.529
59.16000 143.815
59.17000 139.910
59.18000 135.111
59.19000 131.174
59.20000 127.586
59.21000 124.673
59.22000 123.992
59.23000 129.626
59.24000 135.644
59.25000 139.932
59.26000 140.832
59.27000 141.642
59.28000 142.108
59.29000 139.702
59.30000 138.010
59.31000 138.388
59.32000 140.601
59.33000 142.735
59.34000 139.777
59.35000 133.767
59.36000 127.940
59.37000 127.732
59.38000 129.741
59.39000 131.725
59.40000 133.424
59.41000 135.042
59.42000 136.447
59.43000 136.361
59.44000 135.987
59.45000 135.673
59.46000 130.806
59.47000 126.288
59.48000 123.475
59.49000 126.000
59.50000 128.912
59.51000 131.501
59.52000 133.391
59.53000 135.257
59.54000 136.379
59.55000 137.714
59.56000 138.664
59.57000 137.763
59.58000 135.016
59.59000 132.323
59.60000 134.967
59.61000 141.162
59.62000 147.212
59.63000 144.692
59.64000 138.524
59.65000 132.694
59.66000 131.497
59.67000 131.771
59.68000 132.294
59.69000 134.809
59.70000 137.754
59.71000 140.269
59.72000 136.219
59.73000 132.026
59.74000 129.128
59.75000 130.728
59.76000 132.710
59.77000 134.965
59.78000 137.874
59.79000 140.812
59.80000 142.654
59.81000 137.774
59.82000 134.175
59.83000 130.578
59.84000 126.984
59.85000 123.428
59.86000 126.998
59.87000 135.840
59.88000 144.527
59.89000 146.185
59.90000 144.344
59.91000 142.643
59.92000 143.231
59.93000 144.623
59.94000 145.682
59.95000 143.704
59.96000 140.994
59.97000 138.638
59.98000 136.838
59.99000 135.378
60.00000 133.918
60.01000 132.459
60.02000 131.000
60.03000 130.116
60.04000 130.760
60.05000 131.485
60.06000 131.958
60.07000 138.367
60.08000 143.164
60.09000 142.872
60.10000 136.213
60.11000 129.546
60.12000 127.977
60.13000 130.615
60.14000 133.221
60.15000 133.813
60.16000 133.288
60.17000 132.717
60.18000 131.231
60.19000 129.390
60.20000 127.851
60.21000 129.505
60.22000 132.014
60.23000 134.233
60.24000 136.630
60.25000 138.730
60.26000 140.112
60.27000 138.419
60.28000 136.376
60.29000 134.484
60.30000 133.035
60.31000 131.615
60.32000 130.655
60.33000 137.634
60.34000 143.006
60.35000 143.982
60.36000 138.829
60.37000 133.637
60.38000 130.695
60.39000 129.834
60.40000 128.979
60.41000 128.351
60.42000 127.871
60.43000 127.419
60.44000 127.621
60.45000 128.105
60.46000 128.512
60.47000 127.974
60.48000 127.155
60.49000 126.420
60.50000 127.122
60.51000 127.990
60.52000 128.920
60.53000 130.142
60.54000 131.402
60.55000 132.082
60.56000 130.879
60.57000 129.531
60.58000 128.588
60.59000 130.231
60.60000 131.546
60.61000 133.308
60.62000 135.760
60.63000 138.221
60.64000 138.750
60.65000 137.274
60.66000 135.804
60.67000 135.226
60.68000 135.263
60.69000 135.287
60.70000 134.882
60.71000 134.273
60.72000 133.845
60.73000 136.049
60.74000 139.119
60.75000 141.916
60.76000 139.364
60.77000 136.039
60.78000 133.148
60.79000 132.580
60.80000 132.355
60.81000 132.515
60.82000 134.063
60.83000 135.735
60.84000 136.943
60.85000 141.404
60.86000 144.943
60.87000 145.684
60.88000 141.614
60.89000 137.460
60.90000 135.032
60.91000 134.611
60.92000 134.195
60.93000 135.263
60.94000 137.461
60.95000 139.617
60.96000 140.054
60.97000 139.587
60.98000 139.101
60.99000 138.261
61.00000 137.293
61.01000 136.399
61.02000 139.799
61.03000 143.811
61.04000 147.123
61.05000 146.236
61.06000 144.649
61.07000 143.559
61.08000 144.455
61.09000 145.557
61.10000 146.378
61.11000 143.603
61.12000 141.284
61.13000 140.789
61.14000 143.768
61.15000 146.832
61.16000 148.148
61.17000 147.192
61.18000 146.226
61.19000 146.762
61.20000 148.584
61.21000 150.358
61.22000 149.367
61.23000 146.767
61.24000 144.299
61.25000 144.625
61.26000 146.077
61.27000 147.433
61.28000 144.549
61.29000 140.863
61.30000 137.945
61.31000 140.234
61.32000 143.498
61.33000 145.389
61.34000 141.170
61.35000 136.221
61.36000 132.435
61.37000 133.419
61.38000 134.454
61.39000 136.374
61.40000 140.160
61.41000 144.005
61.42000 146.627
61.43000 147.476
61.44000 148.310
61.45000 148.668
61.46000 148.567
61.47000 148.507
61.48000 152.042
61.49000 157.896
61.50000 163.823
61.51000 171.686
61.52000 180.410
61.53000 188.650
61.54000 201.570
61.55000 214.752
61.56000 228.825
61.57000 249.747
61.58000 272.103
61.59000 292.731
61.60000 304.767
61.61000 315.632
61.62000 324.156
61.63000 333.558
61.64000 341.134
61.65000 347.629
61.66000 351.603
61.67000 355.475
61.68000 360.433
61.69000 367.137
61.70000 373.864
61.71000 377.362
61.72000 376.334
61.73000 375.635
61.74000 374.413
61.75000 372.814
61.76000 370.875
61.77000 357.229
61.78000 337.819
61.79000 319.302
61.80000 299.588
61.81000 280.910
61.82000 262.433
61.83000 245.718
61.84000 229.415
61.85000 213.921
61.86000 202.935
61.87000 192.644
61.88000 184.374
61.89000 172.998
61.90000 163.538
61.91000 156.655
61.92000 156.413
61.93000 156.507
61.94000 157.229
61.95000 159.071
61.96000 160.936
61.97000 161.959
61.98000 154.947
61.99000 150.120
62.00000 148.325
62.01000 148.954
62.02000 149.609
62.03000 151.515
62.04000 154.103
62.05000 156.593
62.06000 153.888
62.07000 149.511
62.08000 145.479
62.09000 144.944
62.10000 145.318
62.11000 145.813
62.12000 147.068
62.13000 148.456
62.14000 149.596
62.15000 150.314
62.16000 150.867
62.17000 149.976
62.18000 144.975
62.19000 139.721
62.20000 136.775
62.21000 138.386
62.22000 140.119
62.23000 141.118
62.24000 143.365
62.25000 144.941
62.26000 144.147
62.27000 141.233
62.28000 138.343
62.29000 137.048
62.30000 136.715
62.31000 136.393
62.32000 137.606
62.33000 139.364
62.34000 141.186
62.35000 143.759
62.36000 146.550
62.37000 148.780
62.38000 147.038
62.39000 144.522
62.40000 142.411
62.41000 143.204
62.42000 144.167
62.43000 145.073
62.44000 145.799
62.45000 146.512
62.46000 147.623
62.47000 149.605
62.48000 151.618
62.49000 152.831
62.50000 155.021
62.51000 156.586
62.52000 156.197
62.53000 153.844
62.54000 151.472
62.55000 147.103
62.56000 141.397
62.57000 135.821
62.58000 136.623
62.59000 140.210
62.60000 143.640
62.61000 144.916
62.62000 145.502
62.63000 146.041
62.64000 146.190
62.65000 146.255
62.66000 146.311
62.67000 150.367
62.68000 154.268
62.69000 155.896
62.70000 149.583
62.71000 142.587
62.72000 138.525
62.73000 141.552
62.74000 144.893
62.75000 146.995
62.76000 146.912
62.77000 146.829
62.78000 146.336
62.79000 145.382
62.80000 144.434
62.81000 144.512
62.82000 145.355
62.83000 146.185
62.84000 146.463
62.85000 146.461
62.86000 146.536
62.87000 147.897
62.88000 149.713
62.89000 150.897
62.90000 146.248
62.91000 140.183
62.92000 134.902
62.93000 136.921
62.94000 139.650
62.95000 141.955
62.96000 142.619
62.97000 143.118
62.98000 144.034
62.99000 146.065
63.00000 148.156
63.01000 149.524
63.02000 144.124
63.03000 140.046
63.04000 138.293
63.05000 139.469
63.06000 140.661
63.07000 144.917
63.08000 151.722
63.09000 158.445
63.10000 159.717
63.11000 157.954
63.12000 156.131
63.13000 153.122
63.14000 149.648
63.15000 146.469
63.16000 146.427
63.17000 147.231
63.18000 147.943
63.19000 147.749
63.20000 147.439
63.21000 147.334
63.22000 148.110
63.23000 148.988
63.24000 150.138
63.25000 152.096
63.26000 154.106
63.27000 155.470
63.28000 156.204
63.29000 156.738
63.30000 157.007
63.31000 156.903
63.32000 156.797
63.33000 155.861
63.34000 154.153
63.35000 152.458
63.36000 152.181
63.37000 152.783
63.38000 153.322
63.39000 152.296
63.40000 150.591
63.41000 149.186
63.42000 151.494
63.43000 154.915
63.44000 157.990
63.45000 155.491
63.46000 152.311
63.47000 149.165
63.48000 146.185
63.49000 143.226
63.50000 141.022
63.51000 141.287
63.52000 141.744
63.53000 142.065
63.54000 148.458
63.55000 153.473
63.56000 155.806
63.57000 153.953
63.58000 152.050
63.59000 152.327
63.60000 154.887
63.61000 157.436
63.62000 156.321
63.63000 152.695
63.64000 149.179
63.65000 149.144
63.66000 150.774
63.67000 152.259
63.68000 151.611
63.69000 150.256
63.70000 149.020
63.71000 150.878
63.72000 153.147
63.73000 154.887
63.74000 153.783
63.75000 152.254
63.76000 151.471
63.77000 153.395
63.78000 155.566
63.79000 157.137
63.80000 159.137
63.81000 160.689
63.82000 160.045
63.83000 155.598
63.84000 151.084
63.85000 150.227
63.86000 153.665
63.87000 157.103
63.88000 157.451
63.89000 155.416
63.90000 153.438
63.91000 153.862
63.92000 155.556
63.93000 157.578
63.94000 165.399
63.95000 175.346
63.96000 184.537
63.97000 178.968
63.98000 170.631
63.99000 163.288
64.00000 161.964
64.01000 161.651
64.02000 161.693
64.03000 163.163
64.04000 164.783
64.05000 165.991
64.06000 161.603
64.07000 157.931
64.08000 156.611
64.09000 159.804
64.10000 163.107
64.11000 165.831
64.12000 167.793
64.13000 169.751
64.14000 169.463
64.15000 167.234
64.16000 165.004
64.17000 162.686
64.18000 160.316
64.19000 158.176
64.20000 161.014
64.21000 165.871
64.22000 170.412
64.23000 170.657
64.24000 169.787
64.25000 168.694
64.26000 166.084
64.27000 163.188
64.28000 161.295
64.29000 163.907
64.30000 167.062
64.31000 169.480
64.32000 170.099
64.33000 170.489
64.34000 169.997
64.35000 167.632
64.36000 165.207
64.37000 166.725
64.38000 173.999
64.39000 181.322
64.40000 182.108
64.41000 176.543
64.42000 171.036
64.43000 170.710
64.44000 173.753
64.45000 176.526
64.46000 171.957
64.47000 164.095
64.48000 156.663
64.49000 161.139
64.50000 168.645
64.51000 175.438
64.52000 176.698
64.53000 176.790
64.54000 176.910
64.55000 177.170
64.56000 177.450
64.57000 177.670
64.58000 177.912
64.59000 178.106
64.60000 177.223
64.61000 173.812
64.62000 170.295
64.63000 170.526
64.64000 176.828
64.65000 183.215
64.66000 186.549
64.67000 176.241
64.68000 169.307
64.69000 168.973
64.70000 173.413
64.71000 177.809
64.72000 180.686
64.73000 182.810
64.74000 184.838
64.75000 185.582
64.76000 185.863
64.77000 186.127
64.78000 186.236
64.79000 186.309
64.80000 186.386
64.81000 186.489
64.82000 186.597
64.83000 186.683
64.84000 185.038
64.85000 183.568
64.86000 182.894
64.87000 184.282
64.88000 185.776
64.89000 188.546
64.90000 193.607
64.91000 198.714
64.92000 201.526
64.93000 195.057
64.94000 190.597
64.95000 190.575
64.96000 194.129
64.97000 197.669
64.98000 200.490
64.99000 202.918
65.00000 205.255
65.01000 208.685
65.02000 212.295
65.03000 216.099
65.04000 221.878
65.05000 228.174
65.06000 233.258
65.07000 230.684
65.08000 226.768
65.09000 223.545
65.10000 222.165
65.11000 221.199
65.12000 220.114
65.13000 218.690
65.14000 217.244
65.15000 218.426
65.16000 224.835
65.17000 231.388
65.18000 235.176
65.19000 239.315
65.20000 242.218
65.21000 244.778
65.22000 247.031
65.23000 249.323
65.24000 254.319
65.25000 260.960
65.26000 267.407
65.27000 274.632
65.28000 281.798
65.29000 288.786
65.30000 293.650
65.31000 297.897
65.32000 301.965
65.33000 304.761
65.34000 307.307
65.35000 309.445
65.36000 314.480
65.37000 318.979
65.38000 325.307
65.39000 337.444
65.40000 350.011
65.41000 361.520
65.42000 370.701
65.43000 379.798
65.44000 385.302
65.45000 382.700
65.46000 380.786
65.47000 384.674
65.48000 394.439
65.49000 404.161
65.50000 409.169
65.51000 410.993
65.52000 412.776
65.53000 424.402
65.54000 439.928
65.55000 454.639
65.56000 457.954
65.57000 457.600
65.58000 458.258
65.59000 467.143
65.60000 477.836
65.61000 486.993
65.62000 508.761
65.63000 528.663
65.64000 545.663
65.65000 552.442
65.66000 558.331
65.67000 573.850
65.68000 612.790
65.69000 652.782
65.70000 678.010
65.71000 762.622
65.72000 824.577
65.73000 891.781
65.74000 964.952
65.75000 1038.146
65.76000 1114.940
65.77000 1194.437
65.78000 1272.607
65.79000 1343.242
65.80000 1407.815
65.81000 1471.531
65.82000 1520.925
65.83000 1565.217
65.84000 1607.565
65.85000 1631.804
65.86000 1651.613
65.87000 1668.884
65.88000 1674.085
65.89000 1676.853
65.90000 1676.634
65.91000 1664.740
65.92000 1651.666
65.93000 1628.656
65.94000 1578.923
65.95000 1527.716
65.96000 1494.135
65.97000 1364.724
65.98000 1267.960
65.99000 1173.394
66.00000 1081.621
66.01000 989.863
66.02000 900.974
66.03000 814.491
66.04000 729.022
66.05000 657.900
66.06000 596.489
66.07000 536.475
66.08000 504.898
66.09000 484.529
66.10000 464.525
66.11000 448.467
66.12000 433.481
66.13000 420.198
66.14000 404.608
66.15000 390.747
66.16000 379.417
66.17000 379.095
66.18000 380.052
66.19000 379.977
66.20000 376.834
66.21000 373.488
66.22000 371.213
66.23000 370.286
66.24000 369.624
66.25000 375.298
66.26000 389.941
66.27000 404.651
66.28000 421.788
66.29000 441.206
66.30000 460.476
66.31000 477.644
66.32000 493.217
66.33000 508.772
66.34000 523.854
66.35000 538.731
66.36000 553.200
66.37000 562.534
66.38000 570.319
66.39000 577.326
66.40000 582.322
66.41000 586.340
66.42000 590.073
66.43000 592.427
66.44000 594.597
66.45000 596.734
66.46000 598.757
66.47000 600.772
66.48000 602.189
66.49000 587.196
66.50000 575.353
66.51000 561.748
66.52000 545.369
66.53000 528.957
66.54000 511.242
66.55000 492.151
66.56000 473.144
66.57000 459.172
66.58000 448.842
66.59000 438.437
66.60000 425.603
66.61000 411.599
66.62000 398.207
66.63000 393.930
66.64000 392.697
66.65000 391.571
66.66000 387.108
66.67000 382.472
66.68000 378.650
66.69000 379.249
66.70000 380.513
66.71000 381.353
66.72000 380.644
66.73000 379.794
66.74000 379.177
66.75000 377.678
66.76000 376.494
66.77000 373.979
66.78000 369.144
66.79000 364.266
66.80000 363.430
66.81000 367.377
66.82000 371.325
66.83000 372.605
66.84000 371.806
66.85000 371.067
66.86000 372.901
66.87000 376.108
66.88000 379.263
66.89000 381.482
66.90000 383.355
66.91000 385.088
66.92000 386.913
66.93000 388.574
66.94000 390.591
66.95000 394.790
66.96000 399.359
66.97000 403.005
66.98000 402.909
66.99000 402.415
67.00000 402.046
67.01000 406.732
67.02000 410.617
67.03000 414.331
67.04000 417.713
67.05000 421.086
67.06000 421.983
67.07000 419.606
67.08000 417.215
67.09000 413.931
67.10000 409.874
67.11000 405.893
67.12000 406.573
67.13000 410.008
67.14000 413.497
67.15000 418.174
67.16000 423.337
67.17000 428.168
67.18000 432.116
67.19000 435.476
67.20000 437.893
67.21000 433.805
67.22000 428.479
67.23000 424.490
67.24000 426.546
67.25000 429.340
67.26000 431.484
67.27000 438.730
67.28000 444.741
67.29000 450.129
67.30000 454.185
67.31000 458.197
67.32000 461.585
67.33000 464.054
67.34000 466.515
67.35000 469.322
67.36000 472.467
67.37000 475.627
67.38000 480.083
67.39000 485.391
67.40000 490.435
67.41000 488.217
67.42000 482.718
67.43000 477.517
67.44000 474.049
67.45000 471.358
67.46000 470.071
67.47000 479.775
67.48000 491.819
67.49000 502.013
67.50000 502.865
67.51000 502.421
67.52000 502.071
67.53000 511.011
67.54000 518.793
67.55000 522.733
67.56000 517.593
67.57000 512.068
67.58000 508.702
67.59000 508.858
67.60000 509.064
67.61000 509.172
67.62000 527.411
67.63000 539.711
67.64000 541.860
67.65000 536.612
67.66000 531.489
67.67000 530.846
67.68000 532.442
67.69000 533.966
67.70000 546.762
67.71000 562.285
67.72000 576.378
67.73000 577.658
67.74000 575.898
67.75000 573.779
67.76000 569.628
67.77000 565.158
67.78000 561.554
67.79000 573.656
67.80000 584.722
67.81000 595.760
67.82000 606.730
67.83000 617.695
67.84000 618.734
67.85000 601.807
67.86000 584.511
67.87000 574.954
67.88000 587.739
67.89000 596.590
67.90000 602.169
67.91000 605.091
67.92000 607.881
67.93000 604.243
67.94000 597.049
67.95000 590.116
67.96000 598.227
67.97000 611.262
67.98000 624.244
67.99000 636.678
68.00000 648.967
68.01000 659.155
68.02000 655.954
68.03000 650.387
68.04000 645.798
68.05000 642.395
68.06000 639.703
68.07000 642.351
68.08000 660.431
68.09000 679.484
68.10000 690.704
68.11000 686.230
68.12000 681.317
68.13000 678.467
68.14000 690.770
68.15000 699.467
68.16000 704.305
68.17000 705.637
68.18000 707.021
68.19000 712.118
68.20000 719.491
68.21000 726.652
68.22000 736.838
68.23000 747.727
68.24000 757.310
68.25000 751.188
68.26000 740.468
68.27000 733.182
68.28000 750.649
68.29000 773.021
68.30000 791.845
68.31000 792.238
68.32000 790.602
68.33000 791.027
68.34000 798.047
68.35000 805.563
68.36000 812.593
68.37000 818.551
68.38000 824.469
68.39000 828.061
68.40000 855.716
68.41000 875.631
68.42000 890.982
68.43000 901.670
68.44000 912.306
68.45000 917.055
68.46000 917.799
68.47000 918.527
68.48000 932.225
68.49000 951.185
68.50000 969.889
68.51000 984.963
68.52000 998.859
68.53000 1013.114
68.54000 1030.305
68.55000 1048.147
68.56000 1063.447
68.57000 1098.893
68.58000 1131.307
68.59000 1172.311
68.60000 1243.788
68.61000 1317.947
68.62000 1383.330
68.63000 1427.214
68.64000 1470.116
68.65000 1497.257
68.66000 1607.106
68.67000 1687.722
68.68000 1774.546
68.69000 1868.485
68.70000 1962.399
68.71000 2049.407
68.72000 2131.184
68.73000 2211.627
68.74000 2302.158
68.75000 2394.835
68.76000 2488.263
68.77000 2594.409
68.78000 2705.120
68.79000 2817.452
68.80000 2945.041
68.81000 3076.392
68.82000 3191.053
68.83000 3390.694
68.84000 3573.433
68.85000 3782.290
68.86000 4094.020
68.87000 4416.253
68.88000 4803.178
68.89000 5365.354
68.90000 5937.336
68.91000 6313.443
68.92000 8041.872
68.93000 9337.402
68.94000 11468.491
68.95000 14669.914
68.96000 17877.762
68.97000 22500.018
68.98000 28318.109
68.99000 34069.828
69.00000 41215.895
69.01000 48971.777
69.02000 56709.336
69.03000 64068.629
69.04000 71277.766
69.05000 78285.328
69.06000 83097.508
69.07000 87308.438
69.08000 91045.281
69.09000 92901.836
69.10000 94210.352
69.11000 95429.453
69.12000 96256.648
69.13000 97037.852
69.14000 97883.750
69.15000 98923.555
69.16000 99976.398
69.17000 100694.023
69.18000 101292.727
69.19000 101737.438
69.20000 101127.727
69.21000 99013.617
69.22000 96887.859
69.23000 93442.813
69.24000 88747.797
69.25000 84087.414
69.26000 79299.461
69.27000 74510.617
69.28000 69745.688
69.29000 65596.609
69.30000 61717.816
69.31000 57939.695
69.32000 55443.410
69.33000 53336.422
69.34000 51437.980
69.35000 49944.020
69.36000 48706.488
69.37000 47375.309
69.38000 45586.055
69.39000 43735.480
69.40000 41560.625
69.41000 38309.301
69.42000 34972.352
69.43000 32620.502
69.44000 27669.736
69.45000 23837.104
69.46000 20288.682
69.47000 17190.752
69.48000 14098.496
69.49000 11536.356
69.50000 9538.882
69.51000 7549.972
69.52000 6175.201
69.53000 5243.989
69.54000 4323.184
69.55000 3746.777
69.56000 3337.537
69.57000 2938.312
69.58000 2690.114
69.59000 2492.710
69.60000 2312.332
69.61000 2163.610
69.62000 2037.992
69.63000 1920.386
69.64000 1846.662
69.65000 1779.595
69.66000 1713.049
69.67000 1648.422
69.68000 1583.973
69.69000 1537.112
69.70000 1497.870
69.71000 1467.967
69.72000 1434.852
69.73000 1396.092
69.74000 1357.225
69.75000 1314.041
69.76000 1265.703
69.77000 1217.449
69.78000 1188.170
69.79000 1173.904
69.80000 1159.709
69.81000 1148.670
69.82000 1139.325
69.83000 1128.891
69.84000 1098.687
69.85000 1061.127
69.86000 1026.361
69.87000 999.049
69.88000 976.215
69.89000 955.657
69.90000 949.118
69.91000 944.976
69.92000 938.943
69.93000 925.176
69.94000 910.578
69.95000 899.651
69.96000 909.319
69.97000 917.825
69.98000 916.442
69.99000 895.816
70.00000 874.694
