20.00000 565.754
20.01000 568.197
20.02000 570.990
20.03000 572.226
20.04000 567.245
20.05000 561.616
20.06000 557.429
20.07000 553.469
20.08000 550.399
20.09000 553.404
20.10000 567.973
20.11000 582.821
20.12000 587.688
20.13000 579.574
20.14000 571.411
20.15000 572.967
20.16000 582.849
20.17000 592.548
20.18000 591.647
20.19000 584.579
20.20000 577.463
20.21000 569.347
20.22000 560.828
20.23000 552.869
20.24000 555.131
20.25000 559.760
20.26000 563.717
20.27000 563.116
20.28000 561.661
20.29000 561.204
20.30000 565.183
20.31000 569.692
20.32000 573.140
20.33000 563.259
20.34000 554.741
20.35000 551.207
20.36000 558.170
20.37000 565.469
20.38000 569.666
20.39000 569.370
20.40000 569.038
20.41000 562.173
20.42000 549.021
20.43000 536.038
20.44000 537.817
20.45000 549.126
20.46000 560.077
20.47000 561.546
20.48000 558.793
20.49000 556.193
20.50000 551.418
20.51000 546.420
20.52000 542.996
20.53000 551.660
20.54000 562.855
20.55000 572.526
20.56000 574.626
20.57000 575.694
20.58000 576.532
20.59000 568.469
20.60000 561.443
20.61000 555.690
20.62000 552.904
20.63000 550.238
20.64000 548.266
20.65000 547.407
20.66000 546.564
20.67000 546.125
20.68000 554.257
20.69000 559.732
20.70000 562.367
20.71000 562.964
20.72000 563.514
20.73000 562.497
20.74000 560.707
20.75000 558.999
20.76000 551.091
20.77000 541.789
20.78000 533.556
20.79000 534.711
20.80000 538.059
20.81000 542.153
20.82000 550.400
20.83000 559.288
20.84000 566.429
20.85000 547.099
20.86000 529.395
20.87000 521.973
20.88000 541.024
20.89000 561.417
20.90000 571.182
20.91000 562.000
20.92000 552.448
20.93000 547.209
20.94000 552.705
20.95000 556.504
20.96000 560.542
20.97000 564.772
20.98000 568.907
20.99000 568.664
21.00000 566.036
21.01000 563.506
21.02000 557.364
21.03000 550.322
21.04000 544.274
21.05000 548.277
21.06000 554.890
21.07000 559.861
21.08000 554.545
21.09000 547.441
21.10000 541.603
21.11000 537.358
21.12000 534.015
21.13000 535.203
21.14000 549.301
21.15000 564.191
21.16000 570.743
21.17000 560.835
21.18000 550.485
21.19000 544.523
21.20000 536.562
21.21000 530.984
21.22000 528.889
21.23000 529.909
21.24000 530.972
21.25000 534.956
21.26000 540.702
21.27000 546.277
21.28000 545.059
21.29000 541.218
21.30000 537.738
21.31000 538.505
21.32000 540.495
21.33000 541.999
21.34000 540.053
21.35000 537.434
21.36000 535.237
21.37000 540.333
21.38000 545.336
21.39000 551.275
21.40000 560.167
21.41000 569.276
21.42000 573.559
21.43000 567.308
21.44000 560.687
21.45000 556.696
21.46000 564.926
21.47000 570.870
21.48000 566.766
21.49000 552.570
21.50000 538.464
21.51000 533.720
21.52000 535.250
21.53000 536.743
21.54000 534.500
21.55000 530.699
21.56000 527.565
21.57000 533.638
21.58000 542.652
21.59000 550.873
21.60000 552.704
21.61000 553.143
21.62000 553.519
21.63000 555.358
21.64000 557.084
21.65000 560.359
21.66000 569.044
21.67000 578.195
21.68000 584.343
21.69000 583.245
21.70000 581.826
21.71000 580.934
21.72000 569.984
21.73000 561.951
21.74000 558.754
21.75000 561.010
21.76000 563.272
21.77000 565.770
21.78000 568.444
21.79000 571.073
21.80000 571.346
21.81000 570.449
21.82000 569.899
21.83000 575.059
21.84000 582.238
21.85000 589.271
21.86000 594.951
21.87000 600.302
21.88000 604.961
21.89000 617.198
21.90000 628.691
21.91000 634.941
21.92000 620.852
21.93000 604.731
21.94000 596.572
21.95000 609.666
21.96000 623.916
21.97000 633.235
21.98000 643.784
21.99000 651.553
22.00000 659.598
22.01000 667.990
22.02000 676.375
22.03000 680.521
22.04000 681.140
22.05000 681.752
22.06000 683.583
22.07000 686.038
22.08000 688.631
22.09000 693.970
22.10000 700.382
22.11000 705.986
22.12000 702.976
22.13000 697.643
22.14000 692.921
22.15000 698.950
22.16000 705.849
22.17000 710.614
22.18000 706.179
22.19000 700.684
22.20000 697.617
22.21000 701.716
22.22000 706.284
22.23000 709.382
22.24000 709.371
22.25000 709.293
22.26000 705.689
22.27000 697.133
22.28000 688.541
22.29000 678.515
22.30000 667.152
22.31000 655.879
22.32000 650.622
22.33000 649.160
22.34000 647.494
22.35000 640.729
22.36000 631.760
22.37000 623.642
22.38000 626.115
22.39000 631.756
22.40000 636.828
22.41000 635.300
22.42000 632.788
22.43000 628.967
22.44000 618.843
22.45000 607.891
22.46000 598.132
22.47000 592.272
22.48000 586.716
22.49000 582.818
22.50000 580.801
22.51000 579.329
22.52000 578.852
22.53000 579.927
22.54000 581.022
22.55000 571.462
22.56000 550.746
22.57000 530.125
22.58000 522.340
22.59000 523.475
22.60000 524.753
22.61000 530.589
22.62000 538.604
22.63000 545.775
22.64000 540.545
22.65000 531.205
22.66000 522.688
22.67000 530.220
22.68000 540.120
22.69000 548.164
22.70000 546.219
22.71000 542.784
22.72000 538.232
22.73000 529.627
22.74000 520.653
22.75000 514.158
22.76000 522.014
22.77000 528.573
22.78000 532.055
22.79000 530.210
22.80000 528.270
22.81000 529.967
22.82000 535.932
22.83000 541.891
22.84000 541.475
22.85000 536.148
22.86000 530.766
22.87000 523.009
22.88000 513.997
22.89000 505.597
22.90000 507.986
22.91000 514.332
22.92000 520.195
22.93000 526.156
22.94000 531.528
22.95000 535.685
22.96000 532.492
22.97000 528.063
22.98000 524.072
22.99000 521.837
23.00000 519.788
23.01000 518.261
23.02000 520.720
23.03000 522.815
23.04000 523.616
23.05000 521.933
23.06000 520.188
23.07000 521.750
23.08000 527.645
23.09000 533.555
23.10000 533.264
23.11000 527.614
23.12000 521.924
23.13000 513.852
23.14000 504.384
23.15000 495.540
23.16000 500.173
23.17000 510.270
23.18000 519.710
23.19000 520.573
23.20000 519.176
23.21000 517.401
23.22000 513.051
23.23000 508.214
23.24000 503.917
23.25000 502.038
23.26000 500.452
23.27000 499.237
23.28000 508.016
23.29000 515.498
23.30000 522.375
23.31000 527.968
23.32000 533.519
23.33000 531.461
23.34000 518.301
23.35000 505.046
23.36000 503.076
23.37000 512.062
23.38000 520.915
23.39000 517.771
23.40000 506.824
23.41000 496.259
23.42000 496.031
23.43000 500.437
23.44000 504.602
23.45000 501.415
23.46000 496.392
23.47000 492.732
23.48000 499.644
23.49000 508.787
23.50000 516.694
23.51000 518.409
23.52000 519.271
23.53000 519.949
23.54000 508.417
23.55000 498.382
23.56000 493.345
23.57000 500.031
23.58000 507.204
23.59000 513.325
23.60000 517.742
23.61000 522.135
23.62000 524.428
23.63000 516.017
23.64000 510.344
23.65000 507.763
23.66000 507.416
23.67000 507.013
23.68000 504.635
23.69000 501.279
23.70000 498.075
23.71000 500.592
23.72000 504.756
23.73000 509.044
23.74000 514.435
23.75000 520.086
23.76000 525.228
23.77000 527.519
23.78000 529.367
23.79000 530.853
23.80000 528.791
23.81000 526.841
23.82000 525.893
23.83000 527.543
23.84000 529.326
23.85000 528.059
23.86000 521.316
23.87000 514.464
23.88000 510.691
23.89000 525.553
23.90000 535.808
23.91000 541.533
23.92000 543.605
23.93000 545.503
23.94000 539.074
23.95000 528.075
23.96000 517.482
23.97000 518.371
23.98000 523.304
23.99000 527.587
24.00000 525.237
24.01000 521.151
24.02000 516.676
24.03000 509.745
24.04000 502.384
24.05000 496.326
24.06000 513.768
24.07000 530.246
24.08000 542.160
24.09000 540.980
24.10000 538.986
24.11000 536.756
24.12000 534.059
24.13000 531.349
24.14000 529.782
24.15000 523.954
24.16000 519.849
24.17000 513.283
24.18000 504.498
24.19000 495.813
24.20000 493.975
24.21000 496.301
24.22000 498.559
24.23000 495.504
24.24000 490.486
24.25000 486.301
24.26000 492.007
24.27000 500.587
24.28000 507.612
24.29000 503.531
24.30000 497.268
24.31000 492.006
24.32000 495.628
24.33000 499.581
24.34000 502.014
24.35000 499.617
24.36000 496.861
24.37000 494.892
24.38000 494.651
24.39000 494.471
24.40000 494.363
24.41000 493.008
24.42000 492.033
24.43000 492.799
24.44000 495.329
24.45000 497.864
24.46000 501.000
24.47000 504.541
24.48000 508.003
24.49000 502.607
24.50000 493.491
24.51000 485.034
24.52000 485.784
24.53000 489.497
24.54000 493.441
24.55000 499.259
24.56000 505.488
24.57000 510.822
24.58000 502.832
24.59000 494.470
24.60000 487.572
24.61000 485.825
24.62000 484.525
24.63000 481.701
24.64000 475.167
24.65000 468.468
24.66000 464.242
24.67000 469.487
24.68000 473.394
24.69000 475.728
24.70000 476.274
24.71000 476.829
24.72000 479.493
24.73000 483.741
24.74000 487.918
24.75000 487.900
24.76000 485.797
24.77000 483.751
24.78000 482.650
24.79000 481.886
24.80000 481.205
24.81000 481.296
24.82000 481.576
24.83000 481.820
24.84000 484.591
24.85000 487.310
24.86000 486.768
24.87000 473.484
24.88000 458.914
24.89000 450.418
24.90000 458.257
24.91000 466.996
24.92000 472.727
24.93000 479.935
24.94000 485.260
24.95000 482.772
24.96000 470.356
24.97000 457.926
24.98000 456.867
24.99000 465.342
25.00000 473.716
25.01000 475.521
25.02000 473.632
25.03000 471.744
25.04000 469.867
25.05000 467.995
25.06000 466.423
25.07000 468.084
25.08000 470.623
25.09000 472.873
25.10000 469.813
25.11000 466.324
25.12000 464.250
25.13000 468.329
25.14000 473.123
25.15000 475.680
25.16000 471.585
25.17000 467.048
25.18000 463.964
25.19000 466.529
25.20000 468.572
25.21000 472.824
25.22000 480.200
25.23000 487.599
25.24000 490.481
25.25000 489.123
25.26000 487.774
25.27000 485.525
25.28000 482.754
25.29000 480.089
25.30000 480.077
25.31000 481.222
25.32000 482.135
25.33000 480.127
25.34000 477.240
25.35000 474.641
25.36000 476.927
25.37000 479.808
25.38000 482.895
25.39000 486.983
25.40000 491.205
25.41000 494.473
25.42000 494.601
25.43000 494.482
25.44000 494.399
25.45000 481.111
25.46000 470.656
25.47000 465.251
25.48000 467.788
25.49000 470.423
25.50000 470.359
25.51000 467.447
25.52000 464.547
25.53000 468.004
25.54000 475.835
25.55000 483.245
25.56000 477.020
25.57000 464.226
25.58000 452.313
25.59000 453.504
25.60000 459.070
25.61000 464.150
25.62000 468.884
25.63000 473.015
25.64000 476.129
25.65000 473.720
25.66000 470.479
25.67000 467.292
25.68000 464.299
25.69000 461.323
25.70000 459.164
25.71000 465.623
25.72000 470.908
25.73000 473.414
25.74000 471.074
25.75000 468.645
25.76000 464.576
25.77000 458.564
25.78000 452.561
25.79000 454.343
25.80000 462.164
25.81000 469.869
25.82000 472.589
25.83000 472.652
25.84000 472.381
25.85000 466.142
25.86000 457.698
25.87000 449.889
25.88000 458.139
25.89000 469.210
25.90000 478.194
25.91000 474.442
25.92000 468.530
25.93000 463.418
25.94000 461.551
25.95000 460.028
25.96000 458.891
25.97000 449.458
25.98000 441.724
25.99000 440.125
26.00000 450.378
26.01000 460.930
26.02000 466.326
26.03000 464.911
26.04000 463.465
26.05000 464.475
26.06000 467.621
26.07000 470.725
26.08000 471.167
26.09000 470.039
26.10000 468.859
26.11000 466.551
26.12000 463.782
26.13000 461.191
26.14000 458.832
26.15000 456.749
26.16000 454.984
26.17000 455.420
26.18000 456.275
26.19000 457.922
26.20000 463.149
26.21000 468.812
26.22000 473.159
26.23000 466.734
26.24000 461.056
26.25000 455.508
26.26000 450.240
26.27000 444.981
26.28000 441.526
26.29000 440.722
26.30000 439.942
26.31000 438.939
26.32000 437.717
26.33000 436.558
26.34000 441.227
26.35000 449.714
26.36000 457.829
26.37000 455.670
26.38000 448.872
26.39000 442.442
26.40000 447.259
26.41000 454.919
26.42000 461.714
26.43000 461.735
26.44000 460.314
26.45000 459.421
26.46000 461.193
26.47000 463.334
26.48000 465.020
26.49000 457.021
26.50000 449.966
26.51000 446.156
26.52000 450.013
26.53000 454.194
26.54000 459.113
26.55000 465.240
26.56000 471.383
26.57000 474.603
26.58000 471.171
26.59000 468.838
26.60000 465.413
26.61000 461.194
26.62000 457.050
26.63000 455.601
26.64000 455.498
26.65000 455.401
26.66000 453.916
26.67000 452.089
26.68000 449.990
26.69000 445.454
26.70000 440.340
26.71000 436.735
26.72000 441.664
26.73000 447.934
26.74000 452.989
26.75000 449.821
26.76000 446.601
26.77000 444.816
26.78000 446.779
26.79000 448.937
26.80000 448.480
26.81000 443.291
26.82000 438.004
26.83000 435.084
26.84000 441.379
26.85000 445.742
26.86000 451.722
26.87000 459.016
26.88000 466.127
26.89000 464.318
26.90000 457.579
26.91000 451.084
26.92000 454.728
26.93000 461.799
26.94000 467.512
26.95000 459.218
26.96000 447.230
26.97000 436.732
26.98000 435.729
26.99000 436.405
27.00000 436.962
27.01000 444.281
27.02000 450.925
27.03000 454.559
27.04000 449.493
27.05000 443.878
27.06000 441.146
27.07000 444.187
27.08000 447.388
27.09000 449.246
27.10000 453.054
27.11000 455.734
27.12000 457.102
27.13000 457.277
27.14000 457.440
27.15000 456.768
27.16000 455.584
27.17000 454.434
27.18000 453.523
27.19000 452.753
27.20000 451.393
27.21000 442.937
27.22000 432.404
27.23000 423.479
27.24000 426.145
27.25000 431.108
27.26000 435.282
27.27000 441.846
27.28000 447.573
27.29000 450.467
27.30000 444.296
27.31000 437.445
27.32000 435.888
27.33000 446.059
27.34000 456.655
27.35000 463.084
27.36000 454.663
27.37000 448.542
27.38000 443.688
27.39000 440.127
27.40000 436.604
27.41000 437.359
27.42000 441.025
27.43000 444.611
27.44000 441.142
27.45000 434.650
27.46000 428.597
27.47000 428.750
27.48000 430.915
27.49000 433.192
27.50000 436.382
27.51000 439.775
27.52000 442.683
27.53000 436.402
27.54000 429.969
27.55000 428.323
27.56000 443.652
27.57000 460.473
27.58000 467.606
27.59000 451.010
27.60000 433.332
27.61000 422.150
27.62000 435.631
27.63000 445.697
27.64000 447.111
27.65000 438.611
27.66000 430.134
27.67000 428.784
27.68000 432.832
27.69000 436.813
27.70000 439.604
27.71000 441.708
27.72000 443.770
27.73000 445.117
27.74000 446.207
27.75000 446.417
27.76000 438.348
27.77000 428.238
27.78000 419.413
27.79000 420.648
27.80000 423.115
27.81000 425.573
27.82000 427.995
27.83000 430.413
27.84000 432.061
27.85000 431.628
27.86000 431.078
27.87000 430.716
27.88000 439.230
27.89000 445.649
27.90000 445.068
27.91000 435.524
27.92000 425.959
27.93000 424.054
27.94000 428.621
27.95000 433.136
27.96000 433.747
27.97000 432.159
27.98000 430.728
27.99000 432.537
28.00000 435.630
28.01000 438.533
28.02000 439.362
28.03000 439.622
28.04000 439.854
28.05000 447.295
28.06000 454.894
28.07000 458.985
28.08000 447.707
28.09000 434.627
28.10000 424.180
28.11000 421.625
28.12000 419.600
28.13000 418.220
28.14000 420.964
28.15000 423.110
28.16000 426.365
28.17000 431.204
28.18000 436.053
28.19000 436.250
28.20000 432.040
28.21000 427.862
28.22000 430.391
28.23000 437.075
28.24000 443.411
28.25000 440.804
28.26000 434.273
28.27000 428.151
28.28000 427.228
28.29000 427.884
28.30000 428.474
28.31000 427.692
28.32000 426.757
28.33000 425.924
28.34000 425.591
28.35000 425.324
28.36000 424.479
28.37000 421.715
28.38000 418.800
28.39000 416.745
28.40000 427.370
28.41000 435.808
28.42000 435.581
28.43000 421.624
28.44000 407.494
28.45000 403.493
28.46000 410.278
28.47000 417.037
28.48000 419.278
28.49000 418.338
28.50000 417.363
28.51000 415.257
28.52000 412.602
28.53000 409.984
28.54000 407.927
28.55000 406.059
28.56000 404.352
28.57000 405.600
28.58000 407.311
28.59000 410.048
28.60000 418.397
28.61000 427.596
28.62000 434.509
28.63000 433.008
28.64000 430.725
28.65000 429.066
28.66000 423.453
28.67000 418.985
28.68000 416.027
28.69000 415.723
28.70000 415.467
28.71000 416.293
28.72000 418.406
28.73000 420.518
28.74000 418.253
28.75000 412.570
28.76000 407.026
28.77000 407.663
28.78000 411.619
28.79000 415.409
28.80000 416.202
28.81000 415.879
28.82000 415.580
28.83000 421.713
28.84000 428.704
28.85000 432.964
28.86000 420.407
28.87000 404.975
28.88000 393.126
28.89000 395.929
28.90000 400.306
28.91000 403.582
28.92000 410.844
28.93000 416.697
28.94000 419.051
28.95000 414.599
28.96000 409.971
28.97000 409.860
28.98000 415.761
28.99000 421.689
29.00000 422.245
29.01000 418.080
29.02000 414.066
29.03000 419.492
29.04000 430.534
29.05000 440.834
29.06000 434.617
29.07000 421.607
29.08000 409.422
29.09000 410.056
29.10000 413.947
29.11000 417.708
29.12000 420.572
29.13000 423.265
29.14000 425.319
29.15000 424.465
29.16000 423.253
29.17000 422.321
29.18000 412.730
29.19000 404.652
29.20000 400.748
29.21000 405.827
29.22000 411.211
29.23000 414.087
29.24000 413.249
29.25000 412.377
29.26000 413.494
29.27000 416.575
29.28000 419.640
29.29000 421.207
29.30000 421.785
29.31000 422.330
29.32000 421.979
29.33000 421.219
29.34000 420.500
29.35000 415.225
29.36000 409.053
29.37000 403.599
29.38000 403.815
29.39000 405.248
29.40000 407.039
29.41000 410.650
29.42000 414.516
29.43000 417.566
29.44000 407.241
29.45000 398.057
29.46000 392.279
29.47000 394.602
29.48000 397.272
29.49000 401.042
29.50000 406.621
29.51000 412.226
29.52000 415.175
29.53000 416.471
29.54000 417.323
29.55000 413.784
29.56000 407.021
29.57000 400.503
29.58000 402.952
29.59000 409.911
29.60000 416.563
29.61000 415.344
29.62000 411.657
29.63000 408.784
29.64000 413.271
29.65000 419.518
29.66000 423.699
29.67000 416.089
29.68000 406.613
29.69000 398.961
29.70000 396.254
29.71000 394.447
29.72000 395.186
29.73000 402.627
29.74000 410.422
29.75000 416.121
29.76000 418.000
29.77000 419.798
29.78000 420.795
29.79000 420.938
29.80000 421.035
29.81000 421.547
29.82000 422.397
29.83000 423.262
29.84000 424.835
29.85000 426.804
29.86000 428.702
29.87000 429.120
29.88000 428.976
29.89000 428.402
29.90000 423.335
29.91000 417.076
29.92000 412.284
29.93000 416.929
29.94000 423.255
29.95000 428.477
29.96000 426.808
29.97000 424.793
29.98000 425.144
29.99000 432.381
30.00000 440.057
30.01000 445.831
30.02000 447.767
30.03000 449.593
30.04000 450.656
30.05000 433.007
30.06000 420.528
30.07000 416.682
30.08000 420.748
30.09000 424.810
30.10000 428.580
30.11000 432.170
30.12000 435.658
30.13000 438.358
30.14000 440.604
30.15000 442.479
30.16000 439.852
30.17000 435.897
30.18000 432.959
30.19000 437.410
30.20000 443.337
30.21000 448.330
30.22000 441.769
30.23000 435.049
30.24000 430.395
30.25000 432.400
30.26000 434.910
30.27000 435.632
30.28000 432.362
30.29000 428.944
30.30000 426.865
30.31000 424.257
30.32000 422.390
30.33000 424.064
30.34000 429.386
30.35000 434.621
30.36000 429.692
30.37000 417.796
30.38000 406.157
30.39000 405.457
30.40000 409.732
30.41000 414.164
30.42000 420.847
30.43000 428.266
30.44000 434.576
30.45000 431.705
30.46000 426.788
30.47000 422.566
30.48000 419.053
30.49000 416.171
30.50000 414.913
30.51000 419.457
30.52000 424.516
30.53000 428.799
30.54000 431.167
30.55000 433.447
30.56000 434.893
30.57000 429.376
30.58000 425.286
30.59000 420.974
30.60000 416.405
30.61000 411.863
30.62000 413.638
30.63000 420.233
30.64000 426.722
30.65000 429.642
30.66000 430.666
30.67000 431.832
30.68000 435.429
30.69000 439.905
30.70000 443.513
30.71000 438.872
30.72000 432.183
30.73000 426.337
30.74000 430.163
30.75000 434.807
30.76000 438.245
30.77000 436.891
30.78000 435.044
30.79000 434.440
30.80000 437.231
30.81000 440.214
30.82000 442.180
30.83000 441.238
30.84000 440.493
30.85000 440.540
30.86000 441.609
30.87000 442.692
30.88000 449.769
30.89000 461.953
30.90000 474.002
30.91000 480.450
30.92000 483.587
30.93000 486.737
30.94000 490.153
30.95000 493.675
30.96000 497.396
30.97000 503.314
30.98000 509.837
30.99000 515.632
31.00000 514.336
31.01000 512.071
31.02000 513.919
31.03000 533.932
31.04000 556.096
31.05000 574.388
31.06000 580.992
31.07000 586.801
31.08000 590.770
31.09000 609.407
31.10000 623.695
31.11000 642.733
31.12000 668.599
31.13000 694.519
31.14000 724.750
31.15000 759.098
31.16000 793.201
31.17000 834.814
31.18000 880.494
31.19000 926.078
31.20000 969.127
31.21000 1011.057
31.22000 1055.594
31.23000 1133.703
31.24000 1222.080
31.25000 1301.789
31.26000 1377.398
31.27000 1443.041
31.28000 1515.005
31.29000 1618.124
31.30000 1725.450
31.31000 1827.591
31.32000 1912.399
31.33000 1995.814
31.34000 2054.733
31.35000 2150.953
31.36000 2225.138
31.37000 2288.736
31.38000 2335.435
31.39000 2381.914
31.40000 2410.208
31.41000 2418.978
31.42000 2427.707
31.43000 2442.386
31.44000 2461.120
31.45000 2479.101
31.46000 2471.694
31.47000 2451.879
31.48000 2430.774
31.49000 2389.983
31.50000 2342.525
31.51000 2299.119
31.52000 2246.588
31.53000 2198.013
31.54000 2141.792
31.55000 2043.361
31.56000 1938.472
31.57000 1836.348
31.58000 1744.474
31.59000 1653.563
31.60000 1587.325
31.61000 1504.103
31.62000 1439.359
31.63000 1371.046
31.64000 1296.414
31.65000 1221.662
31.66000 1157.603
31.67000 1106.403
31.68000 1055.323
31.69000 1001.954
31.70000 947.028
31.71000 892.665
31.72000 863.809
31.73000 848.749
31.74000 832.642
31.75000 797.271
31.76000 754.684
31.77000 715.231
31.78000 698.330
31.79000 688.357
31.80000 675.743
31.81000 646.728
31.82000 614.886
31.83000 588.800
31.84000 586.432
31.85000 586.637
31.86000 586.790
31.87000 562.605
31.88000 542.563
31.89000 525.087
31.90000 512.640
31.91000 500.325
31.92000 494.008
31.93000 495.738
31.94000 497.509
31.95000 497.824
31.96000 496.851
31.97000 495.764
31.98000 487.326
31.99000 474.484
32.00000 462.117
32.01000 460.489
32.02000 463.309
32.03000 465.953
32.04000 459.514
32.05000 451.287
32.06000 443.810
32.07000 441.601
32.08000 440.410
32.09000 438.529
32.10000 433.484
32.11000 428.045
32.12000 423.855
32.13000 421.147
32.14000 419.088
32.15000 417.670
32.16000 417.642
32.17000 417.661
32.18000 415.660
32.19000 410.645
32.20000 405.601
32.21000 402.705
32.22000 401.949
32.23000 401.209
32.24000 401.971
32.25000 403.733
32.26000 405.669
32.27000 412.575
32.28000 421.756
32.29000 430.454
32.30000 420.690
32.31000 406.308
32.32000 393.026
32.33000 388.529
32.34000 385.930
32.35000 383.771
32.36000 383.866
32.37000 384.279
32.38000 384.605
32.39000 387.011
32.40000 389.085
32.41000 392.507
32.42000 399.164
32.43000 405.961
32.44000 409.730
32.45000 408.481
32.46000 407.158
32.47000 406.458
32.48000 393.567
32.49000 384.831
32.50000 380.557
32.51000 379.585
32.52000 378.667
32.53000 379.743
32.54000 381.829
32.55000 383.824
32.56000 382.208
32.57000 379.522
32.58000 377.414
32.59000 380.584
32.60000 385.026
32.61000 388.473
32.62000 386.199
32.63000 383.011
32.64000 380.433
32.65000 379.614
32.66000 379.089
32.67000 377.467
32.68000 372.938
32.69000 368.253
32.70000 364.445
32.71000 362.246
32.72000 360.081
32.73000 358.877
32.74000 367.349
32.75000 373.224
32.76000 377.604
32.77000 380.748
32.78000 383.833
32.79000 383.882
32.80000 382.228
32.81000 380.632
32.82000 377.950
32.83000 375.029
32.84000 372.970
32.85000 379.998
32.86000 389.459
32.87000 397.113
32.88000 393.056
32.89000 386.894
32.90000 381.801
32.91000 383.289
32.92000 385.135
32.93000 388.300
32.94000 395.333
32.95000 402.616
32.96000 407.597
32.97000 407.901
32.98000 408.069
32.99000 408.167
33.00000 404.917
33.01000 402.615
33.02000 398.814
33.03000 393.630
33.04000 388.442
33.05000 383.061
33.06000 377.561
33.07000 372.212
33.08000 368.707
33.09000 366.127
33.10000 363.707
33.11000 363.258
33.12000 363.395
33.13000 363.453
33.14000 362.930
33.15000 362.291
33.16000 361.752
33.17000 358.057
33.18000 354.627
33.19000 350.960
33.20000 346.521
33.21000 342.023
33.22000 340.804
33.23000 346.954
33.24000 353.380
33.25000 357.303
33.26000 348.983
33.27000 342.933
33.28000 339.172
33.29000 337.789
33.30000 336.438
33.31000 338.882
33.32000 343.948
33.33000 348.907
33.34000 346.760
33.35000 341.458
33.36000 336.671
33.37000 339.369
33.38000 344.528
33.39000 349.070
33.40000 348.451
33.41000 346.672
33.42000 345.142
33.43000 342.091
33.44000 339.319
33.45000 338.891
33.46000 346.902
33.47000 355.672
33.48000 359.839
33.49000 352.573
33.50000 344.768
33.51000 339.803
33.52000 340.370
33.53000 340.851
33.54000 340.711
33.55000 339.847
33.56000 338.992
33.57000 340.799
33.58000 344.652
33.59000 348.446
33.60000 349.678
33.61000 349.568
33.62000 349.204
33.63000 344.411
33.64000 338.007
33.65000 332.731
33.66000 338.299
33.67000 346.579
33.68000 353.825
33.69000 350.784
33.70000 346.708
33.71000 343.251
33.72000 342.266
33.73000 341.539
33.74000 340.801
33.75000 340.035
33.76000 339.268
33.77000 338.760
33.78000 338.264
33.79000 337.899
33.80000 339.328
33.81000 343.090
33.82000 346.860
33.83000 348.228
33.84000 347.533
33.85000 346.846
33.86000 341.206
33.87000 332.877
33.88000 325.141
33.89000 330.003
33.90000 339.938
33.91000 348.891
33.92000 346.938
33.93000 341.955
33.94000 337.522
33.95000 342.860
33.96000 349.081
33.97000 353.047
33.98000 346.977
33.99000 339.707
34.00000 334.683
34.01000 336.486
34.02000 338.760
34.03000 340.317
34.04000 349.460
34.05000 356.490
34.06000 356.906
34.07000 347.745
34.08000 338.507
34.09000 337.527
34.10000 344.500
34.11000 351.425
34.12000 355.368
34.13000 357.355
34.14000 359.117
34.15000 354.907
34.16000 348.040
34.17000 341.811
34.18000 343.902
34.19000 348.556
34.20000 352.758
34.21000 349.749
34.22000 345.777
34.23000 342.093
34.24000 339.842
34.25000 337.786
34.26000 336.045
34.27000 335.361
34.28000 334.764
34.29000 334.341
34.30000 344.505
34.31000 352.559
34.32000 355.729
34.33000 351.045
34.34000 346.257
34.35000 344.518
34.36000 346.082
34.37000 347.641
34.38000 347.477
34.39000 346.089
34.40000 344.678
34.41000 342.455
34.42000 339.832
34.43000 337.632
34.44000 341.960
34.45000 348.517
34.46000 354.519
34.47000 352.280
34.48000 348.575
34.49000 345.623
34.50000 346.865
34.51000 348.754
34.52000 347.879
34.53000 336.678
34.54000 324.497
34.55000 315.603
34.56000 319.547
34.57000 323.089
34.58000 328.157
34.59000 335.947
34.60000 343.791
34.61000 346.646
34.62000 343.455
34.63000 340.256
34.64000 339.978
34.65000 342.027
34.66000 344.040
34.67000 344.405
34.68000 343.873
34.69000 343.440
34.70000 344.838
34.71000 346.929
34.72000 348.867
34.73000 345.685
34.74000 341.622
34.75000 338.229
34.76000 339.032
34.77000 340.565
34.78000 340.161
34.79000 331.716
34.80000 322.391
34.81000 315.383
34.82000 314.586
34.83000 314.261
34.84000 315.279
34.85000 318.947
34.86000 322.686
34.87000 324.563
34.88000 323.923
34.89000 323.269
34.90000 322.607
34.91000 321.938
34.92000 321.295
34.93000 322.326
34.94000 324.369
34.95000 326.368
34.96000 327.354
34.97000 327.919
34.98000 328.449
34.99000 328.655
35.00000 328.758
35.01000 328.477
35.02000 325.478
35.03000 321.950
35.04000 319.294
35.05000 320.673
35.06000 322.559
35.07000 324.015
35.08000 327.911
35.09000 331.142
35.10000 331.344
35.11000 324.933
35.12000 318.290
35.13000 314.627
35.14000 315.444
35.15000 316.306
35.16000 316.738
35.17000 322.217
35.18000 325.824
35.19000 324.408
35.20000 319.626
35.21000 315.162
35.22000 319.901
35.23000 328.886
35.24000 337.405
35.25000 335.170
35.26000 329.944
35.27000 324.362
35.28000 315.913
35.29000 306.839
35.30000 299.983
35.31000 304.597
35.32000 310.845
35.33000 315.791
35.34000 313.602
35.35000 311.350
35.36000 309.912
35.37000 310.440
35.38000 311.054
35.39000 310.781
35.40000 309.026
35.41000 307.249
35.42000 306.307
35.43000 309.809
35.44000 312.184
35.45000 312.756
35.46000 311.983
35.47000 311.218
35.48000 310.774
35.49000 310.494
35.50000 310.225
35.51000 311.033
35.52000 312.140
35.53000 313.630
35.54000 318.649
35.55000 324.524
35.56000 328.842
35.57000 324.125
35.58000 317.952
35.59000 312.952
35.60000 318.369
35.61000 323.629
35.62000 326.014
35.63000 320.725
35.64000 315.017
35.65000 311.678
35.66000 312.719
35.67000 313.857
35.68000 314.492
35.69000 302.158
35.70000 293.610
35.71000 295.085
35.72000 304.897
35.73000 314.598
35.74000 318.468
35.75000 319.043
35.76000 319.598
35.77000 315.157
35.78000 309.134
35.79000 303.685
35.80000 304.363
35.81000 306.693
35.82000 308.414
35.83000 306.156
35.84000 303.176
35.85000 300.710
35.86000 301.691
35.87000 302.828
35.88000 303.866
35.89000 304.611
35.90000 305.337
35.91000 305.567
35.92000 304.784
35.93000 303.971
35.94000 303.494
35.95000 313.203
35.96000 320.088
35.97000 321.163
35.98000 316.826
35.99000 312.520
36.00000 310.651
36.01000 310.309
36.02000 309.976
36.03000 312.829
36.04000 316.855
36.05000 320.441
36.06000 318.567
36.07000 315.058
36.08000 311.886
36.09000 311.210
36.10000 311.041
36.11000 310.898
36.12000 300.494
36.13000 290.667
36.14000 285.749
36.15000 296.884
36.16000 309.267
36.17000 315.390
36.18000 307.346
36.19000 298.760
36.20000 293.502
36.21000 301.932
36.22000 308.082
36.23000 306.830
36.24000 297.825
36.25000 288.875
36.26000 287.117
36.27000 290.364
36.28000 293.544
36.29000 295.265
36.30000 296.250
36.31000 297.234
36.32000 298.222
36.33000 299.210
36.34000 299.757
36.35000 296.579
36.36000 292.557
36.37000 289.095
36.38000 292.008
36.39000 295.280
36.40000 298.224
36.41000 299.973
36.42000 301.615
36.43000 303.079
36.44000 304.101
36.45000 305.103
36.46000 305.741
36.47000 298.961
36.48000 293.934
36.49000 290.171
36.50000 287.894
36.51000 285.637
36.52000 287.892
36.53000 293.643
36.54000 299.307
36.55000 298.669
36.56000 294.817
36.57000 291.091
36.58000 289.599
36.59000 288.927
36.60000 289.057
36.61000 296.976
36.62000 306.859
36.63000 315.516
36.64000 304.389
36.65000 291.988
36.66000 282.670
36.67000 285.766
36.68000 290.168
36.69000 294.451
36.70000 298.403
36.71000 302.336
36.72000 304.942
36.73000 302.908
36.74000 301.321
36.75000 298.359
36.76000 293.594
36.77000 288.831
36.78000 291.264
36.79000 299.927
36.80000 308.499
36.81000 310.072
36.82000 307.599
36.83000 304.947
36.84000 298.452
36.85000 290.398
36.86000 283.386
36.87000 288.085
36.88000 296.064
36.89000 303.167
36.90000 306.261
36.91000 308.291
36.92000 310.481
36.93000 313.388
36.94000 316.380
36.95000 316.793
36.96000 309.303
36.97000 301.261
36.98000 295.740
36.99000 311.100
37.00000 323.125
37.01000 323.541
37.02000 307.016
37.03000 290.347
37.04000 285.980
37.05000 293.560
37.06000 301.090
37.07000 300.868
37.08000 295.684
37.09000 290.756
37.10000 292.770
37.11000 297.896
37.12000 302.552
37.13000 301.013
37.14000 297.552
37.15000 294.423
37.16000 298.314
37.17000 303.041
37.18000 306.206
37.19000 301.547
37.20000 295.812
37.21000 293.034
37.22000 300.285
37.23000 308.361
37.24000 314.092
37.25000 303.345
37.26000 294.650
37.27000 288.583
37.28000 286.775
37.29000 285.026
37.30000 284.996
37.31000 286.843
37.32000 288.684
37.33000 285.921
37.34000 279.883
37.35000 274.121
37.36000 278.001
37.37000 286.664
37.38000 294.529
37.39000 289.912
37.40000 281.006
37.41000 272.844
37.42000 271.414
37.43000 271.551
37.44000 273.389
37.45000 284.773
37.46000 297.644
37.47000 306.861
37.48000 302.327
37.49000 296.474
37.50000 292.192
37.51000 286.368
37.52000 281.813
37.53000 279.370
37.54000 280.721
37.55000 282.147
37.56000 285.607
37.57000 291.551
37.58000 297.491
37.59000 299.068
37.60000 297.136
37.61000 295.177
37.62000 291.911
37.63000 287.928
37.64000 283.919
37.65000 279.415
37.66000 274.722
37.67000 270.367
37.68000 280.466
37.69000 292.977
37.70000 303.156
37.71000 298.598
37.72000 291.458
37.73000 286.452
37.74000 290.379
37.75000 295.295
37.76000 298.996
37.77000 293.531
37.78000 288.806
37.79000 286.315
37.80000 288.261
37.81000 290.330
37.82000 292.546
37.83000 294.963
37.84000 297.381
37.85000 296.790
37.86000 293.491
37.87000 290.220
37.88000 288.824
37.89000 288.569
37.90000 288.407
37.91000 290.435
37.92000 293.383
37.93000 296.150
37.94000 296.768
37.95000 296.763
37.96000 296.322
37.97000 292.775
37.98000 288.617
37.99000 284.580
38.00000 281.106
38.01000 277.704
38.02000 275.072
38.03000 282.855
38.04000 289.642
38.05000 295.653
38.06000 299.958
38.07000 304.201
38.08000 301.141
38.09000 287.013
38.10000 272.772
38.11000 265.605
38.12000 287.380
38.13000 301.805
38.14000 302.918
38.15000 295.043
38.16000 287.388
38.17000 286.265
38.18000 288.178
38.19000 289.993
38.20000 290.096
38.21000 289.683
38.22000 290.065
38.23000 296.911
38.24000 305.177
38.25000 311.987
38.26000 311.204
38.27000 309.328
38.28000 307.841
38.29000 313.309
38.30000 318.193
38.31000 321.835
38.32000 322.453
38.33000 322.935
38.34000 321.864
38.35000 318.180
38.36000 314.454
38.37000 312.471
38.38000 320.184
38.39000 325.455
38.40000 333.271
38.41000 343.001
38.42000 352.576
38.43000 356.110
38.44000 356.539
38.45000 356.950
38.46000 362.564
38.47000 369.526
38.48000 376.788
38.49000 386.829
38.50000 397.550
38.51000 407.732
38.52000 414.759
38.53000 421.273
38.54000 426.558
38.55000 462.634
38.56000 494.580
38.57000 522.711
38.58000 540.588
38.59000 557.899
38.60000 577.291
38.61000 600.558
38.62000 623.914
38.63000 637.003
38.64000 705.312
38.65000 752.779
38.66000 791.102
38.67000 821.758
38.68000 852.216
38.69000 872.014
38.70000 885.744
38.71000 899.006
38.72000 925.660
38.73000 955.757
38.74000 984.561
38.75000 999.432
38.76000 1010.516
38.77000 1020.969
38.78000 1027.254
38.79000 1032.779
38.80000 1037.359
38.81000 1035.708
38.82000 1033.745
38.83000 1028.400
38.84000 1012.995
38.85000 996.922
38.86000 974.035
38.87000 937.102
38.88000 899.745
38.89000 877.788
38.90000 839.809
38.91000 812.945
38.92000 779.921
38.93000 741.107
38.94000 702.393
38.95000 671.596
38.96000 645.796
38.97000 620.686
38.98000 589.135
38.99000 556.416
39.00000 524.818
39.01000 507.317
39.02000 494.064
39.03000 479.440
39.04000 454.576
39.05000 427.616
39.06000 404.807
39.07000 394.689
39.08000 387.628
39.09000 381.650
39.10000 379.237
39.11000 377.105
39.12000 372.214
39.13000 361.034
39.14000 349.609
39.15000 342.592
39.16000 333.868
39.17000 327.601
39.18000 323.374
39.19000 321.301
39.20000 319.210
39.21000 314.479
39.22000 307.899
39.23000 301.453
39.24000 296.671
39.25000 292.843
39.26000 289.174
39.27000 287.860
39.28000 287.332
39.29000 286.863
39.30000 286.895
39.31000 287.042
39.32000 287.169
39.33000 285.563
39.34000 283.980
39.35000 284.015
39.36000 289.954
39.37000 296.436
39.38000 299.779
39.39000 295.207
39.40000 290.252
39.41000 287.082
39.42000 283.937
39.43000 281.647
39.44000 278.248
39.45000 273.538
39.46000 268.843
39.47000 268.968
39.48000 272.856
39.49000 276.687
39.50000 280.765
39.51000 284.848
39.52000 288.615
39.53000 286.720
39.54000 282.734
39.55000 278.815
39.56000 275.552
39.57000 272.455
39.58000 269.738
39.59000 270.683
39.60000 272.028
39.61000 272.637
39.62000 270.264
39.63000 267.573
39.64000 266.967
39.65000 272.170
39.66000 277.717
39.67000 281.402
39.68000 275.092
39.69000 270.239
39.70000 266.650
39.71000 264.730
39.72000 262.823
39.73000 266.038
39.74000 273.725
39.75000 281.333
39.76000 279.753
39.77000 272.898
39.78000 266.359
39.79000 266.721
39.80000 269.903
39.81000 273.020
39.82000 275.411
39.83000 277.596
39.84000 279.544
39.85000 270.305
39.86000 260.419
39.87000 253.309
39.88000 258.740
39.89000 265.700
39.90000 270.883
39.91000 270.582
39.92000 269.894
39.93000 269.421
39.94000 270.992
39.95000 272.223
39.96000 271.539
39.97000 268.040
39.98000 264.516
39.99000 263.564
40.00000 265.132
40.01000 266.689
40.02000 265.205
40.03000 261.780
40.04000 258.431
40.05000 257.194
40.06000 256.911
40.07000 256.848
40.08000 259.719
40.09000 263.508
40.10000 266.936
40.11000 266.066
40.12000 264.495
40.13000 262.850
40.14000 260.834
40.15000 258.765
40.16000 256.165
40.17000 251.745
40.18000 247.174
40.19000 243.923
40.20000 257.015
40.21000 267.510
40.22000 270.719
40.23000 262.035
40.24000 253.183
40.25000 249.863
40.26000 252.631
40.27000 255.394
40.28000 258.826
40.29000 262.714
40.30000 266.439
40.31000 264.346
40.32000 259.347
40.33000 254.584
40.34000 253.568
40.35000 253.848
40.36000 254.106
40.37000 257.673
40.38000 261.552
40.39000 264.136
40.40000 259.393
40.41000 253.499
40.42000 249.779
40.43000 254.298
40.44000 259.615
40.45000 263.515
40.46000 261.133
40.47000 259.040
40.48000 257.552
40.49000 257.156
40.50000 256.782
40.51000 255.726
40.52000 253.831
40.53000 251.936
40.54000 248.222
40.55000 243.050
40.56000 237.920
40.57000 234.819
40.58000 232.840
40.59000 231.223
40.60000 236.537
40.61000 244.505
40.62000 251.906
40.63000 253.488
40.64000 253.529
40.65000 253.196
40.66000 250.476
40.67000 247.335
40.68000 244.614
40.69000 243.666
40.70000 242.917
40.71000 242.352
40.72000 250.593
40.73000 257.485
40.74000 260.367
40.75000 255.220
40.76000 249.849
40.77000 247.357
40.78000 248.817
40.79000 250.301
40.80000 253.094
40.81000 257.074
40.82000 260.956
40.83000 257.924
40.84000 250.657
40.85000 243.818
40.86000 247.146
40.87000 254.778
40.88000 261.948
40.89000 264.600
40.90000 265.813
40.91000 265.538
40.92000 254.541
40.93000 241.419
40.94000 230.846
40.95000 232.256
40.96000 235.196
40.97000 237.475
40.98000 249.571
40.99000 259.764
41.00000 263.542
41.01000 253.112
41.02000 242.165
41.03000 236.464
41.04000 238.771
41.05000 241.164
41.06000 242.373
41.07000 240.363
41.08000 239.062
41.09000 242.724
41.10000 249.764
41.11000 256.568
41.12000 256.244
41.13000 252.584
41.14000 249.110
41.15000 248.737
41.16000 249.322
41.17000 249.820
41.18000 249.611
41.19000 249.245
41.20000 248.779
41.21000 247.787
41.22000 246.718
41.23000 245.869
41.24000 242.408
41.25000 239.437
41.26000 239.897
41.27000 248.761
41.28000 258.009
41.29000 264.276
41.30000 265.496
41.31000 266.633
41.32000 267.241
41.33000 254.643
41.34000 246.074
41.35000 243.994
41.36000 246.827
41.37000 249.630
41.38000 251.232
41.39000 252.211
41.40000 253.150
41.41000 252.478
41.42000 251.310
41.43000 250.124
41.44000 248.754
41.45000 247.340
41.46000 245.851
41.47000 243.923
41.48000 241.923
41.49000 240.298
41.50000 240.107
41.51000 240.070
41.52000 239.921
41.53000 239.465
41.54000 238.992
41.55000 239.072
41.56000 240.192
41.57000 241.336
41.58000 241.979
41.59000 243.713
41.60000 244.920
41.61000 246.683
41.62000 248.917
41.63000 251.083
41.64000 249.549
41.65000 245.891
41.66000 242.356
41.67000 243.959
41.68000 247.394
41.69000 250.292
41.70000 247.354
41.71000 242.817
41.72000 238.845
41.73000 238.638
41.74000 239.123
41.75000 239.526
41.76000 238.691
41.77000 237.881
41.78000 237.253
41.79000 237.173
41.80000 237.130
41.81000 236.241
41.82000 233.599
41.83000 230.902
41.84000 229.311
41.85000 230.725
41.86000 231.739
41.87000 235.477
41.88000 241.794
41.89000 248.054
41.90000 249.641
41.91000 248.256
41.92000 246.907
41.93000 245.532
41.94000 244.210
41.95000 242.741
41.96000 239.386
41.97000 235.458
41.98000 231.626
41.99000 228.509
42.00000 225.540
42.01000 223.025
42.02000 233.822
42.03000 244.359
42.04000 250.674
42.05000 242.973
42.06000 234.159
42.07000 229.156
42.08000 232.905
42.09000 237.000
42.10000 239.523
42.11000 241.016
42.12000 242.078
42.13000 241.739
42.14000 239.908
42.15000 238.092
42.16000 238.408
42.17000 240.229
42.18000 242.015
42.19000 242.539
42.20000 242.454
42.21000 242.523
42.22000 244.921
42.23000 248.103
42.24000 250.762
42.25000 248.926
42.26000 246.057
42.27000 243.580
42.28000 239.709
42.29000 236.245
42.30000 233.564
42.31000 233.767
42.32000 234.238
42.33000 234.834
42.34000 235.748
42.35000 236.678
42.36000 237.274
42.37000 232.306
42.38000 228.609
42.39000 225.489
42.40000 223.060
42.41000 220.639
42.42000 220.315
42.43000 221.643
42.44000 222.952
42.45000 226.245
42.46000 230.476
42.47000 234.409
42.48000 232.937
42.49000 229.454
42.50000 226.047
42.51000 223.402
42.52000 220.951
42.53000 218.799
42.54000 226.213
42.55000 233.992
42.56000 240.159
42.57000 239.736
42.58000 238.606
42.59000 236.275
42.60000 230.573
42.61000 224.670
42.62000 220.737
42.63000 229.723
42.64000 236.621
42.65000 240.020
42.66000 238.759
42.67000 237.476
42.68000 236.214
42.69000 234.973
42.70000 233.743
42.71000 231.379
42.72000 228.405
42.73000 225.406
42.74000 221.867
42.75000 218.106
42.76000 214.792
42.77000 216.625
42.78000 219.921
42.79000 222.862
42.80000 226.179
42.81000 229.129
42.82000 231.322
42.83000 230.070
42.84000 228.394
42.85000 226.650
42.86000 224.696
42.87000 222.726
42.88000 221.368
42.89000 220.038
42.90000 219.040
42.91000 220.717
42.92000 226.359
42.93000 232.038
42.94000 236.890
42.95000 240.925
42.96000 244.936
42.97000 244.939
42.98000 242.334
42.99000 239.741
43.00000 237.491
43.01000 235.396
43.02000 232.942
43.03000 225.649
43.04000 216.831
43.05000 208.845
43.06000 218.479
43.07000 230.298
43.08000 240.390
43.09000 241.688
43.10000 241.754
43.11000 241.086
43.12000 237.887
43.13000 234.476
43.14000 232.044
43.15000 230.588
43.16000 229.510
43.17000 227.364
43.18000 223.462
43.19000 219.534
43.20000 220.789
43.21000 227.794
43.22000 234.780
43.23000 235.923
43.24000 232.800
43.25000 229.716
43.26000 228.016
43.27000 227.012
43.28000 226.251
43.29000 229.366
43.30000 233.834
43.31000 237.936
43.32000 237.445
43.33000 236.028
43.34000 234.405
43.35000 231.605
43.36000 228.619
43.37000 227.366
43.38000 232.737
43.39000 238.757
43.40000 243.180
43.41000 235.646
43.42000 229.330
43.43000 224.654
43.44000 222.966
43.45000 221.342
43.46000 221.191
43.47000 222.869
43.48000 224.550
43.49000 222.897
43.50000 218.530
43.51000 214.279
43.52000 215.819
43.53000 220.584
43.54000 225.156
43.55000 225.980
43.56000 225.359
43.57000 224.781
43.58000 222.497
43.59000 220.024
43.60000 217.876
43.61000 217.810
43.62000 218.115
43.63000 218.685
43.64000 220.381
43.65000 222.205
43.66000 223.583
43.67000 228.304
43.68000 232.174
43.69000 235.271
43.70000 236.811
43.71000 238.307
43.72000 240.635
43.73000 244.115
43.74000 247.602
43.75000 244.378
43.76000 235.011
43.77000 225.709
43.78000 221.175
43.79000 219.584
43.80000 218.151
43.81000 220.529
43.82000 224.532
43.83000 228.296
43.84000 231.748
43.85000 234.817
43.86000 237.877
43.87000 240.871
43.88000 243.851
43.89000 245.081
43.90000 238.014
43.91000 229.876
43.92000 223.560
43.93000 229.635
43.94000 235.212
43.95000 238.733
43.96000 237.664
43.97000 236.426
43.98000 234.425
43.99000 231.252
44.00000 228.065
44.01000 226.448
44.02000 225.571
44.03000 224.967
44.04000 222.519
44.05000 218.806
44.06000 215.312
44.07000 218.535
44.08000 224.924
44.09000 230.994
44.10000 233.436
44.11000 234.598
44.12000 235.333
44.13000 232.537
44.14000 228.952
44.15000 225.654
44.16000 223.870
44.17000 222.307
44.18000 221.064
44.19000 220.953
44.20000 220.945
44.21000 221.958
44.22000 225.492
44.23000 229.142
44.24000 230.772
44.25000 228.957
44.26000 227.084
44.27000 226.079
44.28000 224.447
44.29000 223.343
44.30000 224.573
44.31000 227.584
44.32000 230.494
44.33000 229.290
44.34000 225.941
44.35000 222.729
44.36000 220.411
44.37000 218.548
44.38000 217.041
44.39000 218.919
44.40000 221.638
44.41000 224.291
44.42000 226.551
44.43000 228.748
44.44000 230.535
44.45000 233.771
44.46000 236.536
44.47000 237.781
44.48000 234.880
44.49000 231.744
44.50000 229.685
44.51000 229.660
44.52000 229.682
44.53000 229.695
44.54000 242.330
44.55000 251.132
44.56000 252.249
44.57000 246.817
44.58000 241.411
44.59000 237.448
44.60000 234.319
44.61000 231.294
44.62000 231.011
44.63000 231.779
44.64000 233.095
44.65000 240.429
44.66000 249.424
44.67000 256.385
44.68000 249.691
44.69000 240.461
44.70000 232.785
44.71000 238.350
44.72000 244.254
44.73000 248.023
44.74000 245.349
44.75000 242.236
44.76000 241.339
44.77000 245.077
44.78000 248.961
44.79000 251.258
44.80000 254.689
44.81000 257.119
44.82000 258.230
44.83000 258.078
44.84000 257.952
44.85000 259.954
44.86000 263.320
44.87000 266.599
44.88000 271.950
44.89000 277.926
44.90000 283.404
44.91000 282.467
44.92000 279.568
44.93000 277.322
44.94000 280.051
44.95000 283.815
44.96000 287.009
44.97000 284.350
44.98000 281.457
44.99000 281.287
45.00000 290.214
45.01000 299.873
45.02000 306.250
45.03000 305.038
45.04000 303.520
45.05000 302.583
45.06000 314.316
45.07000 322.863
45.08000 326.517
45.09000 324.916
45.10000 323.310
45.11000 321.069
45.12000 318.376
45.13000 315.736
45.14000 324.144
45.15000 337.439
45.16000 349.591
45.17000 344.297
45.18000 333.094
45.19000 322.869
45.20000 321.145
45.21000 321.393
45.22000 321.607
45.23000 323.121
45.24000 324.576
45.25000 325.076
45.26000 322.030
45.27000 318.651
45.28000 317.381
45.29000 321.501
45.30000 325.890
45.31000 328.714
45.32000 331.027
45.33000 332.708
45.34000 330.988
45.35000 325.179
45.36000 319.372
45.37000 316.936
45.38000 317.176
45.39000 317.412
45.40000 318.384
45.41000 319.714
45.42000 321.057
45.43000 322.622
45.44000 324.271
45.45000 325.121
45.46000 317.979
45.47000 308.775
45.48000 300.683
45.49000 289.051
45.50000 278.520
45.51000 269.986
45.52000 269.689
45.53000 270.285
45.54000 270.674
45.55000 270.477
45.56000 270.245
45.57000 270.090
45.58000 276.971
45.59000 282.208
45.60000 283.194
45.61000 278.478
45.62000 273.736
45.63000 273.228
45.64000 276.476
45.65000 279.692
45.66000 275.665
45.67000 267.468
45.68000 259.394
45.69000 254.092
45.70000 249.939
45.71000 246.247
45.72000 247.905
45.73000 251.096
45.74000 253.946
45.75000 250.233
45.76000 245.893
45.77000 242.230
45.78000 241.672
45.79000 241.500
45.80000 241.153
45.81000 240.260
45.82000 239.327
45.83000 238.682
45.84000 239.370
45.85000 239.923
45.86000 239.538
45.87000 237.754
45.88000 235.956
45.89000 233.907
45.90000 231.609
45.91000 229.323
45.92000 226.149
45.93000 222.434
45.94000 218.869
45.95000 219.584
45.96000 222.261
45.97000 224.819
45.98000 225.770
45.99000 226.211
46.00000 226.612
46.01000 225.457
46.02000 224.143
46.03000 222.921
46.04000 222.173
46.05000 221.493
46.06000 220.641
46.07000 219.190
46.08000 217.688
46.09000 216.615
46.10000 226.621
46.11000 234.625
46.12000 236.526
46.13000 228.317
46.14000 219.956
46.15000 214.326
46.16000 211.752
46.17000 209.189
46.18000 208.412
46.19000 208.952
46.20000 209.548
46.21000 212.250
46.22000 216.018
46.23000 219.065
46.24000 210.354
46.25000 197.513
46.26000 185.714
46.27000 193.356
46.28000 204.359
46.29000 213.204
46.30000 209.631
46.31000 204.075
46.32000 201.279
46.33000 209.112
46.34000 217.996
46.35000 224.538
46.36000 216.684
46.37000 210.006
46.38000 205.682
46.39000 205.676
46.40000 205.763
46.41000 203.853
46.42000 199.445
46.43000 195.034
46.44000 192.711
46.45000 192.113
46.46000 191.579
46.47000 194.349
46.48000 198.971
46.49000 203.430
46.50000 204.669
46.51000 204.656
46.52000 204.645
46.53000 201.056
46.54000 196.949
46.55000 193.189
46.56000 191.683
46.57000 190.582
46.58000 190.091
46.59000 192.217
46.60000 194.641
46.61000 196.478
46.62000 200.756
46.63000 204.238
46.64000 205.407
46.65000 201.873
46.66000 198.202
46.67000 198.274
46.68000 203.565
46.69000 208.889
46.70000 210.110
46.71000 207.540
46.72000 204.958
46.73000 201.466
46.74000 197.409
46.75000 193.544
46.76000 194.405
46.77000 197.294
46.78000 200.013
46.79000 196.955
46.80000 192.590
46.81000 189.285
46.82000 193.760
46.83000 199.800
46.84000 204.111
46.85000 200.157
46.86000 195.128
46.87000 191.218
46.88000 194.118
46.89000 196.842
46.90000 198.507
46.91000 197.791
46.92000 196.985
46.93000 198.517
46.94000 203.673
46.95000 208.870
46.96000 211.518
46.97000 202.761
46.98000 196.928
46.99000 196.197
47.00000 198.992
47.01000 201.654
47.02000 200.142
47.03000 196.648
47.04000 193.326
47.05000 192.051
47.06000 191.496
47.07000 191.037
47.08000 191.387
47.09000 191.919
47.10000 193.279
47.11000 199.070
47.12000 205.515
47.13000 210.651
47.14000 206.390
47.15000 202.271
47.16000 197.902
47.17000 192.912
47.18000 187.892
47.19000 186.091
47.20000 189.823
47.21000 193.650
47.22000 195.710
47.23000 189.286
47.24000 184.904
47.25000 184.758
47.26000 187.870
47.27000 190.944
47.28000 192.415
47.29000 193.044
47.30000 193.648
47.31000 195.465
47.32000 197.576
47.33000 199.654
47.34000 201.418
47.35000 203.104
47.36000 203.688
47.37000 197.664
47.38000 190.538
47.39000 184.729
47.40000 183.341
47.41000 182.583
47.42000 182.335
47.43000 183.488
47.44000 184.722
47.45000 186.589
47.46000 189.659
47.47000 192.759
47.48000 194.514
47.49000 187.896
47.50000 183.269
47.51000 179.973
47.52000 177.822
47.53000 175.683
47.54000 174.252
47.55000 173.234
47.56000 172.249
47.57000 174.461
47.58000 177.766
47.59000 180.774
47.60000 180.472
47.61000 179.250
47.62000 178.670
47.63000 182.439
47.64000 187.023
47.65000 190.840
47.66000 191.480
47.67000 191.696
47.68000 192.094
47.69000 193.042
47.70000 194.029
47.71000 193.533
47.72000 189.914
47.73000 186.194
47.74000 183.986
47.75000 185.871
47.76000 187.229
47.77000 188.279
47.78000 189.033
47.79000 189.781
47.80000 190.018
47.81000 189.925
47.82000 189.835
47.83000 189.157
47.84000 188.260
47.85000 187.144
47.86000 183.175
47.87000 178.328
47.88000 174.061
47.89000 174.262
47.90000 175.398
47.91000 176.363
47.92000 180.209
47.93000 183.767
47.94000 186.834
47.95000 188.244
47.96000 189.519
47.97000 190.849
47.98000 192.306
47.99000 193.769
48.00000 194.675
48.01000 191.241
48.02000 188.729
48.03000 188.627
48.04000 191.134
48.05000 193.630
48.06000 194.240
48.07000 193.498
48.08000 192.770
48.09000 188.825
48.10000 183.500
48.11000 178.317
48.12000 175.351
48.13000 173.141
48.14000 171.110
48.15000 170.648
48.16000 170.552
48.17000 170.469
48.18000 173.419
48.19000 176.325
48.20000 179.809
48.21000 185.450
48.22000 191.296
48.23000 193.768
48.24000 187.550
48.25000 180.891
48.26000 176.596
48.27000 179.281
48.28000 181.343
48.29000 182.828
48.30000 183.614
48.31000 184.391
48.32000 182.731
48.33000 179.123
48.34000 175.565
48.35000 179.543
48.36000 187.402
48.37000 194.578
48.38000 189.015
48.39000 178.645
48.40000 169.274
48.41000 170.014
48.42000 173.381
48.43000 176.344
48.44000 177.807
48.45000 178.842
48.46000 179.464
48.47000 178.368
48.48000 177.085
48.49000 176.588
48.50000 178.331
48.51000 180.212
48.52000 181.472
48.53000 184.592
48.54000 186.944
48.55000 188.742
48.56000 189.792
48.57000 190.837
48.58000 189.471
48.59000 185.951
48.60000 182.462
48.61000 181.407
48.62000 181.812
48.63000 182.088
48.64000 179.391
48.65000 175.452
48.66000 171.862
48.67000 172.364
48.68000 174.046
48.69000 175.550
48.70000 177.576
48.71000 179.431
48.72000 181.105
48.73000 181.938
48.74000 182.666
48.75000 183.369
48.76000 183.994
48.77000 184.613
48.78000 185.042
48.79000 183.764
48.80000 182.757
48.81000 181.031
48.82000 178.224
48.83000 175.406
48.84000 175.144
48.85000 177.449
48.86000 179.741
48.87000 181.248
48.88000 182.216
48.89000 183.038
48.90000 179.599
48.91000 174.195
48.92000 169.416
48.93000 173.289
48.94000 179.928
48.95000 185.952
48.96000 184.370
48.97000 181.511
48.98000 178.996
48.99000 178.259
49.00000 177.776
49.01000 176.817
49.02000 174.198
49.03000 171.435
49.04000 169.458
49.05000 176.798
49.06000 182.720
49.07000 187.615
49.08000 190.798
49.09000 193.953
49.10000 194.058
49.11000 190.720
49.12000 187.390
49.13000 185.155
49.14000 183.749
49.15000 182.367
49.16000 181.909
49.17000 181.923
49.18000 181.839
49.19000 180.149
49.20000 177.891
49.21000 175.814
49.22000 177.700
49.23000 180.245
49.24000 182.364
49.25000 182.015
49.26000 181.268
49.27000 180.132
49.28000 177.487
49.29000 174.690
49.30000 172.627
49.31000 177.559
49.32000 181.675
49.33000 184.923
49.34000 186.566
49.35000 188.175
49.36000 184.797
49.37000 175.133
49.38000 165.459
49.39000 166.242
49.40000 175.697
49.41000 184.999
49.42000 186.285
49.43000 183.040
49.44000 179.939
49.45000 179.721
49.46000 180.632
49.47000 181.480
49.48000 177.826
49.49000 173.423
49.50000 169.482
49.51000 168.568
49.52000 168.203
49.53000 168.243
49.54000 170.034
49.55000 172.027
49.56000 173.540
49.57000 171.291
49.58000 169.331
49.59000 169.346
49.60000 173.407
49.61000 177.587
49.62000 180.292
49.63000 180.925
49.64000 181.543
49.65000 181.921
49.66000 182.074
49.67000 182.219
49.68000 181.788
49.69000 180.996
49.70000 180.203
49.71000 179.387
49.72000 178.562
49.73000 177.784
49.74000 178.185
49.75000 178.874
49.76000 179.494
49.77000 179.612
49.78000 179.626
49.79000 179.161
49.80000 176.385
49.81000 173.304
49.82000 170.905
49.83000 169.848
49.84000 169.088
49.85000 169.251
49.86000 171.501
49.87000 173.830
49.88000 175.354
49.89000 175.621
49.90000 175.873
49.91000 176.002
49.92000 181.555
49.93000 185.263
49.94000 185.964
49.95000 184.573
49.96000 183.110
49.97000 179.368
49.98000 174.537
49.99000 169.940
50.00000 169.687
50.01000 170.785
50.02000 171.705
50.03000 171.122
50.04000 170.199
50.05000 169.811
50.06000 172.306
50.07000 175.230
50.08000 177.564
50.09000 179.603
50.10000 181.229
50.11000 181.399
50.12000 177.928
50.13000 174.283
50.14000 173.017
50.15000 175.871
50.16000 178.798
50.17000 180.380
50.18000 177.232
50.19000 175.093
50.20000 178.494
50.21000 186.187
50.22000 193.680
50.23000 192.678
50.24000 187.179
50.25000 181.898
50.26000 178.636
50.27000 176.276
50.28000 174.257
50.29000 175.535
50.30000 177.645
50.31000 179.805
50.32000 182.268
50.33000 184.783
50.34000 186.836
50.35000 186.957
50.36000 186.889
50.37000 186.660
50.38000 185.983
50.39000 185.280
50.40000 185.559
50.41000 187.721
50.42000 189.930
50.43000 191.185
50.44000 189.873
50.45000 188.952
50.46000 189.042
50.47000 190.006
50.48000 190.961
50.49000 191.338
50.50000 191.377
50.51000 191.414
50.52000 191.811
50.53000 192.325
50.54000 193.355
50.55000 200.193
50.56000 208.658
50.57000 215.815
50.58000 214.036
50.59000 210.570
50.60000 207.680
50.61000 215.919
50.62000 223.866
50.63000 229.711
50.64000 229.119
50.65000 228.078
50.66000 226.055
50.67000 221.949
50.68000 217.774
50.69000 215.288
50.70000 234.329
50.71000 247.949
50.72000 250.841
50.73000 243.313
50.74000 235.867
50.75000 235.785
50.76000 240.494
50.77000 245.087
50.78000 249.060
50.79000 252.589
50.80000 255.980
50.81000 257.557
50.82000 258.571
50.83000 258.924
50.84000 254.152
50.85000 248.296
50.86000 243.315
50.87000 245.901
50.88000 248.948
50.89000 248.438
50.90000 235.862
50.91000 222.294
50.92000 215.723
50.93000 225.569
50.94000 236.098
50.95000 242.643
50.96000 237.364
50.97000 233.445
50.98000 228.674
50.99000 222.971
51.00000 217.297
51.01000 216.278
51.02000 218.625
51.03000 220.928
51.04000 216.702
51.05000 209.506
51.06000 202.540
51.07000 199.159
51.08000 197.010
51.09000 194.963
51.10000 193.810
51.11000 192.868
51.12000 192.052
51.13000 188.258
51.14000 184.635
51.15000 181.824
51.16000 182.066
51.17000 182.600
51.18000 183.635
51.19000 185.968
51.20000 188.368
51.21000 189.920
51.22000 195.891
51.23000 200.323
51.24000 196.908
51.25000 183.905
51.26000 170.907
51.27000 167.698
51.28000 172.378
51.29000 176.995
51.30000 182.342
51.31000 187.932
51.32000 193.219
51.33000 192.776
51.34000 190.154
51.35000 187.199
51.36000 180.842
51.37000 173.594
51.38000 167.206
51.39000 161.955
51.40000 157.601
51.41000 154.225
51.42000 154.945
51.43000 156.119
51.44000 158.176
51.45000 162.768
51.46000 167.518
51.47000 170.706
51.48000 177.973
51.49000 183.452
51.50000 183.499
51.51000 176.144
51.52000 168.748
51.53000 165.573
51.54000 166.203
51.55000 166.827
51.56000 166.594
51.57000 165.854
51.58000 165.159
51.59000 165.518
51.60000 166.318
51.61000 166.903
51.62000 164.923
51.63000 162.197
51.64000 159.757
51.65000 165.070
51.66000 171.036
51.67000 175.432
51.68000 172.506
51.69000 168.652
51.70000 165.762
51.71000 165.934
51.72000 166.333
51.73000 166.610
51.74000 162.788
51.75000 159.797
51.76000 158.911
51.77000 161.216
51.78000 163.554
51.79000 163.951
51.80000 162.381
51.81000 160.820
51.82000 164.466
51.83000 171.538
51.84000 178.230
51.85000 173.654
51.86000 163.841
51.87000 154.821
51.88000 156.907
51.89000 162.568
51.90000 167.711
51.91000 167.266
51.92000 165.789
51.93000 163.673
51.94000 158.228
51.95000 152.303
51.96000 148.484
51.97000 152.077
51.98000 156.315
51.99000 159.356
52.00000 158.847
52.01000 158.335
52.02000 158.117
52.03000 158.394
52.04000 158.679
52.05000 159.947
52.06000 162.335
52.07000 164.717
52.08000 167.314
52.09000 170.055
52.10000 172.697
52.11000 171.537
52.12000 168.421
52.13000 165.432
52.14000 164.575
52.15000 164.478
52.16000 164.388
52.17000 165.237
52.18000 166.201
52.19000 166.530
52.20000 163.140
52.21000 159.145
52.22000 156.389
52.23000 158.471
52.24000 161.041
52.25000 162.942
52.26000 159.816
52.27000 157.177
52.28000 156.127
52.29000 158.040
52.30000 160.020
52.31000 161.912
52.32000 163.692
52.33000 165.470
52.34000 166.446
52.35000 166.749
52.36000 167.022
52.37000 165.733
52.38000 163.554
52.39000 161.380
52.40000 159.317
52.41000 157.298
52.42000 155.417
52.43000 156.887
52.44000 159.043
52.45000 160.372
52.46000 156.250
52.47000 151.131
52.48000 147.641
52.49000 151.233
52.50000 155.648
52.51000 159.006
52.52000 162.695
52.53000 165.614
52.54000 167.707
52.55000 168.095
52.56000 168.431
52.57000 167.399
52.58000 164.429
52.59000 161.445
52.60000 159.374
52.61000 158.162
52.62000 156.971
52.63000 157.481
52.64000 159.066
52.65000 160.637
52.66000 161.869
52.67000 162.952
52.68000 163.973
52.69000 163.667
52.70000 163.020
52.71000 162.375
52.72000 161.743
52.73000 161.114
52.74000 160.985
52.75000 163.280
52.76000 165.897
52.77000 167.940
52.78000 161.817
52.79000 156.422
52.80000 152.530
52.81000 152.063
52.82000 151.729
52.83000 150.989
52.84000 149.609
52.85000 148.221
52.86000 147.508
52.87000 155.541
52.88000 160.917
52.89000 162.375
52.90000 161.087
52.91000 159.814
52.92000 159.054
52.93000 158.541
52.94000 158.053
52.95000 155.587
52.96000 152.691
52.97000 150.063
52.98000 149.717
52.99000 149.892
53.00000 150.153
53.01000 150.882
53.02000 151.680
53.03000 152.319
53.04000 153.083
53.05000 153.709
53.06000 154.998
53.07000 157.959
53.08000 161.000
53.09000 162.136
53.10000 159.948
53.11000 157.700
53.12000 156.480
53.13000 150.852
53.14000 147.010
53.15000 148.561
53.16000 154.325
53.17000 159.934
53.18000 158.854
53.19000 154.208
53.20000 149.744
53.21000 152.576
53.22000 157.750
53.23000 162.185
53.24000 159.377
53.25000 154.729
53.26000 150.852
53.27000 151.676
53.28000 153.297
53.29000 154.623
53.30000 154.368
53.31000 154.022
53.32000 154.280
53.33000 156.224
53.34000 158.268
53.35000 158.685
53.36000 155.961
53.37000 153.158
53.38000 151.559
53.39000 157.076
53.40000 160.944
53.41000 161.826
53.42000 160.100
53.43000 158.421
53.44000 159.539
53.45000 162.309
53.46000 164.992
53.47000 164.673
53.48000 163.212
53.49000 162.088
53.50000 164.809
53.51000 168.613
53.52000 171.585
53.53000 168.820
53.54000 164.963
53.55000 161.742
53.56000 159.388
53.57000 157.523
53.58000 156.478
53.59000 157.962
53.60000 159.626
53.61000 162.287
53.62000 167.081
53.63000 171.946
53.64000 174.852
53.65000 163.562
53.66000 155.464
53.67000 155.540
53.68000 163.622
53.69000 171.601
53.70000 169.914
53.71000 161.892
53.72000 154.066
53.73000 152.656
53.74000 154.077
53.75000 155.666
53.76000 159.508
53.77000 164.053
53.78000 167.469
53.79000 162.040
53.80000 154.729
53.81000 148.500
53.82000 150.528
53.83000 153.197
53.84000 154.716
53.85000 152.306
53.86000 149.568
53.87000 149.167
53.88000 154.288
53.89000 159.642
53.90000 162.980
53.91000 164.677
53.92000 165.883
53.93000 166.025
53.94000 164.996
53.95000 163.958
53.96000 161.646
53.97000 158.406
53.98000 155.226
53.99000 151.770
54.00000 148.303
54.01000 145.120
54.02000 146.450
54.03000 149.342
54.04000 151.799
54.05000 150.363
54.06000 148.004
54.07000 145.957
54.08000 152.610
54.09000 159.441
54.10000 164.435
54.11000 162.463
54.12000 159.817
54.13000 158.081
54.14000 158.725
54.15000 159.492
54.16000 159.990
54.17000 158.940
54.18000 158.148
54.19000 157.921
54.20000 158.390
54.21000 158.855
54.22000 157.257
54.23000 153.981
54.24000 150.749
54.25000 151.662
54.26000 154.782
54.27000 157.719
54.28000 157.156
54.29000 155.254
54.30000 153.437
54.31000 152.498
54.32000 151.790
54.33000 151.165
54.34000 156.632
54.35000 162.277
54.36000 165.898
54.37000 160.980
54.38000 155.109
54.39000 151.162
54.40000 152.781
54.41000 154.750
54.42000 156.076
54.43000 150.862
54.44000 146.849
54.45000 145.293
54.46000 147.108
54.47000 148.941
54.48000 147.419
54.49000 142.846
54.50000 138.312
54.51000 138.634
54.52000 141.870
54.53000 145.095
54.54000 148.062
54.55000 150.921
54.56000 153.281
54.57000 149.649
54.58000 144.263
54.59000 139.437
54.60000 141.936
54.61000 145.388
54.62000 148.680
54.63000 151.222
54.64000 153.668
54.65000 155.359
54.66000 154.631
54.67000 153.721
54.68000 153.087
54.69000 151.374
54.70000 150.052
54.71000 150.167
54.72000 152.474
54.73000 154.804
54.74000 154.920
54.75000 152.773
54.76000 150.637
54.77000 149.838
54.78000 149.947
54.79000 150.027
54.80000 149.226
54.81000 148.011
54.82000 146.982
54.83000 148.577
54.84000 151.023
54.85000 153.248
54.86000 152.415
54.87000 151.080
54.88000 149.657
54.89000 147.773
54.90000 145.822
54.91000 144.275
54.92000 144.159
54.93000 144.169
54.94000 144.176
54.95000 148.834
54.96000 152.562
54.97000 155.308
54.98000 156.392
54.99000 157.448
55.00000 160.337
55.01000 165.327
55.02000 170.306
55.03000 171.101
55.04000 168.743
55.05000 166.322
55.06000 161.383
55.07000 155.142
55.08000 149.384
55.09000 151.833
55.10000 157.227
55.11000 162.198
55.12000 162.113
55.13000 160.921
55.14000 159.768
55.15000 158.846
55.16000 157.962
55.17000 157.454
55.18000 158.428
55.19000 159.553
55.20000 160.387
55.21000 160.847
55.22000 161.188
55.23000 160.713
55.24000 158.706
55.25000 156.664
55.26000 155.769
55.27000 156.344
55.28000 156.924
55.29000 157.593
55.30000 158.334
55.31000 159.054
55.32000 158.613
55.33000 157.507
55.34000 156.572
55.35000 159.188
55.36000 163.212
55.37000 166.966
55.38000 172.668
55.39000 178.315
55.40000 182.761
55.41000 179.208
55.42000 174.183
55.43000 169.909
55.44000 168.933
55.45000 168.344
55.46000 167.895
55.47000 173.486
55.48000 178.206
55.49000 182.844
55.50000 187.307
55.51000 191.766
55.52000 192.034
55.53000 186.326
55.54000 180.573
55.55000 179.769
55.56000 183.650
55.57000 187.520
55.58000 190.405
55.59000 192.663
55.60000 194.881
55.61000 196.047
55.62000 196.751
55.63000 197.415
55.64000 201.879
55.65000 207.026
55.66000 211.719
55.67000 212.982
55.68000 213.538
55.69000 214.973
55.70000 220.709
55.71000 227.020
55.72000 231.955
55.73000 239.952
55.74000 246.529
55.75000 252.818
55.76000 258.446
55.77000 264.047
55.78000 274.543
55.79000 292.797
55.80000 311.149
55.81000 320.615
55.82000 331.039
55.83000 338.096
55.84000 350.081
55.85000 365.548
55.86000 380.777
55.87000 388.110
55.88000 391.611
55.89000 394.947
55.90000 410.972
55.91000 429.777
55.92000 447.895
55.93000 460.092
55.94000 470.928
55.95000 482.680
55.96000 499.449
55.97000 516.980
55.98000 531.020
55.99000 531.300
56.00000 530.493
56.01000 531.770
56.02000 538.338
56.03000 545.168
56.04000 551.092
56.05000 555.424
56.06000 559.727
56.07000 562.070
56.08000 549.136
56.09000 540.243
56.10000 532.363
56.11000 525.280
56.12000 518.278
56.13000 514.886
56.14000 513.432
56.15000 512.034
56.16000 497.320
56.17000 478.891
56.18000 460.892
56.19000 447.137
56.20000 434.468
56.21000 421.827
56.22000 409.353
56.23000 396.907
56.24000 386.712
56.25000 378.641
56.26000 372.210
56.27000 365.382
56.28000 357.439
56.29000 349.430
56.30000 340.225
56.31000 328.692
56.32000 317.098
56.33000 310.464
56.34000 302.806
56.35000 297.452
56.36000 288.838
56.37000 277.356
56.38000 265.950
56.39000 259.306
56.40000 255.494
56.41000 251.799
56.42000 245.712
56.43000 239.015
56.44000 232.710
56.45000 230.902
56.46000 230.371
56.47000 228.110
56.48000 213.809
56.49000 197.199
56.50000 183.304
56.51000 191.562
56.52000 200.688
56.53000 205.742
56.54000 198.139
56.55000 189.631
56.56000 184.278
56.57000 185.717
56.58000 187.385
56.59000 188.385
56.60000 186.937
56.61000 185.893
56.62000 186.753
56.63000 189.496
56.64000 192.160
56.65000 187.139
56.66000 177.044
56.67000 167.191
56.68000 163.307
56.69000 162.190
56.70000 161.188
56.71000 161.741
56.72000 162.785
56.73000 163.379
56.74000 160.424
56.75000 156.708
56.76000 153.538
56.77000 156.247
56.78000 159.219
56.79000 161.850
56.80000 163.304
56.81000 164.659
56.82000 164.383
56.83000 160.223
56.84000 155.897
56.85000 153.192
56.86000 156.249
56.87000 158.516
56.88000 158.917
56.89000 157.247
56.90000 155.586
56.91000 155.804
56.92000 157.400
56.93000 158.968
56.94000 156.817
56.95000 152.935
56.96000 149.388
56.97000 151.227
56.98000 154.944
56.99000 157.853
57.00000 153.454
57.01000 147.307
57.02000 141.968
57.03000 144.834
57.04000 148.385
57.05000 151.734
57.06000 154.307
57.07000 156.805
57.08000 157.911
57.09000 155.354
57.10000 152.603
57.11000 150.814
57.12000 147.215
57.13000 144.549
57.14000 143.448
57.15000 144.290
57.16000 145.136
57.17000 145.812
57.18000 146.349
57.19000 146.878
57.20000 147.149
57.21000 147.273
57.22000 147.253
57.23000 144.454
57.24000 140.582
57.25000 137.175
57.26000 138.621
57.27000 141.358
57.28000 143.775
57.29000 150.476
57.30000 156.921
57.31000 160.861
57.32000 154.154
57.33000 146.246
57.34000 141.269
57.35000 144.827
57.36000 148.931
57.37000 151.700
57.38000 146.683
57.39000 142.784
57.40000 140.123
57.41000 139.173
57.42000 138.235
57.43000 139.428
57.44000 142.572
57.45000 145.691
57.46000 145.759
57.47000 143.977
57.48000 142.280
57.49000 142.622
57.50000 143.833
57.51000 144.942
57.52000 144.816
57.53000 144.325
57.54000 143.885
57.55000 147.723
57.56000 151.825
57.57000 154.777
57.58000 152.272
57.59000 149.064
57.60000 145.932
57.61000 143.048
57.62000 140.183
57.63000 138.182
57.64000 140.117
57.65000 141.688
57.66000 142.337
57.67000 141.565
57.68000 140.778
57.69000 141.028
57.70000 142.348
57.71000 143.660
57.72000 143.927
57.73000 143.482
57.74000 143.055
57.75000 143.185
57.76000 143.577
57.77000 144.114
57.78000 146.738
57.79000 150.045
57.80000 153.054
57.81000 148.537
57.82000 143.054
57.83000 138.674
57.84000 140.144
57.85000 142.470
57.86000 144.353
57.87000 144.650
57.88000 144.807
57.89000 144.919
57.90000 144.806
57.91000 144.710
57.92000 142.654
57.93000 137.252
57.94000 131.794
57.95000 133.031
57.96000 142.004
57.97000 150.965
57.98000 151.878
57.99000 146.680
58.00000 141.568
58.01000 139.894
58.02000 140.015
58.03000 140.084
58.04000 139.267
58.05000 138.130
58.06000 137.082
58.07000 140.439
58.08000 144.427
58.09000 147.385
58.10000 144.209
58.11000 140.020
58.12000 136.638
58.13000 136.459
58.14000 136.611
58.15000 136.724
58.16000 137.359
58.17000 137.876
58.18000 137.701
58.19000 136.220
58.20000 134.709
58.21000 133.541
58.22000 132.817
58.23000 132.095
58.24000 129.972
58.25000 126.660
58.26000 123.474
58.27000 127.348
58.28000 135.301
58.29000 142.880
58.30000 142.623
58.31000 139.233
58.32000 136.068
58.33000 137.645
58.34000 140.261
58.35000 141.842
58.36000 136.483
58.37000 129.835
58.38000 125.821
58.39000 133.442
58.40000 142.443
58.41000 149.312
58.42000 137.750
58.43000 127.649
58.44000 121.674
58.45000 124.327
58.46000 127.251
58.47000 130.457
58.48000 134.070
58.49000 137.685
58.50000 140.160
58.51000 141.546
58.52000 142.905
58.53000 141.980
58.54000 139.593
58.55000 137.259
58.56000 136.311
58.57000 135.976
58.58000 135.659
58.59000 137.343
58.60000 139.448
58.61000 141.223
58.62000 140.483
58.63000 139.220
58.64000 138.278
58.65000 138.920
58.66000 139.776
58.67000 140.446
58.68000 143.128
58.69000 145.400
58.70000 146.115
58.71000 143.229
58.72000 140.199
58.73000 136.827
58.74000 132.911
58.75000 128.987
58.76000 126.955
58.77000 125.788
58.78000 125.022
58.79000 127.357
58.80000 131.900
58.81000 136.392
58.82000 139.186
58.83000 141.149
58.84000 143.021
58.85000 140.562
58.86000 136.922
58.87000 133.980
58.88000 137.118
58.89000 141.665
58.90000 145.110
58.91000 142.470
58.92000 138.899
58.93000 136.034
58.94000 132.177
58.95000 128.978
58.96000 127.929
58.97000 132.378
58.98000 137.102
58.99000 139.421
59.00000 137.482
59.01000 135.462
59.02000 134.358
59.03000 131.290
59.04000 129.185
59.05000 129.030
59.06000 130.422
59.07000 131.805
59.08000 132.820
59.09000 133.635
59.10000 134.419
59.11000 131.948
59.12000 128.488
59.13000 125.453
59.14000 126.683
59.15000 129.012
59.16000 131.657
59.17000 136.259
59.18000 141.200
59.19000 145.253
59.20000 143.943
59.21000 142.391
59.22000 140.913
59.23000 139.645
59.24000 138.389
59.25000 137.211
59.26000 136.187
59.27000 135.167
59.28000 134.582
59.29000 137.412
59.30000 139.403
59.31000 141.046
59.32000 142.379
59.33000 143.633
59.34000 139.793
59.35000 132.899
59.36000 126.214
59.37000 126.768
59.38000 130.135
59.39000 133.542
59.40000 137.404
59.41000 141.397
59.42000 144.657
59.43000 142.774
59.44000 139.896
59.45000 137.485
59.46000 137.530
59.47000 137.822
59.48000 138.462
59.49000 140.192
59.50000 142.001
59.51000 142.130
59.52000 138.616
59.53000 134.976
59.54000 132.789
59.55000 135.751
59.56000 137.893
59.57000 136.794
59.58000 132.466
59.59000 128.193
59.60000 129.306
59.61000 134.005
59.62000 138.592
59.63000 139.455
59.64000 138.647
59.65000 137.783
59.66000 136.143
59.67000 134.258
59.68000 133.132
59.69000 138.056
59.70000 144.289
59.71000 149.612
59.72000 151.272
59.73000 152.235
59.74000 152.639
59.75000 151.104
59.76000 149.404
59.77000 145.983
59.78000 138.435
59.79000 130.708
59.80000 125.861
59.81000 133.622
59.82000 139.366
59.83000 141.033
59.84000 138.139
59.85000 135.248
59.86000 133.716
59.87000 133.187
59.88000 132.668
59.89000 133.347
59.90000 134.590
59.91000 135.749
59.92000 135.534
59.93000 134.836
59.94000 134.241
59.95000 134.593
59.96000 135.174
59.97000 135.678
59.98000 134.005
59.99000 132.280
60.00000 130.793
60.01000 130.222
60.02000 129.741
60.03000 129.883
60.04000 131.677
60.05000 133.559
60.06000 134.787
60.07000 128.810
60.08000 124.310
60.09000 122.064
60.10000 122.637
60.11000 123.224
60.12000 126.305
60.13000 131.443
60.14000 136.518
60.15000 135.206
60.16000 130.434
60.17000 125.962
60.18000 127.401
60.19000 131.137
60.20000 134.550
60.21000 134.573
60.22000 133.688
60.23000 132.905
60.24000 134.025
60.25000 135.288
60.26000 136.262
60.27000 135.997
60.28000 135.591
60.29000 133.988
60.30000 128.876
60.31000 123.537
60.32000 119.925
60.33000 119.677
60.34000 119.566
60.35000 120.575
60.36000 123.147
60.37000 125.730
60.38000 128.114
60.39000 130.312
60.40000 132.493
60.41000 134.997
60.42000 137.652
60.43000 140.095
60.44000 137.338
60.45000 132.347
60.46000 127.892
60.47000 130.033
60.48000 134.133
60.49000 137.816
60.50000 139.021
60.51000 139.640
60.52000 140.330
60.53000 141.364
60.54000 142.442
60.55000 142.092
60.56000 137.106
60.57000 131.764
60.58000 128.025
60.59000 129.706
60.60000 131.131
60.61000 132.529
60.62000 133.888
60.63000 135.246
60.64000 132.317
60.65000 124.936
60.66000 117.590
60.67000 117.892
60.68000 123.415
60.69000 128.837
60.70000 131.137
60.71000 131.952
60.72000 132.738
60.73000 133.088
60.74000 133.295
60.75000 133.483
60.76000 133.665
60.77000 133.826
60.78000 134.322
60.79000 136.609
60.80000 139.161
60.81000 140.232
60.82000 135.974
60.83000 131.237
60.84000 127.815
60.85000 126.107
60.86000 124.860
60.87000 125.386
60.88000 128.962
60.89000 132.591
60.90000 133.633
60.91000 131.659
60.92000 129.687
60.93000 130.658
60.94000 133.875
60.95000 137.051
60.96000 138.560
60.97000 139.192
60.98000 139.790
60.99000 139.793
61.00000 139.580
61.01000 139.382
61.02000 137.627
61.03000 135.703
61.04000 134.057
61.05000 134.076
61.06000 134.372
61.07000 134.504
61.08000 133.977
61.09000 133.380
61.10000 132.937
61.11000 133.768
61.12000 134.471
61.13000 135.291
61.14000 136.333
61.15000 137.380
61.16000 138.531
61.17000 139.814
61.18000 141.097
61.19000 140.840
61.20000 139.262
61.21000 137.669
61.22000 135.226
61.23000 132.289
61.24000 129.447
61.25000 128.634
61.26000 128.638
61.27000 128.641
61.28000 131.291
61.29000 134.363
61.30000 137.498
61.31000 141.058
61.32000 144.697
61.33000 146.996
61.34000 143.329
61.35000 138.948
61.36000 135.598
61.37000 132.765
61.38000 130.558
61.39000 129.632
61.40000 131.403
61.41000 133.260
61.42000 135.336
61.43000 137.727
61.44000 140.121
61.45000 141.611
61.46000 142.230
61.47000 142.837
61.48000 142.448
61.49000 141.414
61.50000 140.514
61.51000 143.164
61.52000 147.395
61.53000 151.391
61.54000 159.666
61.55000 168.471
61.56000 177.593
61.57000 189.150
61.58000 201.218
61.59000 212.816
61.60000 222.078
61.61000 231.022
61.62000 238.040
61.63000 247.773
61.64000 255.734
61.65000 262.764
61.66000 267.629
61.67000 272.405
61.68000 277.944
61.69000 284.708
61.70000 291.489
61.71000 295.014
61.72000 293.560
61.73000 292.543
61.74000 286.487
61.75000 276.814
61.76000 267.337
61.77000 264.605
61.78000 265.195
61.79000 265.757
61.80000 252.947
61.81000 236.820
61.82000 220.950
61.83000 207.328
61.84000 194.231
61.85000 181.131
61.86000 168.012
61.87000 154.890
61.88000 144.346
61.89000 147.916
61.90000 151.896
61.91000 154.963
61.92000 155.677
61.93000 156.271
61.94000 155.788
61.95000 153.382
61.96000 150.938
61.97000 149.598
61.98000 146.279
61.99000 144.002
62.00000 144.581
62.01000 147.444
62.02000 150.190
62.03000 147.487
62.04000 141.816
62.05000 136.357
62.06000 138.170
62.07000 142.447
62.08000 146.243
62.09000 145.179
62.10000 142.852
62.11000 140.652
62.12000 139.251
62.13000 137.989
62.14000 136.952
62.15000 137.295
62.16000 137.701
62.17000 138.022
62.18000 138.098
62.19000 138.159
62.20000 137.814
62.21000 136.669
62.22000 135.501
62.23000 134.829
62.24000 135.503
62.25000 135.982
62.26000 138.214
62.27000 142.014
62.28000 145.766
62.29000 146.359
62.30000 145.043
62.31000 143.767
62.32000 143.471
62.33000 143.578
62.34000 143.678
62.35000 143.690
62.36000 143.677
62.37000 143.892
62.38000 145.724
62.39000 147.871
62.40000 149.672
62.41000 148.330
62.42000 146.884
62.43000 145.673
62.44000 145.200
62.45000 144.780
62.46000 143.745
62.47000 141.363
62.48000 138.935
62.49000 137.470
62.50000 141.917
62.51000 145.124
62.52000 147.398
62.53000 148.735
62.54000 150.050
62.55000 149.140
62.56000 146.737
62.57000 144.390
62.58000 141.877
62.59000 139.398
62.60000 137.279
62.61000 140.158
62.62000 144.634
62.63000 148.421
62.64000 146.667
62.65000 143.705
62.66000 141.171
62.67000 142.046
62.68000 143.193
62.69000 143.454
62.70000 140.617
62.71000 137.513
62.72000 135.297
62.73000 135.223
62.74000 135.244
62.75000 135.257
62.76000 135.331
62.77000 135.386
62.78000 136.975
62.79000 140.295
62.80000 143.607
62.81000 145.005
62.82000 144.976
62.83000 144.948
62.84000 144.358
62.85000 143.510
62.86000 142.581
62.87000 140.306
62.88000 137.555
62.89000 135.359
62.90000 138.291
62.91000 142.467
62.92000 146.104
62.93000 146.719
62.94000 146.828
62.95000 146.335
62.96000 143.510
62.97000 140.451
62.98000 138.892
62.99000 141.337
63.00000 144.000
63.01000 145.741
63.02000 141.173
63.03000 137.714
63.04000 139.120
63.05000 146.659
63.06000 154.208
63.07000 157.171
63.08000 156.317
63.09000 155.473
63.10000 152.995
63.11000 149.678
63.12000 146.512
63.13000 146.374
63.14000 147.422
63.15000 148.268
63.16000 146.972
63.17000 145.098
63.18000 143.439
63.19000 143.603
63.20000 144.031
63.21000 144.756
63.22000 146.770
63.23000 148.931
63.24000 150.646
63.25000 151.042
63.26000 151.351
63.27000 151.560
63.28000 148.949
63.29000 146.939
63.30000 145.244
63.31000 143.992
63.32000 142.743
63.33000 141.440
63.34000 140.088
63.35000 138.747
63.36000 138.713
63.37000 139.484
63.38000 140.203
63.39000 139.627
63.40000 138.491
63.41000 137.464
63.42000 137.787
63.43000 138.514
63.44000 139.168
63.45000 142.086
63.46000 145.043
63.47000 147.467
63.48000 147.319
63.49000 146.834
63.50000 145.843
63.51000 143.201
63.52000 140.430
63.53000 138.486
63.54000 144.138
63.55000 148.636
63.56000 151.258
63.57000 150.953
63.58000 150.613
63.59000 149.297
63.60000 146.959
63.61000 144.632
63.62000 141.092
63.63000 136.756
63.64000 132.679
63.65000 136.862
63.66000 144.996
63.67000 152.787
63.68000 155.517
63.69000 156.570
63.70000 157.530
63.71000 156.171
63.72000 154.501
63.73000 152.845
63.74000 151.263
63.75000 149.693
63.76000 148.674
63.77000 149.652
63.78000 150.812
63.79000 151.652
63.80000 150.514
63.81000 149.567
63.82000 149.643
63.83000 151.487
63.84000 153.363
63.85000 152.847
63.86000 149.523
63.87000 146.201
63.88000 146.975
63.89000 150.904
63.90000 154.716
63.91000 153.618
63.92000 149.922
63.93000 146.478
63.94000 147.506
63.95000 150.173
63.96000 152.637
63.97000 158.703
63.98000 164.961
63.99000 169.590
64.00000 164.358
64.01000 157.468
64.02000 152.604
64.03000 155.903
64.04000 160.060
64.05000 163.160
64.06000 162.733
64.07000 162.240
64.08000 160.991
64.09000 158.288
64.10000 155.550
64.11000 153.242
64.12000 151.498
64.13000 149.758
64.14000 151.925
64.15000 157.463
64.16000 162.898
64.17000 162.133
64.18000 157.734
64.19000 153.714
64.20000 157.898
64.21000 165.408
64.22000 172.432
64.23000 169.628
64.24000 164.584
64.25000 160.079
64.26000 159.260
64.27000 159.137
64.28000 158.623
64.29000 156.357
64.30000 153.879
64.31000 151.980
64.32000 155.234
64.33000 158.087
64.34000 160.542
64.35000 162.151
64.36000 163.733
64.37000 164.777
64.38000 165.037
64.39000 165.289
64.40000 164.011
64.41000 161.246
64.42000 158.485
64.43000 156.035
64.44000 153.787
64.45000 151.634
64.46000 152.066
64.47000 153.656
64.48000 155.159
64.49000 160.106
64.50000 165.632
64.51000 170.348
64.52000 168.772
64.53000 165.867
64.54000 163.633
64.55000 164.760
64.56000 166.350
64.57000 167.600
64.58000 169.951
64.59000 171.906
64.60000 172.756
64.61000 171.015
64.62000 169.167
64.63000 168.665
64.64000 170.346
64.65000 172.058
64.66000 172.951
64.67000 172.367
64.68000 171.977
64.69000 172.531
64.70000 173.769
64.71000 174.896
64.72000 172.164
64.73000 167.519
64.74000 163.084
64.75000 164.458
64.76000 167.589
64.77000 170.322
64.78000 169.522
64.79000 167.891
64.80000 167.308
64.81000 172.611
64.82000 178.830
64.83000 183.836
64.84000 184.563
64.85000 184.819
64.86000 184.278
64.87000 181.669
64.88000 178.953
64.89000 178.471
64.90000 182.001
64.91000 185.612
64.92000 187.600
64.93000 189.199
64.94000 190.295
64.95000 189.598
64.96000 187.456
64.97000 185.372
64.98000 186.039
64.99000 188.217
65.00000 190.315
65.01000 191.593
65.02000 192.500
65.03000 193.169
65.04000 191.407
65.05000 189.009
65.06000 187.667
65.07000 193.008
65.08000 199.520
65.09000 204.880
65.10000 201.249
65.11000 197.446
65.12000 195.164
65.13000 197.247
65.14000 199.602
65.15000 201.147
65.16000 201.080
65.17000 200.969
65.18000 200.905
65.19000 206.485
65.20000 210.416
65.21000 210.065
65.22000 205.852
65.23000 201.746
65.24000 204.878
65.25000 212.414
65.26000 219.729
65.27000 220.427
65.28000 218.450
65.29000 217.051
65.30000 222.539
65.31000 230.028
65.32000 237.292
65.33000 242.952
65.34000 248.295
65.35000 252.785
65.36000 250.849
65.37000 248.558
65.38000 246.578
65.39000 245.582
65.40000 244.660
65.41000 247.008
65.42000 256.548
65.43000 266.345
65.44000 272.272
65.45000 270.017
65.46000 268.350
65.47000 274.698
65.48000 289.167
65.49000 303.558
65.50000 309.546
65.51000 309.859
65.52000 310.165
65.53000 316.669
65.54000 325.662
65.55000 334.400
65.56000 339.562
65.57000 343.571
65.58000 347.789
65.59000 353.702
65.60000 359.987
65.61000 365.369
65.62000 371.377
65.63000 376.523
65.64000 383.439
65.65000 396.586
65.66000 410.276
65.67000 423.344
65.68000 434.902
65.69000 446.392
65.70000 453.640
65.71000 501.787
65.72000 537.123
65.73000 574.313
65.74000 613.611
65.75000 652.973
65.76000 704.727
65.77000 765.794
65.78000 825.842
65.79000 876.381
65.80000 920.535
65.81000 963.746
65.82000 991.195
65.83000 1013.027
65.84000 1034.041
65.85000 1047.434
65.86000 1058.962
65.87000 1069.013
65.88000 1061.766
65.89000 1053.168
65.90000 1048.011
65.91000 1056.306
65.92000 1065.960
65.93000 1064.570
65.94000 1033.473
65.95000 1000.737
65.96000 979.269
65.97000 922.096
65.98000 879.456
65.99000 827.864
66.00000 764.894
66.01000 701.889
66.02000 641.727
66.03000 583.949
66.04000 526.849
66.05000 483.242
66.06000 448.198
66.07000 413.972
66.08000 396.398
66.09000 385.388
66.10000 374.391
66.11000 363.540
66.12000 352.729
66.13000 343.146
66.14000 333.191
66.15000 324.514
66.16000 316.857
66.17000 313.640
66.18000 310.939
66.19000 309.972
66.20000 314.167
66.21000 318.705
66.22000 321.790
66.23000 321.676
66.24000 321.518
66.25000 323.769
66.26000 329.431
66.27000 335.118
66.28000 341.053
66.29000 347.222
66.30000 353.343
66.31000 361.914
66.32000 371.859
66.33000 381.781
66.34000 391.134
66.35000 400.239
66.36000 409.251
66.37000 417.084
66.38000 424.562
66.39000 431.293
66.40000 437.460
66.41000 442.766
66.42000 446.344
66.43000 441.541
66.44000 435.627
66.45000 430.842
66.46000 429.773
66.47000 428.996
66.48000 428.450
66.49000 437.030
66.50000 443.799
66.51000 443.283
66.52000 431.304
66.53000 419.186
66.54000 405.755
66.55000 390.937
66.56000 376.184
66.57000 366.889
66.58000 361.481
66.59000 356.063
66.60000 350.322
66.61000 344.427
66.62000 338.544
66.63000 332.850
66.64000 327.219
66.65000 322.079
66.66000 321.216
66.67000 321.317
66.68000 322.100
66.69000 326.585
66.70000 331.627
66.71000 333.051
66.72000 321.252
66.73000 308.238
66.74000 298.796
66.75000 305.072
66.76000 310.481
66.77000 314.481
66.78000 316.024
66.79000 317.522
66.80000 316.694
66.81000 313.111
66.82000 309.531
66.83000 310.514
66.84000 315.039
66.85000 319.600
66.86000 325.712
66.87000 332.651
66.88000 339.313
66.89000 340.998
66.90000 340.845
66.91000 340.704
66.92000 337.338
66.93000 333.580
66.94000 330.383
66.95000 330.613
66.96000 331.424
66.97000 332.769
66.98000 336.284
66.99000 340.030
67.00000 342.829
67.01000 341.522
67.02000 340.315
67.03000 340.948
67.04000 345.137
67.05000 349.416
67.06000 349.256
67.07000 343.233
67.08000 337.186
67.09000 339.555
67.10000 349.257
67.11000 358.903
67.12000 365.080
67.13000 369.210
67.14000 373.051
67.15000 370.560
67.16000 365.484
67.17000 360.733
67.18000 367.283
67.19000 376.133
67.20000 383.637
67.21000 381.865
67.22000 378.327
67.23000 375.763
67.24000 377.606
67.25000 379.987
67.26000 381.814
67.27000 388.389
67.28000 393.851
67.29000 395.153
67.30000 387.565
67.31000 379.681
67.32000 375.240
67.33000 375.863
67.34000 376.531
67.35000 380.415
67.36000 387.447
67.37000 394.449
67.38000 398.511
67.39000 400.646
67.40000 402.847
67.41000 406.892
67.42000 411.769
67.43000 416.382
67.44000 416.013
67.45000 414.241
67.46000 412.969
67.47000 415.614
67.48000 419.094
67.49000 421.197
67.50000 416.349
67.51000 410.536
67.52000 405.960
67.53000 411.637
67.54000 416.869
67.55000 419.538
67.56000 416.149
67.57000 412.503
67.58000 414.142
67.59000 424.410
67.60000 434.800
67.61000 440.246
67.62000 441.417
67.63000 442.217
67.64000 444.375
67.65000 447.522
67.66000 450.685
67.67000 454.396
67.68000 458.382
67.69000 462.189
67.70000 455.869
67.71000 446.733
67.72000 438.792
67.73000 441.540
67.74000 446.825
67.75000 451.571
67.76000 453.268
67.77000 454.486
67.78000 455.468
67.79000 467.158
67.80000 477.496
67.81000 485.815
67.82000 488.858
67.83000 491.625
67.84000 491.854
67.85000 487.488
67.86000 483.028
67.87000 480.563
67.88000 492.466
67.89000 500.691
67.90000 504.392
67.91000 504.416
67.92000 504.430
67.93000 503.953
67.94000 503.204
67.95000 502.483
67.96000 512.517
67.97000 525.817
67.98000 537.893
67.99000 537.330
68.00000 533.432
68.01000 530.605
68.02000 534.595
68.03000 539.791
68.04000 544.073
68.05000 536.297
68.06000 528.787
68.07000 524.975
68.08000 531.850
68.09000 539.400
68.10000 549.710
68.11000 565.546
68.12000 581.537
68.13000 590.814
68.14000 576.175
68.15000 565.804
68.16000 562.636
68.17000 566.017
68.18000 569.428
68.19000 574.918
68.20000 581.683
68.21000 588.252
68.22000 598.684
68.23000 610.141
68.24000 620.643
68.25000 619.642
68.26000 615.274
68.27000 612.255
68.28000 618.960
68.29000 627.591
68.30000 634.852
68.31000 640.305
68.32000 644.659
68.33000 647.808
68.34000 647.102
68.35000 646.105
68.36000 647.422
68.37000 653.860
68.38000 660.485
68.39000 664.505
68.40000 679.010
68.41000 689.439
68.42000 693.875
68.43000 692.188
68.44000 690.605
68.45000 700.889
68.46000 719.249
68.47000 737.202
68.48000 742.494
68.49000 741.883
68.50000 741.992
68.51000 752.297
68.52000 765.909
68.53000 780.312
68.54000 801.204
68.55000 823.533
68.56000 842.681
68.57000 865.084
68.58000 884.408
68.59000 904.044
68.60000 924.784
68.61000 945.620
68.62000 973.470
68.63000 1018.498
68.64000 1064.312
68.65000 1093.294
68.66000 1147.980
68.67000 1187.929
68.68000 1234.200
68.69000 1287.718
68.70000 1341.307
68.71000 1408.268
68.72000 1485.356
68.73000 1561.187
68.74000 1609.641
68.75000 1642.811
68.76000 1677.032
68.77000 1729.048
68.78000 1787.451
68.79000 1845.613
68.80000 1901.501
68.81000 1956.828
68.82000 2005.125
68.83000 2090.256
68.84000 2168.262
68.85000 2254.186
68.86000 2371.294
68.87000 2491.586
68.88000 2640.419
68.89000 2866.565
68.90000 3097.038
68.91000 3248.586
68.92000 3957.991
68.93000 4489.769
68.94000 5481.593
68.95000 7062.728
68.96000 8647.573
68.97000 11110.991
68.98000 14317.216
68.99000 17486.863
69.00000 21755.764
69.01000 26538.051
69.02000 31317.355
69.03000 36035.121
69.04000 40728.457
69.05000 45301.840
69.06000 48568.867
69.07000 51478.125
69.08000 54059.844
69.09000 55298.906
69.10000 56158.195
69.11000 56937.340
69.12000 57365.176
69.13000 57751.789
69.14000 58204.547
69.15000 58855.582
69.16000 59519.945
69.17000 59972.785
69.18000 60668.074
69.19000 61193.301
69.20000 61229.035
69.21000 60566.375
69.22000 59898.242
69.23000 58232.129
69.24000 55620.480
69.25000 53028.094
69.26000 49798.055
69.27000 46222.332
69.28000 42678.359
69.29000 39951.852
69.30000 37584.133
69.31000 35282.398
69.32000 33820.867
69.33000 32614.510
69.34000 31527.555
69.35000 30664.369
69.36000 29947.551
69.37000 29202.201
69.38000 28317.295
69.39000 27413.709
69.40000 26319.535
69.41000 24592.707
69.42000 22815.557
69.43000 21563.037
69.44000 18378.688
69.45000 15905.719
69.46000 13535.471
69.47000 11328.043
69.48000 9122.665
69.49000 7386.971
69.50000 6151.570
69.51000 4921.504
69.52000 4056.767
69.53000 3456.360
69.54000 2863.240
69.55000 2511.266
69.56000 2276.341
69.57000 2046.774
69.58000 1898.024
69.59000 1776.454
69.60000 1665.369
69.61000 1570.922
69.62000 1490.439
69.63000 1414.313
69.64000 1362.048
69.65000 1313.403
69.66000 1266.457
69.67000 1225.766
69.68000 1185.657
69.69000 1156.493
69.70000 1114.037
69.71000 1080.870
69.72000 1051.787
69.73000 1029.884
69.74000 1008.115
69.75000 987.423
69.76000 968.015
69.77000 948.648
69.78000 923.568
69.79000 894.135
69.80000 865.041
69.81000 850.924
69.82000 844.852
69.83000 838.602
69.84000 829.116
69.85000 818.427
69.86000 808.534
69.87000 796.358
69.88000 784.889
69.89000 774.078
69.90000 767.322
69.91000 761.260
69.92000 751.807
69.93000 728.482
69.94000 703.666
69.95000 685.091
69.96000 677.839
69.97000 672.708
69.98000 669.935
69.99000 671.748
70.00000 673.680
