20.00000 563.782
20.01000 572.787
20.02000 583.078
20.03000 591.263
20.04000 591.029
20.05000 589.919
20.06000 589.093
20.07000 584.310
20.08000 580.412
20.09000 574.361
20.10000 564.209
20.11000 553.959
20.12000 551.877
20.13000 560.417
20.14000 568.994
20.15000 569.517
20.16000 563.136
20.17000 556.920
20.18000 560.250
20.19000 569.134
20.20000 577.726
20.21000 580.103
20.22000 579.977
20.23000 579.859
20.24000 577.346
20.25000 574.463
20.26000 572.235
20.27000 574.449
20.28000 577.494
20.29000 579.619
20.30000 577.649
20.31000 575.189
20.32000 573.308
20.33000 570.004
20.34000 567.320
20.35000 566.399
20.36000 569.192
20.37000 572.103
20.38000 574.424
20.39000 575.891
20.40000 577.350
20.41000 580.307
20.42000 584.704
20.43000 589.061
20.44000 589.943
20.45000 588.581
20.46000 586.970
20.47000 578.727
20.48000 567.531
20.49000 556.956
20.50000 556.870
20.51000 559.756
20.52000 561.746
20.53000 556.856
20.54000 550.526
20.55000 546.902
20.56000 556.722
20.57000 568.375
20.58000 577.516
20.59000 577.008
20.60000 575.974
20.61000 574.885
20.62000 573.669
20.63000 572.448
20.64000 568.964
20.65000 561.841
20.66000 554.669
20.67000 550.940
20.68000 543.616
20.69000 538.715
20.70000 541.064
20.71000 548.613
20.72000 555.875
20.73000 553.237
20.74000 545.728
20.75000 538.564
20.76000 543.915
20.77000 552.844
20.78000 561.194
20.79000 564.471
20.80000 566.562
20.81000 567.951
20.82000 565.426
20.83000 562.297
20.84000 559.783
20.85000 566.754
20.86000 573.133
20.87000 575.566
20.88000 567.840
20.89000 559.599
20.90000 554.002
20.91000 553.120
20.92000 552.330
20.93000 551.896
20.94000 542.484
20.95000 536.018
20.96000 536.950
20.97000 543.798
20.98000 550.571
20.99000 553.890
21.00000 555.327
21.01000 556.710
21.02000 560.937
21.03000 565.910
21.04000 569.683
21.05000 561.319
21.06000 549.801
21.07000 540.642
21.08000 546.249
21.09000 554.422
21.10000 561.138
21.11000 567.034
21.12000 571.804
21.13000 574.760
21.14000 572.546
21.15000 570.015
21.16000 566.918
21.17000 562.703
21.18000 558.458
21.19000 556.013
21.20000 551.398
21.21000 548.163
21.22000 548.457
21.23000 551.909
21.24000 555.390
21.25000 560.895
21.26000 567.622
21.27000 574.147
21.28000 580.551
21.29000 586.573
21.30000 592.066
21.31000 591.333
21.32000 588.805
21.33000 586.021
21.34000 581.419
21.35000 576.464
21.36000 572.307
21.37000 571.420
21.38000 571.024
21.39000 570.375
21.40000 568.928
21.41000 567.423
21.42000 567.539
21.43000 571.195
21.44000 574.975
21.45000 577.254
21.46000 570.384
21.47000 565.429
21.48000 562.313
21.49000 561.043
21.50000 559.788
21.51000 560.071
21.52000 561.384
21.53000 562.667
21.54000 567.565
21.55000 573.852
21.56000 579.688
21.57000 579.287
21.58000 576.894
21.59000 575.903
21.60000 586.195
21.61000 598.944
21.62000 609.848
21.63000 603.128
21.64000 595.344
21.65000 590.267
21.66000 594.648
21.67000 599.842
21.68000 604.158
21.69000 606.351
21.70000 608.451
21.71000 609.772
21.72000 628.611
21.73000 642.434
21.74000 648.492
21.75000 645.796
21.76000 643.120
21.77000 645.765
21.78000 652.375
21.79000 658.873
21.80000 665.881
21.81000 672.908
21.82000 679.897
21.83000 686.280
21.84000 692.447
21.85000 699.331
21.86000 712.824
21.87000 727.921
21.88000 741.066
21.89000 751.351
21.90000 759.741
21.91000 768.817
21.92000 780.553
21.93000 792.555
21.94000 804.225
21.95000 815.008
21.96000 825.742
21.97000 832.762
21.98000 836.526
21.99000 839.238
22.00000 845.515
22.01000 856.286
22.02000 867.060
22.03000 872.750
22.04000 874.211
22.05000 875.654
22.06000 874.336
22.07000 871.528
22.08000 868.735
22.09000 866.228
22.10000 863.834
22.11000 860.694
22.12000 849.617
22.13000 836.400
22.14000 824.698
22.15000 815.307
22.16000 807.548
22.17000 800.317
22.18000 795.366
22.19000 790.677
22.20000 780.946
22.21000 756.325
22.22000 730.728
22.23000 713.370
22.24000 708.865
22.25000 705.790
22.26000 702.185
22.27000 697.838
22.28000 693.485
22.29000 689.905
22.30000 687.046
22.31000 684.209
22.32000 669.674
22.33000 648.194
22.34000 627.462
22.35000 625.357
22.36000 631.308
22.37000 636.118
22.38000 626.733
22.39000 613.102
22.40000 600.846
22.41000 595.843
22.42000 592.749
22.43000 590.102
22.44000 589.597
22.45000 589.375
22.46000 587.755
22.47000 581.569
22.48000 575.028
22.49000 570.440
22.50000 574.315
22.51000 577.491
22.52000 576.882
22.53000 570.362
22.54000 563.773
22.55000 566.168
22.56000 577.971
22.57000 589.721
22.58000 583.815
22.59000 565.822
22.60000 548.164
22.61000 541.175
22.62000 539.289
22.63000 537.442
22.64000 536.160
22.65000 535.065
22.66000 534.067
22.67000 531.251
22.68000 528.389
22.69000 526.533
22.70000 530.098
22.71000 534.470
22.72000 537.071
22.73000 533.253
22.74000 528.852
22.75000 525.666
22.76000 534.348
22.77000 541.449
22.78000 541.875
22.79000 530.746
22.80000 519.413
22.81000 512.986
22.82000 512.320
22.83000 511.665
22.84000 513.494
22.85000 517.227
22.86000 520.867
22.87000 520.532
22.88000 518.094
22.89000 515.980
22.90000 519.576
22.91000 525.266
22.92000 530.524
22.93000 532.015
22.94000 532.501
22.95000 532.421
22.96000 528.911
22.97000 524.825
22.98000 522.058
22.99000 524.603
23.00000 527.708
23.01000 530.022
23.02000 536.500
23.03000 541.732
23.04000 539.876
23.05000 524.428
23.06000 508.644
23.07000 502.333
23.08000 508.440
23.09000 514.596
23.10000 518.621
23.11000 520.794
23.12000 522.956
23.13000 524.397
23.14000 525.415
23.15000 526.266
23.16000 523.514
23.17000 519.301
23.18000 515.361
23.19000 519.713
23.20000 525.771
23.21000 530.637
23.22000 527.354
23.23000 522.534
23.24000 518.346
23.25000 516.997
23.26000 515.991
23.27000 515.220
23.28000 511.964
23.29000 509.256
23.30000 512.902
23.31000 530.028
23.32000 547.594
23.33000 552.164
23.34000 537.774
23.35000 523.221
23.36000 514.399
23.37000 511.141
23.38000 507.882
23.39000 504.553
23.40000 501.179
23.41000 497.650
23.42000 489.915
23.43000 480.294
23.44000 471.200
23.45000 479.239
23.46000 491.508
23.47000 502.131
23.48000 499.996
23.49000 495.167
23.50000 492.738
23.51000 502.321
23.52000 513.556
23.53000 522.385
23.54000 514.342
23.55000 506.793
23.56000 503.054
23.57000 508.254
23.58000 513.825
23.59000 517.091
23.60000 516.623
23.61000 516.104
23.62000 515.832
23.63000 505.989
23.64000 499.383
23.65000 501.579
23.66000 510.136
23.67000 518.472
23.68000 519.037
23.69000 515.749
23.70000 512.610
23.71000 513.961
23.72000 516.648
23.73000 518.336
23.74000 511.158
23.75000 501.894
23.76000 494.269
23.77000 495.848
23.78000 498.860
23.79000 501.284
23.80000 505.115
23.81000 508.333
23.82000 510.245
23.83000 508.771
23.84000 507.123
23.85000 505.522
23.86000 504.008
23.87000 502.496
23.88000 501.663
23.89000 509.065
23.90000 514.162
23.91000 513.957
23.92000 509.478
23.93000 504.913
23.94000 496.234
23.95000 485.296
23.96000 474.763
23.97000 469.949
23.98000 467.471
23.99000 466.594
24.00000 482.074
24.01000 501.835
24.02000 518.805
24.03000 518.142
24.04000 514.388
24.05000 511.298
24.06000 496.835
24.07000 483.909
24.08000 476.081
24.09000 482.879
24.10000 490.588
24.11000 496.372
24.12000 498.330
24.13000 500.184
24.14000 501.256
24.15000 497.584
24.16000 494.992
24.17000 492.426
24.18000 489.883
24.19000 487.343
24.20000 484.930
24.21000 482.594
24.22000 480.327
24.23000 483.233
24.24000 488.053
24.25000 492.235
24.26000 488.833
24.27000 483.229
24.28000 479.077
24.29000 485.297
24.30000 493.556
24.31000 500.493
24.32000 501.368
24.33000 501.458
24.34000 501.848
24.35000 503.191
24.36000 504.606
24.37000 502.830
24.38000 494.041
24.39000 485.002
24.40000 479.535
24.41000 494.162
24.42000 504.733
24.43000 505.348
24.44000 495.880
24.45000 486.455
24.46000 481.736
24.47000 480.193
24.48000 478.685
24.49000 481.403
24.50000 485.889
24.51000 490.513
24.52000 497.075
24.53000 504.259
24.54000 510.322
24.55000 507.258
24.56000 502.190
24.57000 497.851
24.58000 487.220
24.59000 477.484
24.60000 470.965
24.61000 475.769
24.62000 481.558
24.63000 486.332
24.64000 488.640
24.65000 490.837
24.66000 492.223
24.67000 492.573
24.68000 492.814
24.69000 493.881
24.70000 495.887
24.71000 497.891
24.72000 499.378
24.73000 500.476
24.74000 501.556
24.75000 497.209
24.76000 490.306
24.77000 483.652
24.78000 481.146
24.79000 480.118
24.80000 479.814
24.81000 486.255
24.82000 494.346
24.83000 501.399
24.84000 497.393
24.85000 492.432
24.86000 486.471
24.87000 476.600
24.88000 466.335
24.89000 461.449
24.90000 471.025
24.91000 481.399
24.92000 488.201
24.93000 482.388
24.94000 477.904
24.95000 476.346
24.96000 478.506
24.97000 480.669
24.98000 478.034
24.99000 471.374
25.00000 464.792
25.01000 468.262
25.02000 477.228
25.03000 485.773
25.04000 485.771
25.05000 482.401
25.06000 479.345
25.07000 479.657
25.08000 480.886
25.09000 481.974
25.10000 483.256
25.11000 484.397
25.12000 484.787
25.13000 481.915
25.14000 478.664
25.15000 477.308
25.16000 481.592
25.17000 486.250
25.18000 489.416
25.19000 487.236
25.20000 485.488
25.21000 484.485
25.22000 484.535
25.23000 484.591
25.24000 480.455
25.25000 472.382
25.26000 464.370
25.27000 467.722
25.28000 478.067
25.29000 487.873
25.30000 484.024
25.31000 474.226
25.32000 465.648
25.33000 472.413
25.34000 483.803
25.35000 494.053
25.36000 485.833
25.37000 475.317
25.38000 466.367
25.39000 465.015
25.40000 464.670
25.41000 467.568
25.42000 481.146
25.43000 495.564
25.44000 505.702
25.45000 493.521
25.46000 483.637
25.47000 478.587
25.48000 481.142
25.49000 483.790
25.50000 481.222
25.51000 473.147
25.52000 465.108
25.53000 460.345
25.54000 457.906
25.55000 455.705
25.56000 461.230
25.57000 470.477
25.58000 478.990
25.59000 476.582
25.60000 470.529
25.61000 465.003
25.62000 475.387
25.63000 487.823
25.64000 496.405
25.65000 484.052
25.66000 468.553
25.67000 459.382
25.68000 473.327
25.69000 489.396
25.70000 501.053
25.71000 494.367
25.72000 488.545
25.73000 483.439
25.74000 479.580
25.75000 475.743
25.76000 473.814
25.77000 474.141
25.78000 474.470
25.79000 476.805
25.80000 480.686
25.81000 484.502
25.82000 485.532
25.83000 485.078
25.84000 484.590
25.85000 483.506
25.86000 482.201
25.87000 480.994
25.88000 471.103
25.89000 460.238
25.90000 451.154
25.91000 452.934
25.92000 456.556
25.93000 460.964
25.94000 468.566
25.95000 476.507
25.96000 482.439
25.97000 476.585
25.98000 471.480
25.99000 464.967
26.00000 455.736
26.01000 446.437
26.02000 445.534
26.03000 455.721
26.04000 465.954
26.05000 468.675
26.06000 464.846
26.07000 461.112
26.08000 463.137
26.09000 468.562
26.10000 473.565
26.11000 469.340
26.12000 461.346
26.13000 453.865
26.14000 458.223
26.15000 465.217
26.16000 471.067
26.17000 469.034
26.18000 465.501
26.19000 463.045
26.20000 465.458
26.21000 468.464
26.22000 470.771
26.23000 476.983
26.24000 482.111
26.25000 487.375
26.26000 492.932
26.27000 498.498
26.28000 495.921
26.29000 481.373
26.30000 466.718
26.31000 461.551
26.32000 465.674
26.33000 469.751
26.34000 469.477
26.35000 466.353
26.36000 463.268
26.37000 461.247
26.38000 459.709
26.39000 458.253
26.40000 452.512
26.41000 446.002
26.42000 440.573
26.43000 443.593
26.44000 448.411
26.45000 452.837
26.46000 455.284
26.47000 457.457
26.48000 459.168
26.49000 463.777
26.50000 467.664
26.51000 468.256
26.52000 461.065
26.53000 453.545
26.54000 449.667
26.55000 451.732
26.56000 453.882
26.57000 455.008
26.58000 453.601
26.59000 452.654
26.60000 452.939
26.61000 454.121
26.62000 455.265
26.63000 455.041
26.64000 454.134
26.65000 453.268
26.66000 457.329
26.67000 462.688
26.68000 467.057
26.69000 462.553
26.70000 455.945
26.71000 450.761
26.72000 453.632
26.73000 457.767
26.74000 461.102
26.75000 455.678
26.76000 450.584
26.77000 449.761
26.78000 460.092
26.79000 471.005
26.80000 474.933
26.81000 466.227
26.82000 457.260
26.83000 452.306
26.84000 440.208
26.85000 431.877
26.86000 433.043
26.87000 441.926
26.88000 450.623
26.89000 450.317
26.90000 445.034
26.91000 439.943
26.92000 442.047
26.93000 446.611
26.94000 451.110
26.95000 454.917
26.96000 458.542
26.97000 460.886
26.98000 455.070
26.99000 447.811
27.00000 441.829
27.01000 450.015
27.02000 458.055
27.03000 462.619
27.04000 457.136
27.05000 451.021
27.06000 446.645
27.07000 445.755
27.08000 444.963
27.09000 444.503
27.10000 451.513
27.11000 456.461
27.12000 457.595
27.13000 455.260
27.14000 452.989
27.15000 455.157
27.16000 460.047
27.17000 464.795
27.18000 463.099
27.19000 458.898
27.20000 454.907
27.21000 453.432
27.22000 452.694
27.23000 452.104
27.24000 452.589
27.25000 453.286
27.26000 453.872
27.27000 452.208
27.28000 450.581
27.29000 448.254
27.30000 443.688
27.31000 438.953
27.32000 437.265
27.33000 442.327
27.34000 447.634
27.35000 450.854
27.36000 454.035
27.37000 456.304
27.38000 455.450
27.39000 451.407
27.40000 447.374
27.41000 444.530
27.42000 442.497
27.43000 440.508
27.44000 440.117
27.45000 440.460
27.46000 440.861
27.47000 442.095
27.48000 443.598
27.49000 444.885
27.50000 444.397
27.51000 443.517
27.52000 442.763
27.53000 442.389
27.54000 442.121
27.55000 441.275
27.56000 438.385
27.57000 435.314
27.58000 433.500
27.59000 434.765
27.60000 436.170
27.61000 437.059
27.62000 445.173
27.63000 451.141
27.64000 449.443
27.65000 438.962
27.66000 428.509
27.67000 426.400
27.68000 430.607
27.69000 434.746
27.70000 435.000
27.71000 433.300
27.72000 431.744
27.73000 432.627
27.74000 434.385
27.75000 435.999
27.76000 436.256
27.77000 436.178
27.78000 436.110
27.79000 437.276
27.80000 438.446
27.81000 439.559
27.82000 440.445
27.83000 441.307
27.84000 443.301
27.85000 448.362
27.86000 453.594
27.87000 457.034
27.88000 452.111
27.89000 448.345
27.90000 442.950
27.91000 435.470
27.92000 427.996
27.93000 429.146
27.94000 437.582
27.95000 445.922
27.96000 443.632
27.97000 435.446
27.98000 427.691
27.99000 428.840
28.00000 433.522
28.01000 437.761
28.02000 437.165
28.03000 435.245
28.04000 433.542
28.05000 432.091
28.06000 430.875
28.07000 430.396
28.08000 433.155
28.09000 436.293
28.10000 437.567
28.11000 433.252
28.12000 428.561
28.13000 425.364
28.14000 426.890
28.15000 428.139
28.16000 430.805
28.17000 435.492
28.18000 440.195
28.19000 441.774
28.20000 440.395
28.21000 439.026
28.22000 436.713
28.23000 433.847
28.24000 431.222
28.25000 434.795
28.26000 441.088
28.27000 446.806
28.28000 445.211
28.29000 441.394
28.30000 437.956
28.31000 437.693
28.32000 438.036
28.33000 438.595
28.34000 440.208
28.35000 441.962
28.36000 443.444
28.37000 444.026
28.38000 444.536
28.39000 444.896
28.40000 439.337
28.41000 434.944
28.42000 433.428
28.43000 436.468
28.44000 439.565
28.45000 439.669
28.46000 436.585
28.47000 433.513
28.48000 431.097
28.49000 429.165
28.50000 427.272
28.51000 426.695
28.52000 426.754
28.53000 427.104
28.54000 431.820
28.55000 438.004
28.56000 443.654
28.57000 436.873
28.58000 428.312
28.59000 420.981
28.60000 420.388
28.61000 420.817
28.62000 420.152
28.63000 415.461
28.64000 410.395
28.65000 406.713
28.66000 415.263
28.67000 422.304
28.68000 426.982
28.69000 427.509
28.70000 427.959
28.71000 431.081
28.72000 437.392
28.73000 443.696
28.74000 441.761
28.75000 433.383
28.76000 425.088
28.77000 420.538
28.78000 417.998
28.79000 415.544
28.80000 414.644
28.81000 414.321
28.82000 414.023
28.83000 418.150
28.84000 422.877
28.85000 426.808
28.86000 425.835
28.87000 424.024
28.88000 423.907
28.89000 430.715
28.90000 438.267
28.91000 443.919
28.92000 440.299
28.93000 437.042
28.94000 433.248
28.95000 428.409
28.96000 423.544
28.97000 420.207
28.98000 418.905
28.99000 417.614
29.00000 417.346
29.01000 417.978
29.02000 418.580
29.03000 417.292
29.04000 414.879
29.05000 412.795
29.06000 418.045
29.07000 426.311
29.08000 434.054
29.09000 429.110
29.10000 421.336
29.11000 414.540
29.12000 414.543
29.13000 415.851
29.14000 416.596
29.15000 414.781
29.16000 412.650
29.17000 411.012
29.18000 421.377
29.19000 430.256
29.20000 433.271
29.21000 423.663
29.22000 413.629
29.23000 409.670
29.24000 414.712
29.25000 419.836
29.26000 421.061
29.27000 418.435
29.28000 415.848
29.29000 416.995
29.30000 420.608
29.31000 424.017
29.32000 421.699
29.33000 416.778
29.34000 412.119
29.35000 415.748
29.36000 421.489
29.37000 426.043
29.38000 421.225
29.39000 414.396
29.40000 408.930
29.41000 410.399
29.42000 412.838
29.43000 414.762
29.44000 408.249
29.45000 402.456
29.46000 401.667
29.47000 412.787
29.48000 424.417
29.49000 432.870
29.50000 436.098
29.51000 439.250
29.52000 440.908
29.53000 415.906
29.54000 399.044
29.55000 400.377
29.56000 415.067
29.57000 429.554
29.58000 436.598
29.59000 439.898
29.60000 443.052
29.61000 436.744
29.62000 427.806
29.63000 419.765
29.64000 419.837
29.65000 421.849
29.66000 423.150
29.67000 420.395
29.68000 416.997
29.69000 414.253
29.70000 418.344
29.71000 422.213
29.72000 424.786
29.73000 423.947
29.74000 422.927
29.75000 423.779
29.76000 428.041
29.77000 432.376
29.78000 434.779
29.79000 434.279
29.80000 433.931
29.81000 434.740
29.82000 436.495
29.83000 438.190
29.84000 436.908
29.85000 433.970
29.86000 431.136
29.87000 426.585
29.88000 421.682
29.89000 417.502
29.90000 420.866
29.91000 426.234
29.92000 432.272
29.93000 442.620
29.94000 453.736
29.95000 462.911
29.96000 459.969
29.97000 456.419
29.98000 453.386
29.99000 451.856
30.00000 450.422
30.01000 449.588
30.02000 449.964
30.03000 450.374
30.04000 450.613
30.05000 459.231
30.06000 465.321
30.07000 466.414
30.08000 462.929
30.09000 459.417
30.10000 454.047
30.11000 447.529
30.12000 441.196
30.13000 446.850
30.14000 457.079
30.15000 466.573
30.16000 467.128
30.17000 465.047
30.18000 462.628
30.19000 457.742
30.20000 452.364
30.21000 447.833
30.22000 443.323
30.23000 439.561
30.24000 438.454
30.25000 445.905
30.26000 454.006
30.27000 458.516
30.28000 455.018
30.29000 451.223
30.30000 448.914
30.31000 441.881
30.32000 436.821
30.33000 433.379
30.34000 431.602
30.35000 429.876
30.36000 434.025
30.37000 442.200
30.38000 450.198
30.39000 452.426
30.40000 451.953
30.41000 451.293
30.42000 447.948
30.43000 443.725
30.44000 439.705
30.45000 437.364
30.46000 435.398
30.47000 433.709
30.48000 434.044
30.49000 434.578
30.50000 436.314
30.51000 442.346
30.52000 448.760
30.53000 451.349
30.54000 444.502
30.55000 437.217
30.56000 432.596
30.57000 435.294
30.58000 437.341
30.59000 441.070
30.60000 446.744
30.61000 452.411
30.62000 455.921
30.63000 457.786
30.64000 459.622
30.65000 461.423
30.66000 463.149
30.67000 464.944
30.68000 467.901
30.69000 471.277
30.70000 474.445
30.71000 475.625
30.72000 476.311
30.73000 476.910
30.74000 474.145
30.75000 471.300
30.76000 468.977
30.77000 468.727
30.78000 468.691
30.79000 471.278
30.80000 481.020
30.81000 491.168
30.82000 497.858
30.83000 492.787
30.84000 488.845
30.85000 491.187
30.86000 501.640
30.87000 512.113
30.88000 515.460
30.89000 512.735
30.90000 510.040
30.91000 520.596
30.92000 538.382
30.93000 555.901
30.94000 567.835
30.95000 577.535
30.96000 587.263
30.97000 597.283
30.98000 607.385
30.99000 616.359
31.00000 634.266
31.01000 651.235
31.02000 667.132
31.03000 678.300
31.04000 688.908
31.05000 707.202
31.06000 748.695
31.07000 791.767
31.08000 821.195
31.09000 876.350
31.10000 918.218
31.11000 970.698
31.12000 1038.429
31.13000 1106.281
31.14000 1175.151
31.15000 1244.994
31.16000 1314.338
31.17000 1402.868
31.18000 1502.077
31.19000 1601.783
31.20000 1714.525
31.21000 1833.027
31.22000 1951.344
31.23000 2067.291
31.24000 2182.512
31.25000 2286.433
31.26000 2429.119
31.27000 2561.483
31.28000 2684.009
31.29000 2758.047
31.30000 2825.537
31.31000 2897.784
31.32000 2985.938
31.33000 3075.370
31.34000 3138.540
31.35000 3258.633
31.36000 3351.538
31.37000 3410.222
31.38000 3414.276
31.39000 3417.621
31.40000 3401.180
31.41000 3363.495
31.42000 3325.956
31.43000 3260.286
31.44000 3175.417
31.45000 3090.545
31.46000 3005.563
31.47000 2920.526
31.48000 2834.263
31.49000 2729.264
31.50000 2617.921
31.51000 2516.087
31.52000 2399.446
31.53000 2292.713
31.54000 2185.134
31.55000 2072.877
31.56000 1959.905
31.57000 1852.196
31.58000 1764.007
31.59000 1677.649
31.60000 1614.730
31.61000 1478.703
31.62000 1371.136
31.63000 1280.805
31.64000 1220.979
31.65000 1161.736
31.66000 1099.913
31.67000 1034.988
31.68000 970.174
31.69000 925.166
31.70000 896.008
31.71000 866.708
31.72000 830.971
31.73000 791.753
31.74000 753.023
31.75000 723.272
31.76000 696.885
31.77000 672.440
31.78000 646.683
31.79000 623.207
31.80000 601.615
31.81000 591.727
31.82000 583.856
31.83000 575.466
31.84000 564.934
31.85000 554.169
31.86000 546.096
31.87000 544.974
31.88000 544.426
31.89000 537.117
31.90000 516.557
31.91000 495.649
31.92000 483.188
31.93000 482.060
31.94000 480.991
31.95000 479.248
31.96000 476.909
31.97000 474.577
31.98000 472.597
31.99000 470.828
32.00000 469.059
32.01000 467.296
32.02000 465.535
32.03000 463.884
32.04000 461.156
32.05000 458.391
32.06000 455.360
32.07000 450.467
32.08000 445.212
32.09000 439.776
32.10000 433.500
32.11000 427.121
32.12000 422.206
32.13000 410.520
32.14000 400.877
32.15000 397.412
32.16000 407.337
32.17000 417.723
32.18000 422.484
32.19000 418.852
32.20000 415.139
32.21000 410.208
32.22000 404.064
32.23000 397.991
32.24000 399.017
32.25000 404.765
32.26000 410.263
32.27000 408.642
32.28000 403.759
32.29000 399.133
32.30000 403.091
32.31000 409.243
32.32000 414.650
32.33000 414.118
32.34000 412.303
32.35000 410.534
32.36000 409.002
32.37000 407.503
32.38000 406.319
32.39000 409.306
32.40000 411.989
32.41000 413.875
32.42000 413.850
32.43000 413.742
32.44000 413.040
32.45000 411.351
32.46000 409.648
32.47000 408.749
32.48000 419.739
32.49000 427.117
32.50000 417.717
32.51000 395.905
32.52000 374.654
32.53000 374.310
32.54000 384.561
32.55000 394.366
32.56000 394.562
32.57000 391.603
32.58000 389.548
32.59000 395.751
32.60000 403.944
32.61000 409.983
32.62000 403.634
32.63000 395.305
32.64000 388.569
32.65000 381.927
32.66000 376.530
32.67000 374.643
32.68000 382.056
32.69000 389.968
32.70000 395.108
32.71000 395.160
32.72000 395.103
32.73000 395.071
32.74000 399.768
32.75000 403.024
32.76000 405.659
32.77000 407.781
32.78000 409.858
32.79000 409.649
32.80000 408.159
32.81000 406.721
32.82000 411.951
32.83000 419.310
32.84000 426.269
32.85000 429.007
32.86000 430.614
32.87000 432.573
32.88000 436.818
32.89000 441.474
32.90000 445.322
32.91000 446.118
32.92000 446.487
32.93000 443.812
32.94000 432.207
32.95000 420.025
32.96000 413.321
32.97000 417.749
32.98000 422.500
32.99000 425.275
33.00000 422.378
33.01000 420.314
33.02000 416.390
33.03000 410.747
33.04000 405.122
33.05000 400.751
33.06000 397.159
33.07000 393.667
33.08000 392.326
33.09000 391.929
33.10000 391.330
33.11000 388.255
33.12000 384.443
33.13000 380.159
33.14000 372.411
33.15000 363.966
33.16000 356.840
33.17000 361.723
33.18000 367.108
33.19000 369.920
33.20000 364.376
33.21000 358.191
33.22000 353.802
33.23000 353.447
33.24000 353.243
33.25000 353.119
33.26000 358.348
33.27000 362.131
33.28000 365.402
33.29000 368.141
33.30000 370.833
33.31000 367.871
33.32000 361.003
33.33000 354.280
33.34000 352.987
33.35000 354.222
33.36000 355.572
33.37000 358.605
33.38000 362.192
33.39000 365.396
33.40000 365.393
33.41000 364.669
33.42000 364.047
33.43000 360.747
33.44000 357.619
33.45000 355.190
33.46000 355.271
33.47000 355.578
33.48000 356.546
33.49000 359.157
33.50000 361.846
33.51000 363.556
33.52000 352.769
33.53000 344.776
33.54000 340.750
33.55000 341.345
33.56000 341.948
33.57000 342.999
33.58000 344.394
33.59000 345.767
33.60000 347.483
33.61000 349.321
33.62000 351.082
33.63000 351.493
33.64000 351.413
33.65000 351.221
33.66000 349.958
33.67000 348.426
33.68000 347.086
33.69000 354.677
33.70000 362.460
33.71000 367.448
33.72000 361.262
33.73000 353.913
33.74000 349.355
33.75000 352.467
33.76000 356.020
33.77000 358.369
33.78000 359.175
33.79000 359.743
33.80000 354.500
33.81000 341.701
33.82000 328.887
33.83000 327.473
33.84000 335.850
33.85000 344.136
33.86000 350.000
33.87000 354.353
33.88000 358.387
33.89000 355.657
33.90000 350.202
33.91000 345.351
33.92000 347.202
33.93000 350.915
33.94000 354.218
33.95000 350.610
33.96000 346.355
33.97000 343.402
33.98000 346.245
33.99000 349.781
34.00000 351.277
34.01000 346.575
34.02000 341.445
34.03000 337.932
34.04000 339.109
34.05000 340.103
34.06000 342.378
34.07000 346.510
34.08000 350.657
34.09000 345.911
34.10000 332.602
34.11000 319.384
34.12000 316.741
34.13000 320.859
34.14000 324.945
34.15000 328.214
34.16000 331.119
34.17000 334.010
34.18000 336.724
34.19000 339.384
34.20000 341.785
34.21000 336.602
34.22000 330.650
34.23000 324.838
34.24000 319.714
34.25000 314.685
34.26000 311.826
34.27000 316.278
34.28000 321.325
34.29000 324.898
34.30000 330.044
34.31000 334.004
34.32000 337.067
34.33000 338.689
34.34000 340.292
34.35000 336.550
34.36000 327.023
34.37000 317.530
34.38000 318.982
34.39000 328.199
34.40000 337.132
34.41000 336.243
34.42000 330.518
34.43000 325.061
34.44000 323.725
34.45000 323.796
34.46000 323.860
34.47000 324.993
34.48000 326.224
34.49000 327.975
34.50000 332.627
34.51000 337.727
34.52000 341.074
34.53000 337.868
34.54000 334.042
34.55000 331.248
34.56000 332.527
34.57000 333.672
34.58000 334.309
34.59000 334.040
34.60000 333.752
34.61000 336.674
34.62000 343.485
34.63000 350.293
34.64000 348.760
34.65000 340.592
34.66000 332.446
34.67000 325.328
34.68000 318.769
34.69000 312.567
34.70000 313.027
34.71000 316.001
34.72000 318.759
34.73000 319.901
34.74000 320.552
34.75000 321.089
34.76000 320.914
34.77000 320.614
34.78000 320.237
34.79000 319.542
34.80000 318.812
34.81000 318.264
34.82000 319.244
34.83000 320.083
34.84000 321.570
34.85000 324.334
34.86000 327.133
34.87000 327.399
34.88000 324.239
34.89000 321.063
34.90000 318.991
34.91000 317.910
34.92000 316.873
34.93000 318.791
34.94000 322.494
34.95000 326.119
34.96000 327.985
34.97000 329.116
34.98000 330.177
34.99000 332.905
35.00000 335.827
35.01000 337.960
35.02000 334.500
35.03000 329.950
35.04000 325.990
35.05000 324.761
35.06000 323.875
35.07000 323.191
35.08000 313.540
35.09000 305.369
35.10000 303.188
35.11000 314.084
35.12000 325.440
35.13000 331.025
35.14000 327.932
35.15000 324.752
35.16000 323.159
35.17000 316.509
35.18000 312.072
35.19000 307.523
35.20000 302.900
35.21000 298.599
35.22000 303.638
35.23000 312.986
35.24000 321.848
35.25000 319.039
35.26000 313.014
35.27000 307.850
35.28000 309.619
35.29000 312.900
35.30000 315.512
35.31000 314.670
35.32000 313.336
35.33000 312.280
35.34000 307.160
35.35000 302.764
35.36000 301.419
35.37000 307.443
35.38000 313.792
35.39000 317.839
35.40000 318.043
35.41000 318.189
35.42000 318.266
35.43000 318.483
35.44000 318.637
35.45000 319.844
35.46000 321.838
35.47000 323.734
35.48000 321.900
35.49000 318.162
35.50000 314.584
35.51000 314.964
35.52000 316.622
35.53000 317.947
35.54000 316.203
35.55000 313.713
35.56000 310.621
35.57000 304.033
35.58000 296.882
35.59000 291.089
35.60000 299.919
35.61000 308.301
35.62000 314.394
35.63000 314.376
35.64000 314.025
35.65000 315.157
35.66000 319.030
35.67000 322.964
35.68000 325.161
35.69000 316.265
35.70000 310.091
35.71000 308.559
35.72000 310.889
35.73000 313.271
35.74000 318.382
35.75000 325.036
35.76000 331.459
35.77000 328.742
35.78000 322.816
35.79000 317.095
35.80000 313.551
35.81000 310.594
35.82000 307.810
35.83000 306.157
35.84000 304.709
35.85000 303.511
35.86000 308.513
35.87000 313.230
35.88000 315.321
35.89000 309.654
35.90000 303.479
35.91000 301.428
35.92000 307.817
35.93000 314.456
35.94000 318.346
35.95000 311.972
35.96000 307.434
35.97000 306.401
35.98000 308.632
35.99000 310.820
36.00000 309.652
36.01000 306.382
36.02000 303.201
36.03000 299.254
36.04000 295.183
36.05000 291.357
36.06000 290.586
36.07000 290.730
36.08000 291.392
36.09000 295.895
36.10000 301.177
36.11000 305.640
36.12000 303.154
36.13000 300.312
36.14000 297.889
36.15000 296.838
36.16000 295.892
36.17000 296.814
36.18000 301.964
36.19000 307.274
36.20000 310.526
36.21000 301.142
36.22000 294.317
36.23000 291.339
36.24000 292.391
36.25000 293.444
36.26000 294.641
36.27000 295.937
36.28000 297.207
36.29000 295.548
36.30000 292.608
36.31000 290.058
36.32000 293.246
36.33000 298.336
36.34000 303.102
36.35000 305.140
36.36000 306.560
36.37000 307.782
36.38000 305.463
36.39000 303.052
36.40000 301.836
36.41000 304.953
36.42000 308.463
36.43000 310.265
36.44000 307.789
36.45000 305.109
36.46000 303.399
36.47000 302.891
36.48000 302.537
36.49000 301.878
36.50000 300.861
36.51000 299.849
36.52000 299.973
36.53000 300.979
36.54000 301.969
36.55000 299.253
36.56000 294.716
36.57000 290.347
36.58000 288.921
36.59000 288.575
36.60000 288.533
36.61000 291.440
36.62000 295.090
36.63000 298.287
36.64000 307.392
36.65000 316.056
36.66000 321.770
36.67000 315.606
36.68000 308.192
36.69000 302.332
36.70000 300.773
36.71000 299.464
36.72000 298.596
36.73000 298.122
36.74000 297.779
36.75000 298.181
36.76000 299.559
36.77000 300.936
36.78000 298.627
36.79000 293.126
36.80000 287.682
36.81000 287.211
36.82000 289.600
36.83000 292.094
36.84000 296.854
36.85000 302.534
36.86000 308.072
36.87000 312.020
36.88000 315.522
36.89000 318.641
36.90000 314.774
36.91000 310.270
36.92000 306.606
36.93000 306.712
36.94000 307.274
36.95000 307.108
36.96000 304.713
36.97000 302.163
36.98000 300.412
36.99000 296.077
37.00000 292.764
37.01000 295.638
37.02000 307.542
37.03000 319.523
37.04000 322.960
37.05000 318.101
37.06000 313.275
37.07000 306.967
37.08000 299.806
37.09000 292.937
37.10000 293.984
37.11000 298.581
37.12000 302.838
37.13000 302.602
37.14000 300.973
37.15000 299.501
37.16000 298.255
37.17000 297.201
37.18000 298.066
37.19000 308.542
37.20000 320.340
37.21000 328.127
37.22000 322.305
37.23000 315.362
37.24000 310.436
37.25000 309.653
37.26000 309.188
37.27000 306.732
37.28000 301.047
37.29000 295.318
37.30000 293.903
37.31000 297.196
37.32000 300.480
37.33000 304.317
37.34000 308.518
37.35000 312.604
37.36000 312.692
37.37000 310.797
37.38000 308.937
37.39000 307.611
37.40000 306.469
37.41000 305.423
37.42000 301.619
37.43000 297.653
37.44000 294.339
37.45000 294.678
37.46000 295.587
37.47000 296.435
37.48000 297.054
37.49000 297.651
37.50000 298.088
37.51000 302.122
37.52000 305.378
37.53000 306.952
37.54000 305.505
37.55000 303.997
37.56000 300.466
37.57000 294.463
37.58000 288.464
37.59000 289.898
37.60000 297.293
37.61000 304.565
37.62000 305.960
37.63000 304.132
37.64000 302.361
37.65000 301.686
37.66000 301.429
37.67000 301.190
37.68000 300.573
37.69000 299.928
37.70000 299.963
37.71000 304.295
37.72000 309.379
37.73000 313.027
37.74000 310.661
37.75000 307.629
37.76000 305.347
37.77000 303.111
37.78000 301.364
37.79000 297.693
37.80000 290.199
37.81000 282.600
37.82000 280.302
37.83000 285.227
37.84000 290.191
37.85000 293.519
37.86000 295.370
37.87000 297.212
37.88000 298.430
37.89000 299.270
37.90000 300.007
37.91000 298.346
37.92000 295.677
37.93000 293.171
37.94000 291.397
37.95000 289.974
37.96000 289.432
37.97000 295.178
37.98000 302.160
37.99000 308.072
38.00000 308.992
38.01000 309.281
38.02000 309.505
38.03000 297.783
38.04000 287.779
38.05000 284.990
38.06000 298.067
38.07000 311.710
38.08000 319.985
38.09000 320.126
38.10000 320.183
38.11000 320.212
38.12000 320.371
38.13000 320.485
38.14000 321.426
38.15000 322.926
38.16000 324.334
38.17000 323.032
38.18000 320.470
38.19000 318.039
38.20000 323.522
38.21000 330.928
38.22000 337.743
38.23000 339.757
38.24000 340.717
38.25000 342.046
38.26000 345.298
38.27000 348.827
38.28000 351.625
38.29000 345.709
38.30000 340.339
38.31000 339.457
38.32000 349.486
38.33000 360.004
38.34000 367.329
38.35000 369.282
38.36000 371.150
38.37000 372.145
38.38000 388.102
38.39000 398.992
38.40000 413.011
38.41000 429.380
38.42000 445.701
38.43000 460.165
38.44000 473.674
38.45000 486.613
38.46000 504.279
38.47000 522.325
38.48000 539.883
38.49000 552.888
38.50000 564.781
38.51000 577.165
38.52000 592.425
38.53000 608.153
38.54000 620.914
38.55000 640.046
38.56000 656.168
38.57000 675.099
38.58000 701.584
38.59000 728.485
38.60000 759.809
38.61000 799.371
38.62000 839.118
38.63000 861.396
38.64000 871.390
38.65000 878.290
38.66000 886.409
38.67000 895.550
38.68000 904.723
38.69000 915.589
38.70000 927.419
38.71000 938.846
38.72000 927.742
38.73000 908.907
38.74000 890.459
38.75000 876.171
38.76000 863.013
38.77000 848.118
38.78000 821.756
38.79000 793.299
38.80000 769.704
38.81000 741.516
38.82000 717.790
38.83000 694.764
38.84000 673.821
38.85000 653.017
38.86000 633.568
38.87000 616.915
38.88000 600.346
38.89000 590.607
38.90000 562.169
38.91000 542.022
38.92000 526.131
38.93000 514.237
38.94000 502.252
38.95000 483.009
38.96000 459.185
38.97000 435.999
38.98000 421.305
38.99000 410.835
39.00000 400.514
39.01000 392.056
39.02000 384.160
39.03000 376.743
39.04000 372.905
39.05000 369.799
39.06000 367.172
39.07000 355.708
39.08000 345.132
39.09000 335.834
39.10000 330.743
39.11000 325.984
39.12000 324.556
39.13000 330.724
39.14000 337.187
39.15000 341.157
39.16000 328.382
39.17000 319.078
39.18000 312.797
39.19000 309.707
39.20000 306.622
39.21000 304.192
39.22000 302.220
39.23000 300.289
39.24000 299.692
39.25000 299.737
39.26000 299.856
39.27000 301.088
39.28000 302.692
39.29000 303.949
39.30000 302.257
39.31000 299.893
39.32000 297.854
39.33000 294.462
39.34000 291.414
39.35000 289.480
39.36000 291.616
39.37000 294.126
39.38000 294.663
39.39000 290.225
39.40000 285.546
39.41000 282.553
39.42000 284.938
39.43000 286.745
39.44000 289.794
39.45000 294.311
39.46000 298.820
39.47000 300.421
39.48000 299.752
39.49000 299.092
39.50000 294.936
39.51000 289.096
39.52000 283.473
39.53000 281.746
39.54000 281.457
39.55000 281.288
39.56000 282.293
39.57000 283.597
39.58000 284.741
39.59000 281.976
39.60000 279.033
39.61000 277.072
39.62000 279.095
39.63000 281.542
39.64000 283.105
39.65000 282.207
39.66000 281.163
39.67000 280.470
39.68000 271.098
39.69000 264.007
39.70000 265.285
39.71000 277.620
39.72000 289.994
39.73000 290.596
39.74000 280.923
39.75000 271.349
39.76000 273.316
39.77000 281.909
39.78000 289.912
39.79000 284.985
39.80000 274.776
39.81000 265.662
39.82000 269.001
39.83000 275.852
39.84000 281.959
39.85000 285.663
39.86000 288.487
39.87000 290.301
39.88000 287.547
39.89000 284.236
39.90000 280.812
39.91000 277.037
39.92000 273.237
39.93000 270.622
39.94000 264.543
39.95000 259.895
39.96000 258.368
39.97000 261.432
39.98000 264.537
39.99000 267.896
40.00000 271.503
40.01000 275.087
40.02000 276.682
40.03000 276.970
40.04000 277.242
40.05000 277.113
40.06000 276.801
40.07000 276.248
40.08000 272.466
40.09000 267.674
40.10000 263.339
40.11000 266.994
40.12000 271.709
40.13000 275.517
40.14000 274.749
40.15000 273.346
40.16000 271.419
40.17000 267.705
40.18000 263.841
40.19000 261.094
40.20000 268.913
40.21000 275.207
40.22000 278.404
40.23000 276.547
40.24000 274.618
40.25000 272.578
40.26000 270.416
40.27000 268.260
40.28000 267.810
40.29000 268.595
40.30000 269.364
40.31000 269.549
40.32000 269.444
40.33000 269.584
40.34000 273.623
40.35000 279.012
40.36000 283.955
40.37000 281.531
40.38000 277.814
40.39000 274.331
40.40000 272.171
40.41000 270.218
40.42000 268.110
40.43000 265.411
40.44000 262.654
40.45000 260.633
40.46000 266.699
40.47000 271.711
40.48000 270.599
40.49000 258.406
40.50000 245.986
40.51000 242.346
40.52000 249.521
40.53000 256.713
40.54000 260.666
40.55000 261.982
40.56000 263.213
40.57000 260.304
40.58000 255.107
40.59000 250.350
40.60000 254.052
40.61000 260.992
40.62000 267.438
40.63000 267.876
40.64000 266.842
40.65000 265.893
40.66000 265.487
40.67000 265.176
40.68000 264.154
40.69000 260.134
40.70000 255.779
40.71000 252.493
40.72000 256.108
40.73000 259.282
40.74000 263.247
40.75000 268.798
40.76000 274.392
40.77000 276.320
40.78000 273.212
40.79000 270.075
40.80000 267.322
40.81000 264.921
40.82000 262.540
40.83000 261.600
40.84000 261.542
40.85000 261.314
40.86000 257.036
40.87000 251.044
40.88000 245.415
40.89000 245.726
40.90000 247.596
40.91000 249.697
40.92000 253.463
40.93000 257.558
40.94000 260.526
40.95000 258.191
40.96000 255.179
40.97000 252.846
40.98000 255.663
40.99000 258.207
41.00000 258.173
41.01000 252.427
41.02000 246.473
41.03000 244.658
41.04000 249.160
41.05000 253.729
41.06000 256.038
41.07000 256.713
41.08000 257.163
41.09000 257.455
41.10000 257.639
41.11000 257.721
41.12000 254.708
41.13000 250.246
41.14000 246.010
41.15000 246.226
41.16000 247.757
41.17000 249.252
41.18000 250.448
41.19000 251.578
41.20000 252.339
41.21000 251.153
41.22000 249.684
41.23000 248.518
41.24000 250.699
41.25000 252.692
41.26000 252.891
41.27000 248.694
41.28000 244.297
41.29000 243.482
41.30000 248.733
41.31000 254.084
41.32000 256.943
41.33000 253.678
41.34000 251.454
41.35000 250.571
41.36000 250.705
41.37000 250.867
41.38000 252.117
41.39000 253.932
41.40000 255.671
41.41000 255.945
41.42000 255.710
41.43000 255.617
41.44000 256.868
41.45000 258.449
41.46000 259.202
41.47000 255.062
41.48000 250.120
41.49000 246.103
41.50000 244.092
41.51000 242.619
41.52000 242.423
41.53000 245.687
41.54000 249.145
41.55000 252.653
41.56000 256.258
41.57000 259.864
41.58000 261.892
41.59000 259.580
41.60000 257.960
41.61000 253.470
41.62000 246.556
41.63000 239.764
41.64000 239.627
41.65000 243.307
41.66000 246.863
41.67000 251.035
41.68000 255.201
41.69000 259.165
41.70000 260.928
41.71000 262.089
41.72000 262.510
41.73000 258.015
41.74000 252.614
41.75000 248.128
41.76000 248.310
41.77000 248.913
41.78000 248.390
41.79000 244.492
41.80000 240.367
41.81000 237.162
41.82000 235.864
41.83000 234.624
41.84000 233.894
41.85000 232.708
41.86000 231.869
41.87000 234.526
41.88000 240.496
41.89000 246.404
41.90000 247.229
41.91000 244.824
41.92000 242.481
41.93000 240.929
41.94000 239.780
41.95000 238.671
41.96000 238.067
41.97000 237.616
41.98000 236.944
41.99000 234.599
42.00000 231.909
42.01000 229.631
42.02000 229.849
42.03000 230.311
42.04000 230.760
42.05000 231.165
42.06000 231.566
42.07000 231.881
42.08000 232.001
42.09000 232.112
42.10000 232.181
42.11000 242.859
42.12000 250.618
42.13000 251.500
42.14000 245.059
42.15000 238.664
42.16000 238.686
42.17000 243.243
42.18000 247.710
42.19000 247.654
42.20000 245.488
42.21000 243.676
42.22000 247.197
42.23000 252.511
42.24000 256.687
42.25000 251.068
42.26000 243.197
42.27000 236.402
42.28000 239.710
42.29000 243.817
42.30000 247.355
42.31000 248.797
42.32000 250.045
42.33000 250.861
42.34000 250.579
42.35000 250.242
42.36000 250.026
42.37000 239.794
42.38000 232.199
42.39000 229.656
42.40000 233.139
42.41000 236.624
42.42000 237.376
42.43000 235.976
42.44000 234.596
42.45000 236.688
42.46000 240.528
42.47000 244.120
42.48000 243.211
42.49000 240.628
42.50000 238.665
42.51000 242.849
42.52000 248.605
42.53000 253.661
42.54000 250.169
42.55000 245.912
42.56000 242.508
42.57000 242.592
42.58000 243.050
42.59000 242.964
42.60000 241.349
42.61000 239.642
42.62000 238.505
42.63000 232.987
42.64000 228.819
42.65000 230.129
42.66000 238.734
42.67000 247.366
42.68000 248.594
42.69000 243.306
42.70000 238.070
42.71000 233.870
42.72000 230.363
42.73000 227.062
42.74000 228.345
42.75000 231.515
42.76000 234.734
42.77000 238.530
42.78000 242.489
42.79000 246.022
42.80000 245.345
42.81000 244.053
42.82000 242.228
42.83000 237.979
42.84000 233.432
42.85000 230.287
42.86000 231.501
42.87000 233.027
42.88000 234.080
42.89000 229.470
42.90000 225.863
42.91000 223.986
42.92000 224.670
42.93000 225.378
42.94000 227.528
42.95000 231.101
42.96000 234.652
42.97000 238.810
42.98000 243.307
42.99000 247.548
43.00000 244.641
43.01000 238.483
43.02000 232.647
43.03000 231.172
43.04000 231.070
43.05000 230.978
43.06000 235.963
43.07000 241.316
43.08000 244.947
43.09000 239.818
43.10000 233.461
43.11000 229.351
43.12000 232.973
43.13000 237.246
43.14000 240.292
43.15000 244.383
43.16000 247.535
43.17000 248.257
43.18000 244.983
43.19000 241.650
43.20000 238.351
43.21000 235.088
43.22000 231.836
43.23000 228.476
43.24000 225.064
43.25000 221.802
43.26000 223.996
43.27000 228.933
43.28000 233.554
43.29000 233.080
43.30000 230.830
43.31000 228.765
43.32000 229.855
43.33000 231.499
43.34000 233.400
43.35000 236.757
43.36000 240.346
43.37000 242.036
43.38000 236.469
43.39000 230.193
43.40000 225.580
43.41000 230.685
43.42000 235.029
43.43000 235.820
43.44000 230.135
43.45000 224.314
43.46000 224.684
43.47000 232.740
43.48000 240.806
43.49000 240.091
43.50000 232.213
43.51000 224.538
43.52000 226.966
43.53000 235.022
43.54000 242.558
43.55000 239.961
43.56000 233.457
43.57000 227.411
43.58000 230.054
43.59000 234.523
43.60000 237.774
43.61000 233.188
43.62000 227.205
43.63000 222.928
43.64000 225.896
43.65000 229.682
43.66000 232.544
43.67000 230.434
43.68000 228.531
43.69000 227.761
43.70000 229.274
43.71000 230.853
43.72000 231.147
43.73000 229.662
43.74000 228.166
43.75000 223.864
43.76000 216.995
43.77000 210.255
43.78000 212.889
43.79000 221.310
43.80000 229.485
43.81000 231.728
43.82000 231.442
43.83000 231.173
43.84000 230.550
43.85000 229.885
43.86000 228.779
43.87000 224.469
43.88000 219.518
43.89000 217.120
43.90000 226.820
43.91000 238.080
43.92000 246.820
43.93000 240.661
43.94000 234.866
43.95000 230.294
43.96000 228.451
43.97000 226.709
43.98000 227.219
43.99000 231.194
44.00000 235.207
44.01000 237.243
44.02000 233.355
44.03000 230.749
44.04000 228.134
44.05000 225.511
44.06000 222.917
44.07000 221.230
44.08000 219.969
44.09000 218.771
44.10000 221.736
44.11000 225.730
44.12000 229.654
44.13000 233.005
44.14000 236.227
44.15000 238.635
44.16000 236.722
44.17000 234.176
44.18000 232.151
44.19000 232.439
44.20000 232.836
44.21000 233.430
44.22000 234.510
44.23000 235.612
44.24000 235.906
44.25000 234.821
44.26000 233.712
44.27000 233.117
44.28000 233.189
44.29000 233.246
44.30000 234.748
44.31000 237.354
44.32000 239.912
44.33000 240.540
44.34000 240.160
44.35000 239.796
44.36000 241.214
44.37000 243.139
44.38000 244.716
44.39000 242.985
44.40000 240.433
44.41000 238.952
44.42000 243.848
44.43000 249.798
44.44000 254.641
44.45000 250.577
44.46000 246.507
44.47000 244.969
44.48000 250.339
44.49000 256.100
44.50000 258.770
44.51000 255.598
44.52000 252.287
44.53000 250.418
44.54000 260.525
44.55000 267.574
44.56000 270.791
44.57000 270.741
44.58000 270.751
44.59000 274.107
44.60000 279.395
44.61000 284.509
44.62000 287.260
44.63000 288.966
44.64000 290.436
44.65000 289.311
44.66000 287.472
44.67000 286.540
44.68000 291.702
44.69000 297.997
44.70000 303.232
44.71000 306.667
44.72000 309.334
44.73000 313.197
44.74000 320.670
44.75000 328.389
44.76000 334.599
44.77000 337.651
44.78000 340.605
44.79000 342.352
44.80000 348.986
44.81000 353.702
44.82000 361.629
44.83000 372.621
44.84000 383.572
44.85000 390.916
44.86000 395.949
44.87000 400.852
44.88000 414.300
44.89000 430.727
44.90000 446.185
44.91000 449.164
44.92000 448.326
44.93000 449.053
44.94000 461.691
44.95000 476.806
44.96000 489.628
44.97000 483.113
44.98000 475.460
44.99000 470.738
45.00000 475.816
45.01000 481.682
45.02000 486.176
45.03000 487.496
45.04000 488.690
45.05000 489.427
45.06000 480.216
45.07000 473.506
45.08000 471.946
45.09000 475.916
45.10000 479.847
45.11000 478.066
45.12000 472.217
45.13000 466.481
45.14000 461.043
45.15000 455.946
45.16000 450.947
45.17000 447.440
45.18000 444.439
45.19000 441.046
45.20000 434.248
45.21000 426.660
45.22000 420.102
45.23000 405.292
45.24000 391.640
45.25000 381.013
45.26000 381.608
45.27000 383.257
45.28000 381.428
45.29000 370.706
45.30000 359.540
45.31000 352.356
45.32000 354.023
45.33000 355.363
45.34000 352.886
45.35000 345.818
45.36000 338.750
45.37000 334.259
45.38000 331.813
45.39000 329.402
45.40000 324.658
45.41000 318.823
45.42000 313.177
45.43000 311.020
45.44000 310.169
45.45000 309.102
45.46000 305.864
45.47000 302.067
45.48000 298.728
45.49000 296.515
45.50000 294.778
45.51000 293.026
45.52000 291.216
45.53000 289.399
45.54000 287.109
45.55000 283.480
45.56000 279.770
45.57000 277.292
45.58000 267.059
45.59000 259.325
45.60000 256.949
45.61000 261.765
45.62000 266.612
45.63000 265.363
45.64000 258.706
45.65000 252.112
45.66000 250.557
45.67000 251.991
45.68000 253.351
45.69000 253.025
45.70000 251.999
45.71000 251.023
45.72000 250.619
45.73000 250.379
45.74000 250.165
45.75000 247.844
45.76000 245.468
45.77000 242.783
45.78000 238.681
45.79000 234.402
45.80000 232.590
45.81000 238.496
45.82000 244.960
45.83000 249.431
45.84000 241.988
45.85000 236.082
45.86000 233.124
45.87000 234.567
45.88000 236.052
45.89000 236.580
45.90000 236.153
45.91000 235.729
45.92000 235.308
45.93000 234.894
45.94000 234.447
45.95000 233.047
45.96000 231.210
45.97000 229.369
45.98000 227.471
45.99000 225.555
46.00000 223.818
46.01000 222.223
46.02000 220.843
46.03000 219.169
46.04000 215.991
46.05000 212.601
46.06000 211.700
46.07000 219.435
46.08000 227.906
46.09000 233.957
46.10000 232.673
46.11000 231.450
46.12000 230.842
46.13000 231.255
46.14000 231.683
46.15000 229.489
46.16000 224.360
46.17000 219.245
46.18000 219.724
46.19000 224.306
46.20000 228.647
46.21000 223.981
46.22000 214.751
46.23000 206.255
46.24000 209.716
46.25000 217.377
46.26000 224.417
46.27000 220.644
46.28000 214.951
46.29000 209.950
46.30000 208.933
46.31000 208.553
46.32000 208.223
46.33000 208.087
46.34000 207.970
46.35000 207.883
46.36000 210.994
46.37000 213.534
46.38000 213.294
46.39000 207.952
46.40000 202.499
46.41000 202.110
46.42000 208.055
46.43000 214.013
46.44000 217.318
46.45000 218.431
46.46000 219.437
46.47000 214.996
46.48000 207.499
46.49000 200.384
46.50000 200.837
46.51000 204.229
46.52000 207.384
46.53000 208.496
46.54000 209.007
46.55000 208.765
46.56000 203.653
46.57000 197.665
46.58000 193.530
46.59000 197.330
46.60000 202.034
46.61000 205.597
46.62000 206.822
46.63000 207.665
46.64000 207.309
46.65000 204.519
46.66000 201.658
46.67000 197.936
46.68000 193.012
46.69000 188.081
46.70000 190.839
46.71000 200.697
46.72000 210.418
46.73000 209.883
46.74000 202.968
46.75000 196.350
46.76000 197.014
46.77000 200.805
46.78000 204.372
46.79000 205.070
46.80000 204.930
46.81000 204.583
46.82000 202.726
46.83000 200.564
46.84000 198.960
46.85000 200.022
46.86000 201.431
46.87000 202.526
46.88000 201.881
46.89000 201.261
46.90000 201.172
46.91000 202.277
46.92000 203.428
46.93000 203.423
46.94000 201.630
46.95000 199.816
46.96000 198.892
46.97000 199.151
46.98000 199.334
46.99000 200.586
47.00000 202.578
47.01000 204.573
47.02000 206.682
47.03000 208.843
47.04000 210.899
47.05000 207.008
47.06000 201.603
47.07000 196.207
47.08000 190.893
47.09000 185.598
47.10000 181.280
47.11000 182.187
47.12000 183.865
47.13000 185.203
47.14000 185.477
47.15000 185.621
47.16000 185.257
47.17000 183.632
47.18000 181.948
47.19000 181.854
47.20000 184.494
47.21000 187.182
47.22000 188.629
47.23000 190.726
47.24000 192.159
47.25000 193.400
47.26000 194.493
47.27000 195.637
47.28000 198.880
47.29000 203.225
47.30000 207.395
47.31000 205.090
47.32000 200.733
47.33000 196.209
47.34000 190.094
47.35000 183.580
47.36000 177.999
47.37000 178.020
47.38000 178.975
47.39000 179.753
47.40000 187.637
47.41000 194.688
47.42000 199.326
47.43000 197.333
47.44000 194.959
47.45000 193.452
47.46000 193.595
47.47000 193.778
47.48000 193.881
47.49000 196.812
47.50000 198.858
47.51000 199.382
47.52000 198.598
47.53000 197.776
47.54000 194.655
47.55000 190.198
47.56000 185.885
47.57000 186.273
47.58000 188.429
47.59000 190.453
47.60000 191.026
47.61000 191.196
47.62000 191.968
47.63000 196.826
47.64000 202.448
47.65000 207.130
47.66000 201.679
47.67000 196.159
47.68000 191.506
47.69000 189.489
47.70000 187.654
47.71000 185.739
47.72000 183.657
47.73000 181.569
47.74000 180.330
47.75000 185.553
47.76000 189.286
47.77000 191.182
47.78000 191.311
47.79000 191.445
47.80000 192.105
47.81000 193.104
47.82000 194.077
47.83000 193.104
47.84000 191.348
47.85000 189.583
47.86000 187.702
47.87000 185.784
47.88000 184.278
47.89000 185.936
47.90000 188.257
47.91000 190.229
47.92000 189.342
47.93000 188.271
47.94000 186.784
47.95000 183.896
47.96000 180.893
47.97000 177.905
47.98000 174.950
47.99000 171.996
48.00000 170.166
48.01000 177.837
48.02000 183.446
48.03000 185.796
48.04000 184.619
48.05000 183.444
48.06000 182.885
48.07000 182.766
48.08000 182.650
48.09000 185.108
48.10000 188.696
48.11000 191.863
48.12000 188.510
48.13000 182.932
48.14000 178.058
48.15000 179.369
48.16000 182.126
48.17000 184.511
48.18000 187.461
48.19000 190.043
48.20000 191.941
48.21000 191.287
48.22000 190.390
48.23000 189.556
48.24000 188.882
48.25000 188.216
48.26000 187.786
48.27000 185.020
48.28000 182.966
48.29000 182.115
48.30000 182.724
48.31000 183.338
48.32000 184.285
48.33000 185.499
48.34000 186.696
48.35000 184.485
48.36000 180.530
48.37000 176.773
48.38000 176.725
48.39000 178.076
48.40000 179.322
48.41000 179.506
48.42000 179.413
48.43000 179.332
48.44000 176.002
48.45000 172.649
48.46000 171.134
48.47000 177.253
48.48000 184.209
48.49000 190.155
48.50000 193.225
48.51000 196.118
48.52000 198.056
48.53000 190.994
48.54000 185.576
48.55000 181.503
48.56000 179.249
48.57000 177.007
48.58000 177.898
48.59000 181.590
48.60000 185.247
48.61000 185.862
48.62000 184.665
48.63000 183.721
48.64000 188.607
48.65000 195.926
48.66000 202.436
48.67000 199.424
48.68000 193.666
48.69000 188.517
48.70000 187.492
48.71000 187.299
48.72000 186.612
48.73000 183.635
48.74000 180.370
48.75000 178.866
48.76000 182.910
48.77000 187.361
48.78000 190.447
48.79000 187.856
48.80000 185.756
48.81000 184.419
48.82000 184.230
48.83000 184.053
48.84000 183.218
48.85000 181.723
48.86000 180.236
48.87000 180.824
48.88000 182.778
48.89000 184.623
48.90000 183.343
48.91000 180.620
48.92000 178.126
48.93000 178.792
48.94000 180.469
48.95000 181.990
48.96000 184.613
48.97000 187.141
48.98000 188.687
48.99000 185.164
49.00000 180.917
49.01000 177.401
49.02000 176.437
49.03000 175.692
49.04000 175.159
49.05000 176.428
49.06000 177.457
49.07000 178.871
49.08000 180.927
49.09000 182.993
49.10000 186.498
49.11000 191.626
49.12000 196.739
49.13000 195.007
49.14000 188.219
49.15000 181.487
49.16000 176.880
49.17000 173.357
49.18000 170.213
49.19000 173.334
49.20000 178.671
49.21000 183.579
49.22000 179.427
49.23000 173.751
49.24000 169.454
49.25000 173.159
49.26000 178.152
49.27000 182.306
49.28000 183.199
49.29000 183.766
49.30000 184.184
49.31000 178.648
49.32000 174.108
49.33000 171.813
49.34000 173.671
49.35000 175.621
49.36000 177.564
49.37000 179.500
49.38000 181.433
49.39000 181.301
49.40000 179.455
49.41000 177.634
49.42000 177.137
49.43000 177.387
49.44000 177.715
49.45000 179.598
49.46000 182.089
49.47000 184.409
49.48000 182.595
49.49000 179.947
49.50000 178.390
49.51000 183.974
49.52000 190.852
49.53000 195.418
49.54000 190.003
49.55000 183.441
49.56000 178.460
49.57000 177.368
49.58000 176.711
49.59000 176.490
49.60000 177.165
49.61000 177.865
49.62000 179.522
49.63000 182.521
49.64000 185.529
49.65000 183.699
49.66000 177.365
49.67000 171.074
49.68000 168.175
49.69000 167.402
49.70000 166.847
49.71000 171.747
49.72000 179.006
49.73000 185.843
49.74000 186.694
49.75000 185.835
49.76000 184.557
49.77000 180.177
49.78000 175.168
49.79000 171.789
49.80000 176.258
49.81000 181.759
49.82000 186.044
49.83000 183.445
49.84000 180.948
49.85000 179.397
49.86000 179.986
49.87000 180.658
49.88000 180.102
49.89000 177.629
49.90000 175.134
49.91000 173.857
49.92000 174.475
49.93000 174.909
49.94000 177.751
49.95000 182.270
49.96000 186.613
49.97000 185.360
49.98000 181.430
49.99000 177.691
50.00000 177.011
50.01000 177.320
50.02000 177.596
50.03000 177.590
50.04000 177.520
50.05000 177.698
50.06000 179.211
50.07000 180.923
50.08000 182.290
50.09000 179.924
50.10000 177.739
50.11000 178.174
50.12000 185.162
50.13000 192.463
50.14000 196.835
50.15000 196.135
50.16000 195.345
50.17000 194.918
50.18000 194.236
50.19000 193.757
50.20000 190.092
50.21000 183.957
50.22000 177.997
50.23000 179.397
50.24000 184.693
50.25000 189.779
50.26000 190.780
50.27000 190.317
50.28000 189.980
50.29000 190.872
50.30000 192.074
50.31000 192.957
50.32000 191.907
50.33000 190.533
50.34000 189.411
50.35000 192.722
50.36000 195.814
50.37000 197.419
50.38000 194.908
50.39000 192.157
50.40000 192.210
50.41000 197.643
50.42000 203.209
50.43000 206.373
50.44000 211.134
50.45000 214.451
50.46000 214.878
50.47000 212.800
50.48000 210.807
50.49000 213.866
50.50000 219.886
50.51000 225.714
50.52000 233.074
50.53000 240.620
50.54000 247.693
50.55000 249.446
50.56000 249.711
50.57000 249.774
50.58000 248.465
50.59000 246.896
50.60000 245.587
50.61000 256.745
50.62000 267.245
50.63000 274.966
50.64000 274.175
50.65000 272.790
50.66000 272.672
50.67000 275.243
50.68000 277.902
50.69000 279.485
50.70000 279.148
50.71000 278.898
50.72000 279.310
50.73000 280.366
50.74000 281.355
50.75000 276.259
50.76000 267.205
50.77000 258.377
50.78000 255.921
50.79000 256.306
50.80000 256.411
50.81000 252.830
50.82000 248.106
50.83000 244.257
50.84000 247.197
50.85000 251.570
50.86000 255.291
50.87000 245.877
50.88000 236.451
50.89000 230.601
50.90000 236.881
50.91000 244.159
50.92000 246.227
50.93000 236.069
50.94000 225.404
50.95000 218.775
50.96000 216.753
50.97000 215.343
50.98000 214.639
50.99000 214.705
51.00000 214.763
51.01000 213.418
51.02000 211.059
51.03000 208.744
51.04000 207.854
51.05000 207.679
51.06000 207.663
51.07000 210.154
51.08000 213.506
51.09000 215.887
51.10000 209.655
51.11000 201.395
51.12000 194.238
51.13000 189.271
51.14000 185.334
51.15000 182.081
51.16000 181.401
51.17000 180.967
51.18000 180.704
51.19000 180.882
51.20000 181.083
51.21000 181.213
51.22000 185.180
51.23000 188.138
51.24000 188.883
51.25000 186.925
51.26000 184.961
51.27000 183.156
51.28000 181.478
51.29000 179.823
51.30000 178.147
51.31000 176.506
51.32000 175.030
51.33000 176.672
51.34000 179.499
51.35000 181.982
51.36000 180.946
51.37000 178.990
51.38000 177.266
51.39000 176.812
51.40000 176.612
51.41000 176.423
51.42000 176.279
51.43000 176.141
51.44000 175.974
51.45000 175.726
51.46000 175.473
51.47000 175.303
51.48000 174.626
51.49000 174.113
51.50000 171.364
51.51000 165.566
51.52000 159.755
51.53000 159.035
51.54000 162.906
51.55000 166.743
51.56000 167.671
51.57000 166.847
51.58000 166.117
51.59000 167.562
51.60000 169.921
51.61000 172.184
51.62000 173.308
51.63000 174.099
51.64000 174.808
51.65000 175.656
51.66000 176.420
51.67000 176.666
51.68000 174.494
51.69000 172.016
51.70000 170.016
51.71000 169.534
51.72000 169.164
51.73000 168.907
51.74000 169.525
51.75000 170.014
51.76000 169.216
51.77000 166.466
51.78000 163.696
51.79000 162.732
51.80000 163.595
51.81000 164.454
51.82000 164.015
51.83000 162.715
51.84000 161.493
51.85000 162.574
51.86000 164.726
51.87000 166.537
51.88000 163.571
51.89000 159.067
51.90000 154.976
51.91000 153.020
51.92000 151.706
51.93000 151.379
51.94000 156.197
51.95000 161.756
51.96000 166.901
51.97000 170.588
51.98000 174.148
51.99000 176.703
52.00000 174.213
52.01000 172.135
52.02000 170.333
52.03000 168.994
52.04000 167.661
52.05000 166.164
52.06000 164.480
52.07000 162.800
52.08000 161.302
52.09000 159.951
52.10000 158.620
52.11000 158.088
52.12000 157.967
52.13000 158.011
52.14000 160.808
52.15000 164.585
52.16000 168.063
52.17000 167.783
52.18000 166.709
52.19000 165.479
52.20000 163.334
52.21000 161.040
52.22000 160.080
52.23000 164.335
52.24000 169.116
52.25000 172.652
52.26000 167.248
52.27000 162.674
52.28000 161.344
52.29000 166.058
52.30000 170.908
52.31000 171.576
52.32000 166.927
52.33000 162.265
52.34000 161.441
52.35000 163.830
52.36000 166.139
52.37000 164.107
52.38000 159.604
52.39000 155.455
52.40000 158.524
52.41000 164.438
52.42000 169.949
52.43000 168.893
52.44000 166.324
52.45000 163.858
52.46000 162.079
52.47000 160.426
52.48000 158.793
52.49000 157.245
52.50000 155.707
52.51000 154.538
52.52000 156.120
52.53000 157.507
52.54000 160.341
52.55000 166.158
52.56000 172.065
52.57000 174.079
52.58000 170.583
52.59000 167.047
52.60000 164.093
52.61000 161.687
52.62000 159.314
52.63000 159.660
52.64000 161.722
52.65000 163.677
52.66000 162.928
52.67000 161.001
52.68000 159.184
52.69000 158.071
52.70000 157.247
52.71000 157.083
52.72000 161.862
52.73000 167.653
52.74000 171.695
52.75000 167.255
52.76000 161.691
52.77000 157.348
52.78000 159.354
52.79000 161.352
52.80000 162.653
52.81000 162.364
52.82000 162.014
52.83000 161.800
52.84000 161.801
52.85000 161.805
52.86000 161.807
52.87000 162.774
52.88000 163.399
52.89000 160.583
52.90000 155.354
52.91000 150.264
52.92000 149.708
52.93000 151.336
52.94000 152.886
52.95000 154.698
52.96000 156.458
52.97000 158.154
52.98000 159.313
52.99000 160.350
53.00000 161.671
53.01000 164.538
53.02000 167.637
53.03000 170.115
53.04000 167.340
53.05000 164.707
53.06000 162.669
53.07000 162.132
53.08000 161.668
53.09000 162.171
53.10000 164.362
53.11000 166.584
53.12000 167.790
53.13000 159.548
53.14000 153.900
53.15000 151.094
53.16000 150.511
53.17000 150.040
53.18000 154.468
53.19000 161.507
53.20000 168.271
53.21000 169.213
53.22000 168.081
53.23000 166.723
53.24000 163.132
53.25000 158.975
53.26000 155.609
53.27000 157.071
53.28000 159.352
53.29000 161.217
53.30000 161.441
53.31000 161.482
53.32000 162.078
53.33000 164.223
53.34000 166.459
53.35000 167.625
53.36000 166.723
53.37000 165.768
53.38000 165.224
53.39000 165.746
53.40000 166.111
53.41000 163.770
53.42000 159.066
53.43000 154.466
53.44000 156.188
53.45000 161.645
53.46000 166.930
53.47000 166.431
53.48000 163.725
53.49000 161.319
53.50000 162.322
53.51000 164.287
53.52000 165.347
53.53000 160.174
53.54000 153.814
53.55000 148.502
53.56000 156.223
53.57000 163.949
53.58000 169.641
53.59000 169.056
53.60000 168.026
53.61000 167.178
53.62000 166.718
53.63000 166.270
53.64000 166.003
53.65000 163.958
53.66000 162.496
53.67000 161.671
53.68000 161.468
53.69000 161.263
53.70000 160.701
53.71000 159.907
53.72000 159.132
53.73000 162.350
53.74000 167.149
53.75000 171.172
53.76000 164.833
53.77000 155.254
53.78000 146.901
53.79000 148.149
53.80000 151.440
53.81000 154.243
53.82000 158.636
53.83000 162.516
53.84000 165.426
53.85000 165.024
53.86000 164.346
53.87000 163.031
53.88000 160.213
53.89000 157.331
53.90000 155.535
53.91000 158.347
53.92000 160.422
53.93000 161.800
53.94000 162.412
53.95000 163.003
53.96000 160.150
53.97000 154.787
53.98000 149.522
53.99000 150.135
54.00000 153.559
54.01000 156.707
54.02000 155.471
54.03000 152.717
54.04000 150.381
54.05000 151.783
54.06000 154.071
54.07000 156.057
54.08000 154.638
54.09000 152.974
54.10000 151.826
54.11000 152.636
54.12000 153.636
54.13000 154.787
54.14000 156.329
54.15000 157.892
54.16000 158.906
54.17000 160.923
54.18000 162.414
54.19000 162.123
54.20000 159.636
54.21000 157.154
54.22000 158.892
54.23000 164.059
54.24000 169.158
54.25000 169.983
54.26000 168.485
54.27000 166.867
54.28000 162.948
54.29000 158.146
54.30000 153.774
54.31000 153.835
54.32000 155.066
54.33000 156.152
54.34000 160.641
54.35000 165.032
54.36000 169.015
54.37000 171.273
54.38000 173.340
54.39000 173.406
54.40000 167.693
54.41000 161.616
54.42000 157.525
54.43000 156.128
54.44000 155.145
54.45000 154.048
54.46000 152.794
54.47000 151.541
54.48000 152.943
54.49000 156.760
54.50000 160.543
54.51000 160.916
54.52000 159.231
54.53000 157.722
54.54000 160.381
54.55000 164.804
54.56000 168.573
54.57000 164.472
54.58000 158.068
54.59000 152.328
54.60000 154.237
54.61000 157.228
54.62000 159.457
54.63000 158.101
54.64000 156.287
54.65000 155.336
54.66000 157.144
54.67000 159.160
54.68000 160.564
54.69000 156.942
54.70000 154.071
54.71000 153.632
54.72000 156.908
54.73000 160.223
54.74000 163.097
54.75000 165.519
54.76000 167.928
54.77000 166.369
54.78000 162.161
54.79000 158.027
54.80000 156.129
54.81000 155.277
54.82000 154.500
54.83000 154.780
54.84000 155.402
54.85000 155.967
54.86000 154.274
54.87000 152.335
54.88000 151.245
54.89000 154.625
54.90000 158.653
54.91000 161.845
54.92000 162.073
54.93000 162.041
54.94000 162.017
54.95000 158.427
54.96000 155.554
54.97000 154.097
54.98000 155.038
54.99000 156.018
55.00000 159.719
55.01000 166.538
55.02000 173.342
55.03000 174.990
55.04000 172.747
55.05000 170.487
55.06000 167.498
55.07000 164.133
55.08000 161.150
55.09000 164.633
55.10000 170.438
55.11000 175.786
55.12000 174.501
55.13000 171.887
55.14000 169.761
55.15000 170.515
55.16000 171.741
55.17000 173.023
55.18000 174.525
55.19000 176.049
55.20000 177.178
55.21000 170.612
55.22000 165.179
55.23000 163.724
55.24000 169.731
55.25000 175.911
55.26000 181.067
55.27000 184.912
55.28000 188.748
55.29000 189.815
55.30000 188.545
55.31000 187.291
55.32000 186.934
55.33000 187.093
55.34000 187.319
55.35000 188.942
55.36000 191.118
55.37000 193.149
55.38000 193.088
55.39000 192.514
55.40000 191.820
55.41000 190.323
55.42000 188.679
55.43000 188.455
55.44000 194.456
55.45000 201.187
55.46000 206.315
55.47000 207.299
55.48000 207.854
55.49000 211.813
55.50000 222.839
55.51000 234.084
55.52000 240.578
55.53000 240.294
55.54000 239.959
55.55000 240.591
55.56000 242.137
55.57000 243.777
55.58000 253.131
55.59000 267.391
55.60000 281.243
55.61000 284.595
55.62000 283.339
55.63000 282.154
55.64000 291.760
55.65000 303.564
55.66000 314.646
55.67000 320.278
55.68000 324.786
55.69000 331.665
55.70000 350.141
55.71000 370.169
55.72000 385.826
55.73000 402.231
55.74000 415.372
55.75000 427.265
55.76000 436.295
55.77000 445.211
55.78000 458.224
55.79000 477.731
55.80000 497.320
55.81000 507.424
55.82000 522.698
55.83000 532.969
55.84000 540.554
55.85000 546.239
55.86000 551.904
55.87000 556.866
55.88000 561.486
55.89000 565.888
55.90000 578.556
55.91000 592.871
55.92000 605.532
55.93000 603.950
55.94000 599.092
55.95000 593.673
55.96000 585.183
55.97000 576.228
55.98000 569.055
55.99000 566.660
56.00000 565.082
56.01000 563.849
56.02000 563.494
56.03000 563.182
56.04000 555.189
56.05000 533.697
56.06000 511.954
56.07000 500.114
56.08000 480.855
56.09000 467.645
56.10000 459.120
56.11000 454.283
56.12000 449.359
56.13000 440.550
56.14000 429.655
56.15000 419.181
56.16000 409.834
56.17000 401.470
56.18000 393.138
56.19000 385.128
56.20000 377.202
56.21000 368.896
56.22000 358.261
56.23000 347.227
56.24000 338.189
56.25000 321.590
56.26000 307.316
56.27000 296.216
56.28000 294.034
56.29000 292.385
56.30000 288.942
56.31000 282.006
56.32000 274.980
56.33000 270.959
56.34000 265.355
56.35000 261.436
56.36000 256.906
56.37000 251.838
56.38000 246.786
56.39000 242.689
56.40000 239.161
56.41000 235.742
56.42000 230.315
56.43000 224.395
56.44000 218.907
56.45000 218.386
56.46000 219.276
56.47000 219.392
56.48000 214.120
56.49000 207.815
56.50000 202.540
56.51000 199.991
56.52000 198.153
56.53000 195.761
56.54000 191.651
56.55000 187.418
56.56000 184.188
56.57000 183.116
56.58000 182.116
56.59000 181.518
56.60000 184.274
56.61000 186.254
56.62000 184.229
56.63000 178.250
56.64000 172.329
56.65000 172.060
56.66000 175.523
56.67000 178.904
56.68000 182.082
56.69000 185.034
56.70000 187.354
56.71000 181.148
56.72000 172.256
56.73000 164.848
56.74000 169.166
56.75000 176.000
56.76000 181.829
56.77000 172.901
56.78000 163.647
56.79000 157.484
56.80000 161.969
56.81000 167.349
56.82000 171.067
56.83000 170.825
56.84000 170.412
56.85000 170.155
56.86000 164.854
56.87000 160.976
56.88000 159.244
56.89000 159.893
56.90000 160.560
56.91000 163.891
56.92000 169.179
56.93000 174.372
56.94000 169.811
56.95000 160.668
56.96000 152.198
56.97000 154.550
56.98000 160.675
56.99000 165.848
57.00000 162.416
57.01000 156.926
57.02000 152.157
57.03000 153.865
57.04000 156.196
57.05000 157.551
57.06000 155.178
57.07000 152.441
57.08000 151.231
57.09000 154.041
57.10000 157.063
57.11000 159.029
57.12000 155.219
57.13000 152.337
57.14000 150.007
57.15000 148.363
57.16000 146.717
57.17000 143.525
57.18000 139.068
57.19000 134.667
57.20000 137.427
57.21000 143.998
57.22000 150.218
57.23000 149.600
57.24000 146.344
57.25000 143.059
57.26000 139.458
57.27000 135.774
57.28000 132.519
57.29000 139.990
57.30000 148.091
57.31000 155.288
57.32000 158.646
57.33000 161.570
57.34000 162.344
57.35000 156.854
57.36000 150.964
57.37000 146.989
57.38000 149.289
57.39000 151.134
57.40000 150.616
57.41000 146.827
57.42000 143.019
57.43000 143.204
57.44000 147.048
57.45000 150.859
57.46000 147.667
57.47000 140.292
57.48000 133.303
57.49000 135.653
57.50000 141.985
57.51000 147.756
57.52000 146.713
57.53000 143.659
57.54000 140.919
57.55000 141.331
57.56000 142.240
57.57000 143.439
57.58000 146.009
57.59000 148.755
57.60000 149.790
57.61000 145.310
57.62000 140.410
57.63000 136.989
57.64000 142.348
57.65000 146.641
57.66000 148.982
57.67000 148.321
57.68000 147.627
57.69000 144.847
57.70000 139.918
57.71000 135.014
57.72000 134.436
57.73000 136.796
57.74000 139.121
57.75000 140.356
57.76000 141.079
57.77000 141.777
57.78000 142.123
57.79000 142.354
57.80000 142.565
57.81000 145.052
57.82000 147.704
57.83000 149.681
57.84000 148.084
57.85000 145.963
57.86000 144.918
57.87000 147.716
57.88000 150.857
57.89000 153.120
57.90000 151.805
57.91000 150.671
57.92000 150.317
57.93000 151.295
57.94000 152.295
57.95000 150.680
57.96000 146.043
57.97000 141.414
57.98000 140.696
57.99000 142.951
58.00000 145.084
58.01000 142.299
58.02000 136.948
58.03000 132.094
58.04000 135.772
58.05000 142.534
58.06000 148.770
58.07000 147.800
58.08000 145.327
58.09000 143.668
58.10000 146.856
58.11000 150.845
58.12000 153.655
58.13000 151.786
58.14000 149.435
58.15000 147.690
58.16000 148.832
58.17000 149.847
58.18000 150.187
58.19000 149.250
58.20000 148.284
58.21000 145.785
58.22000 141.310
58.23000 136.831
58.24000 136.339
58.25000 139.238
58.26000 142.123
58.27000 144.207
58.28000 145.830
58.29000 147.256
58.30000 144.583
58.31000 140.270
58.32000 136.244
58.33000 134.852
58.34000 134.249
58.35000 134.091
58.36000 136.918
58.37000 140.301
58.38000 142.964
58.39000 142.450
58.40000 141.559
58.41000 140.879
58.42000 142.073
58.43000 143.115
58.44000 143.311
58.45000 141.740
58.46000 140.114
58.47000 139.392
58.48000 139.968
58.49000 140.554
58.50000 140.891
58.51000 140.990
58.52000 141.073
58.53000 139.815
58.54000 137.697
58.55000 135.542
58.56000 132.416
58.57000 128.861
58.58000 125.505
58.59000 126.928
58.60000 129.573
58.61000 131.978
58.62000 132.556
58.63000 132.754
58.64000 133.411
58.65000 136.337
58.66000 139.569
58.67000 142.100
58.68000 144.025
58.69000 145.524
58.70000 146.187
58.71000 144.916
58.72000 143.568
58.73000 141.157
58.74000 137.048
58.75000 132.918
58.76000 130.779
58.77000 132.960
58.78000 134.437
58.79000 136.544
58.80000 139.100
58.81000 141.608
58.82000 142.499
58.83000 142.599
58.84000 142.694
58.85000 142.468
58.86000 142.156
58.87000 141.389
58.88000 136.655
58.89000 131.001
58.90000 126.897
58.91000 131.348
58.92000 137.107
58.93000 141.728
58.94000 144.389
58.95000 146.396
58.96000 145.936
58.97000 139.170
58.98000 132.089
58.99000 128.243
59.00000 130.126
59.01000 132.119
59.02000 133.207
59.03000 134.910
59.04000 136.082
59.05000 137.802
59.06000 139.957
59.07000 142.068
59.08000 142.161
59.09000 141.163
59.10000 140.203
59.11000 134.752
59.12000 128.065
59.13000 122.607
59.14000 129.466
59.15000 139.500
59.16000 147.800
59.17000 145.327
59.18000 140.997
59.19000 137.444
59.20000 136.283
59.21000 135.543
59.22000 134.134
59.23000 130.835
59.24000 127.420
59.25000 126.872
59.26000 131.943
59.27000 137.161
59.28000 140.158
59.29000 136.075
59.30000 133.197
59.31000 133.612
59.32000 136.950
59.33000 140.272
59.34000 142.555
59.35000 144.215
59.36000 145.825
59.37000 143.600
59.38000 139.986
59.39000 136.580
59.40000 135.596
59.41000 135.306
59.42000 135.271
59.43000 137.026
59.44000 139.128
59.45000 140.889
59.46000 139.582
59.47000 138.178
59.48000 136.863
59.49000 135.825
59.50000 134.808
59.51000 133.829
59.52000 132.932
59.53000 132.039
59.54000 131.502
59.55000 134.570
59.56000 136.775
59.57000 135.547
59.58000 130.899
59.59000 126.280
59.60000 124.651
59.61000 125.012
59.62000 125.364
59.63000 130.084
59.64000 136.517
59.65000 142.407
59.66000 140.890
59.67000 137.023
59.68000 133.598
59.69000 133.707
59.70000 134.580
59.71000 135.325
59.72000 132.150
59.73000 129.009
59.74000 127.899
59.75000 133.837
59.76000 140.374
59.77000 143.466
59.78000 138.298
59.79000 132.770
59.80000 129.303
59.81000 130.505
59.82000 131.425
59.83000 131.234
59.84000 129.800
59.85000 128.380
59.86000 129.663
59.87000 132.946
59.88000 136.171
59.89000 134.209
59.90000 129.773
59.91000 125.695
59.92000 127.439
59.93000 131.228
59.94000 134.433
59.95000 132.310
59.96000 128.903
59.97000 125.939
59.98000 130.024
59.99000 134.470
60.00000 137.466
60.01000 134.882
60.02000 131.746
60.03000 130.039
60.04000 132.122
60.05000 134.408
60.06000 135.899
60.07000 131.058
60.08000 127.404
60.09000 125.959
60.10000 127.275
60.11000 128.603
60.12000 131.200
60.13000 134.847
60.14000 138.448
60.15000 136.605
60.16000 131.832
60.17000 127.246
60.18000 126.345
60.19000 126.876
60.20000 127.359
60.21000 127.351
60.22000 127.212
60.23000 127.088
60.24000 128.943
60.25000 130.853
60.26000 132.546
60.27000 133.310
60.28000 133.968
60.29000 135.120
60.30000 137.720
60.31000 140.414
60.32000 142.237
60.33000 138.458
60.34000 135.521
60.35000 133.654
60.36000 133.279
60.37000 132.914
60.38000 133.593
60.39000 135.236
60.40000 136.866
60.41000 136.459
60.42000 134.815
60.43000 133.240
60.44000 133.356
60.45000 134.198
60.46000 135.124
60.47000 137.078
60.48000 139.338
60.49000 141.368
60.50000 135.893
60.51000 129.781
60.52000 124.876
60.53000 125.737
60.54000 127.348
60.55000 128.330
60.56000 127.269
60.57000 126.051
60.58000 125.199
60.59000 128.165
60.60000 130.517
60.61000 131.730
60.62000 131.180
60.63000 130.610
60.64000 133.371
60.65000 139.594
60.66000 145.788
60.67000 145.448
60.68000 140.651
60.69000 135.935
60.70000 133.753
60.71000 132.775
60.72000 132.102
60.73000 135.860
60.74000 141.075
60.75000 145.827
60.76000 142.296
60.77000 137.519
60.78000 133.693
60.79000 134.951
60.80000 136.961
60.81000 137.908
60.82000 135.031
60.83000 131.811
60.84000 129.484
60.85000 130.525
60.86000 131.445
60.87000 131.868
60.88000 131.435
60.89000 130.988
60.90000 130.839
60.91000 131.036
60.92000 131.233
60.93000 129.982
60.94000 127.632
60.95000 125.360
60.96000 126.347
60.97000 129.048
60.98000 131.666
60.99000 132.852
61.00000 133.516
61.01000 134.129
61.02000 133.594
61.03000 132.855
61.04000 132.333
61.05000 133.107
61.06000 134.097
61.07000 134.995
61.08000 135.531
61.09000 136.028
61.10000 136.398
61.11000 133.692
61.12000 131.449
61.13000 130.899
61.14000 133.572
61.15000 136.322
61.16000 138.582
61.17000 140.204
61.18000 141.822
61.19000 142.616
61.20000 142.701
61.21000 142.800
61.22000 143.699
61.23000 145.063
61.24000 146.395
61.25000 147.033
61.26000 147.393
61.27000 147.729
61.28000 145.228
61.29000 142.243
61.30000 139.741
61.31000 140.507
61.32000 141.885
61.33000 142.839
61.34000 141.906
61.35000 140.747
61.36000 139.860
61.37000 132.939
61.38000 127.152
61.39000 126.005
61.40000 134.634
61.41000 143.576
61.42000 149.798
61.43000 152.078
61.44000 154.327
61.45000 155.397
61.46000 155.332
61.47000 155.277
61.48000 156.119
61.49000 157.540
61.50000 159.382
61.51000 172.445
61.52000 190.504
61.53000 207.563
61.54000 221.227
61.55000 232.808
61.56000 245.141
61.57000 263.258
61.58000 282.587
61.59000 300.788
61.60000 313.388
61.61000 325.225
61.62000 334.512
61.63000 342.023
61.64000 347.915
61.65000 354.513
61.66000 362.760
61.67000 371.073
61.68000 374.847
61.69000 371.318
61.70000 367.691
61.71000 365.805
61.72000 364.697
61.73000 363.922
61.74000 359.110
61.75000 351.401
61.76000 343.391
61.77000 325.021
61.78000 301.549
61.79000 279.157
61.80000 258.970
61.81000 240.930
61.82000 223.310
61.83000 209.372
61.84000 196.295
61.85000 184.918
61.86000 183.010
61.87000 182.563
61.88000 182.204
61.89000 173.793
61.90000 166.355
61.91000 160.481
61.92000 158.634
61.93000 156.991
61.94000 154.286
61.95000 149.687
61.96000 145.051
61.97000 142.507
61.98000 149.389
61.99000 154.127
62.00000 155.082
62.01000 153.013
62.02000 150.978
62.03000 150.570
62.04000 151.050
62.05000 151.511
62.06000 150.348
62.07000 148.683
62.08000 147.192
62.09000 147.464
62.10000 148.194
62.11000 148.489
62.12000 146.058
62.13000 143.153
62.14000 140.766
62.15000 142.729
62.16000 144.732
62.17000 146.165
62.18000 145.975
62.19000 145.685
62.20000 145.292
62.21000 144.697
62.22000 144.096
62.23000 143.749
62.24000 141.263
62.25000 139.514
62.26000 139.140
62.27000 139.993
62.28000 140.847
62.29000 141.762
62.30000 142.714
62.31000 143.637
62.32000 144.091
62.33000 144.336
62.34000 144.847
62.35000 148.488
62.36000 153.031
62.37000 156.542
62.38000 152.739
62.39000 147.511
62.40000 143.124
62.41000 142.881
62.42000 143.111
62.43000 143.707
62.44000 145.458
62.45000 147.293
62.46000 149.191
62.47000 151.225
62.48000 153.263
62.49000 154.492
62.50000 156.392
62.51000 157.749
62.52000 156.082
62.53000 151.378
62.54000 146.707
62.55000 145.463
62.56000 146.518
62.57000 147.548
62.58000 145.262
62.59000 141.607
62.60000 138.377
62.61000 141.028
62.62000 145.558
62.63000 149.584
62.64000 149.553
62.65000 148.638
62.66000 147.855
62.67000 150.061
62.68000 152.280
62.69000 154.314
62.70000 155.698
62.71000 157.026
62.72000 156.583
62.73000 151.867
62.74000 146.961
62.75000 143.876
62.76000 138.315
62.77000 134.265
62.78000 136.142
62.79000 144.705
62.80000 153.233
62.81000 153.876
62.82000 148.641
62.83000 143.495
62.84000 145.031
62.85000 149.814
62.86000 154.344
62.87000 154.691
62.88000 153.559
62.89000 152.263
62.90000 149.448
62.91000 146.264
62.92000 143.491
62.93000 148.963
62.94000 154.770
62.95000 158.711
62.96000 155.407
62.97000 151.379
62.98000 148.428
62.99000 148.353
63.00000 148.436
63.01000 148.489
63.02000 145.130
63.03000 142.607
63.04000 141.349
63.05000 141.688
63.06000 142.036
63.07000 144.267
63.08000 148.065
63.09000 151.817
63.10000 151.349
63.11000 148.568
63.12000 145.869
63.13000 144.825
63.14000 144.428
63.15000 144.043
63.16000 143.783
63.17000 143.557
63.18000 143.356
63.19000 143.260
63.20000 143.194
63.21000 143.244
63.22000 143.798
63.23000 144.411
63.24000 145.912
63.25000 150.039
63.26000 154.338
63.27000 157.254
63.28000 149.993
63.29000 144.353
63.30000 141.730
63.31000 143.346
63.32000 144.993
63.33000 149.781
63.34000 157.495
63.35000 165.148
63.36000 165.642
63.37000 161.718
63.38000 157.746
63.39000 152.543
63.40000 146.808
63.41000 141.695
63.42000 144.315
63.43000 149.250
63.44000 153.686
63.45000 152.816
63.46000 151.111
63.47000 148.985
63.48000 144.829
63.49000 140.407
63.50000 138.122
63.51000 142.825
63.52000 148.073
63.53000 151.754
63.54000 155.512
63.55000 158.359
63.56000 160.651
63.57000 162.078
63.58000 163.495
63.59000 162.125
63.60000 157.837
63.61000 153.567
63.62000 154.457
63.63000 158.890
63.64000 163.228
63.65000 164.552
63.66000 164.435
63.67000 164.033
63.68000 159.451
63.69000 153.482
63.70000 148.040
63.71000 150.374
63.72000 154.005
63.73000 157.247
63.74000 158.385
63.75000 159.210
63.76000 159.817
63.77000 159.634
63.78000 159.379
63.79000 159.195
63.80000 156.285
63.81000 153.951
63.82000 153.137
63.83000 154.956
63.84000 156.822
63.85000 155.831
63.86000 151.488
63.87000 147.148
63.88000 149.920
63.89000 158.157
63.90000 166.198
63.91000 165.872
63.92000 161.118
63.93000 156.512
63.94000 154.526
63.95000 153.501
63.96000 152.554
63.97000 153.199
63.98000 154.138
63.99000 155.574
64.00000 160.019
64.01000 164.971
64.02000 168.737
64.03000 167.731
64.04000 166.223
64.05000 165.099
64.06000 165.002
64.07000 164.974
64.08000 163.984
64.09000 161.151
64.10000 158.272
64.11000 159.529
64.12000 166.209
64.13000 172.909
64.14000 173.631
64.15000 169.184
64.16000 164.779
64.17000 162.882
64.18000 162.455
64.19000 162.016
64.20000 161.300
64.21000 160.470
64.22000 159.695
64.23000 162.372
64.24000 165.680
64.25000 168.853
64.26000 171.095
64.27000 173.162
64.28000 174.537
64.29000 172.811
64.30000 170.711
64.31000 169.102
64.32000 168.190
64.33000 167.508
64.34000 166.554
64.35000 165.022
64.36000 163.471
64.37000 162.107
64.38000 161.019
64.39000 159.932
64.40000 162.326
64.41000 168.100
64.42000 173.816
64.43000 174.275
64.44000 171.314
64.45000 168.517
64.46000 170.188
64.47000 173.861
64.48000 177.333
64.49000 174.716
64.50000 170.574
64.51000 166.698
64.52000 164.878
64.53000 163.493
64.54000 162.949
64.55000 166.624
64.56000 170.880
64.57000 174.225
64.58000 176.677
64.59000 178.582
64.60000 180.361
64.61000 181.843
64.62000 183.312
64.63000 184.393
64.64000 184.842
64.65000 185.282
64.66000 185.512
64.67000 181.142
64.68000 178.186
64.69000 175.524
64.70000 173.074
64.71000 170.656
64.72000 169.331
64.73000 168.550
64.74000 167.805
64.75000 171.247
64.76000 175.781
64.77000 180.130
64.78000 182.843
64.79000 185.170
64.80000 186.950
64.81000 185.664
64.82000 183.899
64.83000 182.479
64.84000 184.642
64.85000 186.677
64.86000 189.365
64.87000 193.748
64.88000 198.218
64.89000 200.363
64.90000 198.331
64.91000 196.215
64.92000 195.050
64.93000 202.511
64.94000 207.649
64.95000 206.756
64.96000 201.003
64.97000 195.404
64.98000 197.131
64.99000 202.879
65.00000 208.415
65.01000 209.505
65.02000 208.941
65.03000 208.150
65.04000 205.032
65.05000 201.304
65.06000 198.664
65.07000 202.894
65.08000 208.330
65.09000 212.803
65.10000 211.517
65.11000 209.936
65.12000 212.116
65.13000 225.088
65.14000 238.732
65.15000 245.867
65.16000 240.059
65.17000 233.895
65.18000 230.332
65.19000 232.836
65.20000 234.616
65.21000 237.704
65.22000 241.971
65.23000 246.264
65.24000 252.350
65.25000 259.527
65.26000 266.494
65.27000 272.119
65.28000 276.921
65.29000 281.906
65.30000 289.064
65.31000 296.853
65.32000 304.891
65.33000 314.703
65.34000 324.864
65.35000 333.401
65.36000 333.962
65.37000 333.587
65.38000 333.984
65.39000 336.828
65.40000 339.854
65.41000 341.840
65.42000 341.535
65.43000 341.149
65.44000 340.915
65.45000 365.762
65.46000 383.652
65.47000 397.641
65.48000 407.677
65.49000 417.657
65.50000 421.607
65.51000 421.485
65.52000 421.365
65.53000 426.656
65.54000 434.136
65.55000 441.285
65.56000 443.788
65.57000 444.796
65.58000 446.372
65.59000 452.569
65.60000 459.781
65.61000 465.958
65.62000 476.186
65.63000 485.311
65.64000 498.406
65.65000 525.483
65.66000 553.777
65.67000 583.861
65.68000 618.298
65.69000 652.931
65.70000 674.778
65.71000 783.997
65.72000 864.094
65.73000 942.103
65.74000 1017.737
65.75000 1093.321
65.76000 1159.148
65.77000 1217.642
65.78000 1275.160
65.79000 1329.564
65.80000 1380.636
65.81000 1430.980
65.82000 1469.164
65.83000 1503.014
65.84000 1534.263
65.85000 1541.272
65.86000 1542.351
65.87000 1543.291
65.88000 1557.626
65.89000 1571.741
65.90000 1575.804
65.91000 1540.571
65.92000 1501.368
65.93000 1456.161
65.94000 1394.805
65.95000 1332.557
65.96000 1291.736
65.97000 1156.218
65.98000 1054.981
65.99000 957.993
66.00000 866.404
66.01000 774.866
66.02000 700.011
66.03000 639.149
66.04000 579.002
66.05000 540.075
66.06000 513.889
66.07000 487.644
66.08000 460.196
66.09000 432.275
66.10000 405.475
66.11000 390.756
66.12000 379.321
66.13000 369.185
66.14000 366.857
66.15000 366.077
66.16000 365.335
66.17000 364.760
66.18000 364.205
66.19000 364.521
66.20000 367.431
66.21000 370.513
66.22000 372.608
66.23000 384.585
66.24000 393.749
66.25000 402.144
66.26000 409.449
66.27000 416.748
66.28000 428.755
66.29000 445.187
66.30000 461.494
66.31000 478.456
66.32000 495.538
66.33000 512.501
66.34000 526.492
66.35000 539.186
66.36000 551.532
66.37000 559.500
66.38000 566.147
66.39000 572.130
66.40000 582.263
66.41000 591.890
66.42000 599.163
66.43000 595.019
66.44000 589.361
66.45000 582.210
66.46000 570.141
66.47000 557.686
66.48000 548.929
66.49000 543.585
66.50000 539.637
66.51000 528.135
66.52000 504.749
66.53000 481.219
66.54000 459.570
66.55000 439.911
66.56000 420.338
66.57000 410.875
66.58000 408.528
66.59000 406.186
66.60000 404.049
66.61000 402.009
66.62000 399.578
66.63000 391.316
66.64000 381.108
66.65000 371.790
66.66000 369.309
66.67000 368.494
66.68000 367.047
66.69000 362.171
66.70000 356.780
66.71000 352.997
66.72000 355.089
66.73000 357.721
66.74000 359.630
66.75000 366.147
66.76000 371.328
66.77000 375.840
66.78000 379.187
66.79000 382.512
66.80000 379.667
66.81000 369.519
66.82000 359.379
66.83000 360.348
66.84000 369.946
66.85000 379.399
66.86000 382.557
66.87000 382.359
66.88000 382.310
66.89000 384.919
66.90000 388.509
66.91000 391.829
66.92000 389.218
66.93000 385.518
66.94000 382.159
66.95000 380.877
66.96000 379.947
66.97000 380.892
66.98000 389.452
66.99000 398.821
67.00000 405.820
67.01000 407.835
67.02000 409.175
67.03000 410.200
67.04000 410.612
67.05000 411.010
67.06000 412.021
67.07000 413.842
67.08000 415.666
67.09000 417.740
67.10000 420.029
67.11000 422.228
67.12000 418.936
67.13000 412.401
67.14000 406.430
67.15000 412.855
67.16000 424.344
67.17000 435.095
67.18000 430.220
67.19000 421.783
67.20000 414.797
67.21000 417.819
67.22000 422.746
67.23000 427.031
67.24000 428.414
67.25000 429.444
67.26000 430.235
67.27000 435.718
67.28000 440.314
67.29000 441.072
67.30000 433.626
67.31000 425.908
67.32000 430.586
67.33000 453.494
67.34000 476.565
67.35000 485.994
67.36000 482.061
67.37000 478.186
67.38000 479.769
67.39000 484.930
67.40000 489.721
67.41000 484.314
67.42000 474.302
67.43000 464.831
67.44000 473.091
67.45000 485.782
67.46000 496.605
67.47000 492.801
67.48000 485.882
67.49000 480.990
67.50000 486.332
67.51000 493.095
67.52000 498.419
67.53000 498.138
67.54000 497.538
67.55000 498.456
67.56000 502.961
67.57000 507.618
67.58000 512.151
67.59000 516.480
67.60000 520.807
67.61000 523.075
67.62000 525.820
67.63000 527.660
67.64000 526.259
67.65000 522.496
67.66000 518.898
67.67000 521.198
67.68000 526.443
67.69000 531.455
67.70000 535.406
67.71000 538.738
67.72000 542.165
67.73000 546.440
67.74000 550.917
67.75000 554.974
67.76000 556.652
67.77000 557.957
67.78000 559.009
67.79000 568.783
67.80000 577.408
67.81000 583.436
67.82000 582.677
67.83000 581.564
67.84000 582.502
67.85000 587.152
67.86000 591.878
67.87000 594.489
67.88000 589.407
67.89000 585.901
67.90000 587.559
67.91000 593.413
67.92000 599.071
67.93000 595.195
67.94000 586.047
67.95000 577.231
67.96000 587.296
67.97000 603.549
67.98000 618.941
67.99000 625.443
68.00000 629.599
68.01000 633.065
68.02000 632.133
68.03000 630.423
68.04000 629.014
68.05000 641.121
68.06000 652.327
68.07000 661.037
68.08000 662.531
68.09000 663.569
68.10000 664.445
68.11000 664.997
68.12000 665.539
68.13000 665.854
68.14000 668.495
68.15000 670.359
68.16000 673.811
68.17000 678.706
68.18000 683.499
68.19000 681.028
68.20000 674.105
68.21000 667.381
68.22000 683.770
68.23000 708.626
68.24000 732.250
68.25000 741.075
68.26000 745.566
68.27000 750.306
68.28000 756.831
68.29000 763.710
68.30000 769.498
68.31000 775.359
68.32000 780.255
68.33000 786.494
68.34000 797.034
68.35000 807.896
68.36000 818.484
68.37000 828.464
68.38000 838.422
68.39000 844.464
68.40000 855.841
68.41000 864.000
68.42000 874.269
68.43000 886.695
68.44000 899.076
68.45000 906.332
68.46000 910.100
68.47000 913.785
68.48000 928.006
68.49000 946.374
68.50000 965.805
68.51000 1000.300
68.52000 1039.679
68.53000 1075.462
68.54000 1081.713
68.55000 1081.428
68.56000 1081.184
68.57000 1122.838
68.58000 1163.163
68.59000 1211.416
68.60000 1287.787
68.61000 1366.634
68.62000 1436.068
68.63000 1482.444
68.64000 1527.767
68.65000 1556.439
68.66000 1679.058
68.67000 1769.065
68.68000 1852.643
68.69000 1928.850
68.70000 2005.058
68.71000 2083.134
68.72000 2162.626
68.73000 2240.821
68.74000 2331.185
68.75000 2424.744
68.76000 2519.103
68.77000 2627.026
68.78000 2739.817
68.79000 2856.518
68.80000 3010.031
68.81000 3172.618
68.82000 3314.545
68.83000 3582.492
68.84000 3829.432
68.85000 4104.650
68.86000 4491.249
68.87000 4889.220
68.88000 5374.163
68.89000 6094.711
68.90000 6828.444
68.91000 7310.911
68.92000 9988.506
68.93000 11997.183
68.94000 14968.439
68.95000 19172.744
68.96000 23383.781
68.97000 28837.189
68.98000 35340.984
68.99000 41770.582
69.00000 48866.816
69.01000 56166.613
69.02000 63400.461
69.03000 69272.641
69.04000 74604.297
69.05000 79756.227
69.06000 82950.672
69.07000 85609.031
69.08000 87968.102
69.09000 89009.188
69.10000 89700.867
69.11000 90426.359
69.12000 91300.063
69.13000 92191.164
69.14000 93084.016
69.15000 93982.141
69.16000 94880.617
69.17000 95493.031
69.18000 94804.656
69.19000 94260.188
69.20000 92597.172
69.21000 89338.266
69.22000 86067.109
69.23000 81954.758
69.24000 77045.422
69.25000 72172.297
69.26000 67713.133
69.27000 63586.461
69.28000 59497.707
69.29000 56385.332
69.30000 53701.492
69.31000 51088.328
69.32000 49375.063
69.33000 47935.102
69.34000 46637.664
69.35000 45197.141
69.36000 43907.418
69.37000 42454.152
69.38000 40200.949
69.39000 37840.672
69.40000 35223.141
69.41000 31751.680
69.42000 28212.289
69.43000 25717.762
69.44000 21189.455
69.45000 17694.174
69.46000 14653.063
69.47000 12331.851
69.48000 10019.703
69.49000 8174.588
69.50000 6826.941
69.51000 5485.103
69.52000 4567.083
69.53000 3954.856
69.54000 3349.664
69.55000 2977.290
69.56000 2717.921
69.57000 2465.030
69.58000 2309.817
69.59000 2187.457
69.60000 2075.649
69.61000 1968.250
69.62000 1873.766
69.63000 1779.452
69.64000 1686.075
69.65000 1592.841
69.66000 1510.250
69.67000 1466.842
69.68000 1427.074
69.69000 1398.160
69.70000 1355.247
69.71000 1321.702
69.72000 1287.180
69.73000 1250.941
69.74000 1214.670
69.75000 1186.390
69.76000 1167.645
69.77000 1148.955
69.78000 1125.843
69.79000 1099.381
69.80000 1072.915
69.81000 1046.198
69.82000 1019.347
69.83000 993.273
69.84000 981.296
69.85000 974.565
69.86000 968.335
69.87000 960.878
69.88000 953.894
69.89000 945.926
69.90000 931.907
69.91000 916.854
69.92000 901.922
69.93000 887.486
69.94000 873.104
69.95000 862.338
69.96000 856.448
69.97000 852.079
69.98000 845.829
69.99000 835.916
70.00000 825.909
