20.00000 567.019
20.01000 569.046
20.02000 571.362
20.03000 573.724
20.04000 576.264
20.05000 578.824
20.06000 580.728
20.07000 581.135
20.08000 581.385
20.09000 581.924
20.10000 583.015
20.11000 584.119
20.12000 584.047
20.13000 582.445
20.14000 580.838
20.15000 579.185
20.16000 577.498
20.17000 575.715
20.18000 568.383
20.19000 557.822
20.20000 547.855
20.21000 550.496
20.22000 558.212
20.23000 565.422
20.24000 571.781
20.25000 577.335
20.26000 582.087
20.27000 581.407
20.28000 579.711
20.29000 577.631
20.30000 573.847
20.31000 569.860
20.32000 566.811
20.33000 561.932
20.34000 557.983
20.35000 557.299
20.36000 563.491
20.37000 569.903
20.38000 567.393
20.39000 551.965
20.40000 536.431
20.41000 534.138
20.42000 544.592
20.43000 554.929
20.44000 554.920
20.45000 548.234
20.46000 541.955
20.47000 546.520
20.48000 555.911
20.49000 564.781
20.50000 559.097
20.51000 549.764
20.52000 542.070
20.53000 546.968
20.54000 554.502
20.55000 560.886
20.56000 561.556
20.57000 561.448
20.58000 561.364
20.59000 559.036
20.60000 557.029
20.61000 556.878
20.62000 561.049
20.63000 565.396
20.64000 567.993
20.65000 567.775
20.66000 567.518
20.67000 567.385
20.68000 563.240
20.69000 560.443
20.70000 558.249
20.71000 556.488
20.72000 554.826
20.73000 556.588
20.74000 560.036
20.75000 563.326
20.76000 569.227
20.77000 575.531
20.78000 580.206
20.79000 570.588
20.80000 557.632
20.81000 546.197
20.82000 543.230
20.83000 541.569
20.84000 540.235
20.85000 547.859
20.86000 554.728
20.87000 561.935
20.88000 570.018
20.89000 578.144
20.90000 580.581
20.91000 572.876
20.92000 564.971
20.93000 560.636
20.94000 569.673
20.95000 575.889
20.96000 574.988
20.97000 568.398
20.98000 561.855
20.99000 557.470
21.00000 554.260
21.01000 551.171
21.02000 555.677
21.03000 562.596
21.04000 568.850
21.05000 568.393
21.06000 566.192
21.07000 565.024
21.08000 570.319
21.09000 576.737
21.10000 582.010
21.11000 562.620
21.12000 544.474
21.13000 531.911
21.14000 535.250
21.15000 539.566
21.16000 545.003
21.17000 552.650
21.18000 560.358
21.19000 564.798
21.20000 557.813
21.21000 552.882
21.22000 551.263
21.23000 552.606
21.24000 553.844
21.25000 548.152
21.26000 538.276
21.27000 528.694
21.28000 534.160
21.29000 545.295
21.30000 555.451
21.31000 554.108
21.32000 549.449
21.33000 545.208
21.34000 543.926
21.35000 543.222
21.36000 542.631
21.37000 551.005
21.38000 558.910
21.39000 562.976
21.40000 554.943
21.41000 546.024
21.42000 539.786
21.43000 539.405
21.44000 539.230
21.45000 539.124
21.46000 543.747
21.47000 547.071
21.48000 552.354
21.49000 559.604
21.50000 566.726
21.51000 560.482
21.52000 545.283
21.53000 530.433
21.54000 542.847
21.55000 566.779
21.56000 588.344
21.57000 577.185
21.58000 555.572
21.59000 536.782
21.60000 540.736
21.61000 549.643
21.62000 557.261
21.63000 558.492
21.64000 558.762
21.65000 560.676
21.66000 568.333
21.67000 576.484
21.68000 581.750
21.69000 580.050
21.70000 578.042
21.71000 576.780
21.72000 567.824
21.73000 561.261
21.74000 558.997
21.75000 561.582
21.76000 564.160
21.77000 564.497
21.78000 563.165
21.79000 561.856
21.80000 567.641
21.81000 576.733
21.82000 585.301
21.83000 585.235
21.84000 582.115
21.85000 581.262
21.86000 601.311
21.87000 626.433
21.88000 648.308
21.89000 634.894
21.90000 618.583
21.91000 608.505
21.92000 622.604
21.93000 639.120
21.94000 657.114
21.95000 679.056
21.96000 701.212
21.97000 715.701
21.98000 709.947
21.99000 705.392
22.00000 704.313
22.01000 707.613
22.02000 710.933
22.03000 716.130
22.04000 722.889
22.05000 729.567
22.06000 732.006
22.07000 732.049
22.08000 732.265
22.09000 735.948
22.10000 740.987
22.11000 745.157
22.12000 740.070
22.13000 732.487
22.14000 725.773
22.15000 724.182
22.16000 723.609
22.17000 720.799
22.18000 708.334
22.19000 694.758
22.20000 685.375
22.21000 688.375
22.22000 692.185
22.23000 694.769
22.24000 683.694
22.25000 675.133
22.26000 669.526
22.27000 668.070
22.28000 666.641
22.29000 663.438
22.30000 658.580
22.31000 653.761
22.32000 655.046
22.33000 660.064
22.34000 664.388
22.35000 651.442
22.36000 631.026
22.37000 612.125
22.38000 612.051
22.39000 617.610
22.40000 622.608
22.41000 615.460
22.42000 607.042
22.43000 598.266
22.44000 587.772
22.45000 577.053
22.46000 567.369
22.47000 561.070
22.48000 555.035
22.49000 550.801
22.50000 556.554
22.51000 561.197
22.52000 564.600
22.53000 566.068
22.54000 567.513
22.55000 565.484
22.56000 559.816
22.57000 554.174
22.58000 553.944
22.59000 557.440
22.60000 560.738
22.61000 557.713
22.62000 551.662
22.63000 545.992
22.64000 545.908
22.65000 547.675
22.66000 549.286
22.67000 548.663
22.68000 547.662
22.69000 545.725
22.70000 538.749
22.71000 531.022
22.72000 526.252
22.73000 532.199
22.74000 539.119
22.75000 544.129
22.76000 531.902
22.77000 521.882
22.78000 514.211
22.79000 510.604
22.80000 507.069
22.81000 506.424
22.82000 509.170
22.83000 511.915
22.84000 514.878
22.85000 517.993
22.86000 520.979
22.87000 518.519
22.88000 513.177
22.89000 508.432
22.90000 514.223
22.91000 523.876
22.92000 532.796
22.93000 535.226
22.94000 535.940
22.95000 535.420
22.96000 527.436
22.97000 518.198
22.98000 511.781
22.99000 516.728
23.00000 522.871
23.01000 527.450
23.02000 521.147
23.03000 515.745
23.04000 514.862
23.05000 522.647
23.06000 530.645
23.07000 534.090
23.08000 531.566
23.09000 529.018
23.10000 530.459
23.11000 535.347
23.12000 540.000
23.13000 530.702
23.14000 513.227
23.15000 496.301
23.16000 491.204
23.17000 490.904
23.18000 490.623
23.19000 498.477
23.20000 507.677
23.21000 515.760
23.22000 516.207
23.23000 515.214
23.24000 514.177
23.25000 512.944
23.26000 511.688
23.27000 510.725
23.28000 514.480
23.29000 517.705
23.30000 519.791
23.31000 519.461
23.32000 519.052
23.33000 519.201
23.34000 520.164
23.35000 521.135
23.36000 518.222
23.37000 511.540
23.38000 504.890
23.39000 501.219
23.40000 499.484
23.41000 497.739
23.42000 495.725
23.43000 493.589
23.44000 491.570
23.45000 503.035
23.46000 517.410
23.47000 529.414
23.48000 523.030
23.49000 512.765
23.50000 503.797
23.51000 501.326
23.52000 499.749
23.53000 498.510
23.54000 507.262
23.55000 514.925
23.56000 520.062
23.57000 519.272
23.58000 518.235
23.59000 515.876
23.60000 511.375
23.61000 506.844
23.62000 504.479
23.63000 502.181
23.64000 500.649
23.65000 502.616
23.66000 507.112
23.67000 511.566
23.68000 514.551
23.69000 516.808
23.70000 518.963
23.71000 519.174
23.72000 518.749
23.73000 517.903
23.74000 513.327
23.75000 507.872
23.76000 504.502
23.77000 512.825
23.78000 522.969
23.79000 531.133
23.80000 526.896
23.81000 522.495
23.82000 520.516
23.83000 524.823
23.84000 529.452
23.85000 530.787
23.86000 526.204
23.87000 521.502
23.88000 518.914
23.89000 525.806
23.90000 530.555
23.91000 530.672
23.92000 527.054
23.93000 523.539
23.94000 524.874
23.95000 528.872
23.96000 532.722
23.97000 533.437
23.98000 532.990
23.99000 532.750
24.00000 534.635
24.01000 537.076
24.02000 538.358
24.03000 532.324
24.04000 525.007
24.05000 518.987
24.06000 517.259
24.07000 516.229
24.08000 514.362
24.09000 510.093
24.10000 505.674
24.11000 506.025
24.12000 515.856
24.13000 525.946
24.14000 531.780
24.15000 527.385
24.16000 524.264
24.17000 521.180
24.18000 518.130
24.19000 515.114
24.20000 514.460
24.21000 515.242
24.22000 516.002
24.23000 517.297
24.24000 518.738
24.25000 519.789
24.26000 516.194
24.27000 511.250
24.28000 506.510
24.29000 503.231
24.30000 500.238
24.31000 497.724
24.32000 494.605
24.33000 491.943
24.34000 490.321
24.35000 491.998
24.36000 493.920
24.37000 495.598
24.38000 496.737
24.39000 497.857
24.40000 498.534
24.41000 493.602
24.42000 490.046
24.43000 485.518
24.44000 480.005
24.45000 474.557
24.46000 476.130
24.47000 482.443
24.48000 488.613
24.49000 490.427
24.50000 490.227
24.51000 489.927
24.52000 488.250
24.53000 486.129
24.54000 484.158
24.55000 483.403
24.56000 482.915
24.57000 482.498
24.58000 479.238
24.59000 476.143
24.60000 474.233
24.61000 476.501
24.62000 479.131
24.63000 480.288
24.64000 477.861
24.65000 475.274
24.66000 473.642
24.67000 481.201
24.68000 486.780
24.69000 487.497
24.70000 482.687
24.71000 477.876
24.72000 474.033
24.73000 470.916
24.74000 467.852
24.75000 474.775
24.76000 486.436
24.77000 497.255
24.78000 493.976
24.79000 485.676
24.80000 477.583
24.81000 471.411
24.82000 465.709
24.83000 460.738
24.84000 465.998
24.85000 471.915
24.86000 476.323
24.87000 474.834
24.88000 472.749
24.89000 471.608
24.90000 473.003
24.91000 474.538
24.92000 475.545
24.93000 483.897
24.94000 490.161
24.95000 490.745
24.96000 484.111
24.97000 477.459
24.98000 473.882
24.99000 472.885
25.00000 471.900
25.01000 471.373
25.02000 471.115
25.03000 471.015
25.04000 474.160
25.05000 478.582
25.06000 482.623
25.07000 482.557
25.08000 481.376
25.09000 480.329
25.10000 474.212
25.11000 468.114
25.12000 463.140
25.13000 463.053
25.14000 463.534
25.15000 466.638
25.16000 477.546
25.17000 488.972
25.18000 496.740
25.19000 494.000
25.20000 491.717
25.21000 487.994
25.22000 482.234
25.23000 476.459
25.24000 473.629
25.25000 473.563
25.26000 473.499
25.27000 474.902
25.28000 477.193
25.29000 479.333
25.30000 477.683
25.31000 474.381
25.32000 470.879
25.33000 464.866
25.34000 458.095
25.35000 452.001
25.36000 465.055
25.37000 479.930
25.38000 491.288
25.39000 485.588
25.40000 477.626
25.41000 472.763
25.42000 478.107
25.43000 484.253
25.44000 488.575
25.45000 477.823
25.46000 469.234
25.47000 464.170
25.48000 464.651
25.49000 465.199
25.50000 466.694
25.51000 469.189
25.52000 471.672
25.53000 475.959
25.54000 481.451
25.55000 486.775
25.56000 486.642
25.57000 483.880
25.58000 480.883
25.59000 474.384
25.60000 466.716
25.61000 459.716
25.62000 467.959
25.63000 478.360
25.64000 485.432
25.65000 474.429
25.66000 460.710
25.67000 449.733
25.68000 448.777
25.69000 448.741
25.70000 448.716
25.71000 456.117
25.72000 462.083
25.73000 466.300
25.74000 467.468
25.75000 468.580
25.76000 463.737
25.77000 451.845
25.78000 439.966
25.79000 445.641
25.80000 464.923
25.81000 483.632
25.82000 477.554
25.83000 458.262
25.84000 440.078
25.85000 441.695
25.86000 450.626
25.87000 458.884
25.88000 461.944
25.89000 463.506
25.90000 464.777
25.91000 464.278
25.92000 463.479
25.93000 464.550
25.94000 473.210
25.95000 482.677
25.96000 489.748
25.97000 475.602
25.98000 463.599
25.99000 456.701
26.00000 459.661
26.01000 462.869
26.02000 462.581
26.03000 457.675
26.04000 452.749
26.05000 449.606
26.06000 448.019
26.07000 446.497
26.08000 448.892
26.09000 453.600
26.10000 458.200
26.11000 460.436
26.12000 461.706
26.13000 462.894
26.14000 460.851
26.15000 458.166
26.16000 455.851
26.17000 456.087
26.18000 456.808
26.19000 456.892
26.20000 454.097
26.21000 450.952
26.22000 448.538
26.23000 458.337
26.24000 466.764
26.25000 469.237
26.26000 458.989
26.27000 448.319
26.28000 444.227
26.29000 449.807
26.30000 455.472
26.31000 458.675
26.32000 459.466
26.33000 460.190
26.34000 454.665
26.35000 445.044
26.36000 435.654
26.37000 432.622
26.38000 432.462
26.39000 432.311
26.40000 440.748
26.41000 450.972
26.42000 459.781
26.43000 457.515
26.44000 452.893
26.45000 449.052
26.46000 449.157
26.47000 449.810
26.48000 450.323
26.49000 446.991
26.50000 444.064
26.51000 442.761
26.52000 445.293
26.53000 447.988
26.54000 451.393
26.55000 455.959
26.56000 460.540
26.57000 462.941
26.58000 459.713
26.59000 457.505
26.60000 452.132
26.61000 444.454
26.62000 436.977
26.63000 436.729
26.64000 440.092
26.65000 443.304
26.66000 444.624
26.67000 445.244
26.68000 445.892
26.69000 446.794
26.70000 447.757
26.71000 448.494
26.72000 447.952
26.73000 447.209
26.74000 446.611
26.75000 448.840
26.76000 450.872
26.77000 451.942
26.78000 450.497
26.79000 448.920
26.80000 447.896
26.81000 447.872
26.82000 447.869
26.83000 447.867
26.84000 437.461
26.85000 430.276
26.86000 427.140
26.87000 427.292
26.88000 427.521
26.89000 431.438
26.90000 437.395
26.91000 443.135
26.92000 444.109
26.93000 443.310
26.94000 442.672
26.95000 443.694
26.96000 445.153
26.97000 446.217
26.98000 444.765
26.99000 442.869
27.00000 441.305
27.01000 442.020
27.02000 442.817
27.03000 443.781
27.04000 445.227
27.05000 446.703
27.06000 445.271
27.07000 438.014
27.08000 430.594
27.09000 426.291
27.10000 441.887
27.11000 452.909
27.12000 452.999
27.13000 443.152
27.14000 433.426
27.15000 432.176
27.16000 436.119
27.17000 439.949
27.18000 441.155
27.19000 441.245
27.20000 441.346
27.21000 441.580
27.22000 441.851
27.23000 441.521
27.24000 436.851
27.25000 431.322
27.26000 426.669
27.27000 431.636
27.28000 436.803
27.29000 439.786
27.30000 435.788
27.31000 431.267
27.32000 427.839
27.33000 426.834
27.34000 425.918
27.35000 425.361
27.36000 434.105
27.37000 440.414
27.38000 440.780
27.39000 435.075
27.40000 429.381
27.41000 424.951
27.42000 421.382
27.43000 417.892
27.44000 425.257
27.45000 437.193
27.46000 448.328
27.47000 448.120
27.48000 444.235
27.49000 440.660
27.50000 439.630
27.51000 439.164
27.52000 438.763
27.53000 441.770
27.54000 444.727
27.55000 446.238
27.56000 442.622
27.57000 438.555
27.58000 434.536
27.59000 430.635
27.60000 426.740
27.61000 424.276
27.62000 422.853
27.63000 421.833
27.64000 424.605
27.65000 431.722
27.66000 438.835
27.67000 443.973
27.68000 447.616
27.69000 451.200
27.70000 445.604
27.71000 435.587
27.72000 425.904
27.73000 421.889
27.74000 419.908
27.75000 418.450
27.76000 421.920
27.77000 426.604
27.78000 430.693
27.79000 426.035
27.80000 420.822
27.81000 417.805
27.82000 423.433
27.83000 429.944
27.84000 433.868
27.85000 430.788
27.86000 427.316
27.87000 425.033
27.88000 441.635
27.89000 454.179
27.90000 458.032
27.91000 450.756
27.92000 443.443
27.93000 438.197
27.94000 434.697
27.95000 431.238
27.96000 427.596
27.97000 423.939
27.98000 420.542
27.99000 422.507
28.00000 426.599
28.01000 429.963
28.02000 425.399
28.03000 418.665
28.04000 412.689
28.05000 418.825
28.06000 426.074
28.07000 432.005
28.08000 432.158
28.09000 431.634
28.10000 429.865
28.11000 424.369
28.12000 418.622
28.13000 414.705
28.14000 420.837
28.15000 425.650
28.16000 431.096
28.17000 437.442
28.18000 443.794
28.19000 444.549
28.20000 440.003
28.21000 435.490
28.22000 431.796
28.23000 428.675
28.24000 425.653
28.25000 425.181
28.26000 425.828
28.27000 426.452
28.28000 426.785
28.29000 427.029
28.30000 427.249
28.31000 425.147
28.32000 422.883
28.33000 421.557
28.34000 424.818
28.35000 428.692
28.36000 431.213
28.37000 429.239
28.38000 426.908
28.39000 425.266
28.40000 422.057
28.41000 419.576
28.42000 416.239
28.43000 411.545
28.44000 406.835
28.45000 408.754
28.46000 417.734
28.47000 426.678
28.48000 432.040
28.49000 434.843
28.50000 437.311
28.51000 428.666
28.52000 414.629
28.53000 401.653
28.54000 404.663
28.55000 413.048
28.56000 420.709
28.57000 419.655
28.58000 416.939
28.59000 413.704
28.60000 407.627
28.61000 401.119
28.62000 397.360
28.63000 403.717
28.64000 411.013
28.65000 416.318
28.66000 422.080
28.67000 426.531
28.68000 427.884
28.69000 423.795
28.70000 419.605
28.71000 418.460
28.72000 420.949
28.73000 423.440
28.74000 419.820
28.75000 411.433
28.76000 403.189
28.77000 401.317
28.78000 402.867
28.79000 404.585
28.80000 409.377
28.81000 415.311
28.82000 420.804
28.83000 419.611
28.84000 417.000
28.85000 414.396
28.86000 411.831
28.87000 409.273
28.88000 409.017
28.89000 418.176
28.90000 428.345
28.91000 435.957
28.92000 426.561
28.93000 418.437
28.94000 412.524
28.95000 410.916
28.96000 409.418
28.97000 408.141
28.98000 407.158
28.99000 406.177
29.00000 409.364
29.01000 416.209
29.02000 422.970
29.03000 424.490
29.04000 422.893
29.05000 421.239
29.06000 418.299
29.07000 414.830
29.08000 411.581
29.09000 410.279
29.10000 409.597
29.11000 409.777
29.12000 415.953
29.13000 423.279
29.14000 428.629
29.15000 424.972
29.16000 420.208
29.17000 416.544
29.18000 411.909
29.19000 408.188
29.20000 409.670
29.21000 422.353
29.22000 435.414
29.23000 439.124
29.24000 428.980
29.25000 418.708
29.26000 416.280
29.27000 421.598
29.28000 426.845
29.29000 425.090
29.30000 418.714
29.31000 412.511
29.32000 411.163
29.33000 412.023
29.34000 412.838
29.35000 409.157
29.36000 404.469
29.37000 400.302
29.38000 400.250
29.39000 401.082
29.40000 402.599
29.41000 407.604
29.42000 413.097
29.43000 417.429
29.44000 415.224
29.45000 413.015
29.46000 412.012
29.47000 413.879
29.48000 415.869
29.49000 416.207
29.50000 413.827
29.51000 411.408
29.52000 410.135
29.53000 399.484
29.54000 392.294
29.55000 391.475
29.56000 395.332
29.57000 399.244
29.58000 405.134
29.59000 412.019
29.60000 418.601
29.61000 422.952
29.62000 426.278
29.63000 428.656
29.64000 422.464
29.65000 414.223
29.66000 407.448
29.67000 409.033
29.68000 411.942
29.69000 414.291
29.70000 414.712
29.71000 414.900
29.72000 416.321
29.73000 420.984
29.74000 425.819
29.75000 429.082
29.76000 429.482
29.77000 429.822
29.78000 430.010
29.79000 430.569
29.80000 430.943
29.81000 425.670
29.82000 415.774
29.83000 406.066
29.84000 405.773
29.85000 410.721
29.86000 415.493
29.87000 423.089
29.88000 431.256
29.89000 438.275
29.90000 433.310
29.91000 425.160
29.92000 419.352
29.93000 428.597
29.94000 440.524
29.95000 450.369
29.96000 447.904
29.97000 444.729
29.98000 440.540
29.99000 433.396
30.00000 426.065
30.01000 422.683
30.02000 427.271
30.03000 432.086
30.04000 434.888
30.05000 443.032
30.06000 448.777
30.07000 454.352
30.08000 459.770
30.09000 465.003
30.10000 456.822
30.11000 440.361
30.12000 424.366
30.13000 424.364
30.14000 430.841
30.15000 437.005
30.16000 439.359
30.17000 440.591
30.18000 440.946
30.19000 434.928
30.20000 427.637
30.21000 421.495
30.22000 428.734
30.23000 436.215
30.24000 441.684
30.25000 440.666
30.26000 439.155
30.27000 436.875
30.28000 432.878
30.29000 428.817
30.30000 426.346
30.31000 420.972
30.32000 417.110
30.33000 414.864
30.34000 414.281
30.35000 413.718
30.36000 415.457
30.37000 418.774
30.38000 422.019
30.39000 425.377
30.40000 428.651
30.41000 432.028
30.42000 436.879
30.43000 442.211
30.44000 446.538
30.45000 442.535
30.46000 436.674
30.47000 431.642
30.48000 431.050
30.49000 431.099
30.50000 432.162
30.51000 436.851
30.52000 441.862
30.53000 444.762
30.54000 442.452
30.55000 439.900
30.56000 438.281
30.57000 441.735
30.58000 444.303
30.59000 443.112
30.60000 437.577
30.61000 432.060
30.62000 431.820
30.63000 435.607
30.64000 439.333
30.65000 442.401
30.66000 445.040
30.67000 447.525
30.68000 447.355
30.69000 446.225
30.70000 445.215
30.71000 445.350
30.72000 445.768
30.73000 446.133
30.74000 449.045
30.75000 451.899
30.76000 455.397
30.77000 461.451
30.78000 467.768
30.79000 472.713
30.80000 473.917
30.81000 474.909
30.82000 475.563
30.83000 468.644
30.84000 463.413
30.85000 464.341
30.86000 473.219
30.87000 482.124
30.88000 488.520
30.89000 492.779
30.90000 496.991
30.91000 505.780
30.92000 516.945
30.93000 527.543
30.94000 526.237
30.95000 520.172
30.96000 515.268
30.97000 523.133
30.98000 534.520
30.99000 544.635
31.00000 556.956
31.01000 567.995
31.02000 580.319
31.03000 598.314
31.04000 616.980
31.05000 637.507
31.06000 663.646
31.07000 690.167
31.08000 708.287
31.09000 733.351
31.10000 752.264
31.11000 778.145
31.12000 814.040
31.13000 850.014
31.14000 890.317
31.15000 934.752
31.16000 978.871
31.17000 1034.564
31.18000 1096.663
31.19000 1159.534
31.20000 1242.622
31.21000 1334.644
31.22000 1426.703
31.23000 1519.231
31.24000 1611.903
31.25000 1695.486
31.26000 1801.421
31.27000 1898.521
31.28000 1996.745
31.29000 2100.512
31.30000 2205.027
31.31000 2310.278
31.32000 2417.989
31.33000 2525.898
31.34000 2602.120
31.35000 2675.803
31.36000 2731.663
31.37000 2779.759
31.38000 2815.459
31.39000 2850.999
31.40000 2872.806
31.41000 2879.871
31.42000 2886.903
31.43000 2855.099
31.44000 2796.221
31.45000 2737.618
31.46000 2688.299
31.47000 2643.518
31.48000 2597.012
31.49000 2524.188
31.50000 2442.452
31.51000 2367.696
31.52000 2267.705
31.53000 2173.624
31.54000 2079.419
31.55000 1984.533
31.56000 1889.542
31.57000 1792.788
31.58000 1689.494
31.59000 1585.585
31.60000 1509.878
31.61000 1417.023
31.62000 1344.855
31.63000 1272.728
31.64000 1200.677
31.65000 1128.627
31.66000 1063.275
31.67000 1005.976
31.68000 948.798
31.69000 899.149
31.70000 855.677
31.71000 812.429
31.72000 779.357
31.73000 751.789
31.74000 724.977
31.75000 712.060
31.76000 704.348
31.77000 697.204
31.78000 675.900
31.79000 653.449
31.80000 630.674
31.81000 605.894
31.82000 580.767
31.83000 558.355
31.84000 547.130
31.85000 537.118
31.86000 529.610
31.87000 534.092
31.88000 538.161
31.89000 536.410
31.90000 523.257
31.91000 509.804
31.92000 500.063
31.93000 495.300
31.94000 490.566
31.95000 480.162
31.96000 464.750
31.97000 449.506
31.98000 445.137
31.99000 447.284
32.00000 449.222
32.01000 446.414
32.02000 441.640
32.03000 437.166
32.04000 438.995
32.05000 442.304
32.06000 443.968
32.07000 434.103
32.08000 422.008
32.09000 412.511
32.10000 414.946
32.11000 418.863
32.12000 421.881
32.13000 420.840
32.14000 419.783
32.15000 419.298
32.16000 420.051
32.17000 420.847
32.18000 420.978
32.19000 420.117
32.20000 419.247
32.21000 415.541
32.22000 409.012
32.23000 402.500
32.24000 397.727
32.25000 394.111
32.26000 390.755
32.27000 394.800
32.28000 402.235
32.29000 409.279
32.30000 414.341
32.31000 418.423
32.32000 420.797
32.33000 409.554
32.34000 395.366
32.35000 383.574
32.36000 384.069
32.37000 386.301
32.38000 388.064
32.39000 391.234
32.40000 393.876
32.41000 395.576
32.42000 395.019
32.43000 394.365
32.44000 394.309
32.45000 395.245
32.46000 396.196
32.47000 396.699
32.48000 395.147
32.49000 394.093
32.50000 393.151
32.51000 392.292
32.52000 391.434
32.53000 390.601
32.54000 389.779
32.55000 388.994
32.56000 390.370
32.57000 392.358
32.58000 393.643
32.59000 388.511
32.60000 381.834
32.61000 376.892
32.62000 381.930
32.63000 388.562
32.64000 393.927
32.65000 386.911
32.66000 380.206
32.67000 376.440
32.68000 380.465
32.69000 384.908
32.70000 387.265
32.71000 385.791
32.72000 384.234
32.73000 383.368
32.74000 375.527
32.75000 370.101
32.76000 369.335
32.77000 372.415
32.78000 375.439
32.79000 375.603
32.80000 374.165
32.81000 372.777
32.82000 372.705
32.83000 373.119
32.84000 374.415
32.85000 385.002
32.86000 398.076
32.87000 409.350
32.88000 408.956
32.89000 406.464
32.90000 404.404
32.91000 400.145
32.92000 396.427
32.93000 392.559
32.94000 388.248
32.95000 383.908
32.96000 380.515
32.97000 379.045
32.98000 377.630
32.99000 376.804
33.00000 377.547
33.01000 378.077
33.02000 377.303
33.03000 375.326
33.04000 373.364
33.05000 372.512
33.06000 372.352
33.07000 372.196
33.08000 371.956
33.09000 371.694
33.10000 371.015
33.11000 365.215
33.12000 357.894
33.13000 351.128
33.14000 348.441
33.15000 346.574
33.16000 344.998
33.17000 337.376
33.18000 330.350
33.19000 327.956
33.20000 340.597
33.21000 354.392
33.22000 362.139
33.23000 356.298
33.24000 349.947
33.25000 346.069
33.26000 340.775
33.27000 336.978
33.28000 337.126
33.29000 341.371
33.30000 345.583
33.31000 345.557
33.32000 342.605
33.33000 339.715
33.34000 343.342
33.35000 349.797
33.36000 355.687
33.37000 353.380
33.38000 348.376
33.39000 344.224
33.40000 347.190
33.41000 351.756
33.42000 355.681
33.43000 358.890
33.44000 361.516
33.45000 363.110
33.46000 360.991
33.47000 358.538
33.48000 355.011
33.49000 348.813
33.50000 342.491
33.51000 338.468
33.52000 345.758
33.53000 351.195
33.54000 349.670
33.55000 340.035
33.56000 330.425
33.57000 329.513
33.58000 335.289
33.59000 340.976
33.60000 346.507
33.61000 351.788
33.62000 356.594
33.63000 353.117
33.64000 346.625
33.65000 340.878
33.66000 342.284
33.67000 345.481
33.68000 348.278
33.69000 344.928
33.70000 341.179
33.71000 338.052
33.72000 337.411
33.73000 337.030
33.74000 336.463
33.75000 335.388
33.76000 334.285
33.77000 333.555
33.78000 341.976
33.79000 348.351
33.80000 348.140
33.81000 339.361
33.82000 330.557
33.83000 329.259
33.84000 334.407
33.85000 339.500
33.86000 338.957
33.87000 335.223
33.88000 331.512
33.89000 328.276
33.90000 325.232
33.91000 323.009
33.92000 329.913
33.93000 339.354
33.94000 347.750
33.95000 341.032
33.96000 332.746
33.97000 326.892
33.98000 331.869
33.99000 338.140
34.00000 342.336
34.01000 340.222
34.02000 337.673
34.03000 335.927
34.04000 331.668
34.05000 328.417
34.06000 328.717
34.07000 334.159
34.08000 339.643
34.09000 343.845
34.10000 346.814
34.11000 349.763
34.12000 348.804
34.13000 345.377
34.14000 342.112
34.15000 343.136
34.16000 346.069
34.17000 348.684
34.18000 347.151
34.19000 344.339
34.20000 341.800
34.21000 343.362
34.22000 345.490
34.23000 346.790
34.24000 343.976
34.25000 340.601
34.26000 338.471
34.27000 340.537
34.28000 342.944
34.29000 344.648
34.30000 346.861
34.31000 348.559
34.32000 346.831
34.33000 339.593
34.34000 332.282
34.35000 329.603
34.36000 331.939
34.37000 334.267
34.38000 335.395
34.39000 335.660
34.40000 335.984
34.41000 338.391
34.42000 341.823
34.43000 344.843
34.44000 341.506
34.45000 336.000
34.46000 330.959
34.47000 331.260
34.48000 332.639
34.49000 333.965
34.50000 335.000
34.51000 335.991
34.52000 335.703
34.53000 330.640
34.54000 325.124
34.55000 321.097
34.56000 318.038
34.57000 315.718
34.58000 314.970
34.59000 317.027
34.60000 319.139
34.61000 322.069
34.62000 325.989
34.63000 329.905
34.64000 331.817
34.65000 332.126
34.66000 332.433
34.67000 332.640
34.68000 332.792
34.69000 332.635
34.70000 326.721
34.71000 318.633
34.72000 311.134
34.73000 319.403
34.74000 330.537
34.75000 339.594
34.76000 335.646
34.77000 329.438
34.78000 323.963
34.79000 321.533
34.80000 319.437
34.81000 317.862
34.82000 320.689
34.83000 323.110
34.84000 325.539
34.85000 327.983
34.86000 330.426
34.87000 331.671
34.88000 331.296
34.89000 330.911
34.90000 328.857
34.91000 325.314
34.92000 321.778
34.93000 318.700
34.94000 315.900
34.95000 313.390
34.96000 317.573
34.97000 324.548
34.98000 331.092
34.99000 329.067
35.00000 324.971
35.01000 321.487
35.02000 322.335
35.03000 324.027
35.04000 324.561
35.05000 319.732
35.06000 314.230
35.07000 309.983
35.08000 311.461
35.09000 312.965
35.10000 313.444
35.11000 311.687
35.12000 309.851
35.13000 310.856
35.14000 316.132
35.15000 321.451
35.16000 324.116
35.17000 319.941
35.18000 317.176
35.19000 316.555
35.20000 317.370
35.21000 318.058
35.22000 315.020
35.23000 310.264
35.24000 305.754
35.25000 313.476
35.26000 324.193
35.27000 333.324
35.28000 329.682
35.29000 323.256
35.30000 317.537
35.31000 315.470
35.32000 313.923
35.33000 312.699
35.34000 313.969
35.35000 315.162
35.36000 315.183
35.37000 312.376
35.38000 309.444
35.39000 306.135
35.40000 302.199
35.41000 298.253
35.42000 296.160
35.43000 302.504
35.44000 306.814
35.45000 309.310
35.46000 310.455
35.47000 311.562
35.48000 311.253
35.49000 310.220
35.50000 309.231
35.51000 307.141
35.52000 304.830
35.53000 302.583
35.54000 300.919
35.55000 299.397
35.56000 299.296
35.57000 307.439
35.58000 316.910
35.59000 324.583
35.60000 317.948
35.61000 311.379
35.62000 305.725
35.63000 302.516
35.64000 299.439
35.65000 295.950
35.66000 291.698
35.67000 287.428
35.68000 285.044
35.69000 304.671
35.70000 318.286
35.71000 320.995
35.72000 314.631
35.73000 308.337
35.74000 305.690
35.75000 305.105
35.76000 304.541
35.77000 301.542
35.78000 297.820
35.79000 294.631
35.80000 297.115
35.81000 301.130
35.82000 304.564
35.83000 304.198
35.84000 303.145
35.85000 302.272
35.86000 298.529
35.87000 295.167
35.88000 294.040
35.89000 299.514
35.90000 305.421
35.91000 309.483
35.92000 309.770
35.93000 309.944
35.94000 310.046
35.95000 310.254
35.96000 310.399
35.97000 306.688
35.98000 299.384
35.99000 292.206
36.00000 294.722
36.01000 303.311
36.02000 311.666
36.03000 314.524
36.04000 314.981
36.05000 314.834
36.06000 307.176
36.07000 297.271
36.08000 288.562
36.09000 288.714
36.10000 290.663
36.11000 292.311
36.12000 296.167
36.13000 299.634
36.14000 301.621
36.15000 298.766
36.16000 295.535
36.17000 291.397
36.18000 285.207
36.19000 278.940
36.20000 275.101
36.21000 288.949
36.22000 299.012
36.23000 301.544
36.24000 296.189
36.25000 290.878
36.26000 291.450
36.27000 296.114
36.28000 300.682
36.29000 299.666
36.30000 296.124
36.31000 292.670
36.32000 290.517
36.33000 288.794
36.34000 287.281
36.35000 287.539
36.36000 288.199
36.37000 288.767
36.38000 294.303
36.39000 299.619
36.40000 302.360
36.41000 295.767
36.42000 288.324
36.43000 285.743
36.44000 295.325
36.45000 305.488
36.46000 311.971
36.47000 306.023
36.48000 301.536
36.49000 296.582
36.50000 291.080
36.51000 285.613
36.52000 289.047
36.53000 299.379
36.54000 309.555
36.55000 312.148
36.56000 310.771
36.57000 309.270
36.58000 305.576
36.59000 301.079
36.60000 296.629
36.61000 292.643
36.62000 288.774
36.63000 285.385
36.64000 287.295
36.65000 289.698
36.66000 291.595
36.67000 291.453
36.68000 291.097
36.69000 290.890
36.70000 291.096
36.71000 291.326
36.72000 291.479
36.73000 289.119
36.74000 287.329
36.75000 288.611
36.76000 293.919
36.77000 299.238
36.78000 299.993
36.79000 296.795
36.80000 293.631
36.81000 290.862
36.82000 288.379
36.83000 286.052
36.84000 287.078
36.85000 289.462
36.86000 292.324
36.87000 300.555
36.88000 310.289
36.89000 318.955
36.90000 313.116
36.91000 305.665
36.92000 299.649
36.93000 300.078
36.94000 301.285
36.95000 303.399
36.96000 308.291
36.97000 313.376
36.98000 316.867
36.99000 304.029
37.00000 294.005
37.01000 291.142
37.02000 298.729
37.03000 306.404
37.04000 308.437
37.05000 304.991
37.06000 301.568
37.07000 296.221
37.08000 289.723
37.09000 283.528
37.10000 285.546
37.11000 291.248
37.12000 296.643
37.13000 298.006
37.14000 298.116
37.15000 298.216
37.16000 300.845
37.17000 303.627
37.18000 305.459
37.19000 302.534
37.20000 298.954
37.21000 296.634
37.22000 298.585
37.23000 300.888
37.24000 302.522
37.25000 297.002
37.26000 292.577
37.27000 292.033
37.28000 297.778
37.29000 303.610
37.30000 306.248
37.31000 305.400
37.32000 304.553
37.33000 303.206
37.34000 301.513
37.35000 299.797
37.36000 297.319
37.37000 294.462
37.38000 291.743
37.39000 291.178
37.40000 291.354
37.41000 291.514
37.42000 292.453
37.43000 293.452
37.44000 295.016
37.45000 299.749
37.46000 304.975
37.47000 307.634
37.48000 300.627
37.49000 292.693
37.50000 286.887
37.51000 283.663
37.52000 281.277
37.53000 281.336
37.54000 285.788
37.55000 290.327
37.56000 294.948
37.57000 299.667
37.58000 304.380
37.59000 305.503
37.60000 303.740
37.61000 301.956
37.62000 299.170
37.63000 295.833
37.64000 292.527
37.65000 289.813
37.66000 287.324
37.67000 285.014
37.68000 288.238
37.69000 292.449
37.70000 296.484
37.71000 299.413
37.72000 302.148
37.73000 302.485
37.74000 292.792
37.75000 281.990
37.76000 273.856
37.77000 287.718
37.78000 299.639
37.79000 304.065
37.80000 293.593
37.81000 282.712
37.82000 278.828
37.83000 284.476
37.84000 290.177
37.85000 291.534
37.86000 288.977
37.87000 286.480
37.88000 288.153
37.89000 292.363
37.90000 296.460
37.91000 297.944
37.92000 298.330
37.93000 298.693
37.94000 298.773
37.95000 298.771
37.96000 299.200
37.97000 302.710
37.98000 306.825
37.99000 309.751
38.00000 307.129
38.01000 303.803
38.02000 301.232
38.03000 292.521
38.04000 285.247
38.05000 280.350
38.06000 280.677
38.07000 281.191
38.08000 286.417
38.09000 298.783
38.10000 311.223
38.11000 317.483
38.12000 310.542
38.13000 305.932
38.14000 304.267
38.15000 304.590
38.16000 304.885
38.17000 304.320
38.18000 303.356
38.19000 302.441
38.20000 304.123
38.21000 306.446
38.22000 308.595
38.23000 309.335
38.24000 309.765
38.25000 310.957
38.26000 316.120
38.27000 321.853
38.28000 326.399
38.29000 323.013
38.30000 319.734
38.31000 320.040
38.32000 329.066
38.33000 338.483
38.34000 344.488
38.35000 344.755
38.36000 344.930
38.37000 345.023
38.38000 355.065
38.39000 361.896
38.40000 366.133
38.41000 368.420
38.42000 370.796
38.43000 376.609
38.44000 384.189
38.45000 391.449
38.46000 402.897
38.47000 414.964
38.48000 426.744
38.49000 435.844
38.50000 444.290
38.51000 455.252
38.52000 480.942
38.53000 509.026
38.54000 531.814
38.55000 570.401
38.56000 603.158
38.57000 628.776
38.58000 635.195
38.59000 640.555
38.60000 659.840
38.61000 705.063
38.62000 750.872
38.63000 776.546
38.64000 842.969
38.65000 889.089
38.66000 923.505
38.67000 948.106
38.68000 972.643
38.69000 993.807
38.70000 1013.049
38.71000 1031.635
38.72000 1048.491
38.73000 1063.738
38.74000 1077.042
38.75000 1069.433
38.76000 1056.141
38.77000 1044.102
38.78000 1040.332
38.79000 1038.072
38.80000 1036.198
38.81000 1021.903
38.82000 1008.903
38.83000 991.665
38.84000 961.823
38.85000 931.144
38.86000 896.993
38.87000 855.685
38.88000 814.161
38.89000 789.754
38.90000 734.020
38.91000 694.565
38.92000 666.512
38.93000 649.171
38.94000 631.652
38.95000 599.922
38.96000 559.222
38.97000 519.612
38.98000 501.859
38.99000 494.023
39.00000 485.233
39.01000 464.457
39.02000 440.067
39.03000 417.208
39.04000 405.788
39.05000 396.709
39.06000 389.027
39.07000 377.129
39.08000 366.704
39.09000 358.076
39.10000 355.371
39.11000 353.132
39.12000 348.174
39.13000 337.019
39.14000 325.623
39.15000 318.624
39.16000 312.001
39.17000 307.257
39.18000 305.566
39.19000 307.097
39.20000 308.629
39.21000 310.142
39.22000 311.643
39.23000 313.113
39.24000 313.200
39.25000 312.643
39.26000 311.910
39.27000 308.556
39.28000 304.328
39.29000 299.904
39.30000 293.814
39.31000 287.343
39.32000 281.766
39.33000 285.793
39.34000 290.431
39.35000 294.219
39.36000 294.899
39.37000 295.293
39.38000 295.086
39.39000 293.366
39.40000 291.572
39.41000 290.424
39.42000 285.072
39.43000 281.120
39.44000 277.216
39.45000 273.371
39.46000 269.546
39.47000 271.354
39.48000 277.562
39.49000 283.677
39.50000 283.009
39.51000 278.853
39.52000 274.814
39.53000 272.895
39.54000 271.758
39.55000 271.026
39.56000 274.263
39.57000 278.508
39.58000 282.231
39.59000 283.247
39.60000 283.725
39.61000 283.754
39.62000 281.956
39.63000 279.963
39.64000 278.411
39.65000 278.082
39.66000 277.827
39.67000 277.657
39.68000 266.896
39.69000 258.742
39.70000 256.392
39.71000 261.709
39.72000 267.053
39.73000 264.649
39.74000 255.482
39.75000 246.409
39.76000 245.592
39.77000 249.563
39.78000 253.501
39.79000 256.733
39.80000 259.677
39.81000 262.720
39.82000 266.896
39.83000 271.391
39.84000 275.398
39.85000 269.933
39.86000 263.612
39.87000 258.545
39.88000 259.144
39.89000 260.433
39.90000 262.127
39.91000 265.067
39.92000 268.095
39.93000 270.179
39.94000 263.302
39.95000 257.917
39.96000 256.109
39.97000 259.561
39.98000 263.059
39.99000 265.542
40.00000 267.029
40.01000 268.507
40.02000 268.607
40.03000 267.815
40.04000 266.896
40.05000 262.471
40.06000 256.463
40.07000 251.048
40.08000 253.545
40.09000 258.516
40.10000 263.013
40.11000 261.614
40.12000 259.278
40.13000 257.362
40.14000 257.568
40.15000 258.069
40.16000 258.823
40.17000 260.443
40.18000 262.135
40.19000 263.339
40.20000 257.655
40.21000 253.105
40.22000 251.448
40.23000 254.515
40.24000 257.649
40.25000 260.011
40.26000 261.524
40.27000 263.031
40.28000 265.210
40.29000 267.856
40.30000 270.447
40.31000 271.097
40.32000 270.775
40.33000 270.472
40.34000 270.452
40.35000 270.529
40.36000 270.599
40.37000 268.921
40.38000 267.055
40.39000 265.172
40.40000 263.186
40.41000 261.184
40.42000 258.989
40.43000 256.065
40.44000 253.069
40.45000 250.873
40.46000 258.110
40.47000 264.081
40.48000 265.483
40.49000 258.620
40.50000 251.586
40.51000 250.599
40.52000 257.057
40.53000 263.525
40.54000 263.406
40.55000 257.956
40.56000 252.590
40.57000 251.306
40.58000 252.279
40.59000 253.193
40.60000 252.984
40.61000 252.345
40.62000 251.752
40.63000 250.723
40.64000 249.691
40.65000 248.919
40.66000 249.809
40.67000 250.992
40.68000 251.996
40.69000 252.248
40.70000 252.415
40.71000 252.541
40.72000 247.490
40.73000 243.277
40.74000 239.938
40.75000 238.347
40.76000 236.805
40.77000 238.419
40.78000 244.365
40.79000 250.336
40.80000 251.856
40.81000 249.332
40.82000 246.855
40.83000 247.757
40.84000 250.728
40.85000 253.561
40.86000 253.121
40.87000 251.294
40.88000 249.578
40.89000 254.286
40.90000 260.299
40.91000 265.131
40.92000 261.462
40.93000 256.109
40.94000 250.920
40.95000 246.506
40.96000 242.191
40.97000 238.849
40.98000 246.793
40.99000 253.776
41.00000 256.381
41.01000 249.290
41.02000 241.846
41.03000 238.317
41.04000 240.765
41.05000 243.277
41.06000 244.546
41.07000 246.001
41.08000 246.944
41.09000 244.493
41.10000 239.734
41.11000 235.251
41.12000 239.089
41.13000 246.821
41.14000 254.163
41.15000 254.296
41.16000 252.262
41.17000 250.277
41.18000 248.691
41.19000 247.193
41.20000 245.265
41.21000 241.080
41.22000 236.566
41.23000 232.982
41.24000 231.063
41.25000 229.637
41.26000 229.200
41.27000 231.184
41.28000 233.280
41.29000 236.119
41.30000 240.217
41.31000 244.337
41.32000 246.538
41.33000 240.732
41.34000 236.787
41.35000 237.217
41.36000 240.958
41.37000 244.528
41.38000 241.285
41.39000 234.513
41.40000 228.024
41.41000 233.666
41.42000 242.995
41.43000 251.204
41.44000 248.876
41.45000 243.952
41.46000 239.214
41.47000 235.577
41.48000 232.121
41.49000 229.312
41.50000 233.910
41.51000 238.279
41.52000 240.460
41.53000 236.716
41.54000 232.641
41.55000 232.886
41.56000 241.238
41.57000 249.777
41.58000 254.580
41.59000 251.889
41.60000 250.001
41.61000 247.676
41.62000 244.982
41.63000 242.289
41.64000 239.685
41.65000 237.132
41.66000 234.665
41.67000 234.818
41.68000 235.943
41.69000 237.290
41.70000 241.040
41.71000 245.450
41.72000 248.630
41.73000 243.625
41.74000 237.114
41.75000 231.706
41.76000 242.861
41.77000 253.691
41.78000 258.963
41.79000 247.581
41.80000 235.079
41.81000 228.969
41.82000 236.132
41.83000 243.703
41.84000 248.168
41.85000 242.102
41.86000 237.763
41.87000 234.216
41.88000 231.419
41.89000 228.673
41.90000 230.177
41.91000 234.383
41.92000 238.478
41.93000 236.769
41.94000 232.714
41.95000 228.846
41.96000 227.359
41.97000 226.595
41.98000 226.495
41.99000 231.405
42.00000 237.348
42.01000 242.382
42.02000 241.378
42.03000 239.860
42.04000 238.523
42.05000 237.783
42.06000 237.092
42.07000 236.968
42.08000 238.148
42.09000 239.380
42.10000 240.138
42.11000 241.117
42.12000 241.821
42.13000 242.591
42.14000 243.433
42.15000 244.275
42.16000 245.086
42.17000 245.875
42.18000 246.649
42.19000 241.387
42.20000 233.507
42.21000 226.106
42.22000 225.920
42.23000 228.160
42.24000 230.494
42.25000 233.641
42.26000 236.975
42.27000 239.853
42.28000 243.303
42.29000 246.305
42.30000 247.789
42.31000 243.687
42.32000 239.067
42.33000 235.009
42.34000 232.378
42.35000 229.817
42.36000 228.174
42.37000 231.375
42.38000 233.775
42.39000 236.167
42.40000 238.551
42.41000 240.928
42.42000 241.443
42.43000 240.492
42.44000 239.555
42.45000 241.161
42.46000 244.046
42.47000 246.938
42.48000 249.966
42.49000 253.045
42.50000 255.458
42.51000 251.275
42.52000 245.403
42.53000 240.247
42.54000 235.067
42.55000 230.611
42.56000 227.161
42.57000 227.823
42.58000 228.928
42.59000 229.796
42.60000 230.000
42.61000 230.165
42.62000 230.275
42.63000 230.564
42.64000 230.781
42.65000 228.965
42.66000 224.442
42.67000 219.911
42.68000 220.446
42.69000 225.438
42.70000 230.381
42.71000 230.095
42.72000 226.769
42.73000 223.671
42.74000 225.639
42.75000 229.691
42.76000 233.558
42.77000 235.295
42.78000 236.428
42.79000 237.438
42.80000 232.610
42.81000 227.434
42.82000 223.468
42.83000 225.022
42.84000 227.255
42.85000 228.037
42.86000 224.312
42.87000 220.265
42.88000 217.473
42.89000 220.838
42.90000 223.524
42.91000 224.468
42.92000 222.833
42.93000 221.175
42.94000 221.329
42.95000 223.273
42.96000 225.205
42.97000 228.361
42.98000 232.269
42.99000 236.155
43.00000 239.396
43.01000 242.344
43.02000 244.984
43.03000 243.464
43.04000 240.633
43.05000 238.070
43.06000 234.124
43.07000 230.386
43.08000 227.669
43.09000 230.153
43.10000 233.366
43.11000 236.119
43.12000 237.291
43.13000 238.330
43.14000 239.071
43.15000 231.594
43.16000 225.626
43.17000 221.566
43.18000 220.647
43.19000 219.774
43.20000 220.326
43.21000 222.459
43.22000 224.586
43.23000 226.488
43.24000 228.211
43.25000 230.009
43.26000 234.524
43.27000 240.405
43.28000 245.528
43.29000 238.463
43.30000 227.149
43.31000 216.762
43.32000 220.342
43.33000 226.512
43.34000 231.165
43.35000 227.160
43.36000 221.784
43.37000 218.177
43.38000 221.335
43.39000 225.156
43.40000 227.963
43.41000 223.933
43.42000 220.537
43.43000 218.982
43.44000 220.782
43.45000 222.654
43.46000 223.192
43.47000 222.077
43.48000 220.958
43.49000 222.441
43.50000 226.042
43.51000 229.598
43.52000 230.913
43.53000 230.981
43.54000 230.838
43.55000 226.581
43.56000 220.739
43.57000 215.307
43.58000 219.608
43.59000 225.824
43.60000 230.803
43.61000 227.828
43.62000 223.435
43.63000 220.216
43.64000 221.983
43.65000 224.314
43.66000 226.075
43.67000 220.701
43.68000 216.129
43.69000 215.721
43.70000 223.710
43.71000 231.939
43.72000 235.922
43.73000 234.030
43.74000 232.101
43.75000 228.357
43.76000 222.954
43.77000 217.600
43.78000 215.783
43.79000 216.149
43.80000 216.533
43.81000 217.357
43.82000 218.368
43.83000 219.318
43.84000 219.816
43.85000 220.149
43.86000 220.093
43.87000 217.202
43.88000 213.746
43.89000 210.969
43.90000 211.410
43.91000 212.267
43.92000 212.931
43.93000 218.867
43.94000 223.905
43.95000 227.231
43.96000 226.738
43.97000 226.104
43.98000 227.624
43.99000 232.455
44.00000 237.324
44.01000 239.794
44.02000 232.562
44.03000 227.745
44.04000 226.251
44.05000 227.034
44.06000 227.830
44.07000 228.999
44.08000 230.344
44.09000 231.621
44.10000 232.219
44.11000 232.566
44.12000 233.280
44.13000 237.042
44.14000 241.484
44.15000 243.870
44.16000 235.357
44.17000 225.248
44.18000 217.206
44.19000 215.807
44.20000 215.155
44.21000 214.238
44.22000 212.666
44.23000 211.064
44.24000 210.568
44.25000 211.961
44.26000 213.386
44.27000 214.150
44.28000 207.289
44.29000 202.650
44.30000 209.595
44.31000 225.380
44.32000 240.767
44.33000 240.013
44.34000 230.839
44.35000 222.041
44.36000 221.740
44.37000 224.329
44.38000 226.620
44.39000 226.092
44.40000 224.863
44.41000 223.635
44.42000 222.413
44.43000 221.192
44.44000 220.198
44.45000 229.266
44.46000 237.520
44.47000 242.474
44.48000 238.423
44.49000 233.862
44.50000 229.924
44.51000 227.164
44.52000 224.432
44.53000 222.890
44.54000 226.703
44.55000 229.370
44.56000 232.787
44.57000 236.846
44.58000 240.849
44.59000 241.765
44.60000 240.896
44.61000 240.055
44.62000 241.579
44.63000 243.909
44.64000 246.072
44.65000 246.389
44.66000 246.198
44.67000 245.433
44.68000 240.816
44.69000 235.484
44.70000 231.049
44.71000 239.689
44.72000 248.121
44.73000 252.593
44.74000 245.112
44.75000 236.816
44.76000 233.341
44.77000 239.947
44.78000 246.870
44.79000 250.965
44.80000 257.588
44.81000 262.283
44.82000 267.002
44.83000 271.744
44.84000 276.438
44.85000 276.974
44.86000 274.847
44.87000 272.775
44.88000 278.750
44.89000 287.842
44.90000 296.083
44.91000 293.378
44.92000 287.325
44.93000 283.012
44.94000 291.954
44.95000 303.650
44.96000 313.573
44.97000 309.057
44.98000 303.634
44.99000 301.109
45.00000 308.271
45.01000 316.212
45.02000 323.672
45.03000 330.018
45.04000 336.319
45.05000 340.213
45.06000 337.772
45.07000 335.959
45.08000 339.420
45.09000 348.544
45.10000 357.621
45.11000 359.659
45.12000 356.685
45.13000 353.769
45.14000 347.868
45.15000 340.782
45.16000 334.394
45.17000 338.650
45.18000 346.512
45.19000 353.292
45.20000 350.659
45.21000 345.844
45.22000 341.683
45.23000 346.816
45.24000 352.383
45.25000 356.286
45.26000 354.014
45.27000 351.163
45.28000 347.283
45.29000 340.774
45.30000 334.134
45.31000 329.861
45.32000 336.420
45.33000 341.357
45.34000 342.495
45.35000 339.065
45.36000 335.617
45.37000 329.602
45.38000 321.550
45.39000 313.613
45.40000 308.897
45.41000 306.009
45.42000 303.250
45.43000 302.859
45.44000 303.355
45.45000 303.043
45.46000 294.633
45.47000 284.135
45.48000 274.905
45.49000 279.117
45.50000 284.733
45.51000 288.898
45.52000 287.083
45.53000 284.620
45.54000 282.611
45.55000 281.886
45.56000 281.240
45.57000 280.808
45.58000 275.779
45.59000 271.962
45.60000 267.098
45.61000 260.829
45.62000 254.558
45.63000 253.526
45.64000 257.141
45.65000 260.722
45.66000 263.354
45.67000 265.376
45.68000 267.240
45.69000 265.531
45.70000 262.341
45.71000 259.234
45.72000 257.087
45.73000 255.215
45.74000 253.543
45.75000 249.098
45.76000 244.758
45.77000 241.735
45.78000 244.761
45.79000 248.539
45.80000 250.033
45.81000 244.378
45.82000 238.206
45.83000 233.937
45.84000 234.451
45.85000 234.962
45.86000 235.947
45.87000 237.641
45.88000 239.342
45.89000 238.883
45.90000 236.273
45.91000 233.678
45.92000 230.308
45.93000 226.475
45.94000 222.793
45.95000 223.413
45.96000 226.003
45.97000 228.158
45.98000 224.368
45.99000 218.693
46.00000 213.548
46.01000 209.434
46.02000 206.003
46.03000 203.716
46.04000 207.301
46.05000 211.716
46.06000 215.286
46.07000 215.923
46.08000 216.311
46.09000 216.588
46.10000 215.333
46.11000 214.324
46.12000 213.937
46.13000 214.581
46.14000 215.241
46.15000 213.431
46.16000 208.858
46.17000 204.297
46.18000 201.250
46.19000 199.339
46.20000 197.468
46.21000 197.072
46.22000 197.423
46.23000 198.126
46.24000 204.557
46.25000 212.999
46.26000 220.757
46.27000 219.584
46.28000 216.618
46.29000 213.636
46.30000 210.569
46.31000 207.489
46.32000 205.140
46.33000 205.605
46.34000 206.349
46.35000 206.897
46.36000 204.888
46.37000 203.226
46.38000 202.965
46.39000 205.275
46.40000 207.641
46.41000 210.915
46.42000 215.326
46.43000 219.735
46.44000 219.610
46.45000 215.756
46.46000 211.936
46.47000 209.790
46.48000 208.584
46.49000 207.385
46.50000 206.315
46.51000 205.294
46.52000 204.345
46.53000 208.819
46.54000 214.173
46.55000 218.660
46.56000 217.521
46.57000 215.372
46.58000 213.971
46.59000 215.779
46.60000 217.953
46.61000 219.599
46.62000 207.018
46.63000 196.421
46.64000 192.072
46.65000 200.421
46.66000 209.140
46.67000 212.809
46.68000 209.437
46.69000 206.020
46.70000 203.284
46.71000 201.180
46.72000 199.098
46.73000 198.639
46.74000 199.190
46.75000 199.829
46.76000 202.638
46.77000 206.378
46.78000 209.897
46.79000 210.917
46.80000 211.170
46.81000 211.731
46.82000 214.549
46.83000 217.822
46.84000 220.549
46.85000 220.666
46.86000 220.445
46.87000 220.272
46.88000 206.282
46.89000 194.303
46.90000 186.835
46.91000 189.505
46.92000 192.555
46.93000 195.231
46.94000 197.326
46.95000 199.415
46.96000 200.479
46.97000 199.597
46.98000 198.988
46.99000 196.367
47.00000 192.357
47.01000 188.498
47.02000 189.373
47.03000 192.495
47.04000 195.464
47.05000 197.275
47.06000 198.598
47.07000 199.261
47.08000 194.405
47.09000 188.307
47.10000 182.980
47.11000 181.769
47.12000 181.167
47.13000 180.687
47.14000 180.424
47.15000 180.228
47.16000 181.189
47.17000 185.021
47.18000 188.989
47.19000 194.493
47.20000 202.637
47.21000 210.827
47.22000 215.236
47.23000 210.136
47.24000 206.628
47.25000 200.030
47.26000 191.057
47.27000 182.268
47.28000 181.134
47.29000 184.021
47.30000 186.792
47.31000 188.636
47.32000 190.044
47.33000 191.228
47.34000 190.254
47.35000 188.740
47.36000 187.697
47.37000 189.479
47.38000 191.733
47.39000 193.571
47.40000 193.247
47.41000 192.798
47.42000 191.963
47.43000 190.065
47.44000 188.107
47.45000 187.396
47.46000 189.061
47.47000 190.784
47.48000 191.760
47.49000 194.834
47.50000 196.977
47.51000 197.197
47.52000 195.766
47.53000 194.353
47.54000 193.925
47.55000 194.071
47.56000 194.212
47.57000 194.021
47.58000 193.715
47.59000 193.144
47.60000 189.633
47.61000 185.305
47.62000 181.757
47.63000 183.485
47.64000 186.202
47.65000 188.465
47.66000 189.162
47.67000 189.585
47.68000 188.916
47.69000 184.927
47.70000 180.710
47.71000 179.087
47.72000 182.928
47.73000 186.944
47.74000 189.327
47.75000 190.182
47.76000 190.778
47.77000 189.620
47.78000 186.774
47.79000 183.950
47.80000 183.129
47.81000 183.601
47.82000 184.061
47.83000 185.433
47.84000 187.129
47.85000 188.744
47.86000 189.292
47.87000 189.510
47.88000 189.413
47.89000 186.886
47.90000 183.851
47.91000 181.271
47.92000 184.282
47.93000 187.448
47.94000 190.231
47.95000 191.726
47.96000 193.115
47.97000 193.983
47.98000 193.636
47.99000 193.239
48.00000 192.993
48.01000 190.486
48.02000 188.661
48.03000 187.000
48.04000 185.515
48.05000 184.034
48.06000 183.166
48.07000 182.738
48.08000 182.317
48.09000 182.742
48.10000 183.553
48.11000 184.233
48.12000 182.899
48.13000 180.879
48.14000 179.165
48.15000 180.152
48.16000 181.770
48.17000 183.169
48.18000 184.104
48.19000 184.838
48.20000 185.787
48.21000 187.541
48.22000 189.371
48.23000 190.522
48.24000 189.920
48.25000 189.229
48.26000 188.783
48.27000 183.408
48.28000 179.410
48.29000 178.386
48.30000 180.968
48.31000 183.555
48.32000 185.417
48.33000 186.700
48.34000 187.965
48.35000 187.928
48.36000 187.204
48.37000 186.512
48.38000 186.428
48.39000 186.574
48.40000 187.059
48.41000 190.982
48.42000 195.797
48.43000 200.036
48.44000 194.040
48.45000 187.344
48.46000 182.377
48.47000 184.587
48.48000 187.584
48.49000 188.287
48.50000 182.456
48.51000 176.224
48.52000 172.050
48.53000 174.340
48.54000 176.168
48.55000 179.766
48.56000 185.757
48.57000 191.758
48.58000 193.455
48.59000 191.302
48.60000 189.169
48.61000 188.069
48.62000 187.603
48.63000 187.182
48.64000 187.814
48.65000 188.885
48.66000 190.011
48.67000 191.795
48.68000 193.767
48.69000 195.532
48.70000 190.278
48.71000 184.505
48.72000 180.357
48.73000 183.732
48.74000 188.051
48.75000 190.343
48.76000 186.241
48.77000 181.671
48.78000 178.503
48.79000 185.254
48.80000 190.598
48.81000 191.638
48.82000 186.206
48.83000 180.709
48.84000 177.689
48.85000 177.157
48.86000 176.627
48.87000 174.629
48.88000 171.686
48.89000 168.963
48.90000 172.616
48.91000 179.211
48.92000 185.179
48.93000 182.458
48.94000 176.961
48.95000 171.973
48.96000 172.051
48.97000 173.094
48.98000 174.569
48.99000 178.280
49.00000 182.309
49.01000 184.872
49.02000 182.305
49.03000 179.297
49.04000 177.143
49.05000 177.124
49.06000 177.183
49.07000 176.802
49.08000 175.689
49.09000 174.564
49.10000 174.469
49.11000 175.536
49.12000 176.601
49.13000 178.954
49.14000 182.243
49.15000 185.386
49.16000 183.002
49.17000 177.795
49.18000 172.869
49.19000 172.572
49.20000 173.913
49.21000 175.146
49.22000 177.837
49.23000 180.558
49.24000 182.723
49.25000 181.667
49.26000 180.092
49.27000 179.368
49.28000 181.943
49.29000 184.848
49.30000 186.991
49.31000 180.331
49.32000 174.800
49.33000 171.773
49.34000 173.378
49.35000 175.085
49.36000 176.555
49.37000 177.724
49.38000 178.892
49.39000 179.297
49.40000 179.068
49.41000 178.844
49.42000 178.882
49.43000 179.066
49.44000 179.025
49.45000 174.470
49.46000 168.148
49.47000 162.262
49.48000 164.032
49.49000 167.501
49.50000 170.828
49.51000 173.225
49.52000 175.455
49.53000 178.003
49.54000 181.929
49.55000 186.014
49.56000 189.113
49.57000 184.970
49.58000 181.342
49.59000 176.783
49.60000 170.318
49.61000 163.797
49.62000 160.791
49.63000 162.724
49.64000 164.691
49.65000 167.043
49.66000 169.752
49.67000 172.442
49.68000 173.714
49.69000 174.097
49.70000 174.482
49.71000 174.907
49.72000 175.350
49.73000 175.768
49.74000 177.343
49.75000 179.100
49.76000 180.811
49.77000 182.183
49.78000 183.486
49.79000 184.107
49.80000 181.441
49.81000 178.343
49.82000 175.931
49.83000 176.006
49.84000 176.221
49.85000 175.243
49.86000 171.569
49.87000 167.791
49.88000 164.655
49.89000 162.523
49.90000 160.402
49.91000 159.317
49.92000 167.432
49.93000 172.851
49.94000 174.083
49.95000 172.401
49.96000 170.857
49.97000 173.732
49.98000 178.721
49.99000 183.467
50.00000 179.466
50.01000 173.082
50.02000 167.663
50.03000 170.399
50.04000 174.982
50.05000 178.940
50.06000 179.533
50.07000 179.624
50.08000 179.696
50.09000 183.671
50.10000 187.166
50.11000 188.590
50.12000 184.827
50.13000 180.816
50.14000 178.182
50.15000 177.931
50.16000 177.722
50.17000 177.609
50.18000 179.111
50.19000 180.152
50.20000 183.907
50.21000 189.767
50.22000 195.398
50.23000 191.343
50.24000 182.161
50.25000 173.346
50.26000 174.530
50.27000 179.069
50.28000 183.251
50.29000 183.971
50.30000 183.818
50.31000 183.297
50.32000 180.549
50.33000 177.427
50.34000 174.877
50.35000 175.028
50.36000 175.385
50.37000 175.501
50.38000 174.949
50.39000 174.358
50.40000 175.041
50.41000 178.166
50.42000 181.352
50.43000 183.162
50.44000 186.449
50.45000 188.745
50.46000 192.205
50.47000 196.672
50.48000 201.082
50.49000 202.059
50.50000 201.023
50.51000 200.021
50.52000 200.795
50.53000 202.209
50.54000 203.718
50.55000 206.305
50.56000 209.193
50.57000 212.370
50.58000 217.524
50.59000 223.051
50.60000 227.661
50.61000 231.230
50.62000 234.086
50.63000 236.559
50.64000 237.860
50.65000 239.079
50.66000 239.026
50.67000 236.272
50.68000 233.431
50.69000 231.740
50.70000 233.736
50.71000 235.173
50.72000 239.191
50.73000 245.715
50.74000 252.211
50.75000 256.189
50.76000 258.529
50.77000 260.810
50.78000 261.028
50.79000 260.353
50.80000 259.784
50.81000 260.617
50.82000 261.886
50.83000 262.038
50.84000 253.534
50.85000 243.201
50.86000 234.411
50.87000 237.859
50.88000 242.169
50.89000 243.771
50.90000 236.179
50.91000 227.831
50.92000 220.063
50.93000 213.658
50.94000 207.310
50.95000 203.364
50.96000 210.095
50.97000 215.048
50.98000 218.493
50.99000 220.291
51.00000 222.037
51.01000 215.615
51.02000 203.288
51.03000 191.191
51.04000 187.789
51.05000 188.666
51.06000 189.733
51.07000 193.765
51.08000 198.815
51.09000 203.047
51.10000 200.020
51.11000 195.285
51.12000 191.181
51.13000 189.009
51.14000 187.416
51.15000 187.284
51.16000 192.649
51.17000 198.542
51.18000 202.129
51.19000 199.734
51.20000 197.032
51.21000 195.284
51.22000 187.511
51.23000 181.737
51.24000 179.688
51.25000 182.189
51.26000 184.687
51.27000 182.466
51.28000 176.440
51.29000 170.496
51.30000 169.317
51.31000 170.714
51.32000 171.999
51.33000 171.159
51.34000 169.510
51.35000 168.072
51.36000 168.788
51.37000 170.067
51.38000 171.194
51.39000 177.421
51.40000 183.558
51.41000 186.900
51.42000 178.547
51.43000 168.899
51.44000 163.131
51.45000 168.496
51.46000 174.553
51.47000 178.620
51.48000 170.631
51.49000 164.453
51.50000 162.693
51.51000 166.951
51.52000 171.241
51.53000 169.961
51.54000 163.659
51.55000 157.414
51.56000 158.605
51.57000 164.208
51.58000 169.703
51.59000 172.693
51.60000 174.631
51.61000 176.529
51.62000 177.965
51.63000 179.268
51.64000 180.434
51.65000 177.327
51.66000 173.884
51.67000 170.125
51.68000 164.899
51.69000 159.486
51.70000 156.013
51.71000 158.697
51.72000 161.838
51.73000 164.021
51.74000 163.273
51.75000 162.630
51.76000 162.168
51.77000 161.979
51.78000 161.792
51.79000 162.638
51.80000 164.528
51.81000 166.408
51.82000 165.167
51.83000 161.862
51.84000 158.568
51.85000 155.650
51.86000 152.905
51.87000 150.508
51.88000 152.976
51.89000 157.011
51.90000 160.676
51.91000 165.554
51.92000 170.099
51.93000 173.698
51.94000 172.358
51.95000 170.308
51.96000 168.203
51.97000 165.904
51.98000 163.588
51.99000 161.926
52.00000 156.494
52.01000 152.211
52.02000 151.991
52.03000 158.603
52.04000 165.325
52.05000 169.190
52.06000 169.808
52.07000 170.421
52.08000 169.416
52.09000 167.212
52.10000 165.029
52.11000 163.673
52.12000 162.741
52.13000 161.823
52.14000 161.130
52.15000 160.518
52.16000 159.955
52.17000 159.941
52.18000 160.047
52.19000 160.427
52.20000 162.401
52.21000 164.634
52.22000 165.569
52.23000 161.435
52.24000 156.789
52.25000 153.354
52.26000 158.324
52.27000 162.539
52.28000 164.964
52.29000 164.055
52.30000 163.071
52.31000 166.277
52.32000 174.807
52.33000 183.346
52.34000 180.944
52.35000 169.397
52.36000 157.999
52.37000 154.586
52.38000 155.720
52.39000 156.722
52.40000 155.040
52.41000 152.300
52.42000 149.747
52.43000 154.413
52.44000 160.411
52.45000 165.435
52.46000 164.033
52.47000 161.457
52.48000 158.861
52.49000 156.179
52.50000 153.488
52.51000 151.441
52.52000 157.994
52.53000 163.596
52.54000 166.582
52.55000 164.173
52.56000 161.601
52.57000 160.301
52.58000 160.800
52.59000 161.313
52.60000 160.585
52.61000 158.691
52.62000 156.799
52.63000 155.066
52.64000 153.433
52.65000 151.839
52.66000 151.196
52.67000 150.968
52.68000 150.753
52.69000 150.445
52.70000 150.138
52.71000 150.289
52.72000 153.860
52.73000 158.131
52.74000 161.464
52.75000 160.243
52.76000 158.418
52.77000 156.994
52.78000 161.862
52.79000 166.138
52.80000 167.610
52.81000 162.688
52.82000 157.517
52.83000 156.511
52.84000 162.057
52.85000 167.682
52.86000 170.572
52.87000 171.332
52.88000 171.837
52.89000 171.603
52.90000 170.852
52.91000 170.092
52.92000 169.063
52.93000 167.906
52.94000 166.804
52.95000 167.026
52.96000 167.641
52.97000 167.974
52.98000 165.894
52.99000 163.263
53.00000 160.949
53.01000 160.355
53.02000 160.019
53.03000 159.751
53.04000 152.569
53.05000 146.252
53.06000 143.394
53.07000 149.261
53.08000 155.550
53.09000 159.216
53.10000 158.307
53.11000 157.315
53.12000 156.776
53.13000 160.982
53.14000 163.859
53.15000 163.781
53.16000 161.394
53.17000 159.046
53.18000 158.382
53.19000 158.616
53.20000 158.841
53.21000 161.625
53.22000 165.116
53.23000 167.824
53.24000 162.854
53.25000 155.933
53.26000 150.666
53.27000 155.489
53.28000 162.024
53.29000 167.368
53.30000 158.801
53.31000 150.572
53.32000 147.570
53.33000 159.139
53.34000 171.568
53.35000 176.782
53.36000 168.061
53.37000 158.987
53.38000 153.812
53.39000 152.683
53.40000 151.909
53.41000 151.943
53.42000 152.682
53.43000 153.411
53.44000 153.471
53.45000 153.137
53.46000 152.813
53.47000 157.032
53.48000 162.779
53.49000 167.708
53.50000 163.336
53.51000 156.340
53.52000 150.532
53.53000 152.904
53.54000 156.833
53.55000 160.115
53.56000 159.548
53.57000 158.689
53.58000 157.393
53.59000 154.751
53.60000 152.015
53.61000 151.428
53.62000 155.436
53.63000 159.598
53.64000 162.083
53.65000 164.171
53.66000 165.650
53.67000 162.882
53.68000 155.954
53.69000 149.070
53.70000 146.307
53.71000 146.245
53.72000 146.185
53.73000 148.405
53.74000 151.511
53.75000 154.510
53.76000 156.078
53.77000 157.199
53.78000 158.030
53.79000 156.595
53.80000 154.678
53.81000 153.046
53.82000 154.455
53.83000 155.995
53.84000 157.521
53.85000 158.997
53.86000 160.468
53.87000 159.298
53.88000 151.885
53.89000 144.209
53.90000 139.423
53.91000 147.704
53.92000 153.807
53.93000 155.123
53.94000 151.169
53.95000 147.238
53.96000 147.664
53.97000 151.264
53.98000 154.798
53.99000 158.208
54.00000 161.437
54.01000 164.224
54.02000 159.985
54.03000 153.315
54.04000 147.150
54.05000 145.513
54.06000 144.950
54.07000 144.461
54.08000 151.160
54.09000 157.827
54.10000 162.229
54.11000 158.039
54.12000 153.016
54.13000 149.364
54.14000 149.295
54.15000 149.412
54.16000 149.488
54.17000 150.884
54.18000 151.925
54.19000 153.176
54.20000 154.683
54.21000 156.183
54.22000 154.505
54.23000 150.247
54.24000 146.044
54.25000 144.986
54.26000 145.648
54.27000 146.282
54.28000 146.355
54.29000 146.214
54.30000 146.445
54.31000 150.525
54.32000 155.619
54.33000 160.114
54.34000 159.377
54.35000 157.944
54.36000 156.536
54.37000 155.236
54.38000 153.948
54.39000 153.900
54.40000 157.440
54.41000 161.206
54.42000 163.741
54.43000 155.955
54.44000 149.953
54.45000 147.145
54.46000 148.721
54.47000 150.324
54.48000 152.192
54.49000 154.299
54.50000 156.387
54.51000 156.090
54.52000 154.363
54.53000 152.797
54.54000 155.025
54.55000 158.860
54.56000 162.504
54.57000 163.861
54.58000 164.548
54.59000 165.164
54.60000 161.681
54.61000 157.929
54.62000 155.013
54.63000 156.026
54.64000 157.540
54.65000 157.488
54.66000 152.424
54.67000 146.983
54.68000 143.193
54.69000 148.478
54.70000 152.714
54.71000 154.907
54.72000 153.979
54.73000 153.017
54.74000 153.960
54.75000 156.849
54.76000 159.722
54.77000 156.995
54.78000 150.538
54.79000 144.441
54.80000 149.208
54.81000 159.060
54.82000 168.128
54.83000 166.067
54.84000 160.397
54.85000 155.241
54.86000 155.054
54.87000 155.862
54.88000 155.874
54.89000 151.708
54.90000 146.935
54.91000 144.021
54.92000 147.697
54.93000 151.952
54.94000 155.013
54.95000 156.153
54.96000 156.958
54.97000 157.414
54.98000 157.280
54.99000 157.136
55.00000 156.421
55.01000 155.052
55.02000 153.686
55.03000 153.079
55.04000 153.048
55.05000 153.059
55.06000 154.767
55.07000 157.354
55.08000 160.022
55.09000 164.061
55.10000 168.592
55.11000 172.767
55.12000 172.433
55.13000 171.140
55.14000 169.426
55.15000 165.229
55.16000 160.625
55.17000 157.494
55.18000 160.164
55.19000 163.426
55.20000 165.844
55.21000 162.085
55.22000 158.899
55.23000 157.784
55.24000 160.556
55.25000 163.418
55.26000 166.225
55.27000 168.963
55.28000 171.697
55.29000 170.482
55.30000 165.939
55.31000 161.421
55.32000 158.265
55.33000 155.891
55.34000 153.653
55.35000 154.213
55.36000 155.885
55.37000 157.444
55.38000 165.911
55.39000 175.294
55.40000 183.840
55.41000 186.819
55.42000 188.772
55.43000 189.476
55.44000 184.706
55.45000 179.293
55.46000 175.169
55.47000 176.705
55.48000 178.214
55.49000 180.491
55.50000 184.365
55.51000 188.288
55.52000 190.491
55.53000 190.240
55.54000 189.971
55.55000 191.440
55.56000 194.555
55.57000 197.711
55.58000 204.141
55.59000 212.653
55.60000 220.871
55.61000 221.500
55.62000 218.800
55.63000 216.252
55.64000 217.647
55.65000 220.021
55.66000 223.378
55.67000 234.143
55.68000 246.436
55.69000 256.494
55.70000 255.616
55.71000 253.275
55.72000 251.445
55.73000 263.231
55.74000 273.503
55.75000 285.502
55.76000 301.467
55.77000 317.589
55.78000 330.793
55.79000 339.372
55.80000 347.894
55.81000 352.289
55.82000 367.865
55.83000 378.359
55.84000 388.687
55.85000 398.898
55.86000 409.019
55.87000 416.152
55.88000 421.834
55.89000 427.247
55.90000 442.260
55.91000 459.166
55.92000 475.252
55.93000 484.288
55.94000 491.701
55.95000 499.946
55.96000 512.747
55.97000 526.239
55.98000 537.045
55.99000 530.819
56.00000 524.503
56.01000 519.130
56.02000 516.153
56.03000 513.295
56.04000 511.919
56.05000 513.150
56.06000 514.430
56.07000 515.127
56.08000 513.419
56.09000 512.211
56.10000 501.179
56.11000 482.413
56.12000 463.805
56.13000 452.223
56.14000 444.414
56.15000 436.907
56.16000 431.527
56.17000 427.228
56.18000 421.892
56.19000 406.279
56.20000 388.036
56.21000 370.880
56.22000 360.419
56.23000 351.103
56.24000 343.472
56.25000 334.611
56.26000 327.238
56.27000 318.765
56.28000 307.204
56.29000 295.459
56.30000 284.473
56.31000 274.966
56.32000 265.497
56.33000 260.078
56.34000 248.906
56.35000 241.089
56.36000 238.615
56.37000 240.843
56.38000 242.932
56.39000 236.327
56.40000 224.550
56.41000 213.136
56.42000 210.175
56.43000 210.664
56.44000 211.076
56.45000 210.598
56.46000 209.866
56.47000 209.130
56.48000 208.364
56.49000 207.592
56.50000 206.946
56.51000 200.803
56.52000 195.138
56.53000 190.439
56.54000 188.741
56.55000 187.258
56.56000 185.860
56.57000 184.647
56.58000 183.440
56.59000 182.717
56.60000 178.888
56.61000 176.150
56.62000 176.109
56.63000 178.733
56.64000 181.328
56.65000 181.051
56.66000 178.878
56.67000 176.756
56.68000 175.428
56.69000 174.502
56.70000 173.233
56.71000 167.323
56.72000 159.951
56.73000 153.467
56.74000 154.001
56.75000 156.041
56.76000 157.781
56.77000 160.292
56.78000 162.496
56.79000 163.615
56.80000 160.997
56.81000 158.064
56.82000 156.380
56.83000 157.670
56.84000 159.087
56.85000 159.973
56.86000 158.790
56.87000 157.914
56.88000 156.108
56.89000 153.270
56.90000 150.447
56.91000 150.178
56.92000 151.786
56.93000 153.365
56.94000 154.670
56.95000 155.798
56.96000 156.593
56.97000 152.043
56.98000 145.629
56.99000 140.020
57.00000 141.691
57.01000 145.102
57.02000 148.065
57.03000 149.245
57.04000 150.011
57.05000 150.196
57.06000 148.159
57.07000 145.905
57.08000 143.697
57.09000 141.615
57.10000 139.538
57.11000 138.188
57.12000 139.358
57.13000 140.256
57.14000 142.562
57.15000 146.619
57.16000 150.676
57.17000 152.642
57.18000 152.897
57.19000 153.149
57.20000 153.074
57.21000 152.824
57.22000 152.483
57.23000 150.362
57.24000 147.555
57.25000 144.968
57.26000 144.690
57.27000 145.025
57.28000 145.322
57.29000 146.645
57.30000 147.946
57.31000 148.299
57.32000 144.625
57.33000 140.496
57.34000 138.606
57.35000 143.237
57.36000 148.284
57.37000 151.690
57.38000 146.617
57.39000 142.662
57.40000 140.232
57.41000 139.911
57.42000 139.605
57.43000 141.823
57.44000 146.355
57.45000 150.849
57.46000 150.025
57.47000 145.993
57.48000 142.204
57.49000 144.261
57.50000 148.811
57.51000 152.783
57.52000 149.730
57.53000 144.605
57.54000 140.008
57.55000 137.074
57.56000 134.800
57.57000 133.790
57.58000 138.772
57.59000 144.527
57.60000 148.418
57.61000 146.299
57.62000 143.724
57.63000 141.925
57.64000 139.271
57.65000 137.243
57.66000 136.946
57.67000 139.315
57.68000 141.714
57.69000 143.285
57.70000 144.005
57.71000 144.721
57.72000 146.472
57.73000 148.903
57.74000 151.183
57.75000 148.814
57.76000 144.252
57.77000 139.725
57.78000 135.702
57.79000 131.844
57.80000 128.332
57.81000 131.918
57.82000 136.493
57.83000 140.750
57.84000 143.316
57.85000 145.635
57.86000 147.598
57.87000 148.289
57.88000 148.867
57.89000 149.283
57.90000 141.072
57.91000 134.474
57.92000 132.342
57.93000 137.832
57.94000 143.451
57.95000 142.446
57.96000 133.789
57.97000 125.143
57.98000 125.051
57.99000 131.446
58.00000 137.661
58.01000 136.559
58.02000 131.639
58.03000 127.098
58.04000 129.057
58.05000 133.365
58.06000 137.339
58.07000 137.534
58.08000 136.867
58.09000 136.461
58.10000 137.608
58.11000 139.012
58.12000 140.421
58.13000 141.849
58.14000 143.280
58.15000 144.342
58.16000 143.078
58.17000 141.993
58.18000 140.578
58.19000 138.538
58.20000 136.483
58.21000 136.114
58.22000 137.920
58.23000 139.733
58.24000 141.169
58.25000 142.281
58.26000 143.340
58.27000 141.389
58.28000 137.700
58.29000 134.197
58.30000 134.601
58.31000 136.568
58.32000 138.403
58.33000 141.184
58.34000 143.942
58.35000 146.254
58.36000 145.578
58.37000 144.347
58.38000 143.091
58.39000 141.723
58.40000 140.342
58.41000 139.288
58.42000 142.361
58.43000 145.003
58.44000 146.417
58.45000 145.261
58.46000 144.025
58.47000 141.862
58.48000 138.365
58.49000 134.858
58.50000 134.182
58.51000 136.210
58.52000 138.228
58.53000 139.415
58.54000 140.070
58.55000 140.665
58.56000 139.690
58.57000 138.022
58.58000 136.447
58.59000 137.529
58.60000 139.267
58.61000 140.704
58.62000 139.856
58.63000 138.532
58.64000 137.745
58.65000 139.599
58.66000 141.811
58.67000 143.542
58.68000 144.841
58.69000 145.850
58.70000 144.008
58.71000 135.573
58.72000 126.873
58.73000 123.707
58.74000 129.379
58.75000 135.165
58.76000 138.162
58.77000 137.755
58.78000 137.470
58.79000 135.795
58.80000 133.130
58.81000 130.506
58.82000 129.297
58.83000 128.778
58.84000 128.283
58.85000 131.951
58.86000 136.660
58.87000 141.112
58.88000 143.326
58.89000 145.022
58.90000 145.474
58.91000 139.061
58.92000 131.599
58.93000 125.612
58.94000 123.804
58.95000 122.658
58.96000 123.705
58.97000 130.361
58.98000 137.297
58.99000 140.896
59.00000 138.584
59.01000 136.160
59.02000 134.834
59.03000 136.146
59.04000 137.057
59.05000 139.647
59.06000 143.569
59.07000 147.313
59.08000 142.938
59.09000 134.172
59.10000 125.740
59.11000 124.574
59.12000 126.034
59.13000 127.672
59.14000 131.090
59.15000 134.967
59.16000 138.328
59.17000 138.484
59.18000 138.087
59.19000 137.762
59.20000 135.702
59.21000 133.857
59.22000 132.458
59.23000 132.318
59.24000 132.254
59.25000 132.751
59.26000 134.346
59.27000 135.970
59.28000 136.903
59.29000 140.850
59.30000 143.617
59.31000 142.038
59.32000 136.603
59.33000 131.237
59.34000 130.371
59.35000 132.201
59.36000 133.977
59.37000 135.381
59.38000 136.567
59.39000 137.618
59.40000 137.111
59.41000 136.158
59.42000 135.561
59.43000 137.463
59.44000 139.848
59.45000 141.845
59.46000 138.385
59.47000 134.944
59.48000 131.876
59.49000 129.974
59.50000 128.157
59.51000 126.708
59.52000 126.058
59.53000 125.435
59.54000 125.061
59.55000 129.111
59.56000 132.021
59.57000 130.754
59.58000 125.326
59.59000 119.978
59.60000 122.690
59.61000 130.762
59.62000 138.645
59.63000 140.135
59.64000 138.757
59.65000 137.305
59.66000 134.834
59.67000 132.040
59.68000 129.541
59.69000 129.397
59.70000 129.762
59.71000 130.074
59.72000 125.368
59.73000 120.807
59.74000 118.279
59.75000 122.805
59.76000 127.932
59.77000 132.111
59.78000 134.017
59.79000 135.825
59.80000 136.958
59.81000 132.873
59.82000 129.865
59.83000 129.373
59.84000 131.695
59.85000 134.019
59.86000 136.303
59.87000 138.557
59.88000 140.772
59.89000 142.088
59.90000 142.919
59.91000 143.563
59.92000 141.156
59.93000 137.679
59.94000 134.429
59.95000 133.257
59.96000 132.586
59.97000 132.003
59.98000 130.235
59.99000 128.566
60.00000 127.746
60.01000 130.194
60.02000 132.966
60.03000 135.313
60.04000 136.535
60.05000 137.696
60.06000 138.454
60.07000 136.016
60.08000 134.177
60.09000 134.223
60.10000 136.628
60.11000 139.029
60.12000 136.681
60.13000 130.413
60.14000 124.222
60.15000 125.440
60.16000 130.676
60.17000 135.656
60.18000 135.556
60.19000 133.483
60.20000 131.828
60.21000 134.574
60.22000 138.498
60.23000 141.969
60.24000 139.466
60.25000 136.376
60.26000 133.768
60.27000 133.225
60.28000 132.916
60.29000 132.792
60.30000 133.209
60.31000 133.661
60.32000 133.967
60.33000 134.480
60.34000 134.867
60.35000 135.345
60.36000 135.950
60.37000 136.556
60.38000 136.040
60.39000 134.487
60.40000 132.946
60.41000 131.196
60.42000 129.349
60.43000 127.648
60.44000 129.504
60.45000 132.889
60.46000 135.898
60.47000 134.286
60.48000 131.302
60.49000 128.621
60.50000 130.052
60.51000 132.028
60.52000 134.005
60.53000 135.991
60.54000 137.977
60.55000 139.592
60.56000 139.999
60.57000 140.314
60.58000 140.534
60.59000 134.652
60.60000 130.031
60.61000 128.489
60.62000 131.718
60.63000 135.001
60.64000 135.479
60.65000 133.043
60.66000 130.618
60.67000 133.078
60.68000 138.847
60.69000 144.402
60.70000 143.260
60.71000 138.936
60.72000 134.654
60.73000 130.985
60.74000 127.518
60.75000 124.360
60.76000 126.459
60.77000 129.366
60.78000 131.855
60.79000 132.112
60.80000 132.038
60.81000 132.493
60.82000 134.851
60.83000 137.380
60.84000 139.207
60.85000 141.205
60.86000 142.744
60.87000 141.889
60.88000 136.916
60.89000 131.871
60.90000 132.300
60.91000 139.105
60.92000 145.902
60.93000 143.795
60.94000 134.892
60.95000 126.178
60.96000 125.309
60.97000 128.562
60.98000 131.669
60.99000 132.228
61.00000 131.860
61.01000 131.519
61.02000 133.126
61.03000 135.003
61.04000 136.515
61.05000 135.832
61.06000 134.783
61.07000 134.395
61.08000 136.645
61.09000 139.171
61.10000 141.049
61.11000 135.075
61.12000 130.075
61.13000 128.021
61.14000 131.575
61.15000 135.264
61.16000 136.871
61.17000 135.769
61.18000 134.656
61.19000 133.249
61.20000 131.592
61.21000 129.949
61.22000 129.175
61.23000 128.907
61.24000 128.763
61.25000 131.286
61.26000 134.882
61.27000 138.241
61.28000 141.751
61.29000 144.974
61.30000 147.521
61.31000 145.494
61.32000 142.611
61.33000 139.816
61.34000 137.414
61.35000 135.060
61.36000 133.259
61.37000 135.715
61.38000 137.884
61.39000 138.738
61.40000 136.822
61.41000 134.818
61.42000 135.171
61.43000 138.941
61.44000 142.738
61.45000 146.731
61.46000 150.912
61.47000 155.061
61.48000 156.451
61.49000 156.059
61.50000 155.832
61.51000 159.986
61.52000 166.090
61.53000 171.855
61.54000 181.386
61.55000 191.199
61.56000 201.109
61.57000 211.767
61.58000 222.581
61.59000 233.652
61.60000 245.994
61.61000 258.509
61.62000 268.328
61.63000 269.479
61.64000 269.835
61.65000 271.191
61.66000 274.879
61.67000 278.661
61.68000 281.367
61.69000 282.338
61.70000 283.287
61.71000 283.780
61.72000 290.787
61.73000 295.460
61.74000 290.722
61.75000 279.230
61.76000 267.793
61.77000 258.245
61.78000 249.625
61.79000 241.403
61.80000 224.520
61.81000 206.108
61.82000 188.559
61.83000 178.598
61.84000 170.409
61.85000 162.822
61.86000 158.586
61.87000 154.867
61.88000 151.879
61.89000 149.084
61.90000 146.834
61.91000 145.076
61.92000 144.586
61.93000 144.160
61.94000 142.012
61.95000 136.793
61.96000 131.514
61.97000 128.618
61.98000 137.965
61.99000 144.402
62.00000 146.660
62.01000 145.574
62.02000 144.478
62.03000 142.885
62.04000 141.022
62.05000 139.228
62.06000 141.246
62.07000 144.490
62.08000 147.285
62.09000 145.540
62.10000 142.617
62.11000 140.245
62.12000 141.332
62.13000 143.020
62.14000 144.407
62.15000 146.924
62.16000 149.093
62.17000 149.582
62.18000 145.283
62.19000 140.689
62.20000 137.835
62.21000 138.415
62.22000 139.088
62.23000 139.476
62.24000 141.768
62.25000 143.378
62.26000 142.783
62.27000 140.214
62.28000 137.681
62.29000 137.491
62.30000 138.715
62.31000 139.902
62.32000 138.221
62.33000 135.492
62.34000 133.210
62.35000 136.186
62.36000 140.678
62.37000 144.724
62.38000 145.604
62.39000 145.867
62.40000 146.088
62.41000 143.484
62.42000 141.021
62.43000 139.273
62.44000 139.779
62.45000 140.449
62.46000 142.691
62.47000 148.364
62.48000 154.158
62.49000 157.652
62.50000 148.706
62.51000 142.250
62.52000 139.830
62.53000 141.466
62.54000 143.101
62.55000 144.621
62.56000 146.064
62.57000 147.474
62.58000 147.193
62.59000 146.178
62.60000 144.905
62.61000 140.083
62.62000 134.126
62.63000 129.214
62.64000 132.718
62.65000 138.057
62.66000 142.622
62.67000 143.381
62.68000 143.564
62.69000 144.019
62.70000 145.430
62.71000 146.923
62.72000 147.469
62.73000 145.731
62.74000 143.892
62.75000 142.736
62.76000 143.548
62.77000 144.158
62.78000 143.708
62.79000 142.063
62.80000 140.424
62.81000 140.126
62.82000 140.826
62.83000 141.514
62.84000 141.637
62.85000 141.477
62.86000 141.227
62.87000 139.510
62.88000 137.274
62.89000 135.676
62.90000 139.967
62.91000 145.688
62.92000 150.669
62.93000 145.769
62.94000 140.223
62.95000 136.218
62.96000 138.186
62.97000 140.751
62.98000 142.208
62.99000 140.708
63.00000 139.046
63.01000 137.959
63.02000 142.507
63.03000 145.940
63.04000 148.018
63.05000 148.390
63.06000 148.758
63.07000 150.110
63.08000 152.280
63.09000 154.425
63.10000 155.698
63.11000 156.459
63.12000 157.030
63.13000 153.789
63.14000 149.056
63.15000 144.686
63.16000 144.183
63.17000 144.723
63.18000 145.201
63.19000 148.073
63.20000 150.932
63.21000 152.901
63.22000 151.035
63.23000 148.726
63.24000 146.836
63.25000 146.180
63.26000 145.604
63.27000 145.214
63.28000 147.259
63.29000 148.837
63.30000 149.668
63.31000 149.448
63.32000 149.220
63.33000 147.984
63.34000 145.808
63.35000 143.650
63.36000 143.222
63.37000 143.868
63.38000 144.510
63.39000 145.070
63.40000 145.594
63.41000 146.034
63.42000 145.415
63.43000 144.480
63.44000 143.640
63.45000 145.601
63.46000 147.816
63.47000 149.775
63.48000 150.500
63.49000 151.064
63.50000 151.482
63.51000 151.428
63.52000 151.336
63.53000 151.272
63.54000 150.353
63.55000 149.633
63.56000 148.568
63.57000 146.967
63.58000 145.359
63.59000 147.412
63.60000 153.300
63.61000 159.161
63.62000 159.076
63.63000 154.899
63.64000 150.851
63.65000 150.953
63.66000 153.040
63.67000 154.759
63.68000 151.064
63.69000 145.575
63.70000 140.569
63.71000 146.172
63.72000 153.269
63.73000 158.353
63.74000 152.587
63.75000 145.204
63.76000 139.799
63.77000 141.570
63.78000 143.994
63.79000 145.748
63.80000 148.766
63.81000 151.129
63.82000 153.020
63.83000 154.094
63.84000 155.153
63.85000 157.079
63.86000 160.020
63.87000 162.957
63.88000 163.507
63.89000 162.215
63.90000 160.932
63.91000 160.086
63.92000 159.470
63.93000 158.924
63.94000 159.601
63.95000 160.725
63.96000 161.764
63.97000 159.175
63.98000 156.031
63.99000 153.189
64.00000 152.181
64.01000 151.480
64.02000 150.954
64.03000 151.128
64.04000 151.376
64.05000 151.560
64.06000 158.539
64.07000 164.281
64.08000 164.910
64.09000 155.732
64.10000 146.312
64.11000 144.009
64.12000 151.039
64.13000 158.106
64.14000 163.492
64.15000 167.416
64.16000 171.223
64.17000 168.119
64.18000 160.962
64.19000 154.189
64.20000 155.691
64.21000 160.550
64.22000 165.094
64.23000 164.904
64.24000 163.528
64.25000 162.068
64.26000 160.037
64.27000 157.898
64.28000 156.139
64.29000 156.086
64.30000 156.240
64.31000 156.357
64.32000 158.158
64.33000 159.672
64.34000 160.263
64.35000 158.894
64.36000 157.460
64.37000 157.905
64.38000 161.090
64.39000 164.298
64.40000 163.751
64.41000 159.555
64.42000 155.444
64.43000 158.923
64.44000 167.341
64.45000 175.335
64.46000 171.882
64.47000 163.295
64.48000 155.178
64.49000 154.756
64.50000 156.562
64.51000 158.423
64.52000 160.708
64.53000 163.083
64.54000 165.027
64.55000 164.818
64.56000 164.313
64.57000 163.916
64.58000 168.635
64.59000 172.751
64.60000 176.497
64.61000 179.378
64.62000 182.223
64.63000 183.919
64.64000 183.754
64.65000 183.562
64.66000 183.463
64.67000 175.217
64.68000 169.667
64.69000 168.911
64.70000 171.621
64.71000 174.301
64.72000 175.937
64.73000 177.055
64.74000 178.122
64.75000 177.163
64.76000 175.626
64.77000 173.995
64.78000 171.542
64.79000 168.894
64.80000 166.884
64.81000 168.452
64.82000 170.578
64.83000 172.289
64.84000 174.241
64.85000 175.843
64.86000 177.468
64.87000 179.153
64.88000 180.841
64.89000 181.830
64.90000 181.562
64.91000 181.268
64.92000 181.107
64.93000 184.239
64.94000 186.396
64.95000 186.215
64.96000 184.150
64.97000 182.079
64.98000 179.758
64.99000 177.300
65.00000 174.933
65.01000 183.024
65.02000 194.356
65.03000 204.546
65.04000 203.058
65.05000 198.512
65.06000 195.161
65.07000 199.352
65.08000 204.866
65.09000 209.404
65.10000 205.236
65.11000 201.017
65.12000 198.897
65.13000 202.803
65.14000 207.084
65.15000 212.113
65.16000 218.628
65.17000 225.183
65.18000 228.974
65.19000 216.754
65.20000 208.131
65.21000 211.446
65.22000 225.526
65.23000 239.447
65.24000 242.426
65.25000 238.749
65.26000 235.180
65.27000 233.288
65.28000 232.162
65.29000 231.069
65.30000 230.359
65.31000 229.760
65.32000 230.374
65.33000 239.653
65.34000 250.635
65.35000 259.862
65.36000 259.927
65.37000 259.014
65.38000 259.617
65.39000 265.033
65.40000 270.806
65.41000 278.993
65.42000 292.489
65.43000 306.175
65.44000 314.454
65.45000 315.864
65.46000 316.818
65.47000 319.544
65.48000 324.065
65.49000 328.660
65.50000 341.283
65.51000 359.327
65.52000 376.965
65.53000 383.400
65.54000 384.575
65.55000 385.824
65.56000 388.108
65.57000 390.725
65.58000 392.994
65.59000 392.427
65.60000 391.237
65.61000 390.218
65.62000 409.841
65.63000 428.908
65.64000 444.911
65.65000 450.125
65.66000 454.401
65.67000 466.452
65.68000 497.415
65.69000 529.230
65.70000 549.298
65.71000 616.058
65.72000 664.939
65.73000 711.981
65.74000 756.932
65.75000 801.932
65.76000 857.275
65.77000 920.389
65.78000 982.450
65.79000 1019.971
65.80000 1044.057
65.81000 1068.382
65.82000 1096.693
65.83000 1126.425
65.84000 1153.528
65.85000 1156.140
65.86000 1152.761
65.87000 1149.815
65.88000 1136.607
65.89000 1123.890
65.90000 1110.826
65.91000 1096.403
65.92000 1081.842
65.93000 1059.491
65.94000 1016.187
65.95000 971.727
65.96000 942.570
65.97000 864.193
65.98000 805.736
65.99000 742.060
66.00000 671.752
66.01000 601.450
66.02000 546.630
66.03000 504.795
66.04000 463.450
66.05000 428.342
66.06000 397.556
66.07000 367.750
66.08000 357.866
66.09000 355.834
66.10000 353.630
66.11000 349.582
66.12000 345.032
66.13000 340.999
66.14000 329.452
66.15000 318.267
66.16000 309.250
66.17000 309.670
66.18000 311.186
66.19000 312.149
66.20000 311.466
66.21000 310.673
66.22000 310.134
66.23000 328.843
66.24000 343.246
66.25000 352.690
66.26000 355.115
66.27000 357.490
66.28000 365.122
66.29000 377.692
66.30000 390.167
66.31000 404.407
66.32000 419.500
66.33000 434.167
66.34000 438.013
66.35000 437.146
66.36000 436.764
66.37000 442.500
66.38000 450.081
66.39000 456.904
66.40000 459.494
66.41000 461.006
66.42000 461.940
66.43000 460.075
66.44000 457.838
66.45000 456.353
66.46000 457.344
66.47000 458.530
66.48000 459.364
66.49000 439.893
66.50000 424.543
66.51000 412.323
66.52000 405.025
66.53000 397.788
66.54000 386.420
66.55000 370.688
66.56000 355.024
66.57000 348.674
66.58000 348.856
66.59000 348.869
66.60000 343.423
66.61000 335.346
66.62000 327.625
66.63000 325.202
66.64000 324.548
66.65000 323.951
66.66000 321.274
66.67000 318.478
66.68000 316.237
66.69000 317.019
66.70000 318.254
66.71000 318.991
66.72000 317.905
66.73000 316.651
66.74000 315.741
66.75000 317.322
66.76000 318.630
66.77000 319.916
66.78000 321.165
66.79000 322.414
66.80000 321.433
66.81000 317.815
66.82000 314.199
66.83000 318.235
66.84000 328.197
66.85000 338.046
66.86000 342.977
66.87000 345.286
66.88000 347.243
66.89000 342.920
66.90000 336.275
66.91000 330.131
66.92000 330.903
66.93000 333.176
66.94000 335.728
66.95000 339.990
66.96000 344.541
66.97000 347.295
66.98000 342.749
66.99000 337.426
67.00000 333.451
67.01000 334.777
67.02000 336.055
67.03000 338.751
67.04000 344.186
67.05000 349.689
67.06000 353.986
67.07000 356.689
67.08000 359.382
67.09000 361.789
67.10000 363.941
67.11000 366.149
67.12000 371.708
67.13000 379.248
67.14000 386.323
67.15000 383.196
67.16000 375.901
67.17000 369.075
67.18000 368.073
67.19000 368.655
67.20000 370.003
67.21000 376.633
67.22000 384.268
67.23000 390.278
67.24000 388.941
67.25000 386.709
67.26000 384.995
67.27000 391.255
67.28000 396.649
67.29000 400.418
67.30000 400.717
67.31000 400.900
67.32000 402.079
67.33000 404.725
67.34000 407.384
67.35000 405.727
67.36000 399.844
67.37000 393.982
67.38000 390.244
67.39000 387.896
67.40000 385.754
67.41000 389.294
67.42000 395.400
67.43000 401.177
67.44000 406.279
67.45000 410.776
67.46000 415.164
67.47000 418.707
67.48000 422.069
67.49000 424.854
67.50000 424.720
67.51000 424.180
67.52000 423.756
67.53000 434.289
67.54000 443.460
67.55000 448.375
67.56000 443.234
67.57000 437.668
67.58000 439.508
67.59000 453.441
67.60000 467.547
67.61000 474.939
67.62000 456.129
67.63000 443.460
67.64000 444.419
67.65000 455.308
67.66000 465.868
67.67000 464.636
67.68000 457.513
67.69000 450.708
67.70000 455.865
67.71000 464.509
67.72000 473.007
67.73000 480.198
67.74000 487.078
67.75000 491.845
67.76000 484.647
67.77000 475.571
67.78000 468.253
67.79000 465.741
67.80000 464.080
67.81000 464.495
67.82000 470.337
67.83000 476.462
67.84000 482.077
67.85000 486.772
67.86000 491.447
67.87000 494.031
67.88000 510.847
67.89000 522.443
67.90000 522.719
67.91000 513.798
67.92000 505.095
67.93000 507.037
67.94000 514.865
67.95000 522.409
67.96000 529.257
67.97000 535.441
67.98000 540.902
67.99000 538.895
68.00000 534.918
68.01000 531.633
68.02000 532.762
68.03000 534.672
68.04000 536.245
68.05000 545.060
68.06000 552.981
68.07000 558.386
68.08000 556.519
68.09000 554.193
68.10000 555.005
68.11000 562.102
68.12000 569.375
68.13000 573.595
68.14000 576.681
68.15000 578.841
68.16000 580.992
68.17000 583.134
68.18000 585.284
68.19000 588.003
68.20000 591.071
68.21000 594.050
68.22000 598.008
68.23000 602.160
68.24000 606.547
68.25000 613.761
68.26000 621.803
68.27000 629.363
68.28000 633.449
68.29000 636.847
68.30000 639.706
68.31000 642.952
68.32000 645.699
68.33000 652.192
68.34000 670.671
68.35000 690.050
68.36000 702.989
68.37000 701.661
68.38000 699.815
68.39000 698.694
68.40000 712.437
68.41000 722.355
68.42000 728.147
68.43000 729.722
68.44000 731.349
68.45000 738.685
68.46000 749.907
68.47000 760.881
68.48000 772.449
68.49000 783.809
68.50000 794.793
68.51000 800.458
68.52000 804.397
68.53000 810.913
68.54000 838.574
68.55000 870.917
68.56000 898.653
68.57000 923.152
68.58000 943.449
68.59000 966.755
68.60000 1000.729
68.61000 1035.643
68.62000 1071.846
68.63000 1111.209
68.64000 1150.715
68.65000 1175.708
68.66000 1264.063
68.67000 1328.868
68.68000 1383.360
68.69000 1426.029
68.70000 1468.742
68.71000 1523.645
68.72000 1587.780
68.73000 1650.868
68.74000 1717.450
68.75000 1783.643
68.76000 1849.423
68.77000 1908.199
68.78000 1964.460
68.79000 2021.761
68.80000 2088.844
68.81000 2158.337
68.82000 2219.001
68.83000 2348.785
68.84000 2469.528
68.85000 2598.890
68.86000 2762.203
68.87000 2928.982
68.88000 3165.627
68.89000 3591.541
68.90000 4028.045
68.91000 4315.070
68.92000 5896.865
68.93000 7083.461
68.94000 8937.509
68.95000 11646.548
68.96000 14360.399
68.97000 18018.582
68.98000 22475.168
68.99000 26880.912
69.00000 31915.727
69.01000 37182.363
69.02000 42398.957
69.03000 46582.313
69.04000 50355.523
69.05000 53973.168
69.06000 55896.582
69.07000 57355.996
69.08000 58651.102
69.09000 59365.055
69.10000 59890.914
69.11000 60421.238
69.12000 60971.121
69.13000 61523.301
69.14000 62113.332
69.15000 62816.813
69.16000 63527.922
69.17000 64012.621
69.18000 63930.238
69.19000 63855.586
69.20000 62989.203
69.21000 60993.207
69.22000 58988.480
69.23000 56064.289
69.24000 52268.953
69.25000 48501.613
69.26000 45163.934
69.27000 42150.070
69.28000 39170.914
69.29000 37085.398
69.30000 35392.102
69.31000 33747.875
69.32000 32728.453
69.33000 31898.791
69.34000 31151.244
69.35000 30343.809
69.36000 29624.574
69.37000 28788.600
69.38000 27381.604
69.39000 25898.174
69.40000 24217.361
69.41000 21881.342
69.42000 19493.203
69.43000 17810.064
69.44000 14541.004
69.45000 12014.167
69.46000 9822.124
69.47000 8160.752
69.48000 6506.063
69.49000 5258.756
69.50000 4445.381
69.51000 3635.545
69.52000 3088.142
69.53000 2729.879
69.54000 2375.635
69.55000 2154.399
69.56000 1997.723
69.57000 1843.484
69.58000 1725.979
69.59000 1620.829
69.60000 1524.747
69.61000 1441.907
69.62000 1371.039
69.63000 1306.465
69.64000 1276.362
69.65000 1251.490
69.66000 1224.646
69.67000 1190.548
69.68000 1155.776
69.69000 1130.493
69.70000 1087.371
69.71000 1053.519
69.72000 1019.535
69.73000 985.320
69.74000 951.101
69.75000 927.072
69.76000 915.202
69.77000 903.379
69.78000 890.081
69.79000 875.694
69.80000 861.309
69.81000 847.001
69.82000 832.736
69.83000 818.847
69.84000 811.803
69.85000 807.305
69.86000 803.142
69.87000 802.556
69.88000 802.851
69.89000 799.535
69.90000 773.980
69.91000 744.621
69.92000 719.457
69.93000 711.453
69.94000 705.292
69.95000 700.681
69.96000 710.150
69.97000 718.196
69.98000 716.405
69.99000 695.470
70.00000 674.041
