20.00000 567.051
20.01000 566.914
20.02000 566.758
20.03000 566.785
20.04000 567.546
20.05000 568.383
20.06000 569.005
20.07000 579.704
20.08000 588.478
20.09000 591.502
20.10000 583.582
20.11000 575.397
20.12000 572.993
20.13000 578.106
20.14000 583.246
20.15000 584.708
20.16000 583.015
20.17000 581.285
20.18000 577.475
20.19000 572.453
20.20000 567.759
20.21000 570.058
20.22000 575.170
20.23000 579.946
20.24000 570.310
20.25000 557.934
20.26000 547.744
20.27000 552.353
20.28000 559.732
20.29000 565.179
20.30000 562.028
20.31000 557.848
20.32000 554.652
20.33000 561.744
20.34000 567.897
20.35000 572.868
20.36000 575.349
20.37000 577.750
20.38000 579.704
20.39000 581.012
20.40000 582.315
20.41000 575.905
20.42000 562.072
20.43000 548.355
20.44000 544.913
20.45000 548.101
20.46000 551.320
20.47000 555.340
20.48000 559.717
20.49000 563.852
20.50000 561.805
20.51000 558.178
20.52000 554.998
20.53000 555.252
20.54000 556.225
20.55000 557.626
20.56000 561.154
20.57000 564.971
20.58000 567.967
20.59000 556.804
20.60000 546.958
20.61000 542.354
20.62000 549.962
20.63000 558.069
20.64000 560.664
20.65000 554.393
20.66000 548.004
20.67000 544.683
20.68000 563.805
20.69000 576.632
20.70000 575.289
20.71000 563.779
20.72000 552.700
20.73000 556.456
20.74000 567.514
20.75000 578.063
20.76000 577.626
20.77000 573.743
20.78000 570.068
20.79000 568.228
20.80000 566.817
20.81000 565.214
20.82000 562.545
20.83000 559.711
20.84000 557.435
20.85000 562.192
20.86000 566.588
20.87000 568.699
20.88000 564.924
20.89000 560.851
20.90000 558.374
20.91000 558.741
20.92000 559.165
20.93000 559.397
20.94000 551.203
20.95000 545.585
20.96000 550.666
20.97000 564.301
20.98000 577.664
20.99000 578.455
21.00000 572.395
21.01000 566.563
21.02000 562.560
21.03000 559.452
21.04000 556.506
21.05000 555.199
21.06000 554.318
21.07000 553.682
21.08000 554.584
21.09000 555.752
21.10000 556.713
21.11000 550.928
21.12000 545.569
21.13000 543.577
21.14000 551.170
21.15000 559.353
21.16000 561.725
21.17000 552.628
21.18000 543.223
21.19000 537.805
21.20000 545.459
21.21000 550.863
21.22000 550.504
21.23000 544.992
21.24000 539.616
21.25000 543.279
21.26000 552.397
21.27000 561.244
21.28000 558.308
21.29000 550.863
21.30000 544.183
21.31000 546.489
21.32000 551.385
21.33000 555.699
21.34000 555.887
21.35000 555.271
21.36000 554.754
21.37000 558.197
21.38000 561.476
21.39000 563.915
21.40000 563.703
21.41000 563.296
21.42000 562.096
21.43000 559.162
21.44000 556.167
21.45000 554.361
21.46000 554.032
21.47000 553.808
21.48000 554.110
21.49000 554.939
21.50000 555.761
21.51000 555.811
21.52000 555.344
21.53000 554.888
21.54000 557.144
21.55000 560.505
21.56000 563.064
21.57000 554.557
21.58000 542.514
21.59000 533.356
21.60000 547.437
21.61000 566.579
21.62000 582.950
21.63000 569.333
21.64000 554.247
21.65000 544.495
21.66000 553.377
21.67000 563.862
21.68000 572.653
21.69000 577.354
21.70000 581.874
21.71000 584.716
21.72000 580.111
21.73000 576.697
21.74000 579.079
21.75000 587.997
21.76000 596.898
21.77000 601.639
21.78000 603.277
21.79000 604.887
21.80000 612.659
21.81000 623.211
21.82000 633.260
21.83000 634.999
21.84000 633.801
21.85000 633.107
21.86000 637.076
21.87000 642.177
21.88000 646.618
21.89000 654.966
21.90000 662.633
21.91000 670.508
21.92000 679.188
21.93000 687.948
21.94000 694.824
21.95000 696.667
21.96000 698.236
21.97000 699.262
21.98000 699.159
21.99000 699.064
22.00000 703.639
22.01000 714.099
22.02000 724.576
22.03000 734.320
22.04000 743.452
22.05000 752.475
22.06000 754.495
22.07000 752.608
22.08000 750.782
22.09000 750.189
22.10000 750.078
22.11000 750.458
22.12000 756.077
22.13000 763.109
22.14000 769.335
22.15000 762.556
22.16000 754.655
22.17000 746.924
22.18000 739.928
22.19000 733.016
22.20000 727.466
22.21000 725.937
22.22000 724.671
22.23000 723.813
22.24000 727.505
22.25000 730.360
22.26000 724.278
22.27000 705.644
22.28000 686.925
22.29000 677.011
22.30000 675.297
22.31000 673.598
22.32000 665.858
22.33000 654.537
22.34000 643.225
22.35000 632.155
22.36000 621.188
22.37000 610.209
22.38000 599.061
22.39000 587.863
22.40000 577.796
22.41000 573.939
22.42000 571.666
22.43000 571.436
22.44000 581.043
22.45000 591.941
22.46000 599.793
22.47000 597.685
22.48000 594.803
22.49000 592.782
22.50000 581.706
22.51000 573.063
22.52000 564.538
22.53000 556.199
22.54000 547.862
22.55000 546.429
22.56000 552.225
22.57000 557.995
22.58000 561.232
22.59000 562.689
22.60000 563.733
22.61000 551.638
22.62000 533.258
22.63000 516.417
22.64000 522.199
22.65000 535.478
22.66000 547.587
22.67000 547.592
22.68000 545.166
22.69000 542.534
22.70000 538.785
22.71000 534.870
22.72000 532.291
22.73000 534.555
22.74000 537.258
22.75000 539.215
22.76000 544.486
22.77000 548.654
22.78000 551.087
22.79000 550.518
22.80000 549.896
22.81000 548.975
22.82000 547.703
22.83000 546.434
22.84000 544.198
22.85000 541.229
22.86000 538.227
22.87000 533.817
22.88000 528.661
22.89000 523.997
22.90000 528.002
22.91000 535.186
22.92000 541.823
22.93000 534.186
22.94000 524.105
22.95000 515.854
22.96000 518.683
22.97000 523.374
22.98000 528.761
22.99000 536.950
23.00000 545.434
23.01000 551.758
23.02000 536.932
23.03000 524.428
23.04000 515.435
23.05000 513.173
23.06000 511.078
23.07000 513.211
23.08000 520.887
23.09000 528.582
23.10000 525.716
23.11000 513.729
23.12000 501.896
23.13000 499.218
23.14000 501.907
23.15000 504.551
23.16000 506.248
23.17000 507.559
23.18000 508.785
23.19000 508.447
23.20000 507.742
23.21000 508.267
23.22000 517.196
23.23000 527.710
23.24000 534.778
23.25000 526.393
23.26000 516.141
23.27000 508.288
23.28000 507.941
23.29000 508.081
23.30000 507.823
23.31000 506.720
23.32000 505.589
23.33000 509.825
23.34000 521.891
23.35000 534.023
23.36000 535.582
23.37000 526.875
23.38000 518.223
23.39000 514.589
23.40000 514.219
23.41000 513.716
23.42000 509.631
23.43000 503.939
23.44000 498.559
23.45000 501.519
23.46000 506.615
23.47000 510.989
23.48000 509.760
23.49000 507.348
23.50000 505.899
23.51000 509.269
23.52000 513.302
23.53000 516.471
23.54000 519.203
23.55000 521.361
23.56000 523.659
23.57000 526.287
23.58000 528.929
23.59000 527.348
23.60000 518.923
23.61000 510.404
23.62000 505.958
23.63000 511.527
23.64000 515.284
23.65000 517.037
23.66000 517.341
23.67000 517.592
23.68000 516.021
23.69000 513.547
23.70000 511.185
23.71000 515.621
23.72000 521.913
23.73000 527.368
23.74000 525.409
23.75000 521.706
23.76000 517.681
23.77000 511.857
23.78000 505.754
23.79000 500.841
23.80000 512.278
23.81000 522.828
23.82000 529.550
23.83000 526.342
23.84000 522.623
23.85000 520.072
23.86000 519.618
23.87000 519.207
23.88000 518.981
23.89000 517.436
23.90000 516.376
23.91000 517.460
23.92000 520.272
23.93000 523.177
23.94000 530.539
23.95000 540.347
23.96000 549.793
23.97000 543.341
23.98000 531.609
23.99000 520.567
24.00000 516.576
24.01000 514.431
24.02000 514.231
24.03000 526.309
24.04000 540.540
24.05000 552.251
24.06000 546.093
24.07000 539.405
24.08000 532.754
24.09000 526.207
24.10000 519.667
24.11000 517.796
24.12000 525.209
24.13000 532.876
24.14000 537.308
24.15000 528.724
24.16000 522.656
24.17000 519.634
24.18000 519.357
24.19000 519.154
24.20000 524.052
24.21000 532.053
24.22000 539.819
24.23000 535.502
24.24000 526.587
24.25000 517.671
24.26000 508.733
24.27000 499.789
24.28000 491.636
24.29000 489.131
24.30000 487.735
24.31000 486.563
24.32000 496.995
24.33000 506.908
24.34000 513.152
24.35000 507.744
24.36000 501.471
24.37000 496.550
24.38000 494.597
24.39000 492.751
24.40000 491.634
24.41000 499.492
24.42000 505.157
24.43000 510.278
24.44000 514.847
24.45000 519.329
24.46000 514.401
24.47000 503.118
24.48000 492.090
24.49000 491.553
24.50000 495.710
24.51000 499.414
24.52000 496.780
24.53000 492.105
24.54000 487.303
24.55000 481.466
24.56000 475.401
24.57000 470.208
24.58000 474.578
24.59000 479.428
24.60000 483.029
24.61000 482.239
24.62000 481.067
24.63000 480.179
24.64000 479.983
24.65000 479.818
24.66000 479.714
24.67000 480.097
24.68000 480.380
24.69000 481.903
24.70000 484.835
24.71000 487.761
24.72000 489.206
24.73000 489.538
24.74000 489.864
24.75000 487.956
24.76000 484.999
24.77000 482.081
24.78000 479.806
24.79000 477.760
24.80000 476.313
24.81000 480.445
24.82000 485.942
24.83000 490.734
24.84000 496.686
24.85000 501.935
24.86000 506.097
24.87000 506.009
24.88000 505.492
24.89000 501.772
24.90000 489.444
24.91000 476.641
24.92000 468.246
24.93000 461.944
24.94000 457.344
24.95000 456.335
24.96000 459.886
24.97000 463.458
24.98000 469.243
24.99000 476.884
25.00000 484.436
25.01000 487.252
25.02000 487.370
25.03000 487.147
25.04000 479.996
25.05000 470.115
25.06000 461.895
25.07000 471.568
25.08000 486.104
25.09000 498.987
25.10000 495.564
25.11000 490.022
25.12000 485.791
25.13000 487.260
25.14000 489.390
25.15000 491.354
25.16000 492.823
25.17000 494.260
25.18000 495.236
25.19000 486.229
25.20000 479.279
25.21000 477.910
25.22000 484.439
25.23000 491.025
25.24000 494.681
25.25000 495.585
25.26000 496.483
25.27000 495.817
25.28000 494.193
25.29000 492.588
25.30000 491.455
25.31000 490.528
25.32000 489.599
25.33000 488.648
25.34000 487.690
25.35000 486.828
25.36000 485.716
25.37000 484.697
25.38000 484.277
25.39000 486.760
25.40000 489.629
25.41000 490.632
25.42000 485.491
25.43000 479.868
25.44000 475.914
25.45000 473.964
25.46000 472.546
25.47000 471.483
25.48000 470.980
25.49000 470.483
25.50000 474.081
25.51000 482.003
25.52000 489.890
25.53000 487.000
25.54000 476.662
25.55000 466.604
25.56000 465.604
25.57000 468.968
25.58000 472.028
25.59000 470.554
25.60000 467.566
25.61000 464.840
25.62000 470.338
25.63000 476.882
25.64000 481.257
25.65000 473.846
25.66000 464.664
25.67000 458.973
25.68000 466.033
25.69000 474.264
25.70000 480.235
25.71000 466.358
25.72000 454.954
25.73000 453.978
25.74000 471.189
25.75000 488.730
25.76000 490.401
25.77000 473.291
25.78000 456.184
25.79000 448.336
25.80000 447.723
25.81000 447.258
25.82000 453.263
25.83000 462.716
25.84000 471.358
25.85000 465.490
25.86000 454.263
25.87000 443.881
25.88000 450.088
25.89000 459.448
25.90000 468.122
25.91000 472.610
25.92000 476.389
25.93000 479.100
25.94000 477.479
25.95000 475.396
25.96000 473.841
25.97000 467.916
25.98000 463.096
25.99000 460.721
26.00000 463.070
26.01000 465.537
26.02000 465.841
26.03000 463.287
26.04000 460.721
26.05000 461.670
26.06000 465.682
26.07000 469.607
26.08000 468.227
26.09000 463.716
26.10000 459.280
26.11000 456.520
26.12000 454.445
26.13000 452.502
26.14000 453.872
26.15000 455.966
26.16000 457.727
26.17000 457.196
26.18000 456.229
26.19000 455.514
26.20000 455.943
26.21000 456.511
26.22000 456.948
26.23000 457.350
26.24000 457.666
26.25000 457.422
26.26000 455.982
26.27000 454.502
26.28000 452.932
26.29000 451.230
26.30000 449.526
26.31000 448.930
26.32000 449.419
26.33000 449.948
26.34000 454.280
26.35000 461.104
26.36000 467.756
26.37000 469.668
26.38000 469.441
26.39000 469.225
26.40000 460.704
26.41000 450.484
26.42000 441.404
26.43000 441.259
26.44000 443.014
26.45000 443.624
26.46000 438.451
26.47000 432.475
26.48000 427.770
26.49000 439.806
26.50000 450.566
26.51000 457.226
26.52000 454.199
26.53000 450.764
26.54000 448.498
26.55000 448.141
26.56000 447.811
26.57000 447.638
26.58000 449.601
26.59000 450.927
26.60000 451.716
26.61000 452.112
26.62000 452.464
26.63000 451.241
26.64000 449.232
26.65000 447.312
26.66000 452.779
26.67000 460.239
26.68000 466.243
26.69000 459.222
26.70000 449.111
26.71000 440.956
26.72000 443.866
26.73000 448.514
26.74000 452.260
26.75000 452.703
26.76000 452.802
26.77000 453.473
26.78000 455.635
26.79000 457.876
26.80000 457.674
26.81000 453.054
26.82000 448.344
26.83000 445.741
26.84000 443.583
26.85000 442.106
26.86000 444.459
26.87000 449.923
26.88000 455.284
26.89000 455.618
26.90000 453.173
26.91000 450.816
26.92000 448.273
26.93000 445.816
26.94000 443.950
26.95000 448.189
26.96000 454.037
26.97000 459.525
26.98000 462.715
26.99000 465.498
27.00000 467.792
27.01000 466.574
27.02000 465.248
27.03000 463.101
27.04000 458.582
27.05000 453.914
27.06000 448.828
27.07000 442.905
27.08000 436.958
27.09000 433.509
27.10000 443.001
27.11000 449.716
27.12000 454.846
27.13000 458.535
27.14000 462.114
27.15000 457.899
27.16000 448.909
27.17000 440.177
27.18000 443.270
27.19000 450.960
27.20000 457.552
27.21000 450.963
27.22000 440.516
27.23000 431.368
27.24000 431.586
27.25000 433.659
27.26000 435.402
27.27000 436.203
27.28000 436.770
27.29000 438.729
27.30000 445.142
27.31000 451.889
27.32000 455.645
27.33000 452.773
27.34000 449.661
27.35000 447.773
27.36000 437.701
27.37000 430.453
27.38000 423.808
27.39000 417.779
27.40000 411.823
27.41000 414.126
27.42000 422.047
27.43000 429.792
27.44000 433.817
27.45000 436.006
27.46000 438.279
27.47000 441.732
27.48000 445.569
27.49000 448.826
27.50000 447.322
27.51000 444.766
27.52000 442.574
27.53000 439.274
27.54000 436.352
27.55000 435.697
27.56000 443.083
27.57000 451.178
27.58000 454.969
27.59000 448.221
27.60000 440.993
27.61000 436.421
27.62000 440.626
27.63000 443.777
27.64000 444.409
27.65000 442.151
27.66000 439.894
27.67000 438.527
27.68000 437.832
27.69000 437.149
27.70000 437.562
27.71000 438.511
27.72000 439.364
27.73000 438.597
27.74000 437.249
27.75000 436.023
27.76000 435.949
27.77000 436.158
27.78000 436.340
27.79000 442.383
27.80000 448.375
27.81000 451.413
27.82000 442.821
27.83000 433.042
27.84000 426.240
27.85000 427.500
27.86000 429.211
27.87000 430.335
27.88000 433.540
27.89000 435.935
27.90000 435.864
27.91000 432.636
27.92000 429.400
27.93000 428.290
27.94000 428.977
27.95000 429.657
27.96000 436.036
27.97000 445.453
27.98000 454.199
27.99000 449.110
28.00000 438.530
28.01000 428.612
28.02000 425.899
28.03000 425.159
28.04000 424.502
28.05000 430.962
28.06000 437.694
28.07000 442.550
28.08000 439.178
28.09000 434.840
28.10000 430.076
28.11000 424.034
28.12000 417.905
28.13000 413.728
28.14000 422.207
28.15000 428.836
28.16000 432.289
28.17000 431.215
28.18000 430.106
28.19000 432.452
28.20000 438.069
28.21000 443.644
28.22000 444.694
28.23000 442.897
28.24000 441.216
28.25000 442.553
28.26000 445.213
28.27000 447.847
28.28000 450.151
28.29000 452.354
28.30000 454.338
28.31000 455.909
28.32000 457.213
28.33000 457.148
28.34000 450.389
28.35000 442.734
28.36000 437.440
28.37000 439.977
28.38000 443.138
28.39000 445.365
28.40000 437.680
28.41000 431.555
28.42000 430.762
28.43000 438.419
28.44000 446.183
28.45000 449.530
28.46000 448.174
28.47000 446.824
28.48000 442.432
28.49000 435.958
28.50000 429.573
28.51000 426.117
28.52000 424.083
28.53000 422.219
28.54000 422.934
28.55000 424.516
28.56000 425.961
28.57000 423.354
28.58000 420.211
28.59000 418.645
28.60000 425.709
28.61000 434.082
28.62000 441.520
28.63000 445.520
28.64000 449.201
28.65000 451.877
28.66000 443.007
28.67000 435.745
28.68000 430.198
28.69000 427.664
28.70000 425.186
28.71000 424.439
28.72000 425.758
28.73000 427.078
28.74000 425.040
28.75000 420.384
28.76000 415.928
28.77000 420.388
28.78000 429.635
28.79000 438.118
28.80000 432.755
28.81000 422.242
28.82000 412.512
28.83000 416.512
28.84000 423.267
28.85000 428.644
28.86000 425.544
28.87000 420.996
28.88000 416.955
28.89000 414.992
28.90000 413.252
28.91000 411.949
28.92000 410.522
28.93000 409.403
28.94000 410.386
28.95000 415.460
28.96000 420.639
28.97000 421.178
28.98000 415.540
28.99000 409.874
29.00000 405.536
29.01000 402.371
29.02000 399.215
29.03000 396.631
29.04000 394.387
29.05000 392.395
29.06000 396.036
29.07000 401.992
29.08000 407.571
29.09000 412.277
29.10000 416.332
29.11000 420.094
29.12000 421.815
29.13000 423.144
29.14000 424.951
29.15000 428.938
29.16000 433.192
29.17000 436.464
29.18000 427.386
29.19000 419.506
29.20000 415.512
29.21000 419.880
29.22000 424.530
29.23000 426.435
29.24000 424.272
29.25000 422.071
29.26000 419.739
29.27000 417.276
29.28000 414.869
29.29000 417.738
29.30000 424.092
29.31000 430.291
29.32000 432.155
29.33000 432.048
29.34000 431.946
29.35000 433.111
29.36000 434.551
29.37000 434.612
29.38000 423.783
29.39000 410.618
29.40000 399.752
29.41000 400.581
29.42000 403.047
29.43000 404.992
29.44000 404.401
29.45000 403.755
29.46000 403.953
29.47000 406.160
29.48000 408.453
29.49000 411.487
29.50000 415.740
29.51000 420.011
29.52000 422.258
29.53000 411.842
29.54000 404.800
29.55000 402.394
29.56000 403.392
29.57000 404.481
29.58000 408.888
29.59000 414.963
29.60000 420.771
29.61000 418.812
29.62000 414.470
29.63000 410.624
29.64000 411.259
29.65000 412.966
29.66000 414.140
29.67000 412.274
29.68000 409.927
29.69000 408.031
29.70000 410.942
29.71000 413.691
29.72000 414.940
29.73000 412.245
29.74000 409.342
29.75000 410.662
29.76000 419.679
29.77000 428.859
29.78000 433.948
29.79000 430.584
29.80000 428.251
29.81000 428.650
29.82000 431.285
29.83000 433.832
29.84000 432.000
29.85000 427.728
29.86000 423.609
29.87000 426.520
29.88000 431.805
29.89000 437.032
29.90000 441.649
29.91000 446.103
29.92000 449.094
29.93000 442.678
29.94000 434.587
29.95000 427.908
29.96000 428.081
29.97000 428.860
29.98000 430.555
29.99000 434.913
30.00000 439.441
30.01000 440.924
30.02000 436.263
30.03000 431.427
30.04000 428.612
30.05000 438.480
30.06000 445.468
30.07000 447.598
30.08000 445.278
30.09000 443.049
30.10000 447.401
30.11000 455.816
30.12000 463.993
30.13000 462.228
30.14000 456.524
30.15000 450.967
30.16000 447.205
30.17000 443.972
30.18000 440.925
30.19000 439.226
30.20000 437.796
30.21000 436.591
30.22000 439.135
30.23000 441.661
30.24000 445.317
30.25000 452.612
30.26000 460.184
30.27000 462.167
30.28000 451.682
30.29000 440.737
30.30000 434.075
30.31000 437.075
30.32000 439.293
30.33000 437.557
30.34000 431.747
30.35000 425.985
30.36000 425.816
30.37000 429.482
30.38000 433.069
30.39000 434.567
30.40000 435.059
30.41000 435.181
30.42000 429.995
30.43000 423.076
30.44000 417.592
30.45000 423.997
30.46000 433.053
30.47000 440.828
30.48000 435.790
30.49000 429.944
30.50000 426.278
30.51000 430.399
30.52000 435.213
30.53000 438.597
30.54000 438.455
30.55000 438.150
30.56000 437.956
30.57000 446.318
30.58000 452.490
30.59000 456.490
30.60000 457.979
30.61000 459.453
30.62000 458.077
30.63000 454.525
30.64000 451.031
30.65000 446.924
30.66000 442.637
30.67000 438.661
30.68000 440.010
30.69000 443.283
30.70000 446.487
30.71000 449.037
30.72000 451.424
30.73000 453.510
30.74000 458.966
30.75000 464.115
30.76000 468.588
30.77000 470.378
30.78000 471.891
30.79000 474.408
30.80000 479.663
30.81000 485.074
30.82000 488.640
30.83000 495.618
30.84000 500.820
30.85000 503.920
30.86000 504.306
30.87000 504.678
30.88000 502.714
30.89000 498.759
30.90000 494.848
30.91000 503.476
30.92000 518.977
30.93000 534.232
30.94000 544.316
30.95000 552.335
30.96000 560.431
30.97000 569.387
30.98000 578.579
30.99000 586.746
31.00000 598.136
31.01000 608.534
31.02000 620.772
31.03000 641.135
31.04000 662.461
31.05000 681.689
31.06000 694.588
31.07000 707.056
31.08000 715.575
31.09000 785.614
31.10000 839.457
31.11000 885.966
31.12000 921.934
31.13000 957.820
31.14000 998.584
31.15000 1044.008
31.16000 1089.108
31.17000 1157.285
31.18000 1238.919
31.19000 1321.060
31.20000 1416.454
31.21000 1517.704
31.22000 1619.252
31.23000 1724.634
31.24000 1831.188
31.25000 1927.292
31.26000 2047.045
31.27000 2156.515
31.28000 2264.197
31.29000 2363.065
31.30000 2460.743
31.31000 2565.969
31.32000 2696.425
31.33000 2828.911
31.34000 2922.492
31.35000 3032.586
31.36000 3116.668
31.37000 3181.974
31.38000 3217.306
31.39000 3252.250
31.40000 3264.617
31.41000 3252.745
31.42000 3240.914
31.43000 3228.410
31.44000 3215.553
31.45000 3201.734
31.46000 3155.474
31.47000 3093.360
31.48000 3029.253
31.49000 2934.743
31.50000 2829.936
31.51000 2734.080
31.52000 2603.221
31.53000 2479.689
31.54000 2357.829
31.55000 2245.193
31.56000 2133.969
31.57000 2022.230
31.58000 1908.583
31.59000 1794.756
31.60000 1711.824
31.61000 1597.293
31.62000 1507.876
31.63000 1422.248
31.64000 1343.326
31.65000 1264.532
31.66000 1188.757
31.67000 1116.611
31.68000 1044.604
31.69000 990.615
31.70000 951.106
31.71000 911.642
31.72000 874.216
31.73000 837.891
31.74000 801.902
31.75000 772.064
31.76000 744.532
31.77000 719.026
31.78000 690.466
31.79000 664.064
31.80000 640.735
31.81000 636.482
31.82000 635.517
31.83000 631.150
31.84000 612.762
31.85000 592.853
31.86000 577.921
31.87000 556.019
31.88000 538.583
31.89000 527.322
31.90000 528.166
31.91000 529.327
31.92000 524.212
31.93000 510.676
31.94000 497.102
31.95000 485.271
31.96000 474.998
31.97000 464.832
31.98000 461.569
31.99000 462.441
32.00000 463.277
32.01000 463.291
32.02000 462.965
32.03000 462.659
32.04000 456.163
32.05000 448.637
32.06000 442.008
32.07000 441.682
32.08000 442.574
32.09000 443.054
32.10000 441.637
32.11000 439.985
32.12000 438.712
32.13000 439.365
32.14000 439.991
32.15000 436.345
32.16000 423.438
32.17000 410.210
32.18000 402.964
32.19000 404.643
32.20000 406.408
32.21000 411.771
32.22000 420.716
32.23000 429.596
32.24000 431.858
32.25000 429.718
32.26000 427.502
32.27000 423.090
32.28000 417.673
32.29000 412.540
32.30000 409.049
32.31000 406.314
32.32000 404.110
32.33000 406.147
32.34000 409.100
32.35000 410.592
32.36000 404.591
32.37000 397.531
32.38000 391.953
32.39000 401.535
32.40000 410.263
32.41000 415.371
32.42000 411.803
32.43000 407.857
32.44000 408.747
32.45000 417.646
32.46000 426.665
32.47000 431.429
32.48000 414.636
32.49000 403.260
32.50000 399.063
32.51000 400.178
32.52000 401.245
32.53000 400.511
32.54000 398.866
32.55000 397.292
32.56000 398.635
32.57000 400.841
32.58000 402.863
32.59000 403.213
32.60000 403.161
32.61000 401.872
32.62000 393.465
32.63000 383.921
32.64000 376.202
32.65000 388.371
32.66000 399.874
32.67000 407.567
32.68000 405.166
32.69000 402.222
32.70000 399.555
32.71000 397.395
32.72000 395.246
32.73000 394.050
32.74000 396.535
32.75000 398.247
32.76000 393.333
32.77000 382.951
32.78000 372.711
32.79000 369.667
32.80000 370.661
32.81000 371.620
32.82000 382.374
32.83000 396.075
32.84000 408.631
32.85000 409.113
32.86000 406.363
32.87000 405.065
32.88000 413.187
32.89000 423.001
32.90000 431.114
32.91000 423.800
32.92000 416.321
32.93000 409.394
32.94000 404.085
32.95000 398.880
32.96000 397.380
32.97000 403.406
32.98000 409.652
32.99000 413.298
33.00000 412.281
33.01000 411.544
33.02000 413.429
33.03000 417.736
33.04000 421.958
33.05000 419.852
33.06000 413.811
33.07000 407.938
33.08000 399.123
33.09000 389.538
33.10000 380.257
33.11000 374.704
33.12000 370.259
33.13000 366.013
33.14000 363.228
33.15000 360.737
33.16000 358.636
33.17000 356.302
33.18000 354.327
33.19000 353.014
33.20000 353.849
33.21000 354.848
33.22000 355.741
33.23000 356.396
33.24000 357.042
33.25000 357.437
33.26000 350.792
33.27000 345.984
33.28000 344.351
33.29000 346.016
33.30000 347.683
33.31000 349.654
33.32000 351.835
33.33000 353.969
33.34000 355.837
33.35000 357.510
33.36000 358.930
33.37000 356.671
33.38000 353.202
33.39000 350.225
33.40000 351.372
33.41000 353.445
33.42000 355.228
33.43000 352.599
33.44000 349.823
33.45000 348.556
33.46000 352.722
33.47000 357.377
33.48000 361.602
33.49000 364.758
33.50000 367.864
33.51000 369.840
33.52000 362.325
33.53000 356.746
33.54000 352.307
33.55000 349.194
33.56000 346.098
33.57000 346.478
33.58000 349.533
33.59000 352.539
33.60000 353.937
33.61000 354.472
33.62000 354.886
33.63000 353.196
33.64000 350.741
33.65000 348.519
33.66000 348.536
33.67000 349.115
33.68000 349.621
33.69000 349.832
33.70000 349.972
33.71000 350.167
33.72000 350.586
33.73000 351.027
33.74000 350.778
33.75000 348.631
33.76000 346.375
33.77000 344.884
33.78000 351.017
33.79000 355.677
33.80000 357.001
33.81000 353.983
33.82000 350.947
33.83000 348.339
33.84000 346.098
33.85000 343.881
33.86000 343.687
33.87000 344.648
33.88000 345.632
33.89000 347.103
33.90000 348.769
33.91000 350.173
33.92000 348.655
33.93000 346.325
33.94000 344.252
33.95000 343.484
33.96000 343.028
33.97000 342.917
33.98000 344.333
33.99000 345.933
34.00000 346.639
34.01000 344.630
34.02000 342.434
34.03000 340.929
34.04000 340.467
34.05000 340.146
34.06000 339.725
34.07000 339.161
34.08000 338.595
34.09000 338.438
34.10000 338.672
34.11000 338.906
34.12000 339.426
34.13000 340.120
34.14000 340.766
34.15000 340.103
34.16000 338.858
34.17000 337.552
34.18000 335.460
34.19000 333.125
34.20000 331.017
34.21000 326.136
34.22000 321.336
34.23000 318.693
34.24000 326.771
34.25000 336.309
34.26000 343.938
34.27000 345.137
34.28000 345.812
34.29000 346.291
34.30000 344.148
34.31000 342.438
34.32000 340.170
34.33000 337.002
34.34000 333.822
34.35000 333.885
34.36000 337.459
34.37000 341.021
34.38000 344.711
34.39000 348.459
34.40000 352.033
34.41000 349.623
34.42000 344.268
34.43000 339.324
34.44000 340.750
34.45000 344.347
34.46000 347.641
34.47000 353.185
34.48000 358.585
34.49000 361.873
34.50000 353.400
34.51000 343.113
34.52000 334.590
34.53000 332.659
34.54000 331.353
34.55000 330.400
34.56000 339.218
34.57000 346.397
34.58000 349.622
34.59000 345.794
34.60000 341.828
34.61000 338.011
34.62000 334.372
34.63000 330.740
34.64000 329.042
34.65000 328.890
34.66000 328.731
34.67000 328.177
34.68000 327.409
34.69000 326.598
34.70000 325.003
34.71000 323.112
34.72000 321.358
34.73000 325.320
34.74000 330.225
34.75000 334.303
34.76000 333.206
34.77000 331.209
34.78000 329.483
34.79000 328.882
34.80000 328.404
34.81000 328.045
34.82000 336.812
34.83000 344.105
34.84000 344.868
34.85000 332.741
34.86000 320.268
34.87000 315.426
34.88000 320.901
34.89000 326.430
34.90000 326.228
34.91000 320.906
34.92000 315.736
34.93000 320.653
34.94000 331.659
34.95000 342.116
34.96000 339.950
34.97000 332.518
34.98000 325.546
34.99000 322.640
35.00000 321.060
35.01000 319.915
35.02000 321.848
35.03000 324.381
35.04000 326.323
35.05000 325.536
35.06000 324.406
35.07000 323.533
35.08000 321.189
35.09000 319.246
35.10000 317.863
35.11000 317.707
35.12000 317.593
35.13000 318.034
35.14000 319.308
35.15000 320.591
35.16000 321.234
35.17000 323.753
35.18000 325.382
35.19000 321.614
35.20000 314.229
35.21000 307.085
35.22000 306.937
35.23000 310.017
35.24000 312.938
35.25000 316.089
35.26000 319.061
35.27000 322.352
35.28000 328.203
35.29000 334.612
35.30000 339.044
35.31000 333.248
35.32000 325.995
35.33000 320.254
35.34000 318.849
35.35000 318.020
35.36000 318.265
35.37000 321.103
35.38000 324.056
35.39000 325.537
35.40000 324.560
35.41000 323.544
35.42000 323.006
35.43000 317.360
35.44000 313.523
35.45000 310.913
35.46000 309.216
35.47000 307.567
35.48000 307.718
35.49000 308.788
35.50000 309.812
35.51000 313.617
35.52000 318.079
35.53000 321.662
35.54000 317.149
35.55000 310.669
35.56000 304.729
35.57000 301.914
35.58000 299.603
35.59000 297.731
35.60000 303.226
35.61000 308.301
35.62000 312.088
35.63000 312.439
35.64000 312.603
35.65000 312.420
35.66000 311.597
35.67000 310.761
35.68000 310.293
35.69000 307.233
35.70000 305.117
35.71000 307.393
35.72000 313.321
35.73000 319.134
35.74000 318.917
35.75000 315.292
35.76000 311.793
35.77000 305.646
35.78000 298.881
35.79000 293.138
35.80000 298.273
35.81000 306.342
35.82000 312.831
35.83000 308.983
35.84000 303.262
35.85000 298.526
35.86000 308.376
35.87000 317.890
35.88000 324.188
35.89000 320.986
35.90000 317.161
35.91000 315.171
35.92000 316.936
35.93000 318.812
35.94000 319.911
35.95000 308.940
35.96000 301.155
35.97000 298.385
35.98000 300.287
35.99000 302.177
36.00000 303.163
36.01000 303.582
36.02000 303.990
36.03000 307.455
36.04000 312.010
36.05000 315.958
36.06000 312.362
36.07000 306.508
36.08000 301.556
36.09000 303.292
36.10000 306.385
36.11000 308.998
36.12000 311.306
36.13000 313.203
36.14000 313.233
36.15000 307.157
36.16000 300.607
36.17000 295.623
36.18000 294.183
36.19000 292.880
36.20000 292.081
36.21000 300.215
36.22000 306.114
36.23000 310.695
36.24000 313.895
36.25000 317.019
36.26000 310.354
36.27000 296.877
36.28000 283.680
36.29000 283.011
36.30000 288.125
36.31000 293.027
36.32000 294.809
36.33000 295.556
36.34000 296.189
36.35000 295.864
36.36000 295.322
36.37000 294.856
36.38000 294.035
36.39000 293.296
36.40000 291.787
36.41000 287.487
36.42000 282.934
36.43000 279.693
36.44000 279.735
36.45000 279.934
36.46000 280.061
36.47000 289.651
36.48000 296.748
36.49000 304.192
36.50000 312.043
36.51000 319.860
36.52000 318.636
36.53000 310.406
36.54000 302.302
36.55000 298.051
36.56000 295.908
36.57000 294.209
36.58000 300.361
36.59000 309.392
36.60000 317.158
36.61000 312.654
36.62000 305.057
36.63000 298.401
36.64000 299.947
36.65000 302.456
36.66000 304.464
36.67000 304.453
36.68000 304.229
36.69000 303.395
36.70000 300.872
36.71000 298.251
36.72000 296.514
36.73000 306.459
36.74000 314.017
36.75000 317.591
36.76000 315.942
36.77000 314.271
36.78000 313.068
36.79000 312.271
36.80000 311.482
36.81000 308.795
36.82000 305.080
36.83000 301.374
36.84000 297.844
36.85000 294.387
36.86000 291.513
36.87000 295.198
36.88000 300.721
36.89000 305.638
36.90000 303.940
36.91000 301.380
36.92000 299.697
36.93000 301.943
36.94000 304.663
36.95000 306.228
36.96000 304.254
36.97000 302.034
36.98000 300.510
36.99000 300.025
37.00000 299.686
37.01000 299.782
37.02000 300.513
37.03000 301.249
37.04000 306.558
37.05000 316.309
37.06000 325.995
37.07000 321.860
37.08000 308.934
37.09000 296.327
37.10000 292.356
37.11000 292.256
37.12000 292.593
37.13000 298.685
37.14000 306.563
37.15000 313.684
37.16000 313.367
37.17000 311.706
37.18000 309.713
37.19000 306.054
37.20000 302.167
37.21000 299.628
37.22000 301.666
37.23000 304.081
37.24000 305.794
37.25000 308.789
37.26000 311.108
37.27000 310.386
37.28000 304.735
37.29000 299.017
37.30000 298.068
37.31000 302.324
37.32000 306.567
37.33000 307.993
37.34000 307.389
37.35000 306.711
37.36000 303.481
37.37000 298.986
37.38000 294.578
37.39000 291.541
37.40000 288.976
37.41000 286.626
37.42000 286.355
37.43000 286.551
37.44000 286.453
37.45000 284.707
37.46000 282.706
37.47000 280.866
37.48000 279.631
37.49000 278.455
37.50000 277.594
37.51000 292.731
37.52000 305.047
37.53000 314.141
37.54000 317.449
37.55000 320.640
37.56000 316.612
37.57000 303.764
37.58000 290.915
37.59000 289.689
37.60000 297.797
37.61000 305.619
37.62000 299.822
37.63000 286.549
37.64000 273.971
37.65000 274.518
37.66000 280.054
37.67000 285.192
37.68000 289.097
37.69000 292.326
37.70000 294.775
37.71000 292.305
37.72000 288.973
37.73000 286.542
37.74000 287.879
37.75000 289.634
37.76000 290.955
37.77000 291.088
37.78000 291.135
37.79000 290.951
37.80000 290.306
37.81000 289.649
37.82000 292.719
37.83000 300.868
37.84000 309.044
37.85000 308.741
37.86000 300.801
37.87000 292.960
37.88000 291.919
37.89000 295.016
37.90000 297.725
37.91000 291.419
37.92000 281.322
37.93000 271.844
37.94000 277.026
37.95000 285.633
37.96000 293.860
37.97000 299.362
37.98000 304.329
37.99000 307.521
38.00000 302.431
38.01000 296.294
38.02000 291.548
38.03000 295.452
38.04000 299.060
38.05000 302.444
38.06000 305.339
38.07000 308.216
38.08000 312.625
38.09000 319.353
38.10000 326.106
38.11000 329.504
38.12000 312.125
38.13000 300.598
38.14000 298.121
38.15000 301.755
38.16000 305.390
38.17000 309.062
38.18000 312.751
38.19000 316.252
38.20000 319.343
38.21000 322.072
38.22000 324.268
38.23000 322.126
38.24000 319.033
38.25000 317.563
38.26000 324.554
38.27000 332.762
38.28000 339.270
38.29000 336.883
38.30000 334.341
38.31000 330.570
38.32000 323.810
38.33000 316.917
38.34000 319.243
38.35000 337.071
38.36000 355.145
38.37000 364.766
38.38000 364.420
38.39000 364.201
38.40000 368.728
38.41000 376.819
38.42000 384.824
38.43000 389.482
38.44000 392.418
38.45000 395.231
38.46000 400.716
38.47000 406.719
38.48000 414.804
38.49000 442.289
38.50000 474.519
38.51000 505.209
38.52000 526.893
38.53000 547.112
38.54000 563.519
38.55000 585.448
38.56000 603.779
38.57000 622.579
38.58000 642.640
38.59000 662.769
38.60000 691.426
38.61000 735.967
38.62000 780.867
38.63000 806.032
38.64000 848.220
38.65000 877.501
38.66000 904.508
38.67000 929.608
38.68000 954.602
38.69000 973.903
38.70000 989.963
38.71000 1005.477
38.72000 1016.979
38.73000 1026.332
38.74000 1035.715
38.75000 1045.429
38.76000 1055.232
38.77000 1063.209
38.78000 1059.143
38.79000 1052.876
38.80000 1047.679
38.81000 1018.429
38.82000 991.956
38.83000 963.569
38.84000 929.483
38.85000 895.018
38.86000 861.808
38.87000 831.185
38.88000 800.639
38.89000 782.685
38.90000 746.995
38.91000 721.739
38.92000 693.588
38.93000 662.718
38.94000 631.834
38.95000 599.817
38.96000 567.085
38.97000 535.229
38.98000 507.573
38.99000 482.979
39.00000 459.326
39.01000 447.528
39.02000 439.302
39.03000 430.386
39.04000 416.309
39.05000 401.177
39.06000 388.375
39.07000 382.189
39.08000 377.746
39.09000 371.452
39.10000 359.064
39.11000 346.196
39.12000 335.233
39.13000 328.612
39.14000 322.160
39.15000 318.197
39.16000 319.869
39.17000 321.117
39.18000 318.508
39.19000 311.824
39.20000 305.184
39.21000 304.251
39.22000 307.322
39.23000 310.330
39.24000 308.599
39.25000 304.738
39.26000 300.923
39.27000 297.775
39.28000 294.851
39.29000 291.909
39.30000 288.827
39.31000 285.712
39.32000 283.027
39.33000 286.403
39.34000 290.037
39.35000 293.426
39.36000 295.918
39.37000 298.328
39.38000 298.281
39.39000 292.042
39.40000 285.504
39.41000 281.321
39.42000 285.781
39.43000 289.144
39.44000 292.452
39.45000 295.696
39.46000 298.926
39.47000 298.470
39.48000 295.135
39.49000 291.850
39.50000 287.909
39.51000 283.745
39.52000 279.761
39.53000 278.997
39.54000 279.424
39.55000 279.607
39.56000 277.409
39.57000 274.607
39.58000 272.149
39.59000 275.971
39.60000 280.167
39.61000 283.603
39.62000 283.953
39.63000 283.976
39.64000 284.303
39.65000 285.479
39.66000 286.706
39.67000 287.521
39.68000 283.878
39.69000 281.101
39.70000 276.624
39.71000 269.903
39.72000 263.176
39.73000 260.423
39.74000 261.137
39.75000 261.845
39.76000 267.557
39.77000 276.036
39.78000 284.096
39.79000 282.977
39.80000 278.110
39.81000 273.445
39.82000 271.084
39.83000 269.372
39.84000 267.845
39.85000 269.795
39.86000 272.065
39.87000 274.299
39.88000 276.367
39.89000 278.414
39.90000 277.984
39.91000 269.910
39.92000 261.296
39.93000 255.367
39.94000 252.394
39.95000 250.237
39.96000 253.119
39.97000 263.413
39.98000 273.772
39.99000 279.508
40.00000 280.718
40.01000 281.920
40.02000 278.160
40.03000 271.251
40.04000 264.443
40.05000 260.393
40.06000 257.590
40.07000 255.080
40.08000 256.479
40.09000 259.100
40.10000 261.471
40.11000 268.884
40.12000 276.355
40.13000 281.485
40.14000 274.795
40.15000 266.465
40.16000 261.081
40.17000 265.768
40.18000 271.293
40.19000 275.222
40.20000 264.685
40.21000 256.196
40.22000 252.341
40.23000 256.054
40.24000 259.875
40.25000 261.892
40.26000 261.923
40.27000 261.953
40.28000 261.425
40.29000 260.499
40.30000 259.710
40.31000 263.831
40.32000 270.406
40.33000 276.425
40.34000 273.625
40.35000 267.772
40.36000 262.404
40.37000 258.350
40.38000 255.015
40.39000 252.451
40.40000 254.257
40.41000 256.749
40.42000 257.555
40.43000 251.967
40.44000 245.760
40.45000 241.209
40.46000 247.274
40.47000 252.386
40.48000 257.153
40.49000 261.295
40.50000 265.424
40.51000 265.550
40.52000 260.747
40.53000 255.938
40.54000 253.505
40.55000 253.003
40.56000 252.531
40.57000 253.549
40.58000 255.389
40.59000 257.270
40.60000 259.913
40.61000 262.849
40.62000 265.575
40.63000 264.859
40.64000 263.394
40.65000 261.391
40.66000 255.959
40.67000 249.921
40.68000 246.219
40.69000 252.368
40.70000 259.618
40.71000 265.088
40.72000 253.971
40.73000 244.444
40.74000 241.365
40.75000 251.198
40.76000 261.393
40.77000 267.112
40.78000 266.685
40.79000 266.220
40.80000 262.257
40.81000 255.120
40.82000 248.062
40.83000 246.533
40.84000 248.393
40.85000 250.149
40.86000 249.447
40.87000 247.705
40.88000 246.067
40.89000 245.773
40.90000 245.863
40.91000 246.362
40.92000 249.805
40.93000 253.831
40.94000 256.375
40.95000 251.953
40.96000 246.641
40.97000 242.525
40.98000 246.848
40.99000 250.785
41.00000 253.154
41.01000 252.053
41.02000 250.825
41.03000 250.313
41.04000 250.890
41.05000 251.480
41.06000 251.778
41.07000 257.066
41.08000 260.521
41.09000 254.564
41.10000 242.203
41.11000 230.162
41.12000 227.735
41.13000 229.809
41.14000 231.779
41.15000 239.107
41.16000 247.476
41.17000 254.857
41.18000 254.137
41.19000 251.624
41.20000 249.435
41.21000 248.945
41.22000 248.703
41.23000 248.510
41.24000 246.545
41.25000 244.838
41.26000 245.250
41.27000 250.851
41.28000 256.689
41.29000 259.488
41.30000 257.139
41.31000 254.706
41.32000 253.407
41.33000 250.773
41.34000 248.980
41.35000 248.172
41.36000 248.109
41.37000 248.011
41.38000 246.501
41.39000 244.260
41.40000 242.113
41.41000 243.920
41.42000 246.931
41.43000 249.747
41.44000 250.730
41.45000 251.261
41.46000 251.730
41.47000 251.832
41.48000 251.874
41.49000 251.908
41.50000 249.805
41.51000 247.912
41.52000 245.096
41.53000 239.783
41.54000 234.329
41.55000 232.088
41.56000 235.871
41.57000 239.794
41.58000 242.000
41.59000 243.728
41.60000 244.921
41.61000 242.780
41.62000 237.821
41.63000 232.973
41.64000 234.189
41.65000 238.882
41.66000 243.419
41.67000 242.801
41.68000 240.289
41.69000 238.187
41.70000 240.554
41.71000 244.143
41.72000 247.572
41.73000 249.930
41.74000 252.090
41.75000 253.885
41.76000 252.424
41.77000 250.900
41.78000 248.794
41.79000 244.946
41.80000 240.980
41.81000 239.921
41.82000 244.894
41.83000 250.054
41.84000 253.097
41.85000 253.730
41.86000 254.163
41.87000 250.981
41.88000 244.374
41.89000 237.832
41.90000 236.611
41.91000 238.773
41.92000 240.878
41.93000 246.867
41.94000 254.197
41.95000 260.808
41.96000 258.262
41.97000 252.936
41.98000 247.970
41.99000 245.726
42.00000 244.043
42.01000 242.618
42.02000 241.590
42.03000 240.773
42.04000 239.192
42.05000 235.070
42.06000 230.746
42.07000 227.917
42.08000 228.520
42.09000 229.258
42.10000 229.712
42.11000 238.437
42.12000 244.772
42.13000 246.516
42.14000 243.371
42.15000 240.255
42.16000 241.343
42.17000 245.400
42.18000 249.377
42.19000 247.522
42.20000 243.015
42.21000 238.623
42.22000 235.966
42.23000 233.894
42.24000 231.898
42.25000 230.567
42.26000 229.389
42.27000 228.371
42.28000 231.451
42.29000 234.591
42.30000 236.613
42.31000 234.517
42.32000 232.038
42.33000 230.661
42.34000 232.082
42.35000 233.641
42.36000 234.641
42.37000 239.924
42.38000 243.834
42.39000 243.955
42.40000 239.556
42.41000 235.160
42.42000 234.002
42.43000 235.395
42.44000 236.768
42.45000 236.873
42.46000 236.314
42.47000 235.699
42.48000 234.056
42.49000 232.031
42.50000 230.511
42.51000 233.996
42.52000 238.761
42.53000 242.947
42.54000 240.329
42.55000 237.079
42.56000 233.680
42.57000 229.672
42.58000 225.597
42.59000 225.635
42.60000 237.219
42.61000 249.493
42.62000 257.670
42.63000 248.488
42.64000 241.359
42.65000 235.935
42.66000 232.780
42.67000 229.640
42.68000 231.033
42.69000 236.414
42.70000 241.742
42.71000 243.155
42.72000 242.259
42.73000 241.349
42.74000 240.124
42.75000 238.769
42.76000 237.485
42.77000 237.017
42.78000 236.781
42.79000 236.570
42.80000 233.756
42.81000 230.872
42.82000 228.351
42.83000 227.487
42.84000 226.826
42.85000 227.778
42.86000 233.742
42.87000 240.064
42.88000 244.426
42.89000 244.104
42.90000 243.743
42.91000 243.433
42.92000 243.197
42.93000 242.961
42.94000 241.088
42.95000 237.598
42.96000 234.129
42.97000 233.479
42.98000 234.674
42.99000 235.998
43.00000 240.943
43.01000 247.536
43.02000 253.222
43.03000 246.653
43.04000 236.225
43.05000 226.781
43.06000 232.264
43.07000 239.917
43.08000 245.464
43.09000 240.292
43.10000 233.620
43.11000 228.572
43.12000 229.116
43.13000 230.132
43.14000 230.856
43.15000 226.726
43.16000 223.419
43.17000 221.933
43.18000 223.443
43.19000 224.996
43.20000 225.505
43.21000 224.855
43.22000 224.207
43.23000 225.658
43.24000 228.627
43.25000 231.524
43.26000 231.774
43.27000 230.693
43.28000 229.724
43.29000 230.551
43.30000 232.003
43.31000 233.336
43.32000 232.013
43.33000 230.267
43.34000 229.351
43.35000 233.181
43.36000 237.761
43.37000 240.359
43.38000 235.380
43.39000 229.659
43.40000 225.456
43.41000 227.387
43.42000 229.130
43.43000 230.019
43.44000 229.349
43.45000 228.645
43.46000 228.404
43.47000 228.737
43.48000 229.070
43.49000 230.129
43.50000 231.777
43.51000 233.382
43.52000 232.899
43.53000 231.253
43.54000 229.756
43.55000 231.162
43.56000 233.688
43.57000 236.036
43.58000 237.531
43.59000 238.675
43.60000 239.286
43.61000 236.472
43.62000 233.049
43.63000 229.745
43.64000 226.947
43.65000 224.206
43.66000 222.135
43.67000 217.257
43.68000 213.291
43.69000 211.799
43.70000 215.297
43.71000 218.937
43.72000 220.600
43.73000 219.530
43.74000 218.442
43.75000 219.551
43.76000 222.670
43.77000 225.795
43.78000 229.386
43.79000 233.265
43.80000 236.906
43.81000 234.836
43.82000 230.330
43.83000 226.093
43.84000 222.238
43.85000 218.820
43.86000 216.065
43.87000 218.126
43.88000 221.150
43.89000 223.885
43.90000 225.246
43.91000 226.430
43.92000 227.348
43.93000 221.702
43.94000 216.816
43.95000 214.073
43.96000 216.112
43.97000 218.327
43.98000 218.629
43.99000 215.989
44.00000 213.317
44.01000 211.961
44.02000 210.737
44.03000 209.947
44.04000 212.636
44.05000 217.711
44.06000 222.739
44.07000 226.354
44.08000 229.304
44.09000 232.106
44.10000 234.906
44.11000 237.492
44.12000 239.283
44.13000 234.496
44.14000 228.243
44.15000 222.875
44.16000 222.208
44.17000 222.228
44.18000 222.244
44.19000 219.850
44.20000 217.748
44.21000 216.106
44.22000 215.595
44.23000 215.136
44.24000 216.640
44.25000 221.492
44.26000 226.400
44.27000 229.033
44.28000 228.746
44.29000 228.543
44.30000 227.472
44.31000 225.739
44.32000 223.945
44.33000 219.690
44.34000 214.151
44.35000 208.839
44.36000 216.323
44.37000 227.633
44.38000 237.635
44.39000 235.202
44.40000 229.681
44.41000 224.971
44.42000 225.089
44.43000 226.004
44.44000 226.750
44.45000 223.699
44.46000 220.888
44.47000 220.081
44.48000 224.739
44.49000 229.707
44.50000 233.573
44.51000 235.355
44.52000 237.089
44.53000 238.067
44.54000 238.357
44.55000 238.560
44.56000 240.340
44.57000 243.463
44.58000 246.509
44.59000 245.174
44.60000 241.308
44.61000 237.569
44.62000 240.834
44.63000 246.559
44.64000 252.021
44.65000 254.590
44.66000 256.360
44.67000 257.940
44.68000 258.240
44.69000 258.301
44.70000 258.353
44.71000 258.460
44.72000 258.553
44.73000 259.160
44.74000 261.315
44.75000 263.576
44.76000 266.220
44.77000 269.665
44.78000 273.135
44.79000 275.189
44.80000 277.792
44.81000 279.635
44.82000 281.893
44.83000 284.548
44.84000 287.210
44.85000 290.538
44.86000 294.293
44.87000 297.951
44.88000 301.594
44.89000 305.063
44.90000 308.347
44.91000 309.260
44.92000 309.447
44.93000 310.164
44.94000 314.915
44.95000 320.505
44.96000 325.248
44.97000 325.986
44.98000 326.151
44.99000 328.328
45.00000 337.231
45.01000 346.676
45.02000 355.826
45.03000 364.298
45.04000 372.743
45.05000 377.961
45.06000 388.199
45.07000 395.601
45.08000 396.518
45.09000 390.473
45.10000 384.465
45.11000 384.190
45.12000 387.996
45.13000 391.727
45.14000 388.458
45.15000 382.017
45.16000 376.195
45.17000 379.851
45.18000 386.717
45.19000 392.643
45.20000 390.398
45.21000 386.260
45.22000 382.683
45.23000 383.869
45.24000 385.496
45.25000 384.776
45.26000 375.355
45.27000 365.116
45.28000 357.187
45.29000 355.163
45.30000 353.435
45.31000 352.323
45.32000 344.841
45.33000 339.293
45.34000 338.045
45.35000 341.970
45.36000 345.879
45.37000 341.697
45.38000 331.093
45.39000 320.639
45.40000 316.029
45.41000 314.622
45.42000 313.060
45.43000 308.672
45.44000 303.225
45.45000 297.901
45.46000 293.812
45.47000 290.041
45.48000 286.725
45.49000 290.236
45.50000 294.269
45.51000 296.799
45.52000 293.136
45.53000 288.802
45.54000 286.426
45.55000 289.587
45.56000 293.085
45.57000 295.421
45.58000 281.113
45.59000 270.186
45.60000 263.827
45.61000 263.597
45.62000 263.398
45.63000 262.049
45.64000 259.679
45.65000 257.333
45.66000 253.305
45.67000 248.374
45.68000 243.628
45.69000 243.062
45.70000 244.228
45.71000 245.462
45.72000 247.470
45.73000 249.701
45.74000 251.693
45.75000 248.903
45.76000 245.665
45.77000 242.555
45.78000 240.026
45.79000 237.570
45.80000 233.805
45.81000 225.945
45.82000 217.788
45.83000 212.146
45.84000 227.283
45.85000 239.205
45.86000 243.965
45.87000 238.035
45.88000 232.002
45.89000 229.662
45.90000 230.998
45.91000 232.326
45.92000 231.117
45.93000 228.261
45.94000 225.425
45.95000 223.169
45.96000 221.180
45.97000 219.207
45.98000 217.452
45.99000 215.767
46.00000 214.239
46.01000 223.550
46.02000 233.829
46.03000 241.380
46.04000 234.935
46.05000 226.512
46.06000 218.562
46.07000 212.256
46.08000 206.089
46.09000 201.684
46.10000 214.493
46.11000 224.839
46.12000 229.242
46.13000 223.798
46.14000 218.205
46.15000 213.736
46.16000 210.527
46.17000 207.328
46.18000 204.871
46.19000 202.976
46.20000 201.205
46.21000 204.034
46.22000 209.194
46.23000 214.132
46.24000 215.462
46.25000 215.525
46.26000 215.582
46.27000 211.860
46.28000 207.724
46.29000 204.848
46.30000 209.220
46.31000 214.750
46.32000 218.044
46.33000 212.730
46.34000 206.565
46.35000 202.025
46.36000 209.025
46.37000 214.922
46.38000 216.622
46.39000 210.616
46.40000 204.444
46.41000 201.240
46.42000 201.749
46.43000 202.268
46.44000 202.527
46.45000 202.570
46.46000 202.635
46.47000 203.762
46.48000 205.486
46.49000 206.905
46.50000 202.316
46.51000 195.393
46.52000 188.952
46.53000 187.244
46.54000 186.847
46.55000 187.234
46.56000 192.711
46.57000 199.102
46.58000 204.909
46.59000 208.211
46.60000 211.228
46.61000 213.513
46.62000 203.590
46.63000 195.181
46.64000 191.552
46.65000 197.637
46.66000 204.004
46.67000 207.875
46.68000 208.264
46.69000 208.631
46.70000 208.520
46.71000 207.967
46.72000 207.393
46.73000 205.182
46.74000 201.952
46.75000 198.874
46.76000 199.498
46.77000 201.712
46.78000 203.796
46.79000 206.433
46.80000 208.994
46.81000 210.467
46.82000 203.956
46.83000 195.837
46.84000 189.918
46.85000 194.504
46.86000 200.458
46.87000 205.088
46.88000 196.946
46.89000 189.687
46.90000 185.961
46.91000 190.179
46.92000 194.694
46.93000 199.175
46.94000 203.601
46.95000 208.027
46.96000 210.282
46.97000 200.711
46.98000 194.326
46.99000 192.380
47.00000 193.500
47.01000 194.608
47.02000 195.341
47.03000 195.896
47.04000 196.424
47.05000 198.013
47.06000 199.804
47.07000 201.459
47.08000 201.979
47.09000 202.243
47.10000 202.287
47.11000 201.153
47.12000 199.845
47.13000 198.803
47.14000 191.162
47.15000 184.520
47.16000 181.783
47.17000 188.753
47.18000 196.179
47.19000 200.790
47.20000 200.561
47.21000 200.248
47.22000 200.079
47.23000 199.035
47.24000 198.313
47.25000 195.679
47.26000 191.574
47.27000 187.592
47.28000 188.665
47.29000 192.394
47.30000 195.972
47.31000 195.270
47.32000 193.156
47.33000 191.422
47.34000 193.327
47.35000 196.143
47.36000 198.054
47.37000 194.525
47.38000 190.090
47.39000 186.474
47.40000 186.472
47.41000 186.779
47.42000 188.112
47.43000 192.263
47.44000 196.576
47.45000 198.367
47.46000 195.359
47.47000 192.234
47.48000 190.465
47.49000 192.418
47.50000 193.784
47.51000 192.736
47.52000 189.615
47.53000 186.553
47.54000 186.913
47.55000 189.266
47.56000 191.541
47.57000 193.549
47.58000 195.342
47.59000 196.750
47.60000 193.857
47.61000 189.769
47.62000 186.408
47.63000 187.968
47.64000 190.449
47.65000 192.516
47.66000 192.134
47.67000 191.576
47.68000 191.542
47.69000 193.104
47.70000 194.776
47.71000 195.086
47.72000 192.527
47.73000 189.876
47.74000 188.302
47.75000 188.932
47.76000 189.390
47.77000 192.300
47.78000 197.570
47.79000 202.761
47.80000 200.933
47.81000 194.575
47.82000 188.378
47.83000 184.192
47.84000 181.052
47.85000 178.371
47.86000 181.675
47.87000 186.825
47.88000 191.304
47.89000 190.631
47.90000 188.880
47.91000 187.392
47.92000 185.838
47.93000 184.526
47.94000 184.047
47.95000 186.374
47.96000 188.928
47.97000 189.455
47.98000 185.256
47.99000 180.865
48.00000 178.143
48.01000 177.642
48.02000 177.303
48.03000 176.019
48.04000 173.711
48.05000 171.423
48.06000 172.363
48.07000 175.618
48.08000 178.811
48.09000 182.760
48.10000 186.923
48.11000 190.810
48.12000 190.429
48.13000 188.593
48.14000 186.672
48.15000 184.004
48.16000 181.162
48.17000 178.702
48.18000 179.504
48.19000 180.614
48.20000 182.623
48.21000 187.992
48.22000 193.681
48.23000 196.622
48.24000 192.489
48.25000 187.998
48.26000 185.101
48.27000 187.984
48.28000 190.173
48.29000 191.010
48.30000 190.209
48.31000 189.410
48.32000 190.330
48.33000 192.625
48.34000 194.888
48.35000 193.990
48.36000 191.441
48.37000 188.864
48.38000 185.742
48.39000 182.415
48.40000 179.330
48.41000 178.693
48.42000 178.691
48.43000 178.689
48.44000 181.481
48.45000 184.302
48.46000 187.143
48.47000 190.062
48.48000 192.991
48.49000 193.951
48.50000 189.306
48.51000 184.316
48.52000 180.974
48.53000 179.386
48.54000 178.242
48.55000 177.702
48.56000 177.979
48.57000 178.260
48.58000 177.915
48.59000 177.010
48.60000 176.113
48.61000 177.468
48.62000 180.128
48.63000 182.638
48.64000 181.704
48.65000 179.334
48.66000 177.186
48.67000 177.663
48.68000 178.897
48.69000 180.001
48.70000 182.604
48.71000 185.128
48.72000 187.198
48.73000 187.170
48.74000 186.877
48.75000 186.318
48.76000 184.915
48.77000 183.451
48.78000 182.436
48.79000 184.470
48.80000 186.083
48.81000 185.722
48.82000 182.393
48.83000 179.034
48.84000 175.953
48.85000 173.152
48.86000 170.366
48.87000 176.267
48.88000 187.837
48.89000 198.967
48.90000 197.327
48.91000 189.794
48.92000 182.519
48.93000 178.804
48.94000 176.228
48.95000 173.890
48.96000 176.406
48.97000 179.561
48.98000 182.697
48.99000 185.734
49.00000 188.757
49.01000 189.553
49.02000 182.568
49.03000 174.913
49.04000 169.432
49.05000 173.557
49.06000 177.033
49.07000 178.681
49.08000 177.280
49.09000 175.831
49.10000 175.028
49.11000 174.955
49.12000 174.882
49.13000 176.943
49.14000 180.568
49.15000 184.167
49.16000 186.783
49.17000 188.897
49.18000 190.871
49.19000 190.531
49.20000 189.374
49.21000 188.309
49.22000 185.323
49.23000 182.239
49.24000 179.781
49.25000 180.958
49.26000 182.721
49.27000 184.026
49.28000 183.558
49.29000 182.912
49.30000 182.436
49.31000 173.713
49.32000 166.607
49.33000 163.761
49.34000 168.795
49.35000 174.002
49.36000 178.407
49.37000 181.801
49.38000 185.187
49.39000 183.357
49.40000 177.206
49.41000 171.183
49.42000 171.829
49.43000 176.244
49.44000 180.450
49.45000 180.449
49.46000 178.802
49.47000 177.268
49.48000 179.947
49.49000 183.398
49.50000 185.298
49.51000 177.059
49.52000 166.982
49.53000 160.808
49.54000 171.472
49.55000 184.075
49.56000 193.639
49.57000 189.710
49.58000 185.927
49.59000 181.939
49.60000 177.528
49.61000 173.105
49.62000 171.485
49.63000 173.804
49.64000 176.149
49.65000 175.980
49.66000 173.469
49.67000 170.969
49.68000 169.362
49.69000 168.314
49.70000 167.398
49.71000 169.764
49.72000 173.550
49.73000 177.116
49.74000 177.176
49.75000 176.271
49.76000 175.695
49.77000 177.563
49.78000 179.926
49.79000 182.006
49.80000 182.727
49.81000 183.270
49.82000 183.692
49.83000 177.926
49.84000 172.950
49.85000 170.258
49.86000 172.739
49.87000 175.417
49.88000 176.099
49.89000 173.664
49.90000 171.192
49.91000 169.927
49.92000 175.815
49.93000 179.721
49.94000 177.117
49.95000 169.983
49.96000 163.180
49.97000 166.954
49.98000 175.787
49.99000 184.191
50.00000 179.946
50.01000 172.139
50.02000 165.332
50.03000 166.969
50.04000 170.519
50.05000 174.141
50.06000 178.150
50.07000 182.216
50.08000 185.461
50.09000 181.658
50.10000 178.069
50.11000 175.130
50.12000 173.818
50.13000 172.583
50.14000 172.200
50.15000 173.292
50.16000 174.411
50.17000 175.015
50.18000 177.929
50.19000 179.919
50.20000 180.417
50.21000 179.756
50.22000 179.109
50.23000 179.005
50.24000 179.188
50.25000 179.364
50.26000 178.918
50.27000 178.287
50.28000 177.786
50.29000 178.541
50.30000 179.612
50.31000 181.003
50.32000 184.323
50.33000 187.969
50.34000 190.945
50.35000 189.180
50.36000 187.328
50.37000 186.299
50.38000 187.549
50.39000 188.933
50.40000 190.529
50.41000 192.532
50.42000 194.546
50.43000 195.691
50.44000 191.349
50.45000 188.313
50.46000 190.022
50.47000 195.841
50.48000 201.611
50.49000 204.538
50.50000 205.796
50.51000 207.015
50.52000 205.326
50.53000 202.614
50.54000 200.386
50.55000 203.598
50.56000 208.333
50.57000 213.400
50.58000 220.741
50.59000 228.510
50.60000 234.991
50.61000 238.670
50.62000 241.440
50.63000 243.763
50.64000 244.719
50.65000 245.579
50.66000 247.441
50.67000 251.428
50.68000 255.484
50.69000 257.899
50.70000 257.129
50.71000 256.564
50.72000 254.696
50.73000 251.564
50.74000 248.518
50.75000 253.357
50.76000 263.323
50.77000 273.042
50.78000 278.133
50.79000 281.012
50.80000 283.245
50.81000 276.946
50.82000 267.998
50.83000 259.974
50.84000 259.108
50.85000 259.754
50.86000 260.303
50.87000 250.410
50.88000 240.892
50.89000 234.150
50.90000 236.826
50.91000 240.278
50.92000 240.260
50.93000 232.099
50.94000 223.601
50.95000 218.317
50.96000 211.778
50.97000 207.057
50.98000 206.896
50.99000 211.713
51.00000 216.492
51.01000 214.975
51.02000 208.908
51.03000 202.953
51.04000 201.066
51.05000 201.192
51.06000 201.224
51.07000 199.793
51.08000 197.860
51.09000 196.106
51.10000 195.941
51.11000 196.150
51.12000 196.331
51.13000 195.423
51.14000 194.507
51.15000 192.948
51.16000 188.973
51.17000 184.766
51.18000 182.638
51.19000 185.903
51.20000 189.445
51.21000 191.737
51.22000 187.695
51.23000 184.645
51.24000 182.306
51.25000 180.835
51.26000 179.368
51.27000 178.846
51.28000 179.084
51.29000 179.319
51.30000 178.018
51.31000 175.933
51.32000 173.950
51.33000 173.912
51.34000 174.612
51.35000 175.191
51.36000 174.532
51.37000 173.549
51.38000 172.683
51.39000 173.130
51.40000 173.714
51.41000 174.419
51.42000 175.628
51.43000 176.894
51.44000 178.042
51.45000 178.855
51.46000 179.647
51.47000 180.178
51.48000 174.321
51.49000 169.841
51.50000 169.409
51.51000 174.491
51.52000 179.601
51.53000 178.156
51.54000 170.801
51.55000 163.512
51.56000 162.200
51.57000 164.480
51.58000 166.597
51.59000 164.895
51.60000 161.589
51.61000 158.831
51.62000 162.600
51.63000 168.265
51.64000 173.336
51.65000 167.870
51.66000 161.293
51.67000 156.743
51.68000 161.648
51.69000 167.750
51.70000 171.504
51.71000 167.801
51.72000 163.545
51.73000 160.588
51.74000 161.596
51.75000 162.462
51.76000 163.300
51.77000 164.095
51.78000 164.891
51.79000 164.699
51.80000 163.506
51.81000 162.320
51.82000 161.895
51.83000 161.984
51.84000 162.114
51.85000 163.460
51.86000 165.371
51.87000 167.124
51.88000 166.653
51.89000 165.467
51.90000 164.390
51.91000 166.642
51.92000 169.277
51.93000 170.935
51.94000 167.499
51.95000 163.329
51.96000 161.270
51.97000 166.646
51.98000 172.669
51.99000 176.991
52.00000 172.619
52.01000 168.978
52.02000 166.311
52.03000 165.284
52.04000 164.283
52.05000 164.112
52.06000 164.884
52.07000 165.655
52.08000 169.805
52.09000 176.447
52.10000 182.845
52.11000 179.740
52.12000 171.750
52.13000 164.153
52.14000 163.123
52.15000 164.433
52.16000 165.638
52.17000 160.829
52.18000 155.211
52.19000 150.623
52.20000 152.054
52.21000 154.464
52.22000 156.359
52.23000 156.241
52.24000 155.920
52.25000 155.682
52.26000 155.825
52.27000 155.952
52.28000 155.415
52.29000 153.641
52.30000 151.839
52.31000 152.100
52.32000 154.982
52.33000 157.871
52.34000 160.595
52.35000 163.174
52.36000 165.653
52.37000 162.728
52.38000 156.727
52.39000 151.039
52.40000 151.731
52.41000 154.936
52.42000 157.924
52.43000 156.427
52.44000 153.970
52.45000 152.194
52.46000 154.915
52.47000 158.458
52.48000 160.556
52.49000 156.373
52.50000 151.461
52.51000 147.725
52.52000 155.819
52.53000 162.802
52.54000 166.257
52.55000 162.441
52.56000 158.405
52.57000 156.988
52.58000 159.278
52.59000 161.595
52.60000 161.811
52.61000 160.053
52.62000 158.323
52.63000 158.901
52.64000 160.934
52.65000 163.000
52.66000 165.906
52.67000 169.179
52.68000 172.264
52.69000 168.729
52.70000 163.666
52.71000 159.275
52.72000 159.908
52.73000 161.568
52.74000 162.627
52.75000 160.772
52.76000 158.529
52.77000 156.779
52.78000 155.880
52.79000 155.216
52.80000 155.287
52.81000 157.035
52.82000 158.847
52.83000 162.858
52.84000 170.327
52.85000 177.839
52.86000 181.697
52.87000 166.686
52.88000 156.647
52.89000 154.859
52.90000 158.858
52.91000 162.688
52.92000 161.063
52.93000 156.808
52.94000 152.758
52.95000 151.505
52.96000 151.209
52.97000 151.100
52.98000 152.580
52.99000 154.423
53.00000 155.836
53.01000 154.910
53.02000 153.632
53.03000 152.611
53.04000 156.921
53.05000 160.800
53.06000 164.526
53.07000 167.864
53.08000 171.184
53.09000 170.741
53.10000 163.736
53.11000 156.611
53.12000 152.746
53.13000 155.795
53.14000 157.891
53.15000 159.336
53.16000 160.273
53.17000 161.170
53.18000 160.313
53.19000 158.519
53.20000 156.796
53.21000 157.022
53.22000 157.908
53.23000 159.275
53.24000 165.359
53.25000 172.642
53.26000 178.547
53.27000 176.038
53.28000 172.102
53.29000 168.883
53.30000 166.723
53.31000 165.045
53.32000 165.039
53.33000 169.694
53.34000 174.623
53.35000 176.093
53.36000 170.879
53.37000 165.496
53.38000 162.426
53.39000 160.789
53.40000 159.656
53.41000 162.742
53.42000 169.509
53.43000 176.154
53.44000 175.288
53.45000 169.987
53.46000 164.851
53.47000 160.847
53.48000 157.495
53.49000 154.180
53.50000 151.277
53.51000 148.490
53.52000 146.200
53.53000 147.332
53.54000 149.116
53.55000 150.606
53.56000 155.352
53.57000 159.620
53.58000 162.097
53.59000 159.043
53.60000 155.600
53.61000 154.646
53.62000 159.012
53.63000 163.556
53.64000 166.270
53.65000 159.352
53.66000 154.384
53.67000 152.124
53.68000 152.517
53.69000 152.897
53.70000 152.135
53.71000 150.625
53.72000 149.151
53.73000 150.301
53.74000 152.531
53.75000 155.029
53.76000 161.086
53.77000 168.256
53.78000 174.041
53.79000 168.981
53.80000 161.613
53.81000 155.336
53.82000 155.334
53.83000 156.065
53.84000 157.076
53.85000 159.047
53.86000 161.097
53.87000 162.032
53.88000 160.333
53.89000 158.522
53.90000 157.393
53.91000 157.664
53.92000 157.873
53.93000 157.822
53.94000 157.482
53.95000 157.126
53.96000 154.106
53.97000 149.143
53.98000 144.272
53.99000 146.664
54.00000 152.474
54.01000 158.029
54.02000 159.546
54.03000 159.666
54.04000 159.515
54.05000 156.936
54.06000 153.781
54.07000 151.044
54.08000 157.953
54.09000 165.127
54.10000 170.466
54.11000 168.839
54.12000 166.537
54.13000 164.523
54.14000 163.257
54.15000 162.031
54.16000 161.235
54.17000 161.193
54.18000 161.173
54.19000 161.251
54.20000 161.449
54.21000 161.646
54.22000 160.960
54.23000 159.557
54.24000 158.172
54.25000 157.811
54.26000 158.010
54.27000 158.118
54.28000 156.478
54.29000 154.169
54.30000 152.246
54.31000 154.298
54.32000 157.400
54.33000 160.136
54.34000 160.637
54.35000 160.729
54.36000 160.640
54.37000 159.788
54.38000 158.850
54.39000 158.450
54.40000 159.605
54.41000 160.858
54.42000 161.701
54.43000 157.365
54.44000 154.034
54.45000 153.567
54.46000 157.032
54.47000 160.517
54.48000 157.596
54.49000 148.851
54.50000 140.182
54.51000 144.482
54.52000 156.496
54.53000 168.076
54.54000 169.354
54.55000 166.271
54.56000 163.461
54.57000 163.939
54.58000 165.380
54.59000 166.672
54.60000 163.093
54.61000 159.124
54.62000 156.068
54.63000 157.303
54.64000 159.087
54.65000 160.354
54.66000 159.969
54.67000 159.461
54.68000 159.107
54.69000 160.322
54.70000 161.283
54.71000 160.022
54.72000 155.369
54.73000 150.680
54.74000 149.146
54.75000 150.836
54.76000 152.516
54.77000 152.820
54.78000 152.195
54.79000 151.609
54.80000 152.209
54.81000 153.366
54.82000 154.459
54.83000 154.658
54.84000 154.567
54.85000 154.484
54.86000 154.428
54.87000 154.384
54.88000 154.403
54.89000 154.756
54.90000 155.157
54.91000 155.719
54.92000 156.852
54.93000 158.035
54.94000 158.886
54.95000 156.842
54.96000 155.177
54.97000 153.180
54.98000 150.623
54.99000 148.057
55.00000 150.720
55.01000 159.376
55.02000 168.016
55.03000 169.341
55.04000 165.154
55.05000 160.981
55.06000 157.313
55.07000 153.908
55.08000 150.776
55.09000 152.270
55.10000 155.424
55.11000 158.330
55.12000 158.240
55.13000 157.499
55.14000 156.919
55.15000 157.286
55.16000 157.808
55.17000 158.595
55.18000 160.423
55.19000 162.358
55.20000 163.791
55.21000 164.858
55.22000 165.671
55.23000 167.243
55.24000 170.241
55.25000 173.273
55.26000 174.495
55.27000 173.402
55.28000 172.301
55.29000 173.294
55.30000 176.049
55.31000 178.748
55.32000 178.355
55.33000 176.189
55.34000 174.162
55.35000 175.017
55.36000 177.015
55.37000 178.879
55.38000 182.160
55.39000 185.482
55.40000 188.669
55.41000 190.948
55.42000 193.060
55.43000 193.872
55.44000 188.987
55.45000 183.433
55.46000 179.202
55.47000 186.143
55.48000 192.199
55.49000 195.353
55.50000 192.479
55.51000 189.420
55.52000 190.174
55.53000 196.369
55.54000 202.605
55.55000 205.637
55.56000 205.633
55.57000 205.640
55.58000 206.490
55.59000 207.875
55.60000 209.394
55.61000 214.360
55.62000 220.838
55.63000 226.948
55.64000 230.583
55.65000 233.225
55.66000 236.193
55.67000 241.617
55.68000 247.548
55.69000 253.254
55.70000 257.861
55.71000 262.321
55.72000 265.808
55.73000 280.576
55.74000 293.079
55.75000 304.830
55.76000 314.855
55.77000 324.811
55.78000 335.236
55.79000 346.407
55.80000 357.586
55.81000 363.353
55.82000 379.144
55.83000 389.804
55.84000 403.284
55.85000 418.758
55.86000 434.061
55.87000 443.729
55.88000 450.662
55.89000 457.267
55.90000 469.064
55.91000 481.615
55.92000 493.271
55.93000 497.229
55.94000 499.416
55.95000 503.636
55.96000 518.991
55.97000 536.034
55.98000 549.685
55.99000 542.975
56.00000 536.017
56.01000 531.762
56.02000 534.366
56.03000 537.309
56.04000 535.775
56.05000 526.372
56.06000 516.823
56.07000 511.624
56.08000 507.048
56.09000 503.894
56.10000 496.642
56.11000 486.163
56.12000 475.724
56.13000 467.059
56.14000 459.347
56.15000 451.933
56.16000 434.926
56.17000 415.649
56.18000 396.677
56.19000 380.728
56.20000 365.554
56.21000 351.568
56.22000 344.900
56.23000 339.483
56.24000 335.046
56.25000 329.462
56.26000 324.783
56.27000 319.993
56.28000 314.892
56.29000 309.773
56.30000 303.196
56.31000 293.780
56.32000 284.292
56.33000 278.861
56.34000 266.470
56.35000 257.796
56.36000 252.975
56.37000 251.543
56.38000 250.051
56.39000 244.694
56.40000 237.039
56.41000 229.621
56.42000 224.971
56.43000 221.647
56.44000 218.400
56.45000 216.049
56.46000 213.951
56.47000 211.532
56.48000 206.878
56.49000 201.796
56.50000 197.544
56.51000 195.959
56.52000 194.914
56.53000 193.865
56.54000 192.802
56.55000 191.739
56.56000 190.345
56.57000 188.240
56.58000 186.111
56.59000 184.835
56.60000 181.790
56.61000 179.615
56.62000 176.161
56.63000 171.443
56.64000 166.760
56.65000 165.376
56.66000 166.172
56.67000 166.948
56.68000 166.866
56.69000 166.414
56.70000 165.958
56.71000 165.445
56.72000 164.914
56.73000 164.171
56.74000 161.753
56.75000 158.974
56.76000 156.605
56.77000 160.796
56.78000 165.097
56.79000 167.689
56.80000 164.392
56.81000 160.600
56.82000 158.916
56.83000 162.251
56.84000 165.802
56.85000 168.022
56.86000 165.127
56.87000 162.984
56.88000 160.868
56.89000 158.781
56.90000 156.693
56.91000 154.340
56.92000 151.794
56.93000 149.293
56.94000 150.524
56.95000 153.524
56.96000 156.437
56.97000 157.938
56.98000 158.946
56.99000 159.693
57.00000 158.073
57.01000 155.888
57.02000 153.990
57.03000 152.535
57.04000 151.355
57.05000 150.344
57.06000 149.981
57.07000 149.682
57.08000 150.248
57.09000 153.090
57.10000 156.053
57.11000 157.980
57.12000 151.861
57.13000 147.251
57.14000 144.366
57.15000 143.624
57.16000 142.889
57.17000 142.901
57.18000 143.527
57.19000 144.144
57.20000 145.889
57.21000 148.200
57.22000 150.318
57.23000 148.668
57.24000 145.564
57.25000 142.661
57.26000 141.855
57.27000 141.606
57.28000 141.386
57.29000 146.517
57.30000 151.770
57.31000 155.607
57.32000 153.427
57.33000 150.568
57.34000 148.284
57.35000 147.671
57.36000 147.165
57.37000 146.824
57.38000 145.170
57.39000 143.912
57.40000 143.431
57.41000 144.026
57.42000 144.629
57.43000 146.496
57.44000 149.522
57.45000 152.522
57.46000 151.049
57.47000 146.892
57.48000 142.975
57.49000 144.825
57.50000 149.135
57.51000 153.024
57.52000 151.808
57.53000 149.086
57.54000 146.644
57.55000 148.258
57.56000 150.376
57.57000 152.493
57.58000 154.601
57.59000 156.707
57.60000 157.230
57.61000 152.651
57.62000 147.684
57.63000 144.216
57.64000 145.307
57.65000 146.259
57.66000 146.505
57.67000 145.665
57.68000 144.813
57.69000 143.861
57.70000 142.806
57.71000 141.756
57.72000 142.257
57.73000 143.803
57.74000 145.343
57.75000 146.660
57.76000 147.873
57.77000 148.909
57.78000 147.409
57.79000 145.082
57.80000 142.963
57.81000 143.601
57.82000 144.709
57.83000 145.650
57.84000 145.703
57.85000 145.625
57.86000 144.890
57.87000 141.807
57.88000 138.514
57.89000 136.141
57.90000 143.139
57.91000 148.833
57.92000 151.655
57.93000 149.574
57.94000 147.411
57.95000 145.114
57.96000 142.660
57.97000 140.212
57.98000 139.546
57.99000 140.235
58.00000 140.898
58.01000 140.477
58.02000 139.491
58.03000 138.581
58.04000 138.974
58.05000 139.839
58.06000 140.637
58.07000 146.233
58.08000 152.313
58.09000 156.609
58.10000 150.279
58.11000 142.193
58.12000 136.466
58.13000 140.101
58.14000 144.702
58.15000 148.118
58.16000 145.946
58.17000 144.011
58.18000 143.416
58.19000 145.352
58.20000 147.347
58.21000 147.010
58.22000 143.661
58.23000 140.303
58.24000 140.267
58.25000 143.055
58.26000 145.774
58.27000 144.579
58.28000 141.122
58.29000 137.864
58.30000 138.782
58.31000 141.370
58.32000 143.786
58.33000 142.434
58.34000 140.266
58.35000 138.166
58.36000 136.524
58.37000 134.967
58.38000 133.983
58.39000 135.528
58.40000 137.374
58.41000 138.782
58.42000 141.454
58.43000 143.628
58.44000 144.756
58.45000 143.698
58.46000 142.571
58.47000 140.189
58.48000 136.004
58.49000 131.804
58.50000 129.223
58.51000 128.187
58.52000 127.170
58.53000 127.738
58.54000 129.321
58.55000 130.831
58.56000 130.403
58.57000 129.119
58.58000 127.908
58.59000 130.492
58.60000 133.926
58.61000 136.984
58.62000 137.176
58.63000 136.773
58.64000 136.413
58.65000 136.271
58.66000 136.159
58.67000 136.071
58.68000 133.082
58.69000 130.507
58.70000 128.629
58.71000 128.361
58.72000 128.158
58.73000 130.100
58.74000 135.467
58.75000 140.879
58.76000 143.681
58.77000 138.447
58.78000 134.917
58.79000 131.639
58.80000 128.542
58.81000 125.559
58.82000 126.428
58.83000 129.182
58.84000 131.807
58.85000 134.175
58.86000 136.290
58.87000 138.202
58.88000 138.347
58.89000 138.083
58.90000 138.625
58.91000 143.625
58.92000 149.306
58.93000 153.863
58.94000 150.414
58.95000 147.012
58.96000 144.718
58.97000 145.259
58.98000 145.941
58.99000 145.846
59.00000 144.374
59.01000 142.876
59.02000 142.057
59.03000 137.300
59.04000 134.037
59.05000 134.041
59.06000 136.639
59.07000 139.266
59.08000 143.227
59.09000 147.910
59.10000 152.414
59.11000 151.609
59.12000 148.987
59.13000 146.227
59.14000 142.083
59.15000 137.581
59.16000 133.340
59.17000 130.712
59.18000 128.363
59.19000 126.435
59.20000 132.264
59.21000 137.737
59.22000 141.317
59.23000 139.539
59.24000 137.436
59.25000 136.850
59.26000 139.238
59.27000 141.705
59.28000 143.121
59.29000 139.277
59.30000 136.572
59.31000 136.463
59.32000 138.659
59.33000 140.808
59.34000 139.974
59.35000 137.352
59.36000 134.809
59.37000 136.431
59.38000 139.602
59.39000 142.577
59.40000 143.261
59.41000 143.290
59.42000 143.053
59.43000 140.949
59.44000 138.483
59.45000 136.418
59.46000 134.723
59.47000 133.351
59.48000 132.226
59.49000 131.873
59.50000 131.576
59.51000 132.764
59.52000 137.173
59.53000 141.693
59.54000 144.410
59.55000 138.646
59.56000 134.489
59.57000 132.425
59.58000 132.445
59.59000 132.475
59.60000 133.642
59.61000 135.564
59.62000 137.441
59.63000 136.060
59.64000 133.308
59.65000 130.542
59.66000 127.563
59.67000 124.517
59.68000 122.640
59.69000 130.087
59.70000 139.551
59.71000 147.634
59.72000 141.690
59.73000 135.013
59.74000 129.544
59.75000 128.267
59.76000 127.346
59.77000 126.660
59.78000 126.536
59.79000 126.436
59.80000 126.374
59.81000 129.278
59.82000 131.409
59.83000 134.393
59.84000 138.330
59.85000 142.244
59.86000 141.807
59.87000 138.151
59.88000 134.558
59.89000 134.139
59.90000 135.289
59.91000 136.324
59.92000 135.499
59.93000 134.020
59.94000 132.437
59.95000 129.907
59.96000 127.150
59.97000 124.751
59.98000 125.825
59.99000 127.214
60.00000 128.006
60.01000 126.498
60.02000 124.763
60.03000 124.764
60.04000 129.369
60.05000 134.221
60.06000 137.386
60.07000 138.061
60.08000 138.517
60.09000 138.011
60.10000 136.302
60.11000 134.591
60.12000 133.796
60.13000 133.757
60.14000 133.719
60.15000 132.965
60.16000 131.839
60.17000 130.709
60.18000 129.486
60.19000 128.227
60.20000 127.118
60.21000 127.580
60.22000 128.463
60.23000 129.244
60.24000 125.490
60.25000 121.543
60.26000 118.774
60.27000 121.058
60.28000 123.917
60.29000 127.492
60.30000 133.165
60.31000 138.973
60.32000 142.903
60.33000 139.014
60.34000 135.947
60.35000 135.572
60.36000 138.950
60.37000 142.351
60.38000 139.950
60.39000 132.187
60.40000 124.487
60.41000 122.864
60.42000 124.982
60.43000 127.042
60.44000 127.671
60.45000 127.685
60.46000 127.693
60.47000 127.610
60.48000 127.500
60.49000 127.402
60.50000 134.630
60.51000 142.246
60.52000 147.627
60.53000 142.333
60.54000 135.649
60.55000 130.780
60.56000 131.804
60.57000 133.280
60.58000 134.314
60.59000 134.675
60.60000 134.930
60.61000 134.271
60.62000 132.195
60.63000 130.104
60.64000 129.036
60.65000 129.032
60.66000 129.028
60.67000 130.676
60.68000 133.434
60.69000 136.041
60.70000 133.910
60.71000 129.529
60.72000 125.641
60.73000 128.910
60.74000 134.534
60.75000 139.658
60.76000 136.942
60.77000 132.975
60.78000 129.927
60.79000 131.794
60.80000 134.387
60.81000 136.497
60.82000 136.867
60.83000 137.080
60.84000 137.234
60.85000 133.899
60.86000 131.216
60.87000 129.014
60.88000 127.643
60.89000 126.286
60.90000 127.344
60.91000 131.216
60.92000 135.082
60.93000 135.884
60.94000 134.338
60.95000 132.758
60.96000 129.731
60.97000 125.944
60.98000 122.441
60.99000 123.886
61.00000 127.132
61.01000 130.128
61.02000 129.366
61.03000 127.839
61.04000 126.824
61.05000 128.883
61.06000 131.455
61.07000 134.735
61.08000 140.851
61.09000 147.262
61.10000 152.032
61.11000 145.546
61.12000 139.998
61.13000 136.808
61.14000 138.110
61.15000 139.521
61.16000 139.726
61.17000 138.362
61.18000 136.993
61.19000 134.549
61.20000 131.187
61.21000 127.862
61.22000 126.716
61.23000 126.837
61.24000 127.102
61.25000 130.429
61.26000 134.990
61.27000 139.251
61.28000 139.758
61.29000 139.272
61.30000 139.077
61.31000 140.857
61.32000 143.006
61.33000 144.367
61.34000 142.214
61.35000 139.641
61.36000 137.673
61.37000 137.837
61.38000 138.082
61.39000 138.522
61.40000 139.375
61.41000 140.241
61.42000 140.420
61.43000 139.604
61.44000 138.779
61.45000 141.305
61.46000 147.055
61.47000 152.783
61.48000 156.432
61.49000 158.739
61.50000 160.972
61.51000 161.207
61.52000 160.553
61.53000 159.936
61.54000 173.096
61.55000 189.071
61.56000 204.118
61.57000 212.033
61.58000 218.454
61.59000 226.068
61.60000 239.614
61.61000 253.968
61.62000 265.231
61.63000 266.891
61.64000 267.594
61.65000 270.356
61.66000 277.913
61.67000 285.667
61.68000 293.964
61.69000 303.136
61.70000 312.320
61.71000 317.096
61.72000 300.928
61.73000 290.062
61.74000 288.382
61.75000 293.294
61.76000 297.755
61.77000 286.739
61.78000 268.100
61.79000 250.318
61.80000 236.047
61.81000 223.913
61.82000 211.841
61.83000 200.318
61.84000 188.922
61.85000 178.077
61.86000 170.297
61.87000 162.990
61.88000 157.118
61.89000 153.227
61.90000 150.226
61.91000 147.947
61.92000 147.528
61.93000 147.203
61.94000 147.092
61.95000 147.363
61.96000 147.642
61.97000 147.795
61.98000 145.269
61.99000 143.532
62.00000 143.458
62.01000 144.712
62.02000 145.904
62.03000 144.163
62.04000 140.823
62.05000 137.609
62.06000 136.800
62.07000 136.894
62.08000 137.158
62.09000 139.147
62.10000 141.583
62.11000 143.587
62.12000 142.880
62.13000 141.702
62.14000 140.733
62.15000 144.180
62.16000 147.409
62.17000 150.078
62.18000 151.155
62.19000 152.134
62.20000 150.634
62.21000 144.242
62.22000 137.719
62.23000 133.960
62.24000 134.100
62.25000 134.214
62.26000 136.055
62.27000 139.439
62.28000 142.824
62.29000 146.272
62.30000 149.758
62.31000 153.140
62.32000 153.515
62.33000 152.681
62.34000 151.504
62.35000 146.291
62.36000 139.914
62.37000 134.564
62.38000 136.485
62.39000 139.823
62.40000 142.623
62.41000 140.223
62.42000 137.682
62.43000 137.181
62.44000 143.108
62.45000 149.507
62.46000 152.322
62.47000 147.311
62.48000 142.025
62.49000 138.837
62.50000 142.360
62.51000 144.915
62.52000 147.042
62.53000 148.740
62.54000 150.408
62.55000 148.857
62.56000 145.148
62.57000 141.525
62.58000 140.651
62.59000 141.028
62.60000 141.434
62.61000 142.235
62.62000 143.162
62.63000 144.053
62.64000 144.660
62.65000 145.205
62.66000 145.671
62.67000 145.185
62.68000 144.661
62.69000 143.806
62.70000 141.794
62.71000 139.683
62.72000 140.271
62.73000 147.377
62.74000 154.772
62.75000 159.424
62.76000 150.943
62.77000 144.661
62.78000 139.630
62.79000 136.010
62.80000 132.428
62.81000 136.112
62.82000 145.214
62.83000 154.160
62.84000 154.965
62.85000 151.726
62.86000 148.579
62.87000 146.951
62.88000 145.860
62.89000 144.660
62.90000 142.445
62.91000 139.984
62.92000 137.841
62.93000 137.436
62.94000 137.329
62.95000 137.368
62.96000 137.974
62.97000 138.637
62.98000 140.864
62.99000 147.271
63.00000 153.905
63.01000 158.243
63.02000 152.141
63.03000 147.488
63.04000 144.788
63.05000 144.552
63.06000 144.329
63.07000 146.341
63.08000 150.213
63.09000 154.038
63.10000 153.209
63.11000 149.835
63.12000 146.457
63.13000 142.992
63.14000 139.492
63.15000 136.416
63.16000 137.854
63.17000 140.509
63.18000 142.861
63.19000 146.022
63.20000 148.883
63.21000 151.602
63.22000 153.707
63.23000 155.741
63.24000 157.353
63.25000 157.714
63.26000 157.994
63.27000 158.183
63.28000 146.909
63.29000 138.247
63.30000 135.991
63.31000 142.738
63.32000 149.547
63.33000 152.214
63.34000 151.024
63.35000 149.843
63.36000 152.038
63.37000 156.275
63.38000 160.285
63.39000 158.679
63.40000 154.642
63.41000 150.783
63.42000 149.143
63.43000 148.167
63.44000 147.290
63.45000 149.848
63.46000 152.698
63.47000 154.650
63.48000 152.276
63.49000 149.334
63.50000 147.677
63.51000 150.222
63.52000 153.094
63.53000 155.109
63.54000 153.923
63.55000 152.933
63.56000 152.771
63.57000 153.902
63.58000 155.048
63.59000 154.264
63.60000 151.458
63.61000 148.665
63.62000 150.442
63.63000 155.347
63.64000 160.061
63.65000 158.697
63.66000 154.426
63.67000 150.346
63.68000 149.081
63.69000 148.749
63.70000 148.447
63.71000 156.918
63.72000 166.192
63.73000 172.745
63.74000 164.646
63.75000 154.363
63.76000 146.337
63.77000 146.496
63.78000 147.399
63.79000 148.053
63.80000 150.110
63.81000 151.742
63.82000 152.819
63.83000 152.936
63.84000 153.036
63.85000 155.094
63.86000 159.450
63.87000 163.800
63.88000 164.092
63.89000 161.255
63.90000 158.434
63.91000 156.293
63.92000 154.513
63.93000 152.842
63.94000 153.083
63.95000 154.027
63.96000 154.899
63.97000 154.389
63.98000 153.619
63.99000 152.661
64.00000 150.563
64.01000 148.274
64.02000 146.611
64.03000 147.466
64.04000 148.587
64.05000 149.423
64.06000 157.395
64.07000 163.928
64.08000 168.219
64.09000 168.212
64.10000 168.099
64.11000 167.631
64.12000 166.700
64.13000 165.768
64.14000 163.042
64.15000 158.772
64.16000 154.593
64.17000 155.861
64.18000 160.323
64.19000 164.562
64.20000 163.979
64.21000 161.441
64.22000 159.067
64.23000 158.005
64.24000 157.373
64.25000 156.744
64.26000 156.134
64.27000 155.528
64.28000 155.384
64.29000 157.317
64.30000 159.501
64.31000 161.174
64.32000 163.359
64.33000 165.112
64.34000 166.924
64.35000 168.859
64.36000 170.798
64.37000 169.915
64.38000 164.914
64.39000 159.878
64.40000 158.898
64.41000 161.859
64.42000 164.780
64.43000 164.078
64.44000 161.018
64.45000 158.016
64.46000 156.570
64.47000 155.821
64.48000 155.113
64.49000 158.215
64.50000 162.150
64.51000 165.531
64.52000 164.609
64.53000 162.778
64.54000 161.645
64.55000 164.002
64.56000 166.839
64.57000 169.069
64.58000 168.969
64.59000 168.735
64.60000 169.882
64.61000 174.270
64.62000 178.793
64.63000 179.513
64.64000 174.070
64.65000 168.541
64.66000 165.655
64.67000 175.656
64.68000 182.392
64.69000 183.978
64.70000 181.840
64.71000 179.773
64.72000 180.184
64.73000 181.825
64.74000 183.391
64.75000 182.047
64.76000 179.869
64.77000 177.937
64.78000 178.187
64.79000 178.952
64.80000 179.632
64.81000 179.840
64.82000 179.975
64.83000 180.083
64.84000 185.074
64.85000 189.502
64.86000 191.301
64.87000 186.276
64.88000 180.900
64.89000 180.566
64.90000 189.289
64.91000 198.195
64.92000 203.098
64.93000 194.785
64.94000 189.046
64.95000 186.867
64.96000 187.560
64.97000 188.271
64.98000 189.887
64.99000 191.999
65.00000 194.033
65.01000 193.195
65.02000 191.382
65.03000 189.884
65.04000 191.611
65.05000 194.182
65.06000 196.545
65.07000 197.591
65.08000 198.406
65.09000 199.076
65.10000 199.079
65.11000 199.020
65.12000 200.086
65.13000 204.379
65.14000 208.873
65.15000 212.162
65.16000 213.053
65.17000 213.879
65.18000 214.357
65.19000 215.871
65.20000 216.940
65.21000 221.811
65.22000 230.111
65.23000 238.375
65.24000 244.096
65.25000 248.271
65.26000 252.324
65.27000 251.846
65.28000 249.585
65.29000 247.631
65.30000 249.332
65.31000 252.094
65.32000 255.091
65.33000 259.768
65.34000 264.775
65.35000 268.982
65.36000 276.823
65.37000 283.738
65.38000 290.729
65.39000 297.959
65.40000 305.207
65.41000 313.532
65.42000 324.227
65.43000 335.006
65.44000 341.526
65.45000 350.678
65.46000 357.219
65.47000 366.473
65.48000 378.475
65.49000 390.407
65.50000 394.583
65.51000 393.521
65.52000 392.484
65.53000 394.345
65.54000 397.421
65.55000 400.719
65.56000 407.145
65.57000 414.577
65.58000 421.838
65.59000 427.708
65.60000 433.272
65.61000 438.037
65.62000 446.237
65.63000 453.574
65.64000 462.812
65.65000 478.739
65.66000 495.249
65.67000 511.866
65.68000 528.742
65.69000 545.629
65.70000 556.282
65.71000 609.589
65.72000 648.682
65.73000 694.008
65.74000 746.423
65.75000 798.861
65.76000 854.725
65.77000 913.163
65.78000 970.625
65.79000 1010.561
65.80000 1040.472
65.81000 1070.981
65.82000 1111.502
65.83000 1155.591
65.84000 1196.308
65.85000 1205.614
65.86000 1207.234
65.87000 1208.647
65.88000 1198.433
65.89000 1188.087
65.90000 1180.380
65.91000 1182.993
65.92000 1186.649
65.93000 1175.235
65.94000 1123.293
65.95000 1069.114
65.96000 1033.583
65.97000 947.923
65.98000 884.094
65.99000 820.904
66.00000 758.526
66.01000 696.154
66.02000 634.690
66.03000 573.989
66.04000 514.001
66.05000 471.752
66.06000 440.392
66.07000 409.697
66.08000 392.543
66.09000 380.725
66.10000 369.303
66.11000 362.144
66.12000 356.145
66.13000 350.827
66.14000 339.049
66.15000 327.831
66.16000 318.009
66.17000 314.257
66.18000 311.211
66.19000 309.550
66.20000 312.011
66.21000 314.746
66.22000 316.606
66.23000 318.438
66.24000 319.804
66.25000 328.106
66.26000 346.228
66.27000 364.418
66.28000 373.083
66.29000 372.798
66.30000 372.515
66.31000 381.771
66.32000 396.791
66.33000 411.638
66.34000 422.123
66.35000 430.708
66.36000 439.039
66.37000 444.190
66.38000 448.381
66.39000 452.154
66.40000 458.511
66.41000 464.547
66.42000 470.306
66.43000 474.720
66.44000 478.956
66.45000 479.680
66.46000 468.833
66.47000 457.077
66.48000 448.810
66.49000 451.655
66.50000 454.138
66.51000 450.211
66.52000 436.197
66.53000 422.060
66.54000 407.480
66.55000 392.432
66.56000 377.450
66.57000 369.466
66.58000 366.424
66.59000 363.368
66.60000 359.881
66.61000 356.185
66.62000 352.491
66.63000 348.837
66.64000 345.195
66.65000 341.871
66.66000 337.314
66.67000 333.020
66.68000 329.323
66.69000 328.865
66.70000 328.894
66.71000 327.624
66.72000 321.608
66.73000 315.157
66.74000 310.476
66.75000 308.249
66.76000 306.629
66.77000 307.818
66.78000 313.906
66.79000 320.082
66.80000 322.941
66.81000 321.872
66.82000 320.797
66.83000 320.374
66.84000 320.458
66.85000 320.663
66.86000 326.062
66.87000 334.232
66.88000 342.039
66.89000 343.341
66.90000 342.241
66.91000 341.224
66.92000 341.960
66.93000 343.021
66.94000 344.127
66.95000 345.507
66.96000 346.932
66.97000 348.424
66.98000 350.187
66.99000 351.979
67.00000 353.318
67.01000 357.511
67.02000 360.912
67.03000 363.951
67.04000 366.292
67.05000 368.616
67.06000 371.447
67.07000 374.949
67.08000 378.451
67.09000 378.150
67.10000 374.533
67.11000 370.981
67.12000 371.426
67.13000 374.233
67.14000 376.851
67.15000 375.357
67.16000 372.182
67.17000 369.211
67.18000 374.976
67.19000 382.455
67.20000 388.861
67.21000 387.859
67.22000 385.448
67.23000 383.783
67.24000 385.490
67.25000 387.608
67.26000 389.234
67.27000 391.825
67.28000 393.927
67.29000 395.570
67.30000 396.233
67.31000 396.863
67.32000 397.589
67.33000 398.454
67.34000 399.321
67.35000 401.688
67.36000 405.525
67.37000 409.300
67.38000 407.269
67.39000 401.431
67.40000 395.872
67.41000 397.987
67.42000 403.568
67.43000 408.847
67.44000 414.239
67.45000 419.228
67.46000 423.908
67.47000 426.161
67.48000 427.899
67.49000 429.985
67.50000 433.828
67.51000 437.915
67.52000 441.133
67.53000 449.990
67.54000 457.462
67.55000 461.248
67.56000 456.317
67.57000 451.018
67.58000 447.801
67.59000 447.982
67.60000 448.212
67.61000 448.333
67.62000 453.347
67.63000 456.728
67.64000 457.225
67.65000 455.620
67.66000 454.048
67.67000 453.666
67.68000 453.880
67.69000 454.084
67.70000 469.963
67.71000 489.770
67.72000 507.383
67.73000 505.342
67.74000 498.637
67.75000 493.164
67.76000 494.665
67.77000 497.260
67.78000 499.353
67.79000 501.003
67.80000 502.309
67.81000 501.408
67.82000 494.743
67.83000 487.776
67.84000 486.349
67.85000 494.945
67.86000 503.748
67.87000 508.612
67.88000 519.566
67.89000 527.103
67.90000 523.515
67.91000 510.885
67.92000 498.612
67.93000 503.703
67.94000 518.396
67.95000 532.556
67.96000 540.135
67.97000 544.888
67.98000 548.803
67.99000 544.066
68.00000 537.047
68.01000 531.519
68.02000 535.502
68.03000 541.166
68.04000 545.835
68.05000 544.993
68.06000 543.793
68.07000 544.721
68.08000 551.803
68.09000 559.272
68.10000 566.156
68.11000 571.865
68.12000 577.541
68.13000 580.834
68.14000 571.737
68.15000 565.307
68.16000 570.314
68.17000 585.718
68.18000 601.018
68.19000 608.996
68.20000 612.486
68.21000 615.876
68.22000 619.848
68.23000 623.853
68.24000 627.604
68.25000 628.290
68.26000 628.079
68.27000 628.041
68.28000 629.249
68.29000 630.705
68.30000 631.930
68.31000 644.298
68.32000 655.799
68.33000 665.635
68.34000 670.145
68.35000 674.255
68.36000 679.189
68.37000 685.947
68.38000 692.771
68.39000 696.912
68.40000 716.620
68.41000 730.800
68.42000 738.098
68.43000 738.363
68.44000 738.724
68.45000 749.942
68.46000 768.548
68.47000 786.743
68.48000 795.323
68.49000 799.235
68.50000 803.062
68.51000 805.687
68.52000 807.922
68.53000 812.764
68.54000 839.014
68.55000 870.002
68.56000 896.576
68.57000 922.347
68.58000 944.018
68.59000 970.117
68.60000 1011.922
68.61000 1055.108
68.62000 1097.360
68.63000 1137.321
68.64000 1177.178
68.65000 1202.392
68.66000 1268.555
68.67000 1317.006
68.68000 1370.673
68.69000 1430.320
68.70000 1489.990
68.71000 1553.402
68.72000 1619.646
68.73000 1684.810
68.74000 1747.376
68.75000 1806.629
68.76000 1865.611
68.77000 1920.027
68.78000 1972.803
68.79000 2027.582
68.80000 2101.213
68.81000 2179.491
68.82000 2247.823
68.83000 2370.581
68.84000 2483.251
68.85000 2610.038
68.86000 2792.425
68.87000 2980.489
68.88000 3206.024
68.89000 3533.070
68.90000 3865.797
68.91000 4084.582
68.92000 5384.442
68.93000 6359.834
68.94000 7939.289
68.95000 10292.536
68.96000 12650.398
68.97000 16013.448
68.98000 20226.355
68.99000 24391.201
69.00000 29523.865
69.01000 35075.672
69.02000 40595.086
69.03000 45445.664
69.04000 50030.742
69.05000 54471.953
69.06000 57346.320
69.07000 59791.566
69.08000 61961.523
69.09000 62898.027
69.10000 63512.586
69.11000 64117.098
69.12000 64677.570
69.13000 65232.875
69.14000 65807.156
69.15000 66438.320
69.16000 67073.313
69.17000 67506.133
69.18000 67976.922
69.19000 68329.648
69.20000 67928.984
69.21000 66453.430
69.22000 64969.520
69.23000 62355.961
69.24000 58672.121
69.25000 55015.453
69.26000 51446.762
69.27000 47991.934
69.28000 44570.234
69.29000 42001.625
69.30000 39807.434
69.31000 37671.328
69.32000 36274.797
69.33000 35102.879
69.34000 34046.957
69.35000 33218.039
69.36000 32531.865
69.37000 31751.283
69.38000 30508.900
69.39000 29204.703
69.40000 27679.549
69.41000 25420.930
69.42000 23103.967
69.43000 21470.994
69.44000 17785.035
69.45000 14928.010
69.46000 12400.912
69.47000 10396.775
69.48000 8399.225
69.49000 6817.869
69.50000 5679.833
69.51000 4546.707
69.52000 3776.375
69.53000 3267.651
69.54000 2764.672
69.55000 2451.890
69.56000 2231.425
69.57000 2015.979
69.58000 1876.218
69.59000 1761.911
69.60000 1657.464
69.61000 1579.381
69.62000 1515.421
69.63000 1452.304
69.64000 1393.803
69.65000 1336.003
69.66000 1283.312
69.67000 1249.430
69.68000 1217.296
69.69000 1193.932
69.70000 1143.103
69.71000 1102.957
69.72000 1071.307
69.73000 1054.589
69.74000 1038.151
69.75000 1017.989
69.76000 993.386
69.77000 968.822
69.78000 947.483
69.79000 928.777
69.80000 910.321
69.81000 902.987
69.82000 901.626
69.83000 899.505
69.84000 883.589
69.85000 862.541
69.86000 843.058
69.87000 823.810
69.88000 806.562
69.89000 791.303
69.90000 788.294
69.91000 787.380
69.92000 782.538
69.93000 761.625
69.94000 738.987
69.95000 722.041
69.96000 718.295
69.97000 715.989
69.98000 714.808
69.99000 715.819
70.00000 716.885
