20.00000 547.340
20.01000 551.667
20.02000 556.613
20.03000 561.900
20.04000 568.555
20.05000 575.352
20.06000 580.408
20.07000 571.902
20.08000 564.679
20.09000 559.420
20.10000 557.901
20.11000 556.472
20.12000 558.231
20.13000 564.135
20.14000 570.052
20.15000 569.933
20.16000 564.644
20.17000 559.430
20.18000 558.635
20.19000 560.411
20.20000 561.970
20.21000 558.938
20.22000 554.056
20.23000 549.496
20.24000 555.331
20.25000 563.246
20.26000 571.722
20.27000 584.001
20.28000 596.991
20.29000 604.910
20.30000 590.264
20.31000 572.921
20.32000 559.658
20.33000 559.364
20.34000 559.836
20.35000 560.843
20.36000 562.979
20.37000 565.150
20.38000 567.536
20.39000 570.233
20.40000 572.932
20.41000 568.179
20.42000 556.249
20.43000 544.483
20.44000 546.973
20.45000 558.665
20.46000 569.975
20.47000 571.122
20.48000 567.747
20.49000 564.558
20.50000 563.915
20.51000 564.045
20.52000 564.316
20.53000 565.682
20.54000 567.277
20.55000 567.783
20.56000 562.882
20.57000 557.243
20.58000 552.819
20.59000 555.167
20.60000 557.485
20.61000 558.497
20.62000 556.466
20.63000 554.310
20.64000 552.823
20.65000 552.409
20.66000 552.010
20.67000 551.803
20.68000 552.695
20.69000 553.315
20.70000 556.478
20.71000 561.464
20.72000 566.302
20.73000 566.011
20.74000 563.197
20.75000 560.511
20.76000 559.743
20.77000 559.638
20.78000 559.968
20.79000 564.122
20.80000 569.170
20.81000 572.150
20.82000 563.625
20.83000 553.326
20.84000 545.049
20.85000 545.888
20.86000 547.269
20.87000 551.248
20.88000 561.917
20.89000 572.926
20.90000 577.119
20.91000 569.163
20.92000 560.968
20.93000 556.474
20.94000 571.048
20.95000 581.070
20.96000 579.965
20.97000 569.964
20.98000 560.154
20.99000 559.149
21.00000 562.941
21.01000 566.592
21.02000 563.797
21.03000 558.893
21.04000 554.156
21.05000 551.107
21.06000 548.497
21.07000 546.989
21.08000 552.376
21.09000 558.962
21.10000 564.373
21.11000 566.786
21.12000 568.498
21.13000 570.402
21.14000 572.854
21.15000 575.339
21.16000 576.322
21.17000 574.337
21.18000 572.273
21.19000 571.084
21.20000 573.853
21.21000 575.801
21.22000 570.371
21.23000 558.344
21.24000 546.453
21.25000 543.574
21.26000 546.136
21.27000 548.621
21.28000 550.549
21.29000 552.155
21.30000 553.505
21.31000 551.843
21.32000 549.312
21.33000 548.342
21.34000 558.415
21.35000 570.641
21.36000 580.898
21.37000 566.472
21.38000 551.890
21.39000 541.578
21.40000 544.730
21.41000 548.867
21.42000 554.211
21.43000 562.190
21.44000 570.262
21.45000 575.130
21.46000 572.342
21.47000 570.304
21.48000 566.121
21.49000 559.785
21.50000 553.494
21.51000 551.870
21.52000 553.375
21.53000 554.844
21.54000 555.150
21.55000 554.930
21.56000 555.061
21.57000 560.047
21.58000 566.585
21.59000 572.600
21.60000 574.399
21.61000 575.279
21.62000 576.033
21.63000 580.166
21.64000 584.058
21.65000 587.404
21.66000 588.845
21.67000 590.122
21.68000 592.521
21.69000 597.630
21.70000 602.860
21.71000 606.148
21.72000 603.805
21.73000 602.047
21.74000 605.214
21.75000 613.935
21.76000 622.657
21.77000 630.713
21.78000 638.274
21.79000 645.705
21.80000 649.996
21.81000 652.596
21.82000 655.383
21.83000 661.260
21.84000 668.231
21.85000 674.647
21.86000 675.955
21.87000 676.024
21.88000 676.083
21.89000 687.465
21.90000 698.743
21.91000 711.793
21.92000 731.714
21.93000 752.322
21.94000 772.182
21.95000 790.043
21.96000 807.796
21.97000 819.405
21.98000 823.594
21.99000 826.550
22.00000 832.275
22.01000 841.491
22.02000 850.700
22.03000 850.799
22.04000 843.322
22.05000 835.935
22.06000 835.255
22.07000 838.288
22.08000 841.186
22.09000 841.398
22.10000 840.559
22.11000 839.016
22.12000 829.982
22.13000 818.926
22.14000 809.138
22.15000 801.378
22.16000 794.985
22.17000 787.978
22.18000 778.328
22.19000 768.373
22.20000 759.477
22.21000 753.703
22.22000 748.134
22.23000 744.357
22.24000 716.612
22.25000 695.390
22.26000 683.662
22.27000 685.267
22.28000 686.963
22.29000 682.962
22.30000 673.653
22.31000 664.418
22.32000 650.825
22.33000 634.787
22.34000 619.369
22.35000 619.363
22.36000 626.024
22.37000 631.655
22.38000 624.486
22.39000 613.487
22.40000 603.598
22.41000 601.932
22.42000 601.935
22.43000 600.986
22.44000 595.458
22.45000 589.329
22.46000 584.285
22.47000 582.792
22.48000 581.575
22.49000 580.721
22.50000 565.882
22.51000 554.247
22.52000 551.240
22.53000 561.701
22.54000 572.321
22.55000 574.569
22.56000 568.050
22.57000 561.559
22.58000 562.693
22.59000 569.063
22.60000 575.084
22.61000 570.046
22.62000 559.717
22.63000 549.555
22.64000 541.832
22.65000 534.919
22.66000 528.614
22.67000 532.276
22.68000 537.524
22.69000 541.690
22.70000 540.031
22.71000 537.503
22.72000 536.034
22.73000 538.400
22.74000 541.115
22.75000 543.080
22.76000 532.282
22.77000 523.523
22.78000 523.048
22.79000 536.914
22.80000 551.035
22.81000 552.565
22.82000 539.316
22.83000 526.072
22.84000 520.907
22.85000 521.995
22.86000 523.120
22.87000 525.843
22.88000 529.411
22.89000 532.712
22.90000 531.296
22.91000 528.150
22.92000 525.243
22.93000 521.855
22.94000 518.707
22.95000 517.164
22.96000 525.331
22.97000 535.130
22.98000 541.188
22.99000 532.176
23.00000 521.578
23.01000 513.678
23.02000 525.574
23.03000 535.734
23.04000 542.276
23.05000 541.880
23.06000 541.313
23.07000 538.831
23.08000 533.838
23.09000 528.838
23.10000 518.124
23.11000 502.491
23.12000 487.179
23.13000 490.887
23.14000 505.746
23.15000 520.069
23.16000 522.854
23.17000 520.960
23.18000 519.189
23.19000 512.174
23.20000 504.470
23.21000 498.228
23.22000 501.967
23.23000 507.591
23.24000 512.207
23.25000 512.309
23.26000 511.865
23.27000 511.525
23.28000 517.535
23.29000 522.631
23.30000 520.997
23.31000 505.089
23.32000 488.716
23.33000 480.542
23.34000 484.330
23.35000 488.221
23.36000 491.351
23.37000 493.741
23.38000 496.139
23.39000 499.263
23.40000 502.858
23.41000 506.278
23.42000 504.958
23.43000 501.513
23.44000 498.257
23.45000 497.607
23.46000 497.752
23.47000 497.565
23.48000 494.801
23.49000 491.492
23.50000 489.000
23.51000 490.597
23.52000 492.755
23.53000 494.452
23.54000 497.831
23.55000 500.646
23.56000 502.006
23.57000 499.953
23.58000 497.758
23.59000 498.279
23.60000 503.200
23.61000 508.182
23.62000 510.783
23.63000 505.067
23.64000 501.253
23.65000 506.086
23.66000 517.171
23.67000 527.864
23.68000 524.852
23.69000 515.044
23.70000 505.681
23.71000 512.076
23.72000 523.045
23.73000 531.885
23.74000 521.859
23.75000 507.392
23.76000 495.714
23.77000 499.689
23.78000 506.100
23.79000 511.261
23.80000 508.243
23.81000 505.158
23.82000 501.690
23.83000 497.228
23.84000 492.715
23.85000 489.371
23.86000 488.127
23.87000 486.925
23.88000 486.263
23.89000 483.978
23.90000 482.405
23.91000 482.182
23.92000 483.048
23.93000 483.921
23.94000 485.146
23.95000 486.565
23.96000 487.931
23.97000 488.528
23.98000 488.814
23.99000 489.336
24.00000 492.268
24.01000 495.829
24.02000 499.314
24.03000 502.307
24.04000 505.214
24.05000 507.606
24.06000 505.064
24.07000 502.526
24.08000 500.787
24.09000 501.342
24.10000 502.040
24.11000 498.594
24.12000 486.910
24.13000 475.001
24.14000 468.116
24.15000 485.725
24.16000 498.163
24.17000 505.593
24.18000 508.509
24.19000 511.330
24.20000 507.626
24.21000 499.952
24.22000 492.503
24.23000 490.361
24.24000 490.444
24.25000 490.474
24.26000 489.858
24.27000 489.055
24.28000 487.631
24.29000 481.763
24.30000 475.022
24.31000 469.359
24.32000 475.114
24.33000 481.112
24.34000 486.650
24.35000 490.729
24.36000 494.701
24.37000 496.264
24.38000 492.533
24.39000 488.612
24.40000 486.241
24.41000 483.275
24.42000 481.157
24.43000 480.946
24.44000 482.666
24.45000 484.379
24.46000 485.329
24.47000 485.764
24.48000 486.189
24.49000 487.613
24.50000 489.422
24.51000 491.063
24.52000 490.365
24.53000 488.913
24.54000 487.344
24.55000 484.816
24.56000 482.078
24.57000 479.733
24.58000 480.271
24.59000 481.074
24.60000 482.328
24.61000 485.169
24.62000 488.148
24.63000 489.138
24.64000 485.293
24.65000 481.231
24.66000 478.669
24.67000 484.169
24.68000 488.245
24.69000 489.783
24.70000 488.435
24.71000 487.086
24.72000 486.165
24.73000 485.564
24.74000 484.973
24.75000 483.654
24.76000 482.015
24.77000 480.539
24.78000 481.784
24.79000 483.999
24.80000 486.244
24.81000 488.767
24.82000 491.358
24.83000 493.617
24.84000 483.005
24.85000 472.146
24.86000 463.841
24.87000 465.519
24.88000 468.205
24.89000 470.930
24.90000 473.758
24.91000 476.592
24.92000 478.450
24.93000 479.814
24.94000 480.809
24.95000 478.621
24.96000 472.386
24.97000 466.144
24.98000 463.202
24.99000 463.026
25.00000 462.852
25.01000 462.970
25.02000 463.245
25.03000 463.620
25.04000 465.998
25.05000 469.166
25.06000 471.820
25.07000 468.950
25.08000 464.579
25.09000 460.704
25.10000 463.850
25.11000 467.683
25.12000 471.588
25.13000 475.806
25.14000 480.059
25.15000 483.376
25.16000 483.907
25.17000 484.252
25.18000 484.487
25.19000 498.064
25.20000 508.500
25.21000 513.580
25.22000 511.078
25.23000 508.520
25.24000 504.716
25.25000 499.739
25.26000 494.801
25.27000 489.043
25.28000 482.875
25.29000 476.905
25.30000 475.949
25.31000 477.177
25.32000 478.208
25.33000 476.778
25.34000 474.604
25.35000 472.648
25.36000 476.191
25.37000 480.282
25.38000 483.034
25.39000 479.294
25.40000 474.693
25.41000 473.344
25.42000 482.706
25.43000 492.910
25.44000 500.084
25.45000 494.796
25.46000 490.423
25.47000 486.624
25.48000 483.728
25.49000 480.844
25.50000 477.102
25.51000 472.456
25.52000 467.830
25.53000 464.284
25.54000 461.524
25.55000 458.791
25.56000 456.919
25.57000 455.464
25.58000 454.320
25.59000 457.819
25.60000 462.868
25.61000 467.477
25.62000 469.325
25.63000 470.405
25.64000 470.202
25.65000 463.029
25.66000 454.808
25.67000 450.971
25.68000 463.152
25.69000 476.804
25.70000 486.708
25.71000 479.817
25.72000 473.896
25.73000 469.761
25.74000 468.742
25.75000 467.780
25.76000 466.469
25.77000 464.747
25.78000 463.027
25.79000 463.828
25.80000 466.584
25.81000 469.157
25.82000 463.779
25.83000 454.162
25.84000 445.246
25.85000 448.850
25.86000 457.079
25.87000 464.688
25.88000 475.425
25.89000 485.781
25.90000 492.206
25.91000 474.645
25.92000 453.018
25.93000 435.418
25.94000 434.163
25.95000 434.645
25.96000 435.005
25.97000 441.138
25.98000 446.184
25.99000 452.843
26.00000 462.618
26.01000 472.470
26.02000 479.124
26.03000 481.552
26.04000 483.958
26.05000 483.318
26.06000 480.024
26.07000 476.699
26.08000 471.474
26.09000 465.128
26.10000 459.191
26.11000 462.228
26.12000 468.929
26.13000 475.200
26.14000 475.848
26.15000 474.996
26.16000 473.763
26.17000 469.907
26.18000 465.553
26.19000 460.984
26.20000 455.449
26.21000 449.797
26.22000 445.458
26.23000 455.473
26.24000 464.190
26.25000 469.728
26.26000 468.474
26.27000 466.995
26.28000 464.585
26.29000 460.808
26.30000 457.019
26.31000 454.965
26.32000 454.611
26.33000 454.275
26.34000 455.775
26.35000 458.477
26.36000 461.018
26.37000 459.109
26.38000 455.192
26.39000 451.486
26.40000 462.430
26.41000 476.701
26.42000 488.145
26.43000 477.464
26.44000 462.075
26.45000 448.809
26.46000 446.261
26.47000 445.200
26.48000 444.364
26.49000 455.258
26.50000 464.769
26.51000 468.851
26.52000 460.107
26.53000 450.822
26.54000 444.191
26.55000 441.896
26.56000 439.662
26.57000 438.491
26.58000 449.120
26.59000 456.280
26.60000 456.201
26.61000 450.848
26.62000 445.603
26.63000 444.244
26.64000 444.825
26.65000 445.380
26.66000 450.293
26.67000 456.263
26.68000 461.699
26.69000 462.362
26.70000 461.893
26.71000 461.694
26.72000 463.025
26.73000 464.597
26.74000 465.864
26.75000 464.510
26.76000 463.205
26.77000 462.548
26.78000 463.587
26.79000 464.715
26.80000 463.330
26.81000 457.400
26.82000 451.376
26.83000 448.048
26.84000 441.869
26.85000 437.619
26.86000 439.836
26.87000 447.304
26.88000 454.650
26.89000 456.044
26.90000 454.147
26.91000 452.319
26.92000 447.014
26.93000 440.779
26.94000 435.202
26.95000 436.413
26.96000 439.415
26.97000 441.932
26.98000 441.359
26.99000 440.241
27.00000 439.319
27.01000 449.070
27.02000 458.077
27.03000 461.851
27.04000 450.507
27.05000 438.209
27.06000 432.934
27.07000 441.725
27.08000 450.909
27.09000 456.237
27.10000 449.196
27.11000 444.204
27.12000 442.186
27.13000 442.870
27.14000 443.521
27.15000 441.792
27.16000 438.603
27.17000 435.507
27.18000 438.757
27.19000 444.394
27.20000 449.709
27.21000 451.154
27.22000 451.466
27.23000 451.366
27.24000 448.296
27.25000 444.638
27.26000 441.560
27.27000 445.152
27.28000 448.857
27.29000 450.816
27.30000 447.193
27.31000 443.151
27.32000 442.780
27.33000 450.542
27.34000 458.600
27.35000 463.488
27.36000 461.234
27.37000 459.572
27.38000 455.662
27.39000 449.456
27.40000 443.291
27.41000 441.649
27.42000 443.086
27.43000 444.491
27.44000 441.200
27.45000 435.936
27.46000 431.008
27.47000 430.833
27.48000 432.199
27.49000 434.434
27.50000 443.796
27.51000 454.736
27.52000 464.117
27.53000 461.371
27.54000 457.564
27.55000 453.458
27.56000 448.295
27.57000 443.038
27.58000 440.364
27.59000 444.016
27.60000 447.957
27.61000 450.449
27.62000 447.184
27.63000 444.748
27.64000 441.144
27.65000 436.199
27.66000 431.270
27.67000 429.792
27.68000 430.926
27.69000 432.043
27.70000 436.252
27.71000 441.876
27.72000 446.920
27.73000 442.142
27.74000 433.840
27.75000 426.638
27.76000 429.795
27.77000 435.504
27.78000 440.487
27.79000 434.731
27.80000 428.300
27.81000 425.171
27.82000 435.048
27.83000 446.252
27.84000 452.145
27.85000 443.655
27.86000 434.359
27.87000 428.248
27.88000 426.824
27.89000 425.855
27.90000 430.490
27.91000 442.300
27.92000 454.115
27.93000 453.201
27.94000 441.528
27.95000 429.988
27.96000 430.031
27.97000 436.555
27.98000 442.727
27.99000 441.622
28.00000 437.629
28.01000 434.011
28.02000 434.475
28.03000 436.056
28.04000 437.459
28.05000 436.568
28.06000 435.430
28.07000 434.374
28.08000 433.673
28.09000 433.015
28.10000 434.354
28.11000 441.681
28.12000 449.409
28.13000 454.677
28.14000 450.483
28.15000 447.131
28.16000 444.463
28.17000 442.770
28.18000 441.086
28.19000 440.830
28.20000 441.928
28.21000 443.019
28.22000 439.821
28.23000 433.994
28.24000 428.242
28.25000 424.411
28.26000 421.423
28.27000 418.914
28.28000 422.498
28.29000 427.931
28.30000 432.827
28.31000 432.142
28.32000 430.532
28.33000 428.822
28.34000 426.619
28.35000 424.350
28.36000 425.328
28.37000 437.079
28.38000 449.686
28.39000 458.570
28.40000 450.335
28.41000 443.577
28.42000 437.540
28.43000 432.647
28.44000 427.769
28.45000 427.567
28.46000 432.345
28.47000 437.104
28.48000 440.458
28.49000 442.794
28.50000 444.936
28.51000 440.680
28.52000 433.320
28.53000 426.282
28.54000 424.103
28.55000 423.558
28.56000 423.061
28.57000 428.051
28.58000 433.605
28.59000 437.238
28.60000 430.364
28.61000 421.896
28.62000 415.087
28.63000 414.387
28.64000 414.254
28.65000 414.157
28.66000 412.895
28.67000 411.879
28.68000 410.926
28.69000 410.081
28.70000 409.238
28.71000 411.515
28.72000 417.514
28.73000 423.509
28.74000 426.497
28.75000 427.114
28.76000 427.750
28.77000 429.165
28.78000 431.000
28.79000 432.543
28.80000 428.802
28.81000 423.096
28.82000 417.815
28.83000 421.733
28.84000 427.372
28.85000 431.354
28.86000 425.141
28.87000 417.185
28.88000 412.165
28.89000 419.151
28.90000 427.427
28.91000 433.620
28.92000 429.423
28.93000 425.663
28.94000 422.398
28.95000 420.097
28.96000 417.820
28.97000 415.829
28.98000 414.218
28.99000 412.610
29.00000 410.455
29.01000 407.823
29.02000 405.242
29.03000 405.868
29.04000 408.403
29.05000 410.939
29.06000 413.516
29.07000 416.110
29.08000 418.539
29.09000 421.615
29.10000 424.580
29.11000 426.715
29.12000 423.082
29.13000 418.342
29.14000 414.330
29.15000 413.631
29.16000 413.340
29.17000 413.116
29.18000 420.509
29.19000 426.789
29.20000 430.171
29.21000 427.318
29.22000 424.253
29.23000 421.215
29.24000 418.217
29.25000 415.219
29.26000 410.137
29.27000 402.995
29.28000 395.922
29.29000 395.507
29.30000 399.487
29.31000 403.560
29.32000 410.244
29.33000 418.115
29.34000 425.566
29.35000 421.939
29.36000 415.393
29.37000 410.181
29.38000 415.521
29.39000 423.124
29.40000 429.402
29.41000 428.938
29.42000 427.530
29.43000 426.420
29.44000 431.083
29.45000 435.214
29.46000 437.234
29.47000 434.233
29.48000 431.016
29.49000 429.103
29.50000 429.332
29.51000 429.593
29.52000 429.730
29.53000 419.180
29.54000 412.044
29.55000 409.075
29.56000 409.167
29.57000 409.278
29.58000 410.142
29.59000 411.385
29.60000 412.572
29.61000 412.219
29.62000 411.390
29.63000 410.989
29.64000 414.456
29.65000 418.847
29.66000 421.814
29.67000 416.652
29.68000 410.201
29.69000 404.993
29.70000 410.021
29.71000 414.922
29.72000 419.283
29.73000 422.221
29.74000 425.083
29.75000 425.743
29.76000 422.387
29.77000 418.947
29.78000 417.040
29.79000 421.167
29.80000 424.025
29.81000 424.823
29.82000 423.935
29.83000 423.077
29.84000 423.717
29.85000 425.191
29.86000 426.612
29.87000 435.043
29.88000 445.514
29.89000 455.122
29.90000 455.733
29.91000 453.954
29.92000 451.915
29.93000 448.208
29.94000 444.203
29.95000 440.898
29.96000 439.030
29.97000 437.625
29.98000 437.818
29.99000 442.663
30.00000 447.805
30.01000 451.588
30.02000 452.631
30.03000 453.596
30.04000 454.158
30.05000 445.305
30.06000 439.047
30.07000 441.180
30.08000 451.003
30.09000 460.690
30.10000 460.505
30.11000 454.226
30.12000 448.124
30.13000 442.450
30.14000 437.230
30.15000 432.447
30.16000 432.973
30.17000 435.063
30.18000 436.913
30.19000 437.014
30.20000 436.766
30.21000 436.557
30.22000 439.517
30.23000 442.328
30.24000 440.800
30.25000 425.288
30.26000 408.715
30.27000 402.275
30.28000 418.442
30.29000 435.444
30.30000 445.792
30.31000 440.659
30.32000 436.870
30.33000 433.617
30.34000 430.916
30.35000 428.248
30.36000 429.468
30.37000 433.354
30.38000 437.155
30.39000 437.635
30.40000 436.593
30.41000 435.715
30.42000 437.178
30.43000 439.406
30.44000 441.171
30.45000 439.104
30.46000 436.183
30.47000 433.674
30.48000 436.750
30.49000 440.042
30.50000 441.556
30.51000 436.717
30.52000 431.313
30.53000 428.521
30.54000 432.171
30.55000 436.119
30.56000 438.624
30.57000 431.134
30.58000 425.577
30.59000 428.012
30.60000 439.679
30.61000 451.326
30.62000 455.610
30.63000 454.277
30.64000 452.964
30.65000 455.860
30.66000 460.790
30.67000 465.426
30.68000 465.012
30.69000 462.772
30.70000 460.599
30.71000 459.071
30.72000 457.703
30.73000 456.507
30.74000 460.643
30.75000 464.940
30.76000 467.826
30.77000 465.114
30.78000 461.824
30.79000 462.403
30.80000 473.532
30.81000 485.260
30.82000 492.991
30.83000 490.872
30.84000 489.139
30.85000 489.445
30.86000 492.383
30.87000 495.338
30.88000 502.437
30.89000 513.067
30.90000 523.579
30.91000 525.868
30.92000 523.465
30.93000 521.253
30.94000 523.046
30.95000 526.440
30.96000 530.259
30.97000 538.749
30.98000 548.527
30.99000 557.214
31.00000 579.554
31.01000 601.127
31.02000 624.403
31.03000 655.198
31.04000 686.883
31.05000 716.673
31.06000 740.742
31.07000 764.422
31.08000 780.601
31.09000 826.127
31.10000 860.875
31.11000 903.952
31.12000 958.996
31.13000 1014.136
31.14000 1084.094
31.15000 1168.202
31.16000 1251.711
31.17000 1322.821
31.18000 1384.976
31.19000 1448.128
31.20000 1537.364
31.21000 1638.127
31.22000 1739.723
31.23000 1852.047
31.24000 1967.652
31.25000 2071.919
31.26000 2213.748
31.27000 2345.140
31.28000 2472.554
31.29000 2580.360
31.30000 2685.519
31.31000 2791.861
31.32000 2902.162
31.33000 3012.781
31.34000 3090.916
31.35000 3170.823
31.36000 3231.538
31.37000 3288.632
31.38000 3339.946
31.39000 3391.184
31.40000 3411.832
31.41000 3399.636
31.42000 3387.480
31.43000 3355.204
31.44000 3309.055
31.45000 3262.075
31.46000 3187.076
31.47000 3098.381
31.48000 3009.205
31.49000 2912.677
31.50000 2813.658
31.51000 2723.097
31.52000 2590.498
31.53000 2463.971
31.54000 2339.160
31.55000 2223.821
31.56000 2109.932
31.57000 1999.284
31.58000 1900.655
31.59000 1803.154
31.60000 1732.116
31.61000 1623.995
31.62000 1539.304
31.63000 1452.264
31.64000 1361.067
31.65000 1269.790
31.66000 1194.559
31.67000 1138.621
31.68000 1082.824
31.69000 1035.329
31.70000 994.611
31.71000 953.838
31.72000 910.602
31.73000 866.034
31.74000 821.966
31.75000 787.087
31.76000 755.650
31.77000 726.528
31.78000 705.657
31.79000 688.795
31.80000 671.805
31.81000 654.017
31.82000 636.093
31.83000 619.109
31.84000 606.007
31.85000 593.325
31.86000 583.814
31.87000 568.734
31.88000 556.692
31.89000 546.605
31.90000 540.348
31.91000 534.191
31.92000 524.173
31.93000 508.975
31.94000 493.757
31.95000 486.078
31.96000 485.088
31.97000 484.040
31.98000 479.258
31.99000 472.238
32.00000 465.298
32.01000 460.176
32.02000 455.807
32.03000 451.712
32.04000 447.498
32.05000 443.632
32.06000 440.804
32.07000 445.259
32.08000 451.123
32.09000 455.428
32.10000 452.577
32.11000 448.836
32.12000 445.954
32.13000 442.119
32.14000 439.027
32.15000 435.716
32.16000 431.931
32.17000 428.130
32.18000 425.689
32.19000 425.278
32.20000 424.887
32.21000 419.227
32.22000 408.321
32.23000 397.499
32.24000 395.141
32.25000 398.414
32.26000 401.878
32.27000 410.808
32.28000 422.242
32.29000 433.074
32.30000 431.003
32.31000 425.328
32.32000 419.024
32.33000 407.710
32.34000 395.314
32.35000 385.840
32.36000 391.362
32.37000 399.003
32.38000 405.040
32.39000 400.736
32.40000 396.574
32.41000 394.037
32.42000 395.393
32.43000 396.918
32.44000 400.186
32.45000 406.338
32.46000 412.533
32.47000 415.806
32.48000 401.545
32.49000 391.882
32.50000 387.826
32.51000 387.918
32.52000 388.043
32.53000 389.410
32.54000 391.406
32.55000 393.315
32.56000 398.006
32.57000 403.283
32.58000 407.538
32.59000 402.461
32.60000 395.136
32.61000 389.355
32.62000 392.459
32.63000 396.982
32.64000 400.641
32.65000 397.692
32.66000 394.762
32.67000 393.342
32.68000 395.925
32.69000 398.723
32.70000 400.141
32.71000 399.025
32.72000 397.854
32.73000 397.203
32.74000 404.042
32.75000 408.764
32.76000 402.952
32.77000 388.447
32.78000 374.224
32.79000 374.340
32.80000 382.500
32.81000 390.372
32.82000 401.374
32.83000 412.872
32.84000 423.626
32.85000 426.543
32.86000 427.362
32.87000 428.014
32.88000 427.587
32.89000 426.966
32.90000 426.452
32.91000 422.455
32.92000 418.832
32.93000 415.050
32.94000 410.800
32.95000 406.521
32.96000 406.742
32.97000 416.107
32.98000 425.739
32.99000 431.363
33.00000 426.309
33.01000 422.704
33.02000 418.362
33.03000 413.339
33.04000 408.330
33.05000 404.336
33.06000 400.973
33.07000 397.704
33.08000 388.694
33.09000 377.783
33.10000 367.810
33.11000 369.381
33.12000 374.381
33.13000 378.389
33.14000 375.119
33.15000 370.383
33.16000 366.388
33.17000 362.831
33.18000 359.907
33.19000 357.093
33.20000 354.631
33.21000 352.197
33.22000 351.393
33.23000 354.251
33.24000 357.247
33.25000 359.076
33.26000 360.062
33.27000 360.760
33.28000 359.731
33.29000 356.907
33.30000 354.099
33.31000 353.165
33.32000 353.524
33.33000 353.876
33.34000 352.808
33.35000 351.134
33.36000 349.956
33.37000 355.970
33.38000 364.351
33.39000 371.098
33.40000 364.183
33.41000 354.198
33.42000 345.613
33.43000 341.098
33.44000 337.785
33.45000 335.951
33.46000 339.437
33.47000 343.401
33.48000 345.613
33.49000 343.470
33.50000 341.122
33.51000 339.628
33.52000 338.963
33.53000 338.490
33.54000 339.803
33.55000 343.197
33.56000 346.595
33.57000 350.377
33.58000 354.453
33.59000 358.466
33.60000 357.715
33.61000 354.561
33.62000 351.448
33.63000 349.043
33.64000 346.896
33.65000 344.862
33.66000 343.920
33.67000 343.251
33.68000 342.665
33.69000 341.511
33.70000 340.441
33.71000 340.133
33.72000 342.870
33.73000 345.923
33.74000 347.583
33.75000 345.410
33.76000 343.016
33.77000 341.434
33.78000 343.566
33.79000 345.204
33.80000 347.728
33.81000 351.405
33.82000 355.080
33.83000 354.352
33.84000 349.843
33.85000 345.382
33.86000 340.180
33.87000 334.675
33.88000 329.570
33.89000 332.981
33.90000 339.821
33.91000 346.169
33.92000 347.057
33.93000 346.427
33.94000 345.867
33.95000 349.215
33.96000 352.757
33.97000 354.208
33.98000 346.352
33.99000 337.384
34.00000 331.845
34.01000 336.732
34.02000 342.337
34.03000 346.176
34.04000 339.971
34.05000 335.084
34.06000 332.263
34.07000 332.438
34.08000 332.637
34.09000 333.956
34.10000 336.355
34.11000 338.738
34.12000 340.383
34.13000 341.534
34.14000 342.453
34.15000 337.187
34.16000 329.168
34.17000 321.836
34.18000 323.461
34.19000 327.847
34.20000 331.807
34.21000 335.008
34.22000 337.682
34.23000 339.954
34.24000 340.225
34.25000 340.225
34.26000 341.496
34.27000 347.048
34.28000 352.950
34.29000 357.127
34.30000 347.745
34.31000 340.193
34.32000 335.965
34.33000 337.082
34.34000 338.271
34.35000 338.896
34.36000 338.911
34.37000 338.925
34.38000 335.694
34.39000 330.185
34.40000 324.833
34.41000 324.882
34.42000 327.588
34.43000 330.437
34.44000 335.487
34.45000 341.287
34.46000 346.598
34.47000 331.262
34.48000 313.329
34.49000 299.858
34.50000 311.232
34.51000 326.440
34.52000 338.854
34.53000 340.834
34.54000 341.824
34.55000 342.547
34.56000 342.623
34.57000 342.657
34.58000 341.438
34.59000 337.987
34.60000 334.491
34.61000 332.512
34.62000 332.369
34.63000 332.231
34.64000 328.415
34.65000 321.687
34.66000 315.113
34.67000 315.667
34.68000 320.105
34.69000 324.422
34.70000 326.483
34.71000 327.693
34.72000 328.816
34.73000 328.174
34.74000 327.183
34.75000 326.652
34.76000 329.001
34.77000 331.850
34.78000 334.050
34.79000 333.557
34.80000 332.768
34.81000 332.176
34.82000 332.555
34.83000 332.898
34.84000 333.304
34.85000 333.835
34.86000 334.368
34.87000 334.321
34.88000 333.489
34.89000 332.653
34.90000 329.466
34.91000 324.185
34.92000 318.970
34.93000 318.207
34.94000 320.134
34.95000 322.042
34.96000 323.552
34.97000 324.896
34.98000 326.157
34.99000 326.102
35.00000 325.707
35.01000 325.332
35.02000 325.100
35.03000 324.897
35.04000 323.681
35.05000 317.779
35.06000 311.291
35.07000 306.283
35.08000 312.519
35.09000 318.115
35.10000 321.669
35.11000 320.767
35.12000 319.708
35.13000 321.708
35.14000 328.309
35.15000 334.956
35.16000 338.287
35.17000 332.707
35.18000 329.008
35.19000 327.771
35.20000 328.185
35.21000 328.619
35.22000 329.622
35.23000 330.887
35.24000 332.086
35.25000 322.457
35.26000 310.394
35.27000 299.784
35.28000 300.866
35.29000 304.496
35.30000 308.642
35.31000 315.459
35.32000 322.656
35.33000 328.352
35.34000 321.843
35.35000 315.768
35.36000 309.894
35.37000 304.500
35.38000 299.128
35.39000 298.855
35.40000 307.091
35.41000 315.459
35.42000 319.896
35.43000 315.923
35.44000 313.229
35.45000 313.073
35.46000 314.807
35.47000 316.446
35.48000 314.449
35.49000 310.595
35.50000 306.907
35.51000 310.265
35.52000 315.716
35.53000 320.459
35.54000 318.669
35.55000 315.292
35.56000 312.745
35.57000 315.010
35.58000 318.050
35.59000 320.513
35.60000 317.922
35.61000 315.401
35.62000 313.618
35.63000 313.808
35.64000 314.105
35.65000 315.808
35.66000 320.112
35.67000 324.473
35.68000 326.909
35.69000 336.038
35.70000 342.351
35.71000 338.253
35.72000 325.493
35.73000 312.915
35.74000 309.892
35.75000 312.267
35.76000 314.561
35.77000 313.128
35.78000 310.407
35.79000 307.771
35.80000 306.051
35.81000 304.578
35.82000 303.007
35.83000 300.794
35.84000 298.465
35.85000 296.536
35.86000 307.295
35.87000 317.380
35.88000 322.386
35.89000 312.393
35.90000 301.417
35.91000 296.495
35.92000 303.965
35.93000 311.802
35.94000 316.393
35.95000 309.193
35.96000 304.065
35.97000 302.600
35.98000 304.548
35.99000 306.483
36.00000 307.442
36.01000 307.791
36.02000 308.130
36.03000 311.447
36.04000 315.830
36.05000 319.832
36.06000 319.090
36.07000 316.929
36.08000 314.407
36.09000 309.208
36.10000 303.466
36.11000 298.615
36.12000 304.598
36.13000 310.791
36.14000 313.739
36.15000 306.072
36.16000 297.581
36.17000 293.331
36.18000 298.678
36.19000 304.392
36.20000 307.890
36.21000 300.772
36.22000 295.587
36.23000 297.355
36.24000 306.407
36.25000 315.363
36.26000 312.144
36.27000 300.452
36.28000 289.002
36.29000 289.107
36.30000 294.518
36.31000 299.803
36.32000 303.227
36.33000 306.036
36.34000 308.751
36.35000 310.679
36.36000 312.428
36.37000 313.934
36.38000 316.562
36.39000 318.930
36.40000 319.548
36.41000 313.817
36.42000 307.509
36.43000 302.133
36.44000 299.088
36.45000 296.154
36.46000 294.282
36.47000 289.656
36.48000 286.255
36.49000 289.092
36.50000 299.252
36.51000 309.392
36.52000 311.520
36.53000 307.437
36.54000 303.417
36.55000 301.666
36.56000 301.132
36.57000 300.488
36.58000 297.885
36.59000 294.564
36.60000 291.729
36.61000 293.607
36.62000 296.673
36.63000 299.358
36.64000 308.018
36.65000 316.309
36.66000 320.524
36.67000 308.317
36.68000 294.383
36.69000 287.288
36.70000 299.122
36.71000 312.059
36.72000 320.632
36.73000 319.846
36.74000 319.095
36.75000 314.950
36.76000 306.355
36.77000 297.746
36.78000 293.161
36.79000 292.060
36.80000 290.971
36.81000 295.927
36.82000 304.239
36.83000 312.090
36.84000 310.012
36.85000 303.907
36.86000 298.771
36.87000 304.532
36.88000 313.344
36.89000 321.191
36.90000 314.237
36.91000 305.768
36.92000 298.990
36.93000 299.794
36.94000 301.513
36.95000 303.270
36.96000 305.138
36.97000 307.014
36.98000 308.302
36.99000 307.081
37.00000 306.104
37.01000 304.511
37.02000 302.020
37.03000 299.522
37.04000 300.501
37.05000 304.857
37.06000 309.185
37.07000 307.653
37.08000 302.391
37.09000 297.426
37.10000 300.484
37.11000 307.140
37.12000 313.275
37.13000 312.539
37.14000 309.670
37.15000 307.077
37.16000 305.081
37.17000 303.437
37.18000 302.207
37.19000 303.060
37.20000 304.198
37.21000 304.985
37.22000 304.582
37.23000 304.081
37.24000 303.725
37.25000 297.638
37.26000 292.826
37.27000 291.512
37.28000 295.869
37.29000 300.304
37.30000 302.475
37.31000 302.174
37.32000 301.873
37.33000 299.599
37.34000 295.930
37.35000 292.468
37.36000 296.264
37.37000 303.658
37.38000 310.541
37.39000 309.408
37.40000 305.520
37.41000 301.958
37.42000 302.631
37.43000 304.118
37.44000 304.936
37.45000 302.001
37.46000 298.483
37.47000 295.915
37.48000 296.927
37.49000 298.282
37.50000 299.273
37.51000 297.866
37.52000 296.685
37.53000 296.009
37.54000 296.240
37.55000 296.489
37.56000 295.177
37.57000 291.960
37.58000 288.743
37.59000 288.231
37.60000 289.893
37.61000 291.603
37.62000 295.585
37.63000 300.815
37.64000 305.942
37.65000 309.128
37.66000 311.575
37.67000 313.846
37.68000 308.478
37.69000 301.839
37.70000 295.930
37.71000 294.630
37.72000 294.138
37.73000 293.633
37.74000 293.076
37.75000 292.512
37.76000 292.088
37.77000 297.505
37.78000 302.028
37.79000 304.666
37.80000 303.554
37.81000 302.339
37.82000 302.026
37.83000 302.941
37.84000 303.862
37.85000 304.376
37.86000 304.523
37.87000 304.700
37.88000 306.918
37.89000 310.379
37.90000 313.590
37.91000 310.991
37.92000 305.950
37.93000 301.218
37.94000 292.955
37.95000 284.486
37.96000 277.528
37.97000 281.370
37.98000 287.335
37.99000 293.902
38.00000 303.279
38.01000 313.012
38.02000 320.539
38.03000 307.855
38.04000 296.603
38.05000 290.345
38.06000 295.074
38.07000 300.195
38.08000 304.254
38.09000 306.705
38.10000 309.140
38.11000 310.365
38.12000 308.984
38.13000 308.064
38.14000 307.384
38.15000 306.866
38.16000 306.518
38.17000 311.169
38.18000 318.144
38.19000 324.761
38.20000 322.766
38.21000 318.369
38.22000 314.189
38.23000 311.774
38.24000 309.746
38.25000 309.389
38.26000 317.742
38.27000 327.349
38.28000 334.964
38.29000 337.280
38.30000 338.771
38.31000 341.359
38.32000 346.616
38.33000 351.992
38.34000 355.452
38.35000 355.688
38.36000 355.873
38.37000 355.972
38.38000 371.122
38.39000 381.447
38.40000 391.591
38.41000 401.599
38.42000 411.560
38.43000 419.728
38.44000 426.974
38.45000 433.914
38.46000 450.117
38.47000 468.304
38.48000 485.930
38.49000 498.327
38.50000 509.446
38.51000 523.607
38.52000 555.567
38.53000 590.420
38.54000 618.701
38.55000 641.746
38.56000 660.101
38.57000 680.953
38.58000 708.516
38.59000 736.450
38.60000 761.375
38.61000 780.696
38.62000 799.891
38.63000 810.649
38.64000 840.674
38.65000 861.521
38.66000 876.231
38.67000 885.795
38.68000 895.488
38.69000 912.108
38.70000 932.670
38.71000 952.533
38.72000 948.493
38.73000 935.810
38.74000 924.082
38.75000 922.653
38.76000 924.023
38.77000 922.802
38.78000 904.493
38.79000 883.061
38.80000 865.291
38.81000 833.243
38.82000 805.397
38.83000 778.238
38.84000 753.120
38.85000 728.138
38.86000 705.055
38.87000 685.886
38.88000 666.837
38.89000 655.640
38.90000 620.646
38.91000 595.849
38.92000 571.422
38.93000 547.343
38.94000 523.339
38.95000 505.427
38.96000 491.359
38.97000 477.668
38.98000 454.947
38.99000 429.564
39.00000 405.313
39.01000 395.302
39.02000 389.584
39.03000 383.961
39.04000 379.044
39.05000 374.272
39.06000 370.234
39.07000 362.979
39.08000 356.549
39.09000 350.593
39.10000 346.201
39.11000 341.931
39.12000 336.511
39.13000 328.469
39.14000 320.324
39.15000 315.322
39.16000 322.305
39.17000 327.415
39.18000 326.871
39.19000 320.356
39.20000 313.864
39.21000 310.772
39.22000 310.062
39.23000 309.367
39.24000 305.068
39.25000 299.264
39.26000 293.937
39.27000 295.713
39.28000 299.859
39.29000 302.997
39.30000 297.534
39.31000 290.108
39.32000 283.706
39.33000 285.136
39.34000 287.346
39.35000 289.195
39.36000 289.724
39.37000 290.131
39.38000 288.701
39.39000 282.640
39.40000 276.354
39.41000 272.333
39.42000 284.585
39.43000 293.722
39.44000 296.275
39.45000 291.034
39.46000 285.789
39.47000 283.083
39.48000 282.359
39.49000 281.645
39.50000 278.271
39.51000 273.622
39.52000 269.578
39.53000 276.360
39.54000 287.142
39.55000 296.393
39.56000 290.645
39.57000 281.086
39.58000 272.702
39.59000 270.125
39.60000 268.757
39.61000 268.059
39.62000 270.084
39.63000 272.398
39.64000 274.741
39.65000 277.164
39.66000 279.592
39.67000 281.205
39.68000 277.919
39.69000 275.397
39.70000 272.442
39.71000 268.913
39.72000 265.387
39.73000 265.664
39.74000 269.261
39.75000 272.823
39.76000 274.808
39.77000 275.841
39.78000 276.645
39.79000 272.446
39.80000 266.203
39.81000 260.700
39.82000 263.608
39.83000 268.889
39.84000 273.597
39.85000 273.986
39.86000 273.611
39.87000 273.096
39.88000 271.952
39.89000 270.731
39.90000 270.729
39.91000 274.490
39.92000 278.515
39.93000 281.286
39.94000 274.724
39.95000 269.567
39.96000 264.856
39.97000 260.800
39.98000 256.751
39.99000 256.743
40.00000 260.694
40.01000 264.620
40.02000 269.857
40.03000 275.864
40.04000 281.574
40.05000 279.099
40.06000 272.926
40.07000 266.956
40.08000 263.680
40.09000 261.246
40.10000 259.044
40.11000 252.795
40.12000 246.536
40.13000 242.502
40.14000 249.706
40.15000 258.470
40.16000 266.137
40.17000 270.055
40.18000 273.661
40.19000 276.226
40.20000 262.341
40.21000 251.239
40.22000 247.435
40.23000 255.546
40.24000 263.825
40.25000 268.878
40.26000 270.378
40.27000 271.872
40.28000 269.685
40.29000 264.859
40.30000 260.123
40.31000 258.611
40.32000 258.709
40.33000 259.212
40.34000 266.134
40.35000 275.276
40.36000 283.662
40.37000 278.186
40.38000 270.376
40.39000 263.991
40.40000 265.671
40.41000 268.618
40.42000 270.501
40.43000 268.351
40.44000 265.810
40.45000 263.947
40.46000 256.143
40.47000 249.876
40.48000 248.637
40.49000 256.493
40.50000 264.537
40.51000 266.171
40.52000 259.911
40.53000 253.640
40.54000 249.082
40.55000 245.927
40.56000 242.860
40.57000 244.066
40.58000 247.633
40.59000 250.943
40.60000 249.305
40.61000 245.774
40.62000 242.495
40.63000 245.634
40.64000 249.992
40.65000 252.906
40.66000 246.618
40.67000 238.702
40.68000 234.213
40.69000 244.173
40.70000 255.746
40.71000 264.478
40.72000 260.204
40.73000 256.213
40.74000 254.757
40.75000 258.376
40.76000 262.136
40.77000 262.057
40.78000 256.706
40.79000 251.325
40.80000 249.095
40.81000 249.728
40.82000 250.349
40.83000 250.059
40.84000 249.210
40.85000 248.508
40.86000 251.275
40.87000 255.511
40.88000 259.490
40.89000 259.000
40.90000 257.359
40.91000 256.173
40.92000 258.267
40.93000 261.012
40.94000 262.415
40.95000 257.507
40.96000 251.792
40.97000 247.365
40.98000 242.266
40.99000 238.177
41.00000 237.195
41.01000 243.098
41.02000 249.251
41.03000 254.716
41.04000 259.129
41.05000 263.532
41.06000 265.756
41.07000 260.779
41.08000 257.464
41.09000 255.754
41.10000 255.137
41.11000 254.415
41.12000 250.517
41.13000 245.131
41.14000 240.019
41.15000 246.534
41.16000 256.028
41.17000 263.952
41.18000 258.997
41.19000 251.192
41.20000 245.522
41.21000 251.079
41.22000 258.265
41.23000 263.973
41.24000 263.506
41.25000 262.693
41.26000 261.983
41.27000 261.522
41.28000 261.074
41.29000 260.551
41.30000 259.901
41.31000 259.249
41.32000 258.901
41.33000 249.729
41.34000 243.479
41.35000 239.634
41.36000 237.607
41.37000 235.707
41.38000 238.792
41.39000 244.458
41.40000 249.889
41.41000 250.879
41.42000 250.316
41.43000 249.949
41.44000 251.426
41.45000 253.357
41.46000 254.486
41.47000 250.884
41.48000 246.507
41.49000 242.950
41.50000 246.644
41.51000 250.262
41.52000 251.903
41.53000 248.190
41.54000 244.177
41.55000 241.603
41.56000 241.727
41.57000 241.915
41.58000 242.020
41.59000 242.095
41.60000 242.147
41.61000 242.466
41.62000 243.011
41.63000 243.603
41.64000 246.806
41.65000 251.506
41.66000 256.049
41.67000 252.627
41.68000 246.418
41.69000 241.171
41.70000 246.402
41.71000 254.504
41.72000 261.060
41.73000 257.338
41.74000 251.722
41.75000 247.059
41.76000 242.064
41.77000 237.901
41.78000 234.542
41.79000 233.587
41.80000 232.794
41.81000 233.369
41.82000 236.786
41.83000 240.290
41.84000 242.356
41.85000 244.811
41.86000 246.546
41.87000 246.458
41.88000 244.645
41.89000 242.810
41.90000 239.194
41.91000 234.447
41.92000 229.824
41.93000 229.376
41.94000 230.696
41.95000 232.046
41.96000 233.790
41.97000 235.654
41.98000 237.241
41.99000 236.739
42.00000 235.806
42.01000 235.016
42.02000 234.377
42.03000 233.859
42.04000 234.639
42.05000 239.727
42.06000 245.157
42.07000 246.141
42.08000 236.920
42.09000 227.294
42.10000 221.365
42.11000 233.910
42.12000 243.078
42.13000 246.194
42.14000 242.864
42.15000 239.552
42.16000 238.920
42.17000 240.181
42.18000 241.418
42.19000 235.983
42.20000 227.638
42.21000 219.867
42.22000 220.738
42.23000 224.515
42.24000 228.519
42.25000 234.479
42.26000 240.888
42.27000 246.421
42.28000 243.365
42.29000 239.667
42.30000 235.819
42.31000 231.425
42.32000 226.980
42.33000 225.430
42.34000 231.231
42.35000 237.393
42.36000 241.346
42.37000 238.082
42.38000 235.604
42.39000 233.971
42.40000 233.346
42.41000 232.721
42.42000 231.497
42.43000 229.802
42.44000 228.132
42.45000 230.395
42.46000 234.642
42.47000 238.591
42.48000 237.106
42.49000 233.600
42.50000 230.373
42.51000 229.911
42.52000 230.157
42.53000 230.373
42.54000 235.763
42.55000 241.156
42.56000 243.743
42.57000 234.851
42.58000 224.727
42.59000 218.518
42.60000 223.301
42.61000 228.743
42.62000 232.368
42.63000 229.250
42.64000 226.813
42.65000 224.295
42.66000 221.669
42.67000 219.044
42.68000 218.799
42.69000 220.648
42.70000 222.479
42.71000 227.807
42.72000 235.060
42.73000 241.796
42.74000 237.010
42.75000 227.485
42.76000 218.967
42.77000 222.026
42.78000 228.374
42.79000 234.039
42.80000 233.253
42.81000 231.491
42.82000 230.541
42.83000 233.291
42.84000 236.495
42.85000 238.021
42.86000 234.331
42.87000 230.268
42.88000 227.464
42.89000 229.193
42.90000 230.607
42.91000 230.348
42.92000 227.612
42.93000 224.853
42.94000 225.061
42.95000 228.201
42.96000 231.322
42.97000 234.398
42.98000 237.401
42.99000 240.276
43.00000 239.559
43.01000 237.207
43.02000 234.927
43.03000 233.605
43.04000 232.585
43.05000 231.661
43.06000 237.314
43.07000 243.539
43.08000 248.289
43.09000 245.533
43.10000 241.726
43.11000 239.724
43.12000 243.941
43.13000 248.681
43.14000 252.060
43.15000 241.448
43.16000 232.902
43.17000 227.878
43.18000 228.650
43.19000 229.507
43.20000 230.743
43.21000 232.399
43.22000 234.050
43.23000 233.931
43.24000 232.524
43.25000 231.135
43.26000 230.423
43.27000 230.052
43.28000 229.773
43.29000 230.965
43.30000 232.671
43.31000 234.237
43.32000 236.138
43.33000 237.905
43.34000 239.657
43.35000 241.321
43.36000 242.972
43.37000 243.366
43.38000 238.960
43.39000 234.084
43.40000 230.501
43.41000 224.711
43.42000 220.144
43.43000 217.759
43.44000 219.352
43.45000 221.029
43.46000 226.904
43.47000 237.990
43.48000 249.077
43.49000 249.277
43.50000 240.594
43.51000 232.104
43.52000 233.184
43.53000 239.595
43.54000 245.237
43.55000 235.890
43.56000 220.763
43.57000 206.700
43.58000 206.476
43.59000 209.592
43.60000 213.867
43.61000 225.582
43.62000 238.624
43.63000 248.881
43.64000 247.301
43.65000 244.386
43.66000 242.183
43.67000 232.207
43.68000 223.995
43.69000 219.681
43.70000 223.229
43.71000 227.002
43.72000 229.956
43.73000 231.776
43.74000 233.589
43.75000 231.036
43.76000 224.487
43.77000 217.983
43.78000 214.844
43.79000 213.782
43.80000 212.992
43.81000 218.784
43.82000 227.383
43.83000 235.468
43.84000 235.350
43.85000 233.033
43.86000 230.857
43.87000 229.708
43.88000 228.764
43.89000 227.691
43.90000 226.002
43.91000 224.235
43.92000 222.863
43.93000 227.165
43.94000 230.927
43.95000 231.843
43.96000 226.411
43.97000 220.744
43.98000 218.625
43.99000 221.962
44.00000 225.361
44.01000 227.085
44.02000 227.378
44.03000 227.597
44.04000 230.611
44.05000 235.541
44.06000 240.231
44.07000 237.577
44.08000 231.460
44.09000 225.648
44.10000 228.489
44.11000 233.723
44.12000 238.237
44.13000 236.789
44.14000 234.010
44.15000 232.403
44.16000 237.003
44.17000 242.512
44.18000 246.895
44.19000 234.855
44.20000 223.976
44.21000 218.352
44.22000 225.697
44.23000 233.643
44.24000 236.943
44.25000 232.316
44.26000 227.556
44.27000 225.003
44.28000 230.126
44.29000 233.615
44.30000 233.649
44.31000 231.048
44.32000 228.576
44.33000 231.355
44.34000 236.874
44.35000 242.166
44.36000 238.357
44.37000 231.727
44.38000 225.460
44.39000 222.650
44.40000 220.698
44.41000 219.633
44.42000 223.842
44.43000 228.923
44.44000 233.060
44.45000 236.588
44.46000 239.419
44.47000 242.118
44.48000 244.457
44.49000 246.775
44.50000 247.980
44.51000 247.081
44.52000 246.133
44.53000 245.598
44.54000 247.783
44.55000 249.310
44.56000 251.562
44.57000 254.431
44.58000 257.220
44.59000 255.430
44.60000 250.995
44.61000 246.707
44.62000 247.123
44.63000 249.290
44.64000 251.639
44.65000 255.982
44.66000 260.875
44.67000 265.407
44.68000 267.509
44.69000 269.160
44.70000 270.533
44.71000 275.456
44.72000 279.878
44.73000 283.635
44.74000 285.382
44.75000 286.992
44.76000 290.492
44.77000 297.944
44.78000 305.521
44.79000 310.003
44.80000 317.480
44.81000 322.782
44.82000 330.136
44.83000 339.451
44.84000 348.718
44.85000 353.965
44.86000 356.637
44.87000 359.239
44.88000 362.632
44.89000 366.201
44.90000 369.370
44.91000 367.396
44.92000 363.849
44.93000 362.821
44.94000 380.979
44.95000 403.124
44.96000 421.912
44.97000 431.601
44.98000 438.695
44.99000 444.893
45.00000 448.092
45.01000 451.049
45.02000 452.207
45.03000 449.204
45.04000 446.033
45.05000 444.074
45.06000 447.410
45.07000 449.856
45.08000 453.976
45.09000 459.893
45.10000 465.752
45.11000 463.310
45.12000 454.956
45.13000 446.765
45.14000 443.249
45.15000 442.064
45.16000 440.620
45.17000 435.217
45.18000 428.474
45.19000 421.860
45.20000 416.372
45.21000 411.145
45.22000 406.627
45.23000 393.088
45.24000 380.415
45.25000 371.149
45.26000 374.518
45.27000 379.074
45.28000 380.035
45.29000 371.807
45.30000 363.119
45.31000 357.530
45.32000 350.764
45.33000 345.810
45.34000 340.876
45.35000 335.966
45.36000 331.069
45.37000 329.875
45.38000 331.621
45.39000 333.342
45.40000 323.621
45.41000 308.165
45.42000 293.717
45.43000 297.811
45.44000 308.853
45.45000 318.091
45.46000 309.277
45.47000 295.808
45.48000 283.966
45.49000 283.607
45.50000 285.001
45.51000 286.559
45.52000 288.793
45.53000 291.100
45.54000 293.343
45.55000 295.406
45.56000 297.457
45.57000 298.827
45.58000 283.956
45.59000 272.621
45.60000 267.790
45.61000 271.687
45.62000 275.626
45.63000 274.259
45.64000 268.185
45.65000 262.170
45.66000 261.851
45.67000 264.883
45.68000 267.648
45.69000 264.366
45.70000 258.579
45.71000 253.067
45.72000 250.752
45.73000 249.352
45.74000 248.101
45.75000 245.817
45.76000 243.653
45.77000 242.000
45.78000 242.690
45.79000 243.672
45.80000 243.021
45.81000 237.257
45.82000 231.124
45.83000 226.882
45.84000 230.871
45.85000 234.085
45.86000 236.849
45.87000 238.940
45.88000 241.025
45.89000 242.401
45.90000 243.072
45.91000 243.739
45.92000 240.670
45.93000 235.191
45.94000 229.909
45.95000 230.262
45.96000 233.196
45.97000 235.879
45.98000 235.134
45.99000 233.302
46.00000 231.641
46.01000 230.992
46.02000 230.613
46.03000 230.040
46.04000 228.473
46.05000 226.765
46.06000 224.509
46.07000 220.348
46.08000 216.025
46.09000 212.936
46.10000 219.198
46.11000 224.288
46.12000 225.784
46.13000 221.325
46.14000 216.777
46.15000 214.226
46.16000 213.909
46.17000 213.595
46.18000 210.931
46.19000 206.562
46.20000 202.373
46.21000 204.899
46.22000 210.827
46.23000 216.200
46.24000 212.538
46.25000 205.705
46.26000 199.425
46.27000 201.947
46.28000 206.091
46.29000 209.972
46.30000 212.333
46.31000 214.452
46.32000 215.629
46.33000 213.179
46.34000 210.369
46.35000 208.301
46.36000 209.650
46.37000 210.836
46.38000 210.793
46.39000 208.494
46.40000 206.147
46.41000 205.431
46.42000 206.755
46.43000 208.084
46.44000 206.285
46.45000 201.920
46.46000 197.630
46.47000 197.218
46.48000 198.982
46.49000 200.702
46.50000 201.552
46.51000 202.062
46.52000 202.538
46.53000 207.672
46.54000 213.439
46.55000 217.506
46.56000 210.560
46.57000 201.634
46.58000 194.691
46.59000 196.237
46.60000 198.750
46.61000 200.654
46.62000 201.742
46.63000 202.555
46.64000 203.441
46.65000 204.479
46.66000 205.522
46.67000 205.877
46.68000 205.276
46.69000 204.669
46.70000 203.663
46.71000 202.291
46.72000 200.974
46.73000 203.813
46.74000 209.237
46.75000 214.399
46.76000 213.125
46.77000 209.087
46.78000 205.288
46.79000 202.005
46.80000 199.144
46.81000 196.787
46.82000 198.122
46.83000 200.200
46.84000 201.837
46.85000 201.363
46.86000 200.614
46.87000 200.032
46.88000 203.765
46.89000 207.000
46.90000 207.907
46.91000 203.580
46.92000 199.057
46.93000 194.932
46.94000 191.423
46.95000 187.920
46.96000 186.136
46.97000 191.697
46.98000 195.414
46.99000 197.375
47.00000 198.123
47.01000 198.838
47.02000 198.517
47.03000 197.703
47.04000 196.930
47.05000 199.545
47.06000 202.992
47.07000 205.689
47.08000 202.105
47.09000 197.109
47.10000 192.416
47.11000 189.347
47.12000 186.517
47.13000 184.262
47.14000 184.991
47.15000 185.795
47.16000 186.679
47.17000 187.760
47.18000 188.851
47.19000 190.664
47.20000 193.716
47.21000 196.790
47.22000 198.445
47.23000 199.043
47.24000 199.435
47.25000 196.052
47.26000 189.764
47.27000 183.605
47.28000 182.763
47.29000 184.714
47.30000 186.586
47.31000 190.335
47.32000 194.479
47.33000 197.990
47.34000 195.429
47.35000 191.349
47.36000 187.838
47.37000 187.748
47.38000 188.227
47.39000 188.618
47.40000 197.234
47.41000 204.979
47.42000 208.648
47.43000 201.119
47.44000 192.946
47.45000 188.417
47.46000 190.824
47.47000 193.399
47.48000 194.857
47.49000 190.636
47.50000 187.687
47.51000 187.600
47.52000 189.974
47.53000 192.287
47.54000 191.123
47.55000 187.934
47.56000 184.848
47.57000 183.736
47.58000 183.435
47.59000 183.403
47.60000 186.360
47.61000 190.148
47.62000 193.539
47.63000 194.247
47.64000 194.452
47.65000 194.623
47.66000 198.037
47.67000 201.186
47.68000 201.479
47.69000 193.083
47.70000 184.089
47.71000 178.815
47.72000 181.376
47.73000 184.189
47.74000 185.858
47.75000 186.463
47.76000 186.885
47.77000 189.363
47.78000 193.820
47.79000 198.234
47.80000 198.871
47.81000 197.070
47.82000 195.315
47.83000 192.567
47.84000 189.523
47.85000 186.584
47.86000 185.006
47.87000 183.847
47.88000 182.873
47.89000 183.320
47.90000 184.065
47.91000 184.698
47.92000 184.508
47.93000 184.255
47.94000 184.205
47.95000 184.840
47.96000 185.530
47.97000 185.979
47.98000 185.868
47.99000 185.733
48.00000 185.650
48.01000 191.465
48.02000 195.705
48.03000 194.985
48.04000 188.896
48.05000 182.835
48.06000 181.352
48.07000 183.153
48.08000 184.920
48.09000 184.933
48.10000 184.113
48.11000 183.365
48.12000 183.714
48.13000 184.437
48.14000 185.133
48.15000 185.587
48.16000 185.984
48.17000 186.328
48.18000 192.530
48.19000 198.571
48.20000 202.428
48.21000 198.123
48.22000 193.044
48.23000 189.526
48.24000 190.029
48.25000 190.735
48.26000 191.191
48.27000 185.164
48.28000 180.668
48.29000 178.899
48.30000 180.436
48.31000 181.983
48.32000 184.582
48.33000 188.022
48.34000 191.415
48.35000 191.284
48.36000 189.290
48.37000 187.553
48.38000 190.617
48.39000 195.491
48.40000 199.943
48.41000 200.112
48.42000 199.168
48.43000 198.338
48.44000 196.394
48.45000 194.554
48.46000 192.260
48.47000 188.082
48.48000 183.697
48.49000 180.551
48.50000 180.934
48.51000 181.534
48.52000 181.936
48.53000 179.464
48.54000 177.572
48.55000 175.898
48.56000 174.519
48.57000 173.140
48.58000 171.650
48.59000 170.060
48.60000 168.485
48.61000 170.126
48.62000 173.636
48.63000 177.143
48.64000 180.565
48.65000 183.950
48.66000 186.943
48.67000 185.314
48.68000 182.352
48.69000 179.703
48.70000 185.827
48.71000 192.658
48.72000 197.873
48.73000 195.612
48.74000 192.413
48.75000 189.988
48.76000 190.003
48.77000 190.196
48.78000 190.331
48.79000 187.368
48.80000 185.055
48.81000 184.184
48.82000 185.481
48.83000 186.799
48.84000 187.590
48.85000 187.851
48.86000 188.110
48.87000 183.855
48.88000 176.670
48.89000 169.790
48.90000 171.759
48.91000 177.813
48.92000 183.652
48.93000 186.526
48.94000 188.453
48.95000 190.201
48.96000 186.623
48.97000 182.440
48.98000 179.125
48.99000 180.303
49.00000 182.121
49.01000 183.659
49.02000 184.217
49.03000 184.691
49.04000 185.031
49.05000 182.702
49.06000 180.832
49.07000 178.363
49.08000 174.894
49.09000 171.410
49.10000 170.566
49.11000 172.701
49.12000 174.833
49.13000 179.643
49.14000 186.402
49.15000 192.908
49.16000 189.804
49.17000 181.793
49.18000 174.398
49.19000 177.167
49.20000 183.531
49.21000 189.385
49.22000 185.278
49.23000 179.448
49.24000 174.574
49.25000 175.245
49.26000 176.811
49.27000 177.551
49.28000 175.093
49.29000 172.315
49.30000 170.266
49.31000 172.422
49.32000 174.270
49.33000 175.704
49.34000 176.372
49.35000 177.024
49.36000 175.856
49.37000 172.393
49.38000 168.927
49.39000 170.201
49.40000 175.405
49.41000 180.518
49.42000 180.884
49.43000 178.566
49.44000 176.356
49.45000 176.290
49.46000 177.064
49.47000 177.784
49.48000 173.109
49.49000 167.567
49.50000 163.475
49.51000 168.864
49.52000 175.971
49.53000 181.482
49.54000 180.111
49.55000 177.948
49.56000 176.307
49.57000 177.598
49.58000 178.764
49.59000 179.658
49.60000 179.995
49.61000 180.316
49.62000 180.074
49.63000 179.042
49.64000 178.005
49.65000 175.863
49.66000 172.693
49.67000 169.541
49.68000 167.765
49.69000 166.852
49.70000 166.075
49.71000 168.662
49.72000 172.706
49.73000 176.513
49.74000 175.266
49.75000 172.741
49.76000 170.860
49.77000 173.746
49.78000 177.600
49.79000 179.930
49.80000 174.926
49.81000 168.959
49.82000 164.311
49.83000 166.923
49.84000 169.453
49.85000 172.373
49.86000 176.176
49.87000 180.012
49.88000 181.579
49.89000 179.603
49.90000 177.585
49.91000 176.553
49.92000 176.695
49.93000 176.801
49.94000 178.175
49.95000 180.432
49.96000 182.616
49.97000 182.499
49.98000 181.280
49.99000 180.120
50.00000 177.335
50.01000 174.259
50.02000 171.549
50.03000 171.931
50.04000 173.014
50.05000 173.822
50.06000 173.148
50.07000 172.253
50.08000 171.538
50.09000 175.890
50.10000 179.777
50.11000 182.587
50.12000 182.705
50.13000 182.695
50.14000 184.188
50.15000 188.287
50.16000 192.432
50.17000 194.672
50.18000 190.609
50.19000 187.813
50.20000 183.090
50.21000 176.872
50.22000 170.803
50.23000 171.042
50.24000 174.619
50.25000 178.054
50.26000 180.762
50.27000 183.047
50.28000 185.431
50.29000 188.779
50.30000 192.371
50.31000 194.945
50.32000 191.356
50.33000 186.731
50.34000 182.954
50.35000 187.580
50.36000 192.089
50.37000 194.978
50.38000 193.382
50.39000 191.524
50.40000 191.511
50.41000 195.035
50.42000 198.645
50.43000 200.698
50.44000 202.904
50.45000 204.441
50.46000 206.018
50.47000 207.630
50.48000 209.308
50.49000 214.899
50.50000 222.785
50.51000 230.419
50.52000 233.402
50.53000 234.438
50.54000 235.192
50.55000 232.769
50.56000 229.455
50.57000 226.977
50.58000 230.202
50.59000 234.504
50.60000 238.092
50.61000 240.129
50.62000 241.663
50.63000 244.596
50.64000 251.813
50.65000 259.329
50.66000 263.450
50.67000 260.367
50.68000 257.048
50.69000 255.072
50.70000 261.900
50.71000 266.791
50.72000 268.585
50.73000 267.371
50.74000 266.182
50.75000 267.252
50.76000 269.790
50.77000 272.265
50.78000 269.646
50.79000 264.962
50.80000 260.382
50.81000 257.175
50.82000 254.394
50.83000 252.202
50.84000 254.582
50.85000 257.928
50.86000 260.774
50.87000 253.763
50.88000 246.734
50.89000 241.523
50.90000 242.481
50.91000 243.946
50.92000 243.188
50.93000 237.213
50.94000 231.022
50.95000 227.173
50.96000 225.989
50.97000 225.163
50.98000 224.755
50.99000 224.803
51.00000 224.852
51.01000 224.998
51.02000 225.214
51.03000 225.426
51.04000 221.368
51.05000 215.413
51.06000 209.478
51.07000 203.844
51.08000 198.314
51.09000 193.454
51.10000 194.537
51.11000 197.020
51.12000 199.172
51.13000 197.615
51.14000 195.799
51.15000 193.805
51.16000 191.147
51.17000 188.424
51.18000 186.509
51.19000 186.688
51.20000 186.975
51.21000 187.160
51.22000 187.275
51.23000 187.357
51.24000 185.832
51.25000 182.342
51.26000 178.865
51.27000 181.685
51.28000 189.579
51.29000 197.367
51.30000 197.133
51.31000 192.622
51.32000 188.080
51.33000 182.933
51.34000 177.557
51.35000 172.962
51.36000 176.353
51.37000 181.834
51.38000 186.664
51.39000 183.457
51.40000 179.479
51.41000 175.857
51.42000 173.728
51.43000 171.763
51.44000 171.416
51.45000 175.712
51.46000 180.297
51.47000 183.376
51.48000 172.638
51.49000 164.383
51.50000 161.451
51.51000 165.772
51.52000 170.134
51.53000 171.909
51.54000 171.352
51.55000 170.800
51.56000 172.079
51.57000 174.424
51.58000 176.519
51.59000 172.738
51.60000 166.489
51.61000 160.906
51.62000 163.249
51.63000 167.895
51.64000 172.055
51.65000 172.334
51.66000 171.912
51.67000 171.255
51.68000 169.503
51.69000 167.612
51.70000 166.593
51.71000 168.347
51.72000 170.307
51.73000 171.669
51.74000 166.535
51.75000 162.492
51.76000 161.726
51.77000 165.928
51.78000 170.181
51.79000 169.043
51.80000 162.445
51.81000 155.882
51.82000 156.264
51.83000 161.272
51.84000 166.162
51.85000 167.569
51.86000 167.358
51.87000 167.220
51.88000 168.105
51.89000 169.320
51.90000 170.424
51.91000 170.542
51.92000 170.455
51.93000 169.688
51.94000 165.375
51.95000 160.551
51.96000 156.812
51.97000 156.891
51.98000 157.303
51.99000 157.599
52.00000 157.659
52.01000 157.697
52.02000 159.659
52.03000 164.855
52.04000 170.102
52.05000 171.956
52.06000 169.952
52.07000 167.950
52.08000 164.083
52.09000 158.850
52.10000 153.705
52.11000 151.965
52.12000 151.975
52.13000 152.187
52.14000 155.772
52.15000 160.559
52.16000 164.967
52.17000 164.692
52.18000 163.421
52.19000 162.310
52.20000 162.126
52.21000 162.092
52.22000 161.736
52.23000 160.115
52.24000 158.367
52.25000 157.074
52.26000 160.474
52.27000 163.313
52.28000 163.796
52.29000 159.892
52.30000 155.889
52.31000 156.183
52.32000 161.938
52.33000 167.707
52.34000 169.463
52.35000 167.858
52.36000 166.293
52.37000 166.872
52.38000 168.672
52.39000 170.290
52.40000 168.217
52.41000 164.689
52.42000 161.401
52.43000 161.896
52.44000 163.275
52.45000 164.850
52.46000 167.720
52.47000 170.827
52.48000 172.867
52.49000 170.268
52.50000 167.130
52.51000 164.744
52.52000 158.613
52.53000 153.595
52.54000 151.845
52.55000 156.829
52.56000 162.018
52.57000 165.025
52.58000 164.943
52.59000 164.839
52.60000 161.773
52.61000 155.927
52.62000 150.180
52.63000 152.357
52.64000 159.536
52.65000 166.450
52.66000 166.666
52.67000 163.963
52.68000 161.416
52.69000 163.222
52.70000 166.077
52.71000 168.733
52.72000 169.908
52.73000 170.780
52.74000 170.718
52.75000 166.127
52.76000 160.935
52.77000 156.883
52.78000 157.258
52.79000 157.834
52.80000 157.898
52.81000 156.795
52.82000 155.646
52.83000 154.651
52.84000 153.900
52.85000 153.151
52.86000 152.767
52.87000 155.311
52.88000 157.023
52.89000 158.741
52.90000 160.463
52.91000 162.067
52.92000 159.868
52.93000 155.836
52.94000 151.998
52.95000 153.867
52.96000 157.361
52.97000 160.485
52.98000 160.453
52.99000 159.702
53.00000 159.549
53.01000 162.654
53.02000 166.248
53.03000 169.122
53.04000 168.661
53.05000 168.040
53.06000 166.690
53.07000 163.499
53.08000 160.220
53.09000 157.561
53.10000 155.988
53.11000 154.433
53.12000 153.590
53.13000 161.124
53.14000 166.279
53.15000 166.659
53.16000 163.308
53.17000 160.021
53.18000 159.481
53.19000 160.405
53.20000 161.293
53.21000 158.754
53.22000 155.192
53.23000 152.105
53.24000 153.667
53.25000 156.410
53.26000 158.973
53.27000 160.434
53.28000 161.707
53.29000 162.749
53.30000 158.680
53.31000 154.901
53.32000 153.121
53.33000 156.910
53.34000 161.029
53.35000 164.132
53.36000 165.275
53.37000 166.368
53.38000 166.992
53.39000 160.945
53.40000 156.709
53.41000 155.805
53.42000 157.810
53.43000 159.756
53.44000 158.065
53.45000 154.226
53.46000 150.507
53.47000 154.313
53.48000 160.822
53.49000 166.612
53.50000 164.223
53.51000 159.528
53.52000 155.537
53.53000 156.408
53.54000 158.205
53.55000 159.706
53.56000 157.688
53.57000 155.656
53.58000 154.153
53.59000 154.278
53.60000 154.518
53.61000 154.469
53.62000 153.804
53.63000 153.118
53.64000 152.708
53.65000 155.402
53.66000 157.333
53.67000 158.124
53.68000 157.799
53.69000 157.445
53.70000 154.385
53.71000 149.551
53.72000 144.834
53.73000 145.441
53.74000 148.319
53.75000 151.338
53.76000 156.243
53.77000 161.738
53.78000 166.608
53.79000 166.583
53.80000 165.515
53.81000 164.605
53.82000 164.991
53.83000 165.466
53.84000 165.635
53.85000 164.760
53.86000 163.798
53.87000 163.248
53.88000 163.669
53.89000 164.132
53.90000 164.420
53.91000 165.932
53.92000 167.033
53.93000 167.939
53.94000 168.628
53.95000 169.294
53.96000 166.211
53.97000 160.395
53.98000 154.685
53.99000 156.057
54.00000 160.794
54.01000 165.220
54.02000 164.734
54.03000 162.547
54.04000 160.357
54.05000 158.139
54.06000 155.915
54.07000 153.985
54.08000 157.725
54.09000 161.670
54.10000 164.332
54.11000 162.132
54.12000 159.460
54.13000 157.146
54.14000 155.766
54.15000 154.436
54.16000 153.573
54.17000 151.791
54.18000 150.473
54.19000 149.265
54.20000 148.191
54.21000 147.122
54.22000 147.242
54.23000 148.330
54.24000 149.404
54.25000 152.372
54.26000 156.281
54.27000 159.971
54.28000 159.481
54.29000 157.390
54.30000 155.499
54.31000 155.683
54.32000 156.414
54.33000 157.060
54.34000 161.618
54.35000 166.146
54.36000 169.036
54.37000 165.010
54.38000 160.213
54.39000 158.000
54.40000 163.257
54.41000 168.987
54.42000 172.843
54.43000 167.688
54.44000 163.668
54.45000 160.498
54.46000 158.494
54.47000 156.498
54.48000 155.747
54.49000 156.127
54.50000 156.504
54.51000 158.311
54.52000 160.943
54.53000 163.575
54.54000 166.196
54.55000 168.813
54.56000 171.017
54.57000 168.267
54.58000 164.065
54.59000 160.300
54.60000 161.640
54.61000 163.694
54.62000 164.991
54.63000 162.732
54.64000 160.017
54.65000 157.138
54.66000 153.729
54.67000 150.280
54.68000 147.877
54.69000 151.815
54.70000 154.961
54.71000 155.881
54.72000 153.404
54.73000 150.891
54.74000 151.573
54.75000 155.518
54.76000 159.442
54.77000 158.092
54.78000 153.214
54.79000 148.557
54.80000 150.555
54.81000 155.669
54.82000 160.385
54.83000 159.451
54.84000 156.685
54.85000 154.170
54.86000 154.239
54.87000 154.804
54.88000 155.040
54.89000 153.542
54.90000 151.793
54.91000 151.226
54.92000 154.853
54.93000 158.850
54.94000 161.724
54.95000 170.492
54.96000 177.410
54.97000 179.094
54.98000 171.912
54.99000 164.585
55.00000 162.332
55.01000 165.896
55.02000 169.457
55.03000 169.499
55.04000 166.894
55.05000 164.317
55.06000 162.883
55.07000 162.041
55.08000 161.037
55.09000 157.274
55.10000 152.521
55.11000 148.142
55.12000 151.965
55.13000 157.197
55.14000 162.293
55.15000 166.589
55.16000 170.754
55.17000 174.476
55.18000 176.456
55.19000 178.257
55.20000 179.592
55.21000 172.643
55.22000 166.889
55.23000 165.965
55.24000 174.107
55.25000 182.460
55.26000 184.843
55.27000 179.580
55.28000 174.295
55.29000 174.254
55.30000 178.637
55.31000 182.869
55.32000 178.825
55.33000 170.034
55.34000 161.806
55.35000 165.186
55.36000 173.174
55.37000 180.625
55.38000 184.032
55.39000 186.114
55.40000 187.549
55.41000 184.677
55.42000 181.010
55.43000 179.398
55.44000 186.784
55.45000 195.226
55.46000 201.658
55.47000 200.729
55.48000 199.608
55.49000 198.815
55.50000 198.702
55.51000 198.609
55.52000 200.426
55.53000 204.966
55.54000 209.526
55.55000 214.139
55.56000 218.802
55.57000 223.473
55.58000 228.881
55.59000 234.758
55.60000 240.503
55.61000 242.866
55.62000 243.746
55.63000 244.577
55.64000 251.851
55.65000 260.309
55.66000 269.104
55.67000 280.435
55.68000 292.290
55.69000 303.836
55.70000 313.871
55.71000 323.704
55.72000 331.392
55.73000 328.066
55.74000 324.713
55.75000 330.448
55.76000 357.052
55.77000 384.482
55.78000 407.752
55.79000 424.431
55.80000 441.027
55.81000 449.587
55.82000 457.886
55.83000 463.539
55.84000 477.755
55.85000 498.022
55.86000 517.988
55.87000 527.991
55.88000 533.159
55.89000 538.082
55.90000 553.419
55.91000 570.878
55.92000 585.818
55.93000 579.075
55.94000 567.343
55.95000 557.722
55.96000 559.659
55.97000 563.349
55.98000 566.305
55.99000 571.456
56.00000 575.788
56.01000 577.545
56.02000 572.761
56.03000 567.656
56.04000 558.540
56.05000 542.376
56.06000 526.081
56.07000 517.208
56.08000 517.118
56.09000 517.040
56.10000 509.227
56.11000 495.321
56.12000 481.579
56.13000 475.061
56.14000 472.422
56.15000 469.886
56.16000 453.100
56.17000 432.407
56.18000 412.452
56.19000 399.797
56.20000 389.012
56.21000 378.549
56.22000 370.069
56.23000 361.927
56.24000 355.258
56.25000 345.636
56.26000 337.488
56.27000 329.965
56.28000 324.203
56.29000 318.545
56.30000 309.444
56.31000 293.641
56.32000 277.666
56.33000 268.523
56.34000 257.931
56.35000 250.532
56.36000 245.881
56.37000 243.650
56.38000 241.438
56.39000 240.498
56.40000 240.314
56.41000 240.135
56.42000 238.842
56.43000 237.184
56.44000 235.214
56.45000 229.659
56.46000 223.085
56.47000 216.910
56.48000 213.505
56.49000 210.632
56.50000 208.228
56.51000 205.341
56.52000 202.894
56.53000 201.223
56.54000 201.965
56.55000 202.879
56.56000 202.245
56.57000 198.277
56.58000 194.196
56.59000 191.750
56.60000 184.023
56.61000 178.501
56.62000 177.756
56.63000 181.730
56.64000 185.637
56.65000 182.916
56.66000 175.820
56.67000 168.893
56.68000 171.501
56.69000 178.143
56.70000 184.227
56.71000 182.769
56.72000 178.936
56.73000 174.717
56.74000 167.449
56.75000 159.527
56.76000 152.770
56.77000 155.956
56.78000 159.810
56.79000 163.229
56.80000 165.149
56.81000 166.943
56.82000 168.924
56.83000 171.350
56.84000 173.794
56.85000 175.323
56.86000 170.867
56.87000 167.588
56.88000 165.241
56.89000 163.926
56.90000 162.614
56.91000 161.398
56.92000 160.254
56.93000 159.130
56.94000 157.138
56.95000 154.792
56.96000 152.552
56.97000 151.997
56.98000 152.029
56.99000 152.307
57.00000 154.797
57.01000 157.816
57.02000 160.439
57.03000 155.095
57.04000 149.464
57.05000 145.424
57.06000 147.464
57.07000 150.100
57.08000 151.116
57.09000 147.870
57.10000 144.398
57.11000 142.140
57.12000 144.629
57.13000 146.527
57.14000 148.771
57.15000 151.443
57.16000 154.109
57.17000 153.741
57.18000 150.889
57.19000 148.073
57.20000 147.474
57.21000 148.092
57.22000 148.670
57.23000 148.449
57.24000 147.920
57.25000 147.274
57.26000 145.419
57.27000 143.241
57.28000 141.318
57.29000 144.852
57.30000 148.742
57.31000 151.584
57.32000 149.968
57.33000 147.849
57.34000 145.032
57.35000 140.182
57.36000 135.201
57.37000 131.841
57.38000 140.470
57.39000 147.147
57.40000 150.681
57.41000 149.868
57.42000 149.028
57.43000 149.702
57.44000 151.764
57.45000 153.808
57.46000 152.373
57.47000 148.855
57.48000 145.482
57.49000 145.594
57.50000 147.193
57.51000 148.760
57.52000 149.942
57.53000 151.011
57.54000 151.970
57.55000 150.688
57.56000 149.175
57.57000 148.380
57.58000 150.990
57.59000 154.039
57.60000 155.129
57.61000 149.903
57.62000 144.198
57.63000 140.215
57.64000 140.828
57.65000 141.419
57.66000 141.803
57.67000 141.870
57.68000 141.933
57.69000 141.291
57.70000 139.921
57.71000 138.558
57.72000 139.867
57.73000 142.971
57.74000 145.991
57.75000 146.425
57.76000 145.640
57.77000 145.029
57.78000 146.920
57.79000 149.629
57.80000 152.094
57.81000 150.114
57.82000 147.484
57.83000 145.512
57.84000 147.026
57.85000 149.051
57.86000 150.902
57.87000 152.133
57.88000 153.308
57.89000 154.155
57.90000 147.627
57.91000 142.363
57.92000 140.365
57.93000 143.941
57.94000 147.611
57.95000 147.776
57.96000 143.892
57.97000 140.011
57.98000 137.332
57.99000 135.580
58.00000 133.916
58.01000 135.797
58.02000 139.528
58.03000 143.052
58.04000 143.011
58.05000 141.681
58.06000 140.455
58.07000 140.931
58.08000 141.736
58.09000 142.569
58.10000 143.571
58.11000 144.600
58.12000 145.232
58.13000 144.289
58.14000 143.184
58.15000 142.364
58.16000 142.094
58.17000 141.909
58.18000 141.419
58.19000 140.353
58.20000 139.273
58.21000 138.993
58.22000 139.744
58.23000 140.499
58.24000 141.591
58.25000 142.967
58.26000 144.334
58.27000 145.139
58.28000 145.620
58.29000 146.006
58.30000 144.396
58.31000 141.988
58.32000 139.740
58.33000 137.330
58.34000 135.104
58.35000 133.369
58.36000 134.936
58.37000 137.115
58.38000 139.035
58.39000 139.810
58.40000 140.450
58.41000 140.938
58.42000 142.414
58.43000 143.631
58.44000 144.200
58.45000 143.414
58.46000 142.586
58.47000 142.171
58.48000 142.352
58.49000 142.537
58.50000 140.718
58.51000 136.986
58.52000 133.309
58.53000 134.233
58.54000 138.106
58.55000 141.906
58.56000 143.769
58.57000 144.777
58.58000 145.728
58.59000 141.345
58.60000 135.828
58.61000 131.285
58.62000 134.164
58.63000 138.585
58.64000 142.347
58.65000 142.866
58.66000 142.946
58.67000 143.009
58.68000 145.662
58.69000 147.947
58.70000 149.364
58.71000 148.773
58.72000 148.100
58.73000 146.281
58.74000 142.633
58.75000 138.961
58.76000 137.059
58.77000 135.599
58.78000 134.601
58.79000 131.799
58.80000 127.714
58.81000 123.742
58.82000 123.626
58.83000 125.395
58.84000 127.082
58.85000 133.493
58.86000 140.923
58.87000 147.479
58.88000 146.431
58.89000 143.619
58.90000 140.677
58.91000 137.010
58.92000 133.232
58.93000 130.201
58.94000 132.670
58.95000 135.087
58.96000 136.530
58.97000 135.482
58.98000 134.309
58.99000 133.543
59.00000 133.497
59.01000 133.465
59.02000 133.447
59.03000 135.550
59.04000 136.990
59.05000 136.195
59.06000 133.626
59.07000 131.108
59.08000 130.949
59.09000 132.066
59.10000 133.140
59.11000 132.781
59.12000 131.941
59.13000 131.270
59.14000 132.296
59.15000 133.760
59.16000 135.147
59.17000 136.061
59.18000 136.893
59.19000 137.576
59.20000 138.860
59.21000 139.967
59.22000 141.047
59.23000 142.051
59.24000 143.050
59.25000 143.374
59.26000 142.376
59.27000 141.342
59.28000 140.749
59.29000 135.890
59.30000 132.482
59.31000 134.404
59.32000 141.056
59.33000 147.619
59.34000 148.449
59.35000 145.842
59.36000 143.314
59.37000 141.099
59.38000 139.123
59.39000 137.503
59.40000 140.032
59.41000 143.749
59.42000 146.729
59.43000 144.531
59.44000 141.331
59.45000 138.650
59.46000 137.942
59.47000 137.556
59.48000 137.395
59.49000 137.937
59.50000 138.530
59.51000 138.459
59.52000 136.949
59.53000 135.390
59.54000 134.453
59.55000 130.901
59.56000 128.358
59.57000 128.701
59.58000 131.920
59.59000 135.109
59.60000 135.312
59.61000 133.530
59.62000 131.789
59.63000 132.011
59.64000 133.084
59.65000 134.216
59.66000 136.159
59.67000 138.359
59.68000 140.179
59.69000 138.961
59.70000 137.086
59.71000 135.485
59.72000 130.219
59.73000 125.347
59.74000 122.993
59.75000 129.376
59.76000 136.502
59.77000 140.467
59.78000 136.855
59.79000 132.913
59.80000 130.441
59.81000 130.195
59.82000 130.041
59.83000 129.974
59.84000 130.003
59.85000 130.023
59.86000 128.200
59.87000 125.014
59.88000 121.884
59.89000 123.394
59.90000 127.124
59.91000 130.692
59.92000 131.634
59.93000 131.652
59.94000 131.849
59.95000 133.677
59.96000 135.897
59.97000 137.829
59.98000 137.318
59.99000 136.549
60.00000 135.957
60.01000 136.047
60.02000 136.205
60.03000 136.316
60.04000 136.303
60.05000 136.284
60.06000 136.271
60.07000 133.344
60.08000 131.150
60.09000 128.328
60.10000 124.721
60.11000 121.122
60.12000 122.484
60.13000 127.939
60.14000 133.326
60.15000 134.634
60.16000 133.678
60.17000 132.857
60.18000 134.705
60.19000 137.590
60.20000 140.042
60.21000 137.935
60.22000 134.607
60.23000 131.664
60.24000 133.558
60.25000 135.946
60.26000 137.993
60.27000 138.579
60.28000 138.998
60.29000 139.887
60.30000 142.156
60.31000 144.514
60.32000 146.109
60.33000 135.628
60.34000 127.557
60.35000 124.996
60.36000 130.116
60.37000 135.286
60.38000 136.393
60.39000 133.747
60.40000 131.122
60.41000 133.350
60.42000 138.502
60.43000 143.385
60.44000 141.703
60.45000 137.202
60.46000 132.902
60.47000 131.092
60.48000 130.021
60.49000 129.060
60.50000 132.945
60.51000 137.197
60.52000 140.787
60.53000 141.210
60.54000 141.221
60.55000 140.538
60.56000 137.605
60.57000 134.499
60.58000 132.325
60.59000 134.841
60.60000 136.877
60.61000 137.594
60.62000 136.269
60.63000 134.920
60.64000 132.751
60.65000 129.729
60.66000 126.721
60.67000 127.707
60.68000 131.409
60.69000 135.027
60.70000 136.031
60.71000 135.792
60.72000 135.587
60.73000 135.863
60.74000 136.297
60.75000 136.692
60.76000 135.811
60.77000 134.776
60.78000 134.409
60.79000 137.612
60.80000 141.343
60.81000 143.568
60.82000 140.374
60.83000 136.693
60.84000 134.034
60.85000 139.562
60.86000 144.097
60.87000 145.444
60.88000 141.311
60.89000 137.083
60.90000 133.448
60.91000 130.504
60.92000 127.568
60.93000 128.375
60.94000 132.038
60.95000 135.663
60.96000 137.694
60.97000 138.889
60.98000 140.101
60.99000 141.630
61.00000 143.273
61.01000 144.790
61.02000 141.193
61.03000 136.819
61.04000 133.004
61.05000 132.538
61.06000 132.630
61.07000 133.173
61.08000 135.517
61.09000 138.048
61.10000 139.931
61.11000 137.526
61.12000 135.463
61.13000 134.165
61.14000 134.326
61.15000 134.521
61.16000 136.058
61.17000 139.342
61.18000 142.630
61.19000 143.854
61.20000 143.307
61.21000 142.777
61.22000 143.266
61.23000 144.349
61.24000 145.228
61.25000 141.759
61.26000 136.539
61.27000 131.662
61.28000 134.255
61.29000 138.491
61.30000 142.080
61.31000 141.278
61.32000 139.655
61.33000 137.710
61.34000 134.334
61.35000 130.786
61.36000 128.073
61.37000 132.585
61.38000 136.537
61.39000 139.356
61.40000 139.788
61.41000 140.144
61.42000 140.233
61.43000 139.937
61.44000 139.639
61.45000 141.066
61.46000 144.156
61.47000 147.295
61.48000 154.772
61.49000 165.049
61.50000 175.198
61.51000 181.923
61.52000 187.125
61.53000 192.038
61.54000 210.034
61.55000 230.252
61.56000 249.841
61.57000 264.596
61.58000 278.339
61.59000 291.129
61.60000 299.191
61.61000 306.608
61.62000 312.428
61.63000 321.355
61.64000 328.696
61.65000 333.433
61.66000 332.104
61.67000 330.526
61.68000 334.490
61.69000 347.370
61.70000 360.370
61.71000 367.129
61.72000 344.098
61.73000 328.578
61.74000 319.808
61.75000 315.884
61.76000 311.731
61.77000 299.737
61.78000 283.882
61.79000 268.757
61.80000 250.153
61.81000 231.785
61.82000 214.345
61.83000 205.062
61.84000 197.684
61.85000 190.000
61.86000 180.610
61.87000 170.956
61.88000 163.198
61.89000 162.335
61.90000 162.166
61.91000 160.859
61.92000 156.617
61.93000 152.226
61.94000 148.561
61.95000 146.190
61.96000 143.844
61.97000 142.557
61.98000 144.052
61.99000 145.082
62.00000 145.162
62.01000 144.484
62.02000 143.771
62.03000 141.478
62.04000 138.323
62.05000 135.287
62.06000 139.544
62.07000 146.122
62.08000 151.950
62.09000 150.197
62.10000 146.475
62.11000 143.329
62.12000 143.794
62.13000 144.888
62.14000 145.786
62.15000 141.042
62.16000 136.637
62.17000 133.487
62.18000 133.912
62.19000 134.556
62.20000 136.615
62.21000 141.465
62.22000 146.390
62.23000 149.228
62.24000 146.061
62.25000 143.822
62.26000 142.285
62.27000 141.378
62.28000 140.545
62.29000 144.652
62.30000 151.741
62.31000 158.620
62.32000 158.613
62.33000 155.882
62.34000 153.067
62.35000 149.273
62.36000 145.196
62.37000 141.371
62.38000 139.325
62.39000 137.627
62.40000 136.202
62.41000 145.725
62.42000 154.793
62.43000 159.728
62.44000 151.626
62.45000 142.568
62.46000 136.841
62.47000 138.386
62.48000 140.186
62.49000 141.271
62.50000 144.690
62.51000 147.140
62.52000 147.144
62.53000 144.691
62.54000 142.249
62.55000 140.849
62.56000 140.148
62.57000 139.463
62.58000 142.184
62.59000 146.295
62.60000 150.017
62.61000 148.340
62.62000 144.938
62.63000 141.926
62.64000 142.052
62.65000 142.863
62.66000 143.556
62.67000 142.753
62.68000 141.896
62.69000 141.500
62.70000 142.712
62.71000 144.062
62.72000 146.004
62.73000 149.375
62.74000 152.809
62.75000 154.969
62.76000 153.511
62.77000 152.417
62.78000 153.378
62.79000 156.656
62.80000 159.914
62.81000 158.786
62.82000 154.389
62.83000 150.067
62.84000 148.001
62.85000 147.117
62.86000 146.212
62.87000 144.942
62.88000 143.544
62.89000 142.717
62.90000 147.165
62.91000 152.894
62.92000 157.883
62.93000 152.943
62.94000 147.358
62.95000 142.863
62.96000 142.595
62.97000 142.750
62.98000 142.325
62.99000 140.351
63.00000 138.293
63.01000 136.947
63.02000 138.894
63.03000 140.378
63.04000 142.035
63.05000 143.910
63.06000 145.784
63.07000 146.964
63.08000 147.568
63.09000 148.164
63.10000 147.024
63.11000 144.956
63.12000 142.968
63.13000 142.602
63.14000 142.869
63.15000 142.941
63.16000 140.934
63.17000 138.366
63.18000 136.093
63.19000 143.058
63.20000 150.532
63.21000 155.443
63.22000 149.296
63.23000 141.876
63.24000 138.239
63.25000 145.778
63.26000 154.049
63.27000 159.658
63.28000 155.036
63.29000 151.362
63.30000 150.350
63.31000 153.080
63.32000 155.834
63.33000 155.244
63.34000 151.538
63.35000 147.860
63.36000 146.107
63.37000 145.571
63.38000 145.201
63.39000 148.997
63.40000 154.594
63.41000 159.423
63.42000 154.690
63.43000 147.095
63.44000 140.267
63.45000 145.004
63.46000 151.208
63.47000 156.114
63.48000 154.766
63.49000 152.596
63.50000 150.514
63.51000 148.722
63.52000 146.953
63.53000 145.712
63.54000 149.284
63.55000 152.126
63.56000 154.030
63.57000 154.466
63.58000 154.885
63.59000 156.164
63.60000 158.345
63.61000 160.515
63.62000 158.996
63.63000 154.953
63.64000 151.086
63.65000 152.833
63.66000 157.267
63.67000 161.530
63.68000 163.288
63.69000 164.216
63.70000 165.061
63.71000 161.071
63.72000 156.562
63.73000 153.312
63.74000 156.844
63.75000 161.386
63.76000 164.201
63.77000 160.750
63.78000 156.729
63.79000 153.818
63.80000 163.199
63.81000 170.853
63.82000 173.552
63.83000 167.671
63.84000 161.637
63.85000 160.016
63.86000 163.577
63.87000 167.138
63.88000 167.586
63.89000 165.630
63.90000 163.667
63.91000 161.342
63.92000 158.827
63.93000 156.473
63.94000 156.984
63.95000 158.546
63.96000 159.988
63.97000 161.524
63.98000 162.923
63.99000 163.879
64.00000 162.161
64.01000 159.993
64.02000 158.766
64.03000 161.331
64.04000 164.296
64.05000 166.506
64.06000 161.079
64.07000 156.506
64.08000 155.056
64.09000 159.597
64.10000 164.286
64.11000 164.791
64.12000 159.810
64.13000 154.809
64.14000 154.395
64.15000 157.946
64.16000 161.416
64.17000 160.005
64.18000 155.732
64.19000 151.789
64.20000 154.954
64.21000 161.002
64.22000 166.658
64.23000 163.201
64.24000 157.745
64.25000 154.165
64.26000 163.411
64.27000 175.078
64.28000 183.209
64.29000 175.477
64.30000 165.829
64.31000 158.436
64.32000 159.461
64.33000 160.735
64.34000 161.609
64.35000 161.639
64.36000 161.641
64.37000 163.812
64.38000 169.150
64.39000 174.515
64.40000 174.163
64.41000 168.260
64.42000 162.433
64.43000 163.574
64.44000 169.247
64.45000 174.742
64.46000 175.399
64.47000 173.887
64.48000 172.458
64.49000 172.113
64.50000 172.104
64.51000 171.878
64.52000 169.957
64.53000 167.679
64.54000 166.247
64.55000 169.055
64.56000 172.446
64.57000 175.112
64.58000 172.544
64.59000 170.144
64.60000 169.434
64.61000 172.692
64.62000 176.115
64.63000 179.203
64.64000 181.747
64.65000 184.284
64.66000 185.608
64.67000 180.160
64.68000 176.513
64.69000 179.088
64.70000 186.165
64.71000 193.049
64.72000 193.212
64.73000 190.041
64.74000 187.013
64.75000 188.371
64.76000 191.033
64.77000 193.546
64.78000 194.737
64.79000 195.617
64.80000 196.062
64.81000 194.063
64.82000 191.684
64.83000 189.769
64.84000 189.032
64.85000 188.526
64.86000 187.987
64.87000 187.363
64.88000 186.734
64.89000 186.757
64.90000 187.952
64.91000 189.171
64.92000 189.841
64.93000 190.037
64.94000 190.173
64.95000 191.083
64.96000 192.617
64.97000 194.208
64.98000 198.467
64.99000 204.191
65.00000 209.705
65.01000 211.118
65.02000 210.982
65.03000 211.352
65.04000 216.899
65.05000 223.801
65.06000 229.195
65.07000 225.060
65.08000 219.254
65.09000 214.476
65.10000 216.032
65.11000 217.888
65.12000 218.222
65.13000 214.193
65.14000 209.891
65.15000 209.099
65.16000 215.286
65.17000 221.665
65.18000 225.352
65.19000 229.854
65.20000 233.012
65.21000 235.796
65.22000 238.242
65.23000 240.705
65.24000 244.287
65.25000 248.548
65.26000 252.685
65.27000 259.080
65.28000 266.048
65.29000 272.709
65.30000 275.726
65.31000 277.685
65.32000 280.068
65.33000 285.492
65.34000 291.513
65.35000 296.572
65.36000 299.341
65.37000 301.407
65.38000 305.596
65.39000 316.532
65.40000 327.967
65.41000 337.811
65.42000 344.153
65.43000 350.370
65.44000 354.131
65.45000 354.673
65.46000 355.035
65.47000 358.248
65.48000 364.349
65.49000 370.485
65.50000 380.442
65.51000 392.981
65.52000 405.238
65.53000 416.411
65.54000 426.635
65.55000 436.552
65.56000 442.165
65.57000 446.393
65.58000 450.803
65.59000 456.697
65.60000 462.917
65.61000 468.244
65.62000 490.287
65.63000 510.921
65.64000 530.288
65.65000 545.191
65.66000 559.707
65.67000 581.197
65.68000 619.653
65.69000 658.872
65.70000 683.611
65.71000 778.171
65.72000 847.450
65.73000 912.690
65.74000 973.336
65.75000 1033.982
65.76000 1095.367
65.77000 1157.307
65.78000 1218.212
65.79000 1281.181
65.80000 1343.111
65.81000 1403.500
65.82000 1438.093
65.83000 1463.495
65.84000 1487.284
65.85000 1496.044
65.86000 1501.126
65.87000 1505.558
65.88000 1496.309
65.89000 1486.501
65.90000 1473.024
65.91000 1445.202
65.92000 1415.930
65.93000 1377.590
65.94000 1314.858
65.95000 1250.781
65.96000 1208.759
65.97000 1074.398
65.98000 974.051
65.99000 886.350
66.00000 814.722
66.01000 743.173
66.02000 683.860
66.03000 634.810
66.04000 586.336
66.05000 545.180
66.06000 509.097
66.07000 473.554
66.08000 448.984
66.09000 428.740
66.10000 409.234
66.11000 397.687
66.12000 388.303
66.13000 379.986
66.14000 379.173
66.15000 379.656
66.16000 379.236
66.17000 374.884
66.18000 370.075
66.19000 365.893
66.20000 363.580
66.21000 361.390
66.22000 359.901
66.23000 365.070
66.24000 369.079
66.25000 376.040
66.26000 387.182
66.27000 398.355
66.28000 414.058
66.29000 434.017
66.30000 453.823
66.31000 470.126
66.32000 483.977
66.33000 497.634
66.34000 506.388
66.35000 513.005
66.36000 518.855
66.37000 515.036
66.38000 508.302
66.39000 502.241
66.40000 510.314
66.41000 519.925
66.42000 529.024
66.43000 535.635
66.44000 541.916
66.45000 546.550
66.46000 545.752
66.47000 544.527
66.48000 543.666
66.49000 527.937
66.50000 515.583
66.51000 499.706
66.52000 478.290
66.53000 456.805
66.54000 442.667
66.55000 436.290
66.56000 429.942
66.57000 417.814
66.58000 401.804
66.59000 385.925
66.60000 374.351
66.61000 364.851
66.62000 355.839
66.63000 354.085
66.64000 354.754
66.65000 355.366
66.66000 352.816
66.67000 349.912
66.68000 348.718
66.69000 356.805
66.70000 366.288
66.71000 371.310
66.72000 360.032
66.73000 347.256
66.74000 337.987
66.75000 348.142
66.76000 356.671
66.77000 361.324
66.78000 359.214
66.79000 356.981
66.80000 354.913
66.81000 353.040
66.82000 351.171
66.83000 350.915
66.84000 351.913
66.85000 353.054
66.86000 360.434
66.87000 371.139
66.88000 381.422
66.89000 384.153
66.90000 384.095
66.91000 384.041
66.92000 381.268
66.93000 378.156
66.94000 376.063
66.95000 380.187
66.96000 385.364
66.97000 390.770
66.98000 397.099
66.99000 403.526
67.00000 408.327
67.01000 404.616
67.02000 401.331
67.03000 398.690
67.04000 397.295
67.05000 395.931
67.06000 394.593
67.07000 393.287
67.08000 391.982
67.09000 394.516
67.10000 400.394
67.11000 406.210
67.12000 408.280
67.13000 408.136
67.14000 407.875
67.15000 405.051
67.16000 401.179
67.17000 397.556
67.18000 397.833
67.19000 399.084
67.20000 400.728
67.21000 405.076
67.22000 409.939
67.23000 414.785
67.24000 419.553
67.25000 424.311
67.26000 427.964
67.27000 432.202
67.28000 435.585
67.29000 439.442
67.30000 444.312
67.31000 449.216
67.32000 451.500
67.33000 449.930
67.34000 448.325
67.35000 447.303
67.36000 446.852
67.37000 446.420
67.38000 447.897
67.39000 450.625
67.40000 453.329
67.41000 455.387
67.42000 457.152
67.43000 458.823
67.44000 460.253
67.45000 461.498
67.46000 462.700
67.47000 463.561
67.48000 464.349
67.49000 464.910
67.50000 464.326
67.51000 463.584
67.52000 462.999
67.53000 474.713
67.54000 484.919
67.55000 491.989
67.56000 491.648
67.57000 490.995
67.58000 489.401
67.59000 486.273
67.60000 483.122
67.61000 481.471
67.62000 506.615
67.63000 523.567
67.64000 525.916
67.65000 517.621
67.66000 509.507
67.67000 507.833
67.68000 509.377
67.69000 510.851
67.70000 519.161
67.71000 529.086
67.72000 537.765
67.73000 535.290
67.74000 530.168
67.75000 526.883
67.76000 533.996
67.77000 542.742
67.78000 549.794
67.79000 553.893
67.80000 556.989
67.81000 559.718
67.82000 561.485
67.83000 563.203
67.84000 565.138
67.85000 567.468
67.86000 569.805
67.87000 571.097
67.88000 570.120
67.89000 569.454
67.90000 573.187
67.91000 580.494
67.92000 587.778
67.93000 593.903
67.94000 599.386
67.95000 604.670
67.96000 606.700
67.97000 607.435
67.98000 607.916
67.99000 605.765
68.00000 602.920
68.01000 599.925
68.02000 595.979
68.03000 591.864
68.04000 588.472
68.05000 607.346
68.06000 624.927
68.07000 637.936
68.08000 637.732
68.09000 636.695
68.10000 637.378
68.11000 641.508
68.12000 645.735
68.13000 648.187
68.14000 657.247
68.15000 663.632
68.16000 667.597
68.17000 669.364
68.18000 671.189
68.19000 677.158
68.20000 685.667
68.21000 693.932
68.22000 700.582
68.23000 706.248
68.24000 712.020
68.25000 719.065
68.26000 726.484
68.27000 733.316
68.28000 735.927
68.29000 737.700
68.30000 739.193
68.31000 750.648
68.32000 761.262
68.33000 771.971
68.34000 782.981
68.35000 794.013
68.36000 800.803
68.37000 798.193
68.38000 795.241
68.39000 793.450
68.40000 814.320
68.41000 829.383
68.42000 840.961
68.43000 848.977
68.44000 856.972
68.45000 862.566
68.46000 866.526
68.47000 870.399
68.48000 892.208
68.49000 921.175
68.50000 948.867
68.51000 958.476
68.52000 962.221
68.53000 968.225
68.54000 992.777
68.55000 1021.433
68.56000 1046.008
68.57000 1105.906
68.58000 1160.838
68.59000 1214.521
68.60000 1263.777
68.61000 1312.644
68.62000 1362.607
68.63000 1415.254
68.64000 1468.024
68.65000 1501.407
68.66000 1586.502
68.67000 1648.805
68.68000 1723.384
68.69000 1812.036
68.70000 1900.708
68.71000 1989.987
68.72000 2079.725
68.73000 2168.000
68.74000 2261.481
68.75000 2354.568
68.76000 2447.896
68.77000 2545.312
68.78000 2644.195
68.79000 2747.436
68.80000 2891.698
68.81000 3046.073
68.82000 3180.832
68.83000 3413.780
68.84000 3626.870
68.85000 3873.937
68.86000 4254.827
68.87000 4649.381
68.88000 5144.557
68.89000 5912.315
68.90000 6695.327
68.91000 7210.198
68.92000 9750.478
68.93000 11655.170
68.94000 14459.413
68.95000 18415.963
68.96000 22378.863
68.97000 27534.859
68.98000 33699.586
68.99000 39793.984
69.00000 46427.055
69.01000 53203.117
69.02000 59916.531
69.03000 65336.313
69.04000 70242.586
69.05000 74973.586
69.06000 77795.680
69.07000 80094.984
69.08000 82135.422
69.09000 83117.805
69.10000 83800.117
69.11000 84500.547
69.12000 85280.367
69.13000 86069.500
69.14000 86902.344
69.15000 87866.180
69.16000 88838.820
69.17000 89501.781
69.18000 88686.805
69.19000 88043.633
69.20000 86358.992
69.21000 83188.422
69.22000 80006.445
69.23000 76062.398
69.24000 71396.328
69.25000 66764.672
69.26000 62671.492
69.27000 58982.648
69.28000 55325.184
69.29000 52475.645
69.30000 49980.703
69.31000 47551.164
69.32000 45954.434
69.33000 44610.625
69.34000 43399.824
69.35000 42049.805
69.36000 40840.180
69.37000 39467.797
69.38000 37299.297
69.39000 35024.234
69.40000 32518.891
69.41000 29249.135
69.42000 25918.574
69.43000 23571.227
69.44000 19480.053
69.45000 16324.992
69.46000 13553.582
69.47000 11390.289
69.48000 9234.653
69.49000 7532.813
69.50000 6314.341
69.51000 5101.128
69.52000 4279.964
69.53000 3741.388
69.54000 3208.229
69.55000 2854.367
69.56000 2587.533
69.57000 2327.266
69.58000 2166.031
69.59000 2038.103
69.60000 1921.208
69.61000 1826.327
69.62000 1746.557
69.63000 1667.552
69.64000 1592.736
69.65000 1518.556
69.66000 1453.545
69.67000 1422.287
69.68000 1394.165
69.69000 1373.718
69.70000 1319.545
69.71000 1276.589
69.72000 1234.880
69.73000 1195.365
69.74000 1155.891
69.75000 1126.135
69.76000 1107.974
69.77000 1089.870
69.78000 1072.572
69.79000 1055.991
69.80000 1039.416
69.81000 1023.112
69.82000 1006.954
69.83000 990.360
69.84000 965.876
69.85000 938.456
69.86000 913.075
69.87000 905.870
69.88000 903.576
69.89000 899.462
69.90000 884.133
69.91000 866.886
69.92000 852.459
69.93000 849.565
69.94000 847.910
69.95000 846.672
69.96000 838.911
69.97000 832.551
69.98000 825.819
69.99000 818.365
70.00000 810.892
