20.00000 551.787
20.01000 561.055
20.02000 571.646
20.03000 579.526
20.04000 576.573
20.05000 572.491
20.06000 569.455
20.07000 573.269
20.08000 576.541
20.09000 578.035
20.10000 576.141
20.11000 574.166
20.12000 569.644
20.13000 561.808
20.14000 553.964
20.15000 556.412
20.16000 567.673
20.17000 578.735
20.18000 578.236
20.19000 571.010
20.20000 564.255
20.21000 567.502
20.22000 574.776
20.23000 581.572
20.24000 580.913
20.25000 578.435
20.26000 575.304
20.27000 567.744
20.28000 559.354
20.29000 554.666
20.30000 566.450
20.31000 580.204
20.32000 590.721
20.33000 583.728
20.34000 577.261
20.35000 570.165
20.36000 561.743
20.37000 553.279
20.38000 553.334
20.39000 565.723
20.40000 578.213
20.41000 581.792
20.42000 576.792
20.43000 571.851
20.44000 572.092
20.45000 575.678
20.46000 579.016
20.47000 575.750
20.48000 569.545
20.49000 563.684
20.50000 565.299
20.51000 568.895
20.52000 572.060
20.53000 571.917
20.54000 571.081
20.55000 571.362
20.56000 577.195
20.57000 583.784
20.58000 588.954
20.59000 572.977
20.60000 558.826
20.61000 548.518
20.62000 547.161
20.63000 546.169
20.64000 547.291
20.65000 551.812
20.66000 556.378
20.67000 558.752
20.68000 560.353
20.69000 561.422
20.70000 560.664
20.71000 558.597
20.72000 556.527
20.73000 554.381
20.74000 552.199
20.75000 550.116
20.76000 551.750
20.77000 554.443
20.78000 557.013
20.79000 558.503
20.80000 559.740
20.81000 560.724
20.82000 560.294
20.83000 559.646
20.84000 559.125
20.85000 564.395
20.86000 569.111
20.87000 571.339
20.88000 567.157
20.89000 562.650
20.90000 559.843
20.91000 560.065
20.92000 560.347
20.93000 560.502
20.94000 566.823
20.95000 571.159
20.96000 568.333
20.97000 559.780
20.98000 551.392
20.99000 550.621
21.00000 554.000
21.01000 557.253
21.02000 560.187
21.03000 562.828
21.04000 565.307
21.05000 566.152
21.06000 566.572
21.07000 566.164
21.08000 560.566
21.09000 554.066
21.10000 548.726
21.11000 544.333
21.12000 540.809
21.13000 540.818
21.14000 550.888
21.15000 561.576
21.16000 565.539
21.17000 556.227
21.18000 546.559
21.19000 540.989
21.20000 556.997
21.21000 568.279
21.22000 570.154
21.23000 563.619
21.24000 557.191
21.25000 557.913
21.26000 562.951
21.27000 567.838
21.28000 573.203
21.29000 578.478
21.30000 583.407
21.31000 584.265
21.32000 583.948
21.33000 582.876
21.34000 576.461
21.35000 569.004
21.36000 562.748
21.37000 557.036
21.38000 552.339
21.39000 550.679
21.40000 558.599
21.41000 567.219
21.42000 572.888
21.43000 572.110
21.44000 571.106
21.45000 570.501
21.46000 569.671
21.47000 569.079
21.48000 572.043
21.49000 578.580
21.50000 585.089
21.51000 588.671
21.52000 590.292
21.53000 591.877
21.54000 590.517
21.55000 587.914
21.56000 584.805
21.57000 574.694
21.58000 562.347
21.59000 551.819
21.60000 555.938
21.61000 563.248
21.62000 569.499
21.63000 566.652
21.64000 563.158
21.65000 562.854
21.66000 573.699
21.67000 585.503
21.68000 592.207
21.69000 586.599
21.70000 580.447
21.71000 576.578
21.72000 597.034
21.73000 612.101
21.74000 618.807
21.75000 616.084
21.76000 613.379
21.77000 615.561
21.78000 621.387
21.79000 627.113
21.80000 627.523
21.81000 625.296
21.82000 624.019
21.83000 638.415
21.84000 658.354
21.85000 676.537
21.86000 678.532
21.87000 676.599
21.88000 674.915
21.89000 699.163
21.90000 723.440
21.91000 743.791
21.92000 748.916
21.93000 752.520
21.94000 756.684
21.95000 762.345
21.96000 768.087
21.97000 771.842
21.98000 777.876
21.99000 782.346
22.00000 792.261
22.01000 809.040
22.02000 825.821
22.03000 833.002
22.04000 832.198
22.05000 831.403
22.06000 827.499
22.07000 821.980
22.08000 816.848
22.09000 819.471
22.10000 825.126
22.11000 829.909
22.12000 825.397
22.13000 818.378
22.14000 812.163
22.15000 803.659
22.16000 795.945
22.17000 788.591
22.18000 782.790
22.19000 777.167
22.20000 768.986
22.21000 753.248
22.22000 737.015
22.23000 726.007
22.24000 724.625
22.25000 723.807
22.26000 716.927
22.27000 701.532
22.28000 686.078
22.29000 673.579
22.30000 663.832
22.31000 654.163
22.32000 647.958
22.33000 643.993
22.34000 639.991
22.35000 635.047
22.36000 629.696
22.37000 624.233
22.38000 617.385
22.39000 610.123
22.40000 603.594
22.41000 596.621
22.42000 590.436
22.43000 586.473
22.44000 593.205
22.45000 601.342
22.46000 605.167
22.47000 594.893
22.48000 583.524
22.49000 575.550
22.50000 567.650
22.51000 561.673
22.52000 558.177
22.53000 558.553
22.54000 558.975
22.55000 560.789
22.56000 564.061
22.57000 567.319
22.58000 561.741
22.59000 550.142
22.60000 538.670
22.61000 531.220
22.62000 525.694
22.63000 521.157
22.64000 531.164
22.65000 545.991
22.66000 559.512
22.67000 552.513
22.68000 542.187
22.69000 534.616
22.70000 541.886
22.71000 551.366
22.72000 556.790
22.73000 547.508
22.74000 536.890
22.75000 529.204
22.76000 518.793
22.77000 510.701
22.78000 506.859
22.79000 510.374
22.80000 514.020
22.81000 517.847
22.82000 521.885
22.83000 525.915
22.84000 522.382
22.85000 513.042
22.86000 503.978
22.87000 506.602
22.88000 515.412
22.89000 523.967
22.90000 528.037
22.91000 530.463
22.92000 532.704
22.93000 526.907
22.94000 519.888
22.95000 514.489
22.96000 518.890
22.97000 524.939
22.98000 531.103
22.99000 537.733
23.00000 544.411
23.01000 549.389
23.02000 527.165
23.03000 508.625
23.04000 499.675
23.05000 509.113
23.06000 519.004
23.07000 523.799
23.08000 521.915
23.09000 520.003
23.10000 521.031
23.11000 524.598
23.12000 528.131
23.13000 529.612
23.14000 529.889
23.15000 530.112
23.16000 529.156
23.17000 527.722
23.18000 526.381
23.19000 518.329
23.20000 509.313
23.21000 502.344
23.22000 509.364
23.23000 519.023
23.24000 527.534
23.25000 530.892
23.26000 533.628
23.27000 535.724
23.28000 529.628
23.29000 524.363
23.30000 517.753
23.31000 508.289
23.32000 498.732
23.33000 492.783
23.34000 492.099
23.35000 491.459
23.36000 493.239
23.37000 497.369
23.38000 501.467
23.39000 502.668
23.40000 501.986
23.41000 501.296
23.42000 500.415
23.43000 499.448
23.44000 498.533
23.45000 497.657
23.46000 496.863
23.47000 496.166
23.48000 496.227
23.49000 496.447
23.50000 497.571
23.51000 503.224
23.52000 509.499
23.53000 514.431
23.54000 515.641
23.55000 516.364
23.56000 514.607
23.57000 507.030
23.58000 499.212
23.59000 496.045
23.60000 500.413
23.61000 504.884
23.62000 507.218
23.63000 499.548
23.64000 494.393
23.65000 494.880
23.66000 499.444
23.67000 504.027
23.68000 509.228
23.69000 514.738
23.70000 519.997
23.71000 514.913
23.72000 506.890
23.73000 499.738
23.74000 500.307
23.75000 502.694
23.76000 504.844
23.77000 505.668
23.78000 506.285
23.79000 506.781
23.80000 508.004
23.81000 509.052
23.82000 509.824
23.83000 509.883
23.84000 509.905
23.85000 511.430
23.86000 515.653
23.87000 519.930
23.88000 522.284
23.89000 520.861
23.90000 519.862
23.91000 514.245
23.92000 504.907
23.93000 495.743
23.94000 494.838
23.95000 498.465
23.96000 501.959
23.97000 502.902
23.98000 502.877
23.99000 503.063
24.00000 505.404
24.01000 508.309
24.02000 511.032
24.03000 512.600
24.04000 513.965
24.05000 515.089
24.06000 515.492
24.07000 515.757
24.08000 513.878
24.09000 505.848
24.10000 497.436
24.11000 491.461
24.12000 490.334
24.13000 489.339
24.14000 488.764
24.15000 496.897
24.16000 502.632
24.17000 508.643
24.18000 514.902
24.19000 521.000
24.20000 516.024
24.21000 504.315
24.22000 492.949
24.23000 485.476
24.24000 479.938
24.25000 475.183
24.26000 479.739
24.27000 487.000
24.28000 493.856
24.29000 497.822
24.30000 501.219
24.31000 504.074
24.32000 495.725
24.33000 487.589
24.34000 482.789
24.35000 488.589
24.36000 495.174
24.37000 497.688
24.38000 491.250
24.39000 484.492
24.40000 480.405
24.41000 487.625
24.42000 492.852
24.43000 493.392
24.44000 489.184
24.45000 484.983
24.46000 481.520
24.47000 478.554
24.48000 475.656
24.49000 475.655
24.50000 476.945
24.51000 478.426
24.52000 482.569
24.53000 487.569
24.54000 491.655
24.55000 488.316
24.56000 483.346
24.57000 479.090
24.58000 487.172
24.59000 495.490
24.60000 500.741
24.61000 495.198
24.62000 488.717
24.63000 485.244
24.64000 489.086
24.65000 493.257
24.66000 495.888
24.67000 487.142
24.68000 480.678
24.69000 482.051
24.70000 492.332
24.71000 502.577
24.72000 503.582
24.73000 497.647
24.74000 491.811
24.75000 494.909
24.76000 502.349
24.77000 508.999
24.78000 502.467
24.79000 491.238
24.80000 481.615
24.81000 486.943
24.82000 495.928
24.83000 503.761
24.84000 489.656
24.85000 474.552
24.86000 464.931
24.87000 476.735
24.88000 490.703
24.89000 499.132
24.90000 492.667
24.91000 485.380
24.92000 480.602
24.93000 481.984
24.94000 483.103
24.95000 481.920
24.96000 477.815
24.97000 473.711
24.98000 475.432
24.99000 482.036
25.00000 488.563
25.01000 486.102
25.02000 478.710
25.03000 471.754
25.04000 473.671
25.05000 479.083
25.06000 484.321
25.07000 487.693
25.08000 490.557
25.09000 493.095
25.10000 492.854
25.11000 492.205
25.12000 490.724
25.13000 485.620
25.14000 480.095
25.15000 476.725
25.16000 479.766
25.17000 483.233
25.18000 485.589
25.19000 480.542
25.20000 476.606
25.21000 475.548
25.22000 478.562
25.23000 481.605
25.24000 482.122
25.25000 480.267
25.26000 478.425
25.27000 479.883
25.28000 483.362
25.29000 486.701
25.30000 486.473
25.31000 484.691
25.32000 482.300
25.33000 472.263
25.34000 459.920
25.35000 448.811
25.36000 463.211
25.37000 480.405
25.38000 493.417
25.39000 486.138
25.40000 476.168
25.41000 469.202
25.42000 472.129
25.43000 475.833
25.44000 478.438
25.45000 473.877
25.46000 470.211
25.47000 469.191
25.48000 472.333
25.49000 475.526
25.50000 476.783
25.51000 475.997
25.52000 475.215
25.53000 472.493
25.54000 468.455
25.55000 464.473
25.56000 462.320
25.57000 461.050
25.58000 459.755
25.59000 458.099
25.60000 456.323
25.61000 454.701
25.62000 458.882
25.63000 463.767
25.64000 468.011
25.65000 468.771
25.66000 469.008
25.67000 468.787
25.68000 466.891
25.69000 464.841
25.70000 463.354
25.71000 467.836
25.72000 471.504
25.73000 475.010
25.74000 478.236
25.75000 481.456
25.76000 480.001
25.77000 473.013
25.78000 466.030
25.79000 459.727
25.80000 453.986
25.81000 448.487
25.82000 453.526
25.83000 464.181
25.84000 474.434
25.85000 477.489
25.86000 477.885
25.87000 478.252
25.88000 478.654
25.89000 479.023
25.90000 479.075
25.91000 477.195
25.92000 474.988
25.93000 472.831
25.94000 470.877
25.95000 468.946
25.96000 467.503
25.97000 461.960
25.98000 457.451
25.99000 457.381
26.00000 465.881
26.01000 474.598
26.02000 475.691
26.03000 466.713
26.04000 457.694
26.05000 456.315
26.06000 461.595
26.07000 466.812
26.08000 468.199
26.09000 467.325
26.10000 466.425
26.11000 464.989
26.12000 463.333
26.13000 461.783
26.14000 458.208
26.15000 454.440
26.16000 450.863
26.17000 448.610
26.18000 446.608
26.19000 444.951
26.20000 444.850
26.21000 444.938
26.22000 445.006
26.23000 455.024
26.24000 463.496
26.25000 469.521
26.26000 470.314
26.27000 470.933
26.28000 469.216
26.29000 464.065
26.30000 458.883
26.31000 459.144
26.32000 464.734
26.33000 470.292
26.34000 472.795
26.35000 473.296
26.36000 473.596
26.37000 468.331
26.38000 460.553
26.39000 453.195
26.40000 449.610
26.41000 447.399
26.42000 445.480
26.43000 445.847
26.44000 446.700
26.45000 447.602
26.46000 448.747
26.47000 449.926
26.48000 450.854
26.49000 455.933
26.50000 460.280
26.51000 463.460
26.52000 463.881
26.53000 464.186
26.54000 466.095
26.55000 470.620
26.56000 475.182
26.57000 477.573
26.58000 456.649
26.59000 442.533
26.60000 438.848
26.61000 442.762
26.62000 446.612
26.63000 448.168
26.64000 448.577
26.65000 448.969
26.66000 453.482
26.67000 459.003
26.68000 464.172
26.69000 466.174
26.70000 467.426
26.71000 467.238
26.72000 458.897
26.73000 449.276
26.74000 441.520
26.75000 446.409
26.76000 451.374
26.77000 455.774
26.78000 458.696
26.79000 461.541
26.80000 459.351
26.81000 448.054
26.82000 436.569
26.83000 430.224
26.84000 442.482
26.85000 450.965
26.86000 457.190
26.87000 461.580
26.88000 465.783
26.89000 460.875
26.90000 450.930
26.91000 441.347
26.92000 441.132
26.93000 444.299
26.94000 447.143
26.95000 446.642
26.96000 445.259
26.97000 444.355
26.98000 446.504
26.99000 449.191
27.00000 451.406
27.01000 447.996
27.02000 444.671
27.03000 442.649
27.04000 444.386
27.05000 446.361
27.06000 447.985
27.07000 448.907
27.08000 449.809
27.09000 450.332
27.10000 442.783
27.11000 437.455
27.12000 438.909
27.13000 446.526
27.14000 453.993
27.15000 450.801
27.16000 441.080
27.17000 431.638
27.18000 427.691
27.19000 426.150
27.20000 425.052
27.21000 429.267
27.22000 435.038
27.23000 439.647
27.24000 435.884
27.25000 430.461
27.26000 425.899
27.27000 433.975
27.28000 442.055
27.29000 447.765
27.30000 445.893
27.31000 443.452
27.32000 443.509
27.33000 449.099
27.34000 454.889
27.35000 458.403
27.36000 455.905
27.37000 454.077
27.38000 450.001
27.39000 443.630
27.40000 437.313
27.41000 437.126
27.42000 441.111
27.43000 445.008
27.44000 452.671
27.45000 461.710
27.46000 469.908
27.47000 466.192
27.48000 458.614
27.49000 451.500
27.50000 448.188
27.51000 445.717
27.52000 443.598
27.53000 445.981
27.54000 448.546
27.55000 450.930
27.56000 452.671
27.57000 454.354
27.58000 451.804
27.59000 438.883
27.60000 425.488
27.61000 417.016
27.62000 423.178
27.63000 427.819
27.64000 432.804
27.65000 438.185
27.66000 443.543
27.67000 443.941
27.68000 440.583
27.69000 437.281
27.70000 436.129
27.71000 436.092
27.72000 435.885
27.73000 432.789
27.74000 428.657
27.75000 424.823
27.76000 423.795
27.77000 423.458
27.78000 423.165
27.79000 430.323
27.80000 437.491
27.81000 444.993
27.82000 453.805
27.83000 462.751
27.84000 465.933
27.85000 453.506
27.86000 440.206
27.87000 431.462
27.88000 435.023
27.89000 437.854
27.90000 437.710
27.91000 433.757
27.92000 429.798
27.93000 430.856
27.94000 436.154
27.95000 441.391
27.96000 441.038
27.97000 437.564
27.98000 434.432
27.99000 438.339
28.00000 445.038
28.01000 450.757
28.02000 445.806
28.03000 437.933
28.04000 430.947
28.05000 425.280
28.06000 420.580
28.07000 418.347
28.08000 426.923
28.09000 436.767
28.10000 445.462
28.11000 450.717
28.12000 455.741
28.13000 459.165
28.14000 440.478
28.15000 426.004
28.16000 420.669
28.17000 428.370
28.18000 436.169
28.19000 439.732
28.20000 439.283
28.21000 438.838
28.22000 434.481
28.23000 427.750
28.24000 421.451
28.25000 426.265
28.26000 435.954
28.27000 444.643
28.28000 440.596
28.29000 432.681
28.30000 425.550
28.31000 435.994
28.32000 448.335
28.33000 457.011
28.34000 447.767
28.35000 436.126
28.36000 426.828
28.37000 425.306
28.38000 424.402
28.39000 423.765
28.40000 430.087
28.41000 435.090
28.42000 438.903
28.43000 440.831
28.44000 442.735
28.45000 444.212
28.46000 445.232
28.47000 446.248
28.48000 443.725
28.49000 438.752
28.50000 433.929
28.51000 434.076
28.52000 436.634
28.53000 438.741
28.54000 434.050
28.55000 427.073
28.56000 420.698
28.57000 422.611
28.58000 426.003
28.59000 427.402
28.60000 417.891
28.61000 406.724
28.62000 400.063
28.63000 409.982
28.64000 421.441
28.65000 429.772
28.66000 432.959
28.67000 435.215
28.68000 435.519
28.69000 432.392
28.70000 429.202
28.71000 426.728
28.72000 425.111
28.73000 423.499
28.74000 426.607
28.75000 433.397
28.76000 440.018
28.77000 439.160
28.78000 434.286
28.79000 429.579
28.80000 427.904
28.81000 427.356
28.82000 426.849
28.83000 421.523
28.84000 415.628
28.85000 410.880
28.86000 413.191
28.87000 416.708
28.88000 419.996
28.89000 422.343
28.90000 424.589
28.91000 426.270
28.92000 425.385
28.93000 424.574
28.94000 423.403
28.95000 421.533
28.96000 419.645
28.97000 417.555
28.98000 415.197
28.99000 412.839
29.00000 408.935
29.01000 403.677
29.02000 398.603
29.03000 405.036
29.04000 418.316
29.05000 431.041
29.06000 431.421
29.07000 426.723
29.08000 422.323
29.09000 424.299
29.10000 427.744
29.11000 430.357
29.12000 427.189
29.13000 422.911
29.14000 419.695
29.15000 421.314
29.16000 423.527
29.17000 425.229
29.18000 417.019
29.19000 409.962
29.20000 407.080
29.21000 413.179
29.22000 419.582
29.23000 424.356
29.24000 426.715
29.25000 429.052
29.26000 427.519
29.27000 422.163
29.28000 416.896
29.29000 420.282
29.30000 429.381
29.31000 438.223
29.32000 439.864
29.33000 438.231
29.34000 436.685
29.35000 431.243
29.36000 425.107
29.37000 420.216
29.38000 425.163
29.39000 432.219
29.40000 436.432
29.41000 426.177
29.42000 413.897
29.43000 404.211
29.44000 402.886
29.45000 402.388
29.46000 403.358
29.47000 407.822
29.48000 412.436
29.49000 414.535
29.50000 412.498
29.51000 410.401
29.52000 409.297
29.53000 409.696
29.54000 409.969
29.55000 410.586
29.56000 411.456
29.57000 412.275
29.58000 411.245
29.59000 409.285
29.60000 407.411
29.61000 407.185
29.62000 407.509
29.63000 407.914
29.64000 409.063
29.65000 410.388
29.66000 411.240
29.67000 409.391
29.68000 407.113
29.69000 405.274
29.70000 407.553
29.71000 409.734
29.72000 410.992
29.73000 409.824
29.74000 408.528
29.75000 409.285
29.76000 413.784
29.77000 418.362
29.78000 420.901
29.79000 417.625
29.80000 415.377
29.81000 423.632
29.82000 440.487
29.83000 457.029
29.84000 457.944
29.85000 450.156
29.86000 442.647
29.87000 442.905
29.88000 445.963
29.89000 449.209
29.90000 454.417
29.91000 460.146
29.92000 464.909
29.93000 463.472
29.94000 460.929
29.95000 458.830
29.96000 453.639
29.97000 449.075
29.98000 444.916
29.99000 441.935
30.00000 439.029
30.01000 439.674
30.02000 447.480
30.03000 455.491
30.04000 460.153
30.05000 451.710
30.06000 445.723
30.07000 445.772
30.08000 451.353
30.09000 456.879
30.10000 458.404
30.11000 457.459
30.12000 456.541
30.13000 455.629
30.14000 454.765
30.15000 453.612
30.16000 448.947
30.17000 443.245
30.18000 438.525
30.19000 440.940
30.20000 444.780
30.21000 448.016
30.22000 443.905
30.23000 439.684
30.24000 436.405
30.25000 436.162
30.26000 436.151
30.27000 436.624
30.28000 438.182
30.29000 439.780
30.30000 440.752
30.31000 435.205
30.32000 431.191
30.33000 430.747
30.34000 433.980
30.35000 437.210
30.36000 440.110
30.37000 442.783
30.38000 445.399
30.39000 443.485
30.40000 439.600
30.41000 436.140
30.42000 438.780
30.43000 443.413
30.44000 447.469
30.45000 446.753
30.46000 444.973
30.47000 443.445
30.48000 444.762
30.49000 446.228
30.50000 447.419
30.51000 447.626
30.52000 447.746
30.53000 448.625
30.54000 451.374
30.55000 454.209
30.56000 456.008
30.57000 453.482
30.58000 451.597
30.59000 455.805
30.60000 467.054
30.61000 478.257
30.62000 477.261
30.63000 466.956
30.64000 456.815
30.65000 458.393
30.66000 465.840
30.67000 472.924
30.68000 473.759
30.69000 472.335
30.70000 471.145
30.71000 472.188
30.72000 473.785
30.73000 475.181
30.74000 476.390
30.75000 477.400
30.76000 479.295
30.77000 484.704
30.78000 490.476
30.79000 495.724
30.80000 499.541
30.81000 503.278
30.82000 505.741
30.83000 502.399
30.84000 499.835
30.85000 503.773
30.86000 516.102
30.87000 528.455
30.88000 534.791
30.89000 536.001
30.90000 537.198
30.91000 543.233
30.92000 551.856
30.93000 560.245
30.94000 563.744
30.95000 565.289
30.96000 567.693
30.97000 579.558
30.98000 594.032
30.99000 606.891
31.00000 633.184
31.01000 658.149
31.02000 681.444
31.03000 697.363
31.04000 712.408
31.05000 732.722
31.06000 768.937
31.07000 806.235
31.08000 831.717
31.09000 873.622
31.10000 905.359
31.11000 945.656
31.12000 998.256
31.13000 1050.954
31.14000 1110.981
31.15000 1178.007
31.16000 1244.556
31.17000 1330.560
31.18000 1427.453
31.19000 1524.358
31.20000 1621.603
31.21000 1718.998
31.22000 1817.159
31.23000 1925.182
31.24000 2036.221
31.25000 2136.370
31.26000 2279.466
31.27000 2412.954
31.28000 2541.999
31.29000 2649.140
31.30000 2753.325
31.31000 2859.110
31.32000 2970.249
31.33000 3081.817
31.34000 3160.623
31.35000 3259.665
31.36000 3335.470
31.37000 3395.331
31.38000 3429.738
31.39000 3463.814
31.40000 3471.820
31.41000 3451.835
31.42000 3431.922
31.43000 3402.288
31.44000 3366.086
31.45000 3328.933
31.46000 3259.665
31.47000 3174.700
31.48000 3088.770
31.49000 2988.083
31.50000 2882.399
31.51000 2785.741
31.52000 2662.074
31.53000 2546.583
31.54000 2428.198
31.55000 2293.842
31.56000 2157.042
31.57000 2028.838
31.58000 1932.504
31.59000 1839.161
31.60000 1771.152
31.61000 1655.132
31.62000 1563.938
31.63000 1469.242
31.64000 1368.349
31.65000 1267.337
31.66000 1188.089
31.67000 1135.008
31.68000 1082.077
31.69000 1027.408
31.70000 971.622
31.71000 916.241
31.72000 879.269
31.73000 852.253
31.74000 825.069
31.75000 794.789
31.76000 763.348
31.77000 734.221
31.78000 709.236
31.79000 687.719
31.80000 667.553
31.81000 655.774
31.82000 645.441
31.83000 633.690
31.84000 616.096
31.85000 597.868
31.86000 584.198
31.87000 564.515
31.88000 548.858
31.89000 535.011
31.90000 524.714
31.91000 514.511
31.92000 506.764
31.93000 502.314
31.94000 497.883
31.95000 490.284
31.96000 479.889
31.97000 469.558
31.98000 463.327
31.99000 459.553
32.00000 456.017
32.01000 457.861
32.02000 461.935
32.03000 465.753
32.04000 459.910
32.05000 452.074
32.06000 445.185
32.07000 444.942
32.08000 445.985
32.09000 447.057
32.10000 448.265
32.11000 449.490
32.12000 450.433
32.13000 446.744
32.14000 443.557
32.15000 440.821
32.16000 439.061
32.17000 437.335
32.18000 436.646
32.19000 437.506
32.20000 438.381
32.21000 437.592
32.22000 435.146
32.23000 432.663
32.24000 426.535
32.25000 417.981
32.26000 409.744
32.27000 410.520
32.28000 415.426
32.29000 420.074
32.30000 420.097
32.31000 418.768
32.32000 417.352
32.33000 415.243
32.34000 412.985
32.35000 411.331
32.36000 412.784
32.37000 414.676
32.38000 416.170
32.39000 407.897
32.40000 400.587
32.41000 395.832
32.42000 397.198
32.43000 398.832
32.44000 401.692
32.45000 406.587
32.46000 411.512
32.47000 414.113
32.48000 407.994
32.49000 403.862
32.50000 405.023
32.51000 410.100
32.52000 415.026
32.53000 414.385
32.54000 410.922
32.55000 407.610
32.56000 406.414
32.57000 405.993
32.58000 405.315
32.59000 402.287
32.60000 398.693
32.61000 395.761
32.62000 396.641
32.63000 398.129
32.64000 399.333
32.65000 402.212
32.66000 404.690
32.67000 403.599
32.68000 393.050
32.69000 381.994
32.70000 377.714
32.71000 385.872
32.72000 394.299
32.73000 398.988
32.74000 388.884
32.75000 381.887
32.76000 384.653
32.77000 395.476
32.78000 406.095
32.79000 406.320
32.80000 400.714
32.81000 395.305
32.82000 399.071
32.83000 405.969
32.84000 412.842
32.85000 419.446
32.86000 425.978
32.87000 431.940
32.88000 434.207
32.89000 435.810
32.90000 437.135
32.91000 437.703
32.92000 438.099
32.93000 438.049
32.94000 436.688
32.95000 435.242
32.96000 432.775
32.97000 428.233
32.98000 423.631
32.99000 420.944
33.00000 430.873
33.01000 437.914
33.02000 435.866
33.03000 425.422
33.04000 415.056
33.05000 410.557
33.06000 409.707
33.07000 408.881
33.08000 404.629
33.09000 399.187
33.10000 393.587
33.11000 386.050
33.12000 377.937
33.13000 370.526
33.14000 368.266
33.15000 367.042
33.16000 366.010
33.17000 365.114
33.18000 364.380
33.19000 364.380
33.20000 366.764
33.21000 369.332
33.22000 370.118
33.23000 366.904
33.24000 363.538
33.25000 361.484
33.26000 354.438
33.27000 349.358
33.28000 347.683
33.29000 349.543
33.30000 351.409
33.31000 353.895
33.32000 356.810
33.33000 359.663
33.34000 362.481
33.35000 365.171
33.36000 367.629
33.37000 366.702
33.38000 364.662
33.39000 362.500
33.40000 359.321
33.41000 355.913
33.42000 352.983
33.43000 352.947
33.44000 353.279
33.45000 352.986
33.46000 350.444
33.47000 347.701
33.48000 346.831
33.49000 350.614
33.50000 354.617
33.51000 357.163
33.52000 348.197
33.53000 341.538
33.54000 336.972
33.55000 334.844
33.56000 332.734
33.57000 334.221
33.58000 338.474
33.59000 342.661
33.60000 340.180
33.61000 334.381
33.62000 329.038
33.63000 331.622
33.64000 337.093
33.65000 341.803
33.66000 339.204
33.67000 334.776
33.68000 330.902
33.69000 334.218
33.70000 338.088
33.71000 342.933
33.72000 351.673
33.73000 360.818
33.74000 365.413
33.75000 357.504
33.76000 348.877
33.77000 343.174
33.78000 348.955
33.79000 353.425
33.80000 352.475
33.81000 344.478
33.82000 336.465
33.83000 338.194
33.84000 348.289
33.85000 358.275
33.86000 355.512
33.87000 345.563
33.88000 335.938
33.89000 333.229
33.90000 333.303
33.91000 333.913
33.92000 340.492
33.93000 348.730
33.94000 356.057
33.95000 354.063
33.96000 350.817
33.97000 346.566
33.98000 337.840
33.99000 328.579
34.00000 324.492
34.01000 336.133
34.02000 348.858
34.03000 357.573
34.04000 351.388
34.05000 346.399
34.06000 344.986
34.07000 348.753
34.08000 352.562
34.09000 349.494
34.10000 339.803
34.11000 330.179
34.12000 330.766
34.13000 337.832
34.14000 344.751
34.15000 347.779
34.16000 349.074
34.17000 350.296
34.18000 350.558
34.19000 350.524
34.20000 350.493
34.21000 346.668
34.22000 342.607
34.23000 339.019
34.24000 337.777
34.25000 336.854
34.26000 335.468
34.27000 332.525
34.28000 329.454
34.29000 327.280
34.30000 328.526
34.31000 329.579
34.32000 331.201
34.33000 333.739
34.34000 336.289
34.35000 335.879
34.36000 332.265
34.37000 328.663
34.38000 329.168
34.39000 332.588
34.40000 335.907
34.41000 335.731
34.42000 333.835
34.43000 332.045
34.44000 331.877
34.45000 332.262
34.46000 332.615
34.47000 336.094
34.48000 339.840
34.49000 342.940
34.50000 342.451
34.51000 341.408
34.52000 337.790
34.53000 324.552
34.54000 310.402
34.55000 300.070
34.56000 320.177
34.57000 336.866
34.58000 343.417
34.59000 331.893
34.60000 320.014
34.61000 318.114
34.62000 328.309
34.63000 338.515
34.64000 344.112
34.65000 346.015
34.66000 347.766
34.67000 342.428
34.68000 333.228
34.69000 324.368
34.70000 321.861
34.71000 321.751
34.72000 321.649
34.73000 325.910
34.74000 330.767
34.75000 334.225
34.76000 328.922
34.77000 322.096
34.78000 317.493
34.79000 322.120
34.80000 327.758
34.81000 331.995
34.82000 332.042
34.83000 331.878
34.84000 330.446
34.85000 326.513
34.86000 322.512
34.87000 321.958
34.88000 326.064
34.89000 330.194
34.90000 329.985
34.91000 325.901
34.92000 321.899
34.93000 323.357
34.94000 328.112
34.95000 332.599
34.96000 330.932
34.97000 326.698
34.98000 322.726
34.99000 325.035
35.00000 328.789
35.01000 331.904
35.02000 330.501
35.03000 328.218
35.04000 325.757
35.05000 322.479
35.06000 319.098
35.07000 316.489
35.08000 323.716
35.09000 330.015
35.10000 332.670
35.11000 327.365
35.12000 321.781
35.13000 317.498
35.14000 315.170
35.15000 312.862
35.16000 311.706
35.17000 321.967
35.18000 328.761
35.19000 330.124
35.20000 327.849
35.21000 325.563
35.22000 322.992
35.23000 320.289
35.24000 317.727
35.25000 321.389
35.26000 326.596
35.27000 330.341
35.28000 322.315
35.29000 311.725
35.30000 303.234
35.31000 305.600
35.32000 309.515
35.33000 312.614
35.34000 317.035
35.35000 320.680
35.36000 322.842
35.37000 321.424
35.38000 319.848
35.39000 317.146
35.40000 312.566
35.41000 307.957
35.42000 305.513
35.43000 311.866
35.44000 316.167
35.45000 315.665
35.46000 311.583
35.47000 307.579
35.48000 306.557
35.49000 307.056
35.50000 307.534
35.51000 306.235
35.52000 304.439
35.53000 303.537
35.54000 310.890
35.55000 320.246
35.56000 327.555
35.57000 322.992
35.58000 316.515
35.59000 311.268
35.60000 312.103
35.61000 313.278
35.62000 313.259
35.63000 310.054
35.64000 306.676
35.65000 304.693
35.66000 305.292
35.67000 305.948
35.68000 306.315
35.69000 304.761
35.70000 303.684
35.71000 304.181
35.72000 305.986
35.73000 307.775
35.74000 308.659
35.75000 309.031
35.76000 309.390
35.77000 309.210
35.78000 308.842
35.79000 308.255
35.80000 305.327
35.81000 301.767
35.82000 299.738
35.83000 307.708
35.84000 317.490
35.85000 325.589
35.86000 320.748
35.87000 315.525
35.88000 309.566
35.89000 301.439
35.90000 293.169
35.91000 289.938
35.92000 297.018
35.93000 304.404
35.94000 308.731
35.95000 306.700
35.96000 305.239
35.97000 306.488
35.98000 310.261
35.99000 313.907
36.00000 307.746
36.01000 295.440
36.02000 283.470
36.03000 288.261
36.04000 299.719
36.05000 310.288
36.06000 309.801
36.07000 306.007
36.08000 302.547
36.09000 301.571
36.10000 301.098
36.11000 300.699
36.12000 299.961
36.13000 299.306
36.14000 300.203
36.15000 306.173
36.16000 312.538
36.17000 314.130
36.18000 304.921
36.19000 295.300
36.20000 289.408
36.21000 294.829
36.22000 298.806
36.23000 302.037
36.24000 304.486
36.25000 306.910
36.26000 306.139
36.27000 303.143
36.28000 300.209
36.29000 298.874
36.30000 298.325
36.31000 297.868
36.32000 298.754
36.33000 300.085
36.34000 301.302
36.35000 301.557
36.36000 301.595
36.37000 301.628
36.38000 298.419
36.39000 295.290
36.40000 293.778
36.41000 298.122
36.42000 302.999
36.43000 307.890
36.44000 312.817
36.45000 317.746
36.46000 320.890
36.47000 315.642
36.48000 311.716
36.49000 308.435
36.50000 305.910
36.51000 303.398
36.52000 303.708
36.53000 306.206
36.54000 308.666
36.55000 307.958
36.56000 305.646
36.57000 303.652
36.58000 307.269
36.59000 312.944
36.60000 317.042
36.61000 305.842
36.62000 290.786
36.63000 277.596
36.64000 285.341
36.65000 295.006
36.66000 302.600
36.67000 301.850
36.68000 300.221
36.69000 298.769
36.70000 297.803
36.71000 296.865
36.72000 296.244
36.73000 300.215
36.74000 303.231
36.75000 306.058
36.76000 308.636
36.77000 311.210
36.78000 311.470
36.79000 309.728
36.80000 308.003
36.81000 305.081
36.82000 301.536
36.83000 298.288
36.84000 301.445
36.85000 307.199
36.86000 312.356
36.87000 310.800
36.88000 307.364
36.89000 304.304
36.90000 301.484
36.91000 299.074
36.92000 297.276
36.93000 298.224
36.94000 299.503
36.95000 301.052
36.96000 303.424
36.97000 305.854
36.98000 307.523
36.99000 300.774
37.00000 295.508
37.01000 296.923
37.02000 308.085
37.03000 319.331
37.04000 318.940
37.05000 307.251
37.06000 295.639
37.07000 293.348
37.08000 297.064
37.09000 300.753
37.10000 303.714
37.11000 306.348
37.12000 308.704
37.13000 307.385
37.14000 304.927
37.15000 302.705
37.16000 299.914
37.17000 297.353
37.18000 295.433
37.19000 296.718
37.20000 298.444
37.21000 300.934
37.22000 306.015
37.23000 311.310
37.24000 315.068
37.25000 308.385
37.26000 302.971
37.27000 298.761
37.28000 296.503
37.29000 294.271
37.30000 293.971
37.31000 295.777
37.32000 297.578
37.33000 300.155
37.34000 303.265
37.35000 306.294
37.36000 306.497
37.37000 305.299
37.38000 304.209
37.39000 304.815
37.40000 306.004
37.41000 307.093
37.42000 302.412
37.43000 297.035
37.44000 292.818
37.45000 295.119
37.46000 298.434
37.47000 299.829
37.48000 293.998
37.49000 287.473
37.50000 282.699
37.51000 287.622
37.52000 291.806
37.53000 294.244
37.54000 293.547
37.55000 292.787
37.56000 291.500
37.57000 289.569
37.58000 287.640
37.59000 289.992
37.60000 295.772
37.61000 301.465
37.62000 303.073
37.63000 302.438
37.64000 301.729
37.65000 299.616
37.66000 296.970
37.67000 294.514
37.68000 297.722
37.69000 301.949
37.70000 305.645
37.71000 305.983
37.72000 305.732
37.73000 304.637
37.74000 300.007
37.75000 294.987
37.76000 291.206
37.77000 296.726
37.78000 301.499
37.79000 302.426
37.80000 295.705
37.81000 288.775
37.82000 285.298
37.83000 286.528
37.84000 287.785
37.85000 293.573
37.86000 303.438
37.87000 313.172
37.88000 313.919
37.89000 309.202
37.90000 304.503
37.91000 300.232
37.92000 296.141
37.93000 292.300
37.94000 296.221
37.95000 301.851
37.96000 307.470
37.97000 313.006
37.98000 318.526
37.99000 322.467
38.00000 319.048
38.01000 314.697
38.02000 311.332
38.03000 310.491
38.04000 309.971
38.05000 307.737
38.06000 301.729
38.07000 295.587
38.08000 291.937
38.09000 292.063
38.10000 292.227
38.11000 292.310
38.12000 309.203
38.13000 320.408
38.14000 322.767
38.15000 319.154
38.16000 315.784
38.17000 319.595
38.18000 326.745
38.19000 333.527
38.20000 331.761
38.21000 327.594
38.22000 324.037
38.23000 325.443
38.24000 327.937
38.25000 329.801
38.26000 328.378
38.27000 326.481
38.28000 324.977
38.29000 328.441
38.30000 331.575
38.31000 337.098
38.32000 348.430
38.33000 360.024
38.34000 366.488
38.35000 364.328
38.36000 362.031
38.37000 360.809
38.38000 373.268
38.39000 381.744
38.40000 386.936
38.41000 389.660
38.42000 392.678
38.43000 407.131
38.44000 427.462
38.45000 446.935
38.46000 458.615
38.47000 466.917
38.48000 475.796
38.49000 490.045
38.50000 505.608
38.51000 522.494
38.52000 547.126
38.53000 573.017
38.54000 594.026
38.55000 638.191
38.56000 676.101
38.57000 707.229
38.58000 720.117
38.59000 731.999
38.60000 751.001
38.61000 783.264
38.62000 815.826
38.63000 834.076
38.64000 868.139
38.65000 891.784
38.66000 912.713
38.67000 931.365
38.68000 949.993
38.69000 967.342
38.70000 983.965
38.71000 1000.021
38.72000 1004.130
38.73000 1003.566
38.74000 1003.028
38.75000 1002.760
38.76000 1002.566
38.77000 999.446
38.78000 977.032
38.79000 951.093
38.80000 929.585
38.81000 902.667
38.82000 879.911
38.83000 854.458
38.84000 820.978
38.85000 786.966
38.86000 756.288
38.87000 732.484
38.88000 708.888
38.89000 695.019
38.90000 655.773
38.91000 627.972
38.92000 602.346
38.93000 578.763
38.94000 555.181
38.95000 531.577
38.96000 507.961
38.97000 484.977
38.98000 471.585
38.99000 462.812
39.00000 454.202
39.01000 447.655
39.02000 441.729
39.03000 433.760
39.04000 410.515
39.05000 384.146
39.06000 361.837
39.07000 347.716
39.08000 336.807
39.09000 329.635
39.10000 334.779
39.11000 340.891
39.12000 345.049
39.13000 344.755
39.14000 344.287
39.15000 344.000
39.16000 343.444
39.17000 343.043
39.18000 340.779
39.19000 336.548
39.20000 332.301
39.21000 326.087
39.22000 318.494
39.23000 311.056
39.24000 304.692
39.25000 299.070
39.26000 293.679
39.27000 291.737
39.28000 290.946
39.29000 290.026
39.30000 288.012
39.31000 285.749
39.32000 283.798
39.33000 286.972
39.34000 290.316
39.35000 293.160
39.36000 294.181
39.37000 295.035
39.38000 296.590
39.39000 299.914
39.40000 303.324
39.41000 305.505
39.42000 294.069
39.43000 285.561
39.44000 281.444
39.45000 282.525
39.46000 283.600
39.47000 280.900
39.48000 275.251
39.49000 269.686
39.50000 269.054
39.51000 270.992
39.52000 272.816
39.53000 272.574
39.54000 271.569
39.55000 270.296
39.56000 266.391
39.57000 261.817
39.58000 257.805
39.59000 259.715
39.60000 262.217
39.61000 265.309
39.62000 270.790
39.63000 276.526
39.64000 281.670
39.65000 285.162
39.66000 288.558
39.67000 290.814
39.68000 285.797
39.69000 281.952
39.70000 279.963
39.71000 280.427
39.72000 280.898
39.73000 277.827
39.74000 271.664
39.75000 265.564
39.76000 264.660
39.77000 266.776
39.78000 269.035
39.79000 274.401
39.80000 281.036
39.81000 287.113
39.82000 286.844
39.83000 284.785
39.84000 282.950
39.85000 278.560
39.86000 274.321
39.87000 269.889
39.88000 264.585
39.89000 259.174
39.90000 255.471
39.91000 257.032
39.92000 258.965
39.93000 260.296
39.94000 263.863
39.95000 266.597
39.96000 270.644
39.97000 276.623
39.98000 282.618
39.99000 283.919
40.00000 280.620
40.01000 277.342
40.02000 272.279
40.03000 266.137
40.04000 260.218
40.05000 260.452
40.06000 263.465
40.07000 266.338
40.08000 267.347
40.09000 267.773
40.10000 268.159
40.11000 266.514
40.12000 264.685
40.13000 263.543
40.14000 265.872
40.15000 268.682
40.16000 270.321
40.17000 267.958
40.18000 265.262
40.19000 263.345
40.20000 263.504
40.21000 263.692
40.22000 263.709
40.23000 263.448
40.24000 263.182
40.25000 262.984
40.26000 262.859
40.27000 262.735
40.28000 259.486
40.29000 254.008
40.30000 248.784
40.31000 252.647
40.32000 261.050
40.33000 268.786
40.34000 265.944
40.35000 259.440
40.36000 253.474
40.37000 253.261
40.38000 254.287
40.39000 255.782
40.40000 259.929
40.41000 264.493
40.42000 268.236
40.43000 268.864
40.44000 269.191
40.45000 269.431
40.46000 261.347
40.47000 254.768
40.48000 251.089
40.49000 252.659
40.50000 254.337
40.51000 255.103
40.52000 254.745
40.53000 254.384
40.54000 258.609
40.55000 266.529
40.56000 274.226
40.57000 271.089
40.58000 261.961
40.59000 253.434
40.60000 256.448
40.61000 263.880
40.62000 270.782
40.63000 268.417
40.64000 264.078
40.65000 260.591
40.66000 262.534
40.67000 265.436
40.68000 266.977
40.69000 262.782
40.70000 257.946
40.71000 254.297
40.72000 254.878
40.73000 255.543
40.74000 255.482
40.75000 253.969
40.76000 252.415
40.77000 252.896
40.78000 256.169
40.79000 259.458
40.80000 262.631
40.81000 265.696
40.82000 268.686
40.83000 266.373
40.84000 260.811
40.85000 255.569
40.86000 257.939
40.87000 263.532
40.88000 268.786
40.89000 266.100
40.90000 261.529
40.91000 257.744
40.92000 259.630
40.93000 262.640
40.94000 265.225
40.95000 265.813
40.96000 266.146
40.97000 266.403
40.98000 257.400
40.99000 249.698
41.00000 243.966
41.01000 242.598
41.02000 241.389
41.03000 244.056
41.04000 252.642
41.05000 261.292
41.06000 265.663
41.07000 256.141
41.08000 249.849
41.09000 252.533
41.10000 261.322
41.11000 269.835
41.12000 270.043
41.13000 266.364
41.14000 262.871
41.15000 260.824
41.16000 259.367
41.17000 257.627
41.18000 253.565
41.19000 248.990
41.20000 245.302
41.21000 246.283
41.22000 247.942
41.23000 249.259
41.24000 245.132
41.25000 241.423
41.26000 238.422
41.27000 237.154
41.28000 235.965
41.29000 237.942
41.30000 245.284
41.31000 252.714
41.32000 256.684
41.33000 246.170
41.34000 239.028
41.35000 240.061
41.36000 247.282
41.37000 254.224
41.38000 250.053
41.39000 240.126
41.40000 230.613
41.41000 232.578
41.42000 238.255
41.43000 243.721
41.44000 247.198
41.45000 250.184
41.46000 252.542
41.47000 251.193
41.48000 249.236
41.49000 247.646
41.50000 244.857
41.51000 242.482
41.52000 240.610
41.53000 240.098
41.54000 239.662
41.55000 238.814
41.56000 237.195
41.57000 235.557
41.58000 234.636
41.59000 238.442
41.60000 241.095
41.61000 243.113
41.62000 244.594
41.63000 246.056
41.64000 246.484
41.65000 246.319
41.66000 246.158
41.67000 247.991
41.68000 250.466
41.69000 253.003
41.70000 256.211
41.71000 259.602
41.72000 262.082
41.73000 258.503
41.74000 253.807
41.75000 249.907
41.76000 241.867
41.77000 234.817
41.78000 230.333
41.79000 233.540
41.80000 237.264
41.81000 240.916
41.82000 244.418
41.83000 247.916
41.84000 249.978
41.85000 246.426
41.86000 243.889
41.87000 242.933
41.88000 243.476
41.89000 244.007
41.90000 243.572
41.91000 242.524
41.92000 241.503
41.93000 239.651
41.94000 237.540
41.95000 235.769
41.96000 238.324
41.97000 242.193
41.98000 245.782
41.99000 247.258
42.00000 248.298
42.01000 249.179
42.02000 244.231
42.03000 239.433
42.04000 236.598
42.05000 240.279
42.06000 244.477
42.07000 246.856
42.08000 245.053
42.09000 243.084
42.10000 241.872
42.11000 237.668
42.12000 234.625
42.13000 235.808
42.14000 241.492
42.15000 247.135
42.16000 247.039
42.17000 242.888
42.18000 238.819
42.19000 235.980
42.20000 233.824
42.21000 231.842
42.22000 232.481
42.23000 234.003
42.24000 236.050
42.25000 242.628
42.26000 250.248
42.27000 256.826
42.28000 251.885
42.29000 246.210
42.30000 241.861
42.31000 242.395
42.32000 243.383
42.33000 243.022
42.34000 239.239
42.35000 235.288
42.36000 232.752
42.37000 229.101
42.38000 226.424
42.39000 227.524
42.40000 233.132
42.41000 238.735
42.42000 240.395
42.43000 238.950
42.44000 237.526
42.45000 235.485
42.46000 233.181
42.47000 231.122
42.48000 233.495
42.49000 237.518
42.50000 241.297
42.51000 242.665
42.52000 243.416
42.53000 244.076
42.54000 239.280
42.55000 234.356
42.56000 231.196
42.57000 235.256
42.58000 240.091
42.59000 242.630
42.60000 238.721
42.61000 234.425
42.62000 231.564
42.63000 233.374
42.64000 234.803
42.65000 237.376
42.66000 241.471
42.67000 245.572
42.68000 247.451
42.69000 247.375
42.70000 247.300
42.71000 244.450
42.72000 240.043
42.73000 235.806
42.74000 235.365
42.75000 236.485
42.76000 237.709
42.77000 240.122
42.78000 242.872
42.79000 245.327
42.80000 239.136
42.81000 232.304
42.82000 226.873
42.83000 227.822
42.84000 229.555
42.85000 230.694
42.86000 229.981
42.87000 229.136
42.88000 228.553
42.89000 233.569
42.90000 237.480
42.91000 237.606
42.92000 232.125
42.93000 226.593
42.94000 225.061
42.95000 227.479
42.96000 229.882
42.97000 230.480
42.98000 229.895
42.99000 229.428
43.00000 232.297
43.01000 236.683
43.02000 240.551
43.03000 237.430
43.04000 232.107
43.05000 227.287
43.06000 229.957
43.07000 233.726
43.08000 237.114
43.09000 238.569
43.10000 239.754
43.11000 241.039
43.12000 242.669
43.13000 244.328
43.14000 245.511
43.15000 238.087
43.16000 232.147
43.17000 228.458
43.18000 228.474
43.19000 228.544
43.20000 228.662
43.21000 228.833
43.22000 229.003
43.23000 229.357
43.24000 229.841
43.25000 230.369
43.26000 232.514
43.27000 235.472
43.28000 238.219
43.29000 237.577
43.30000 235.754
43.31000 234.081
43.32000 233.630
43.33000 233.489
43.34000 233.285
43.35000 232.722
43.36000 232.101
43.37000 230.963
43.38000 227.851
43.39000 224.546
43.40000 222.118
43.41000 224.182
43.42000 225.962
43.43000 228.900
43.44000 233.950
43.45000 239.044
43.46000 240.452
43.47000 237.286
43.48000 234.112
43.49000 231.679
43.50000 229.861
43.51000 228.004
43.52000 224.223
43.53000 219.369
43.54000 214.957
43.55000 219.136
43.56000 226.628
43.57000 233.593
43.58000 234.924
43.59000 234.775
43.60000 234.695
43.61000 235.067
43.62000 235.520
43.63000 235.203
43.64000 231.615
43.65000 227.658
43.66000 224.666
43.67000 230.354
43.68000 235.249
43.69000 236.325
43.70000 229.696
43.71000 222.847
43.72000 218.948
43.73000 219.129
43.74000 219.335
43.75000 223.991
43.76000 232.720
43.77000 241.342
43.78000 242.187
43.79000 238.231
43.80000 234.293
43.81000 230.779
43.82000 227.447
43.83000 224.315
43.84000 225.341
43.85000 227.399
43.86000 229.259
43.87000 229.674
43.88000 229.800
43.89000 229.856
43.90000 229.574
43.91000 229.249
43.92000 228.997
43.93000 228.311
43.94000 227.740
43.95000 227.254
43.96000 226.960
43.97000 226.673
43.98000 225.797
43.99000 224.012
44.00000 222.218
44.01000 221.307
44.02000 226.373
44.03000 229.755
44.04000 231.790
44.05000 232.900
44.06000 233.878
44.07000 230.831
44.08000 225.885
44.09000 221.186
44.10000 220.632
44.11000 221.370
44.12000 222.387
44.13000 225.705
44.14000 229.538
44.15000 232.463
44.16000 230.577
44.17000 227.987
44.18000 225.926
44.19000 224.971
44.20000 224.281
44.21000 222.870
44.22000 219.682
44.23000 216.410
44.24000 218.132
44.25000 228.375
44.26000 238.761
44.27000 244.332
44.28000 238.875
44.29000 235.151
44.30000 233.647
44.31000 233.837
44.32000 234.036
44.33000 234.607
44.34000 235.373
44.35000 236.107
44.36000 236.384
44.37000 236.489
44.38000 236.283
44.39000 233.121
44.40000 229.226
44.41000 226.179
44.42000 228.176
44.43000 231.007
44.44000 233.311
44.45000 238.719
44.46000 243.398
44.47000 245.579
44.48000 240.947
44.49000 235.930
44.50000 234.200
44.51000 238.684
44.52000 243.315
44.53000 245.929
44.54000 235.875
44.55000 228.866
44.56000 229.284
44.57000 236.031
44.58000 242.746
44.59000 247.666
44.60000 251.548
44.61000 255.303
44.62000 254.564
44.63000 252.171
44.64000 250.001
44.65000 250.282
44.66000 251.240
44.67000 253.220
44.68000 262.064
44.69000 272.184
44.70000 280.599
44.71000 280.862
44.72000 280.280
44.73000 281.241
44.74000 286.864
44.75000 292.804
44.76000 297.134
44.77000 298.095
44.78000 298.950
44.79000 299.456
44.80000 305.521
44.81000 309.839
44.82000 312.281
44.83000 312.931
44.84000 313.626
44.85000 318.109
44.86000 325.019
44.87000 331.751
44.88000 337.081
44.89000 341.574
44.90000 346.272
44.91000 353.603
44.92000 361.740
44.93000 369.163
44.94000 371.146
44.95000 371.997
44.96000 372.720
44.97000 381.708
44.98000 390.181
44.99000 397.936
45.00000 403.294
45.01000 408.460
45.02000 414.447
45.03000 422.337
45.04000 430.302
45.05000 435.224
45.06000 435.146
45.07000 435.042
45.08000 436.113
45.09000 438.445
45.10000 440.743
45.11000 438.127
45.12000 432.012
45.13000 426.016
45.14000 423.059
45.15000 421.640
45.16000 420.260
45.17000 419.461
45.18000 418.858
45.19000 418.225
45.20000 417.333
45.21000 416.381
45.22000 415.558
45.23000 410.088
45.24000 404.837
45.25000 399.344
45.26000 392.956
45.27000 386.483
45.28000 381.267
45.29000 379.263
45.30000 377.420
45.31000 376.234
45.32000 368.866
45.33000 363.402
45.34000 359.247
45.35000 356.665
45.36000 354.079
45.37000 349.101
45.38000 342.224
45.39000 335.444
45.40000 329.610
45.41000 324.440
45.42000 319.409
45.43000 316.961
45.44000 315.480
45.45000 313.707
45.46000 309.011
45.47000 303.561
45.48000 298.770
45.49000 293.021
45.50000 287.934
45.51000 283.765
45.52000 283.378
45.53000 283.401
45.54000 282.612
45.55000 279.527
45.56000 276.303
45.57000 274.150
45.58000 277.040
45.59000 279.281
45.60000 279.594
45.61000 277.321
45.62000 275.035
45.63000 272.201
45.64000 268.881
45.65000 265.594
45.66000 259.720
45.67000 252.450
45.68000 245.556
45.69000 247.167
45.70000 252.303
45.71000 256.674
45.72000 252.164
45.73000 245.111
45.74000 238.811
45.75000 239.785
45.76000 241.860
45.77000 243.115
45.78000 240.603
45.79000 237.623
45.80000 235.333
45.81000 235.202
45.82000 235.226
45.83000 235.243
45.84000 237.381
45.85000 239.044
45.86000 238.571
45.87000 234.910
45.88000 231.218
45.89000 228.740
45.90000 227.470
45.91000 226.209
45.92000 229.898
45.93000 236.785
45.94000 243.391
45.95000 241.994
45.96000 236.931
45.97000 231.966
45.98000 228.360
45.99000 225.185
46.00000 222.306
46.01000 219.482
46.02000 217.003
46.03000 215.355
46.04000 217.973
46.05000 221.194
46.06000 222.832
46.07000 218.975
46.08000 214.652
46.09000 211.562
46.10000 215.784
46.11000 219.248
46.12000 220.586
46.13000 218.402
46.14000 216.164
46.15000 214.488
46.16000 213.443
46.17000 212.401
46.18000 215.807
46.19000 222.453
46.20000 228.867
46.21000 226.627
46.22000 220.000
46.23000 213.497
46.24000 209.005
46.25000 205.220
46.26000 201.741
46.27000 203.562
46.28000 206.327
46.29000 208.337
46.30000 206.001
46.31000 202.970
46.32000 200.874
46.33000 202.374
46.34000 204.230
46.35000 205.597
46.36000 207.955
46.37000 209.821
46.38000 211.176
46.39000 211.595
46.40000 211.994
46.41000 213.128
46.42000 215.181
46.43000 217.235
46.44000 216.679
46.45000 213.979
46.46000 211.251
46.47000 207.133
46.48000 202.234
46.49000 197.605
46.50000 198.299
46.51000 201.062
46.52000 203.633
46.53000 204.605
46.54000 205.097
46.55000 205.208
46.56000 202.852
46.57000 200.052
46.58000 197.968
46.59000 198.953
46.60000 200.288
46.61000 201.299
46.62000 198.638
46.63000 196.364
46.64000 195.877
46.65000 199.022
46.66000 202.273
46.67000 203.572
46.68000 202.149
46.69000 200.708
46.70000 200.141
46.71000 200.381
46.72000 200.672
46.73000 204.783
46.74000 211.270
46.75000 217.508
46.76000 217.655
46.77000 215.187
46.78000 212.864
46.79000 207.286
46.80000 201.303
46.81000 196.170
46.82000 197.267
46.83000 199.619
46.84000 202.289
46.85000 206.482
46.86000 210.872
46.87000 214.286
46.88000 215.164
46.89000 215.708
46.90000 214.317
46.91000 208.577
46.92000 202.673
46.93000 199.582
46.94000 200.848
46.95000 202.165
46.96000 202.835
46.97000 199.266
46.98000 196.889
46.99000 196.672
47.00000 197.948
47.01000 199.143
47.02000 197.819
47.03000 195.300
47.04000 192.904
47.05000 194.671
47.06000 197.571
47.07000 199.842
47.08000 196.853
47.09000 192.681
47.10000 189.529
47.11000 191.826
47.12000 194.929
47.13000 197.402
47.14000 198.505
47.15000 199.296
47.16000 198.758
47.17000 194.918
47.18000 190.924
47.19000 188.347
47.20000 188.207
47.21000 188.110
47.22000 188.058
47.23000 192.410
47.24000 195.370
47.25000 193.710
47.26000 188.497
47.27000 183.466
47.28000 185.979
47.29000 192.457
47.30000 198.673
47.31000 196.822
47.32000 192.346
47.33000 188.571
47.34000 191.527
47.35000 196.169
47.36000 200.177
47.37000 200.386
47.38000 199.961
47.39000 199.614
47.40000 199.746
47.41000 199.894
47.42000 198.396
47.43000 192.377
47.44000 186.098
47.45000 183.770
47.46000 188.963
47.47000 194.338
47.48000 197.383
47.49000 191.564
47.50000 187.495
47.51000 187.215
47.52000 190.188
47.53000 193.157
47.54000 195.855
47.55000 198.397
47.56000 200.856
47.57000 198.056
47.58000 193.411
47.59000 189.127
47.60000 188.858
47.61000 189.705
47.62000 190.751
47.63000 193.147
47.64000 195.795
47.65000 198.001
47.66000 195.756
47.67000 193.455
47.68000 192.229
47.69000 194.271
47.70000 196.539
47.71000 197.758
47.72000 196.770
47.73000 195.711
47.74000 195.082
47.75000 189.713
47.76000 185.886
47.77000 185.241
47.78000 187.661
47.79000 190.044
47.80000 189.236
47.81000 186.367
47.82000 183.571
47.83000 185.675
47.84000 189.765
47.85000 193.515
47.86000 192.850
47.87000 190.825
47.88000 189.043
47.89000 189.133
47.90000 189.615
47.91000 190.025
47.92000 189.267
47.93000 188.497
47.94000 187.755
47.95000 187.107
47.96000 186.467
47.97000 186.418
47.98000 187.741
47.99000 189.121
48.00000 189.976
48.01000 179.934
48.02000 172.607
48.03000 170.183
48.04000 173.069
48.05000 175.979
48.06000 182.453
48.07000 191.483
48.08000 200.340
48.09000 197.790
48.10000 189.922
48.11000 182.406
48.12000 180.344
48.13000 180.143
48.14000 180.015
48.15000 180.533
48.16000 181.201
48.17000 181.780
48.18000 180.935
48.19000 180.030
48.20000 178.858
48.21000 176.685
48.22000 174.418
48.23000 174.510
48.24000 180.675
48.25000 187.148
48.26000 191.325
48.27000 188.375
48.28000 186.118
48.29000 185.535
48.30000 186.981
48.31000 188.429
48.32000 188.951
48.33000 188.733
48.34000 188.518
48.35000 188.406
48.36000 188.352
48.37000 188.360
48.38000 189.542
48.39000 191.168
48.40000 192.310
48.41000 188.561
48.42000 183.541
48.43000 179.122
48.44000 182.385
48.45000 186.344
48.46000 189.092
48.47000 186.811
48.48000 183.979
48.49000 181.675
48.50000 180.874
48.51000 180.166
48.52000 179.692
48.53000 179.466
48.54000 179.303
48.55000 179.858
48.56000 181.384
48.57000 182.916
48.58000 185.738
48.59000 189.711
48.60000 193.648
48.61000 191.386
48.62000 185.500
48.63000 179.892
48.64000 180.656
48.65000 184.080
48.66000 187.527
48.67000 191.251
48.68000 195.054
48.69000 198.456
48.70000 194.526
48.71000 189.852
48.72000 186.684
48.73000 190.485
48.74000 195.159
48.75000 198.146
48.76000 195.816
48.77000 193.096
48.78000 191.210
48.79000 187.622
48.80000 184.876
48.81000 184.131
48.82000 186.396
48.83000 188.690
48.84000 188.692
48.85000 186.390
48.86000 184.101
48.87000 179.806
48.88000 174.239
48.89000 169.054
48.90000 174.943
48.91000 185.941
48.92000 196.021
48.93000 193.391
48.94000 186.698
48.95000 180.624
48.96000 175.738
48.97000 171.653
48.98000 169.275
48.99000 175.721
49.00000 183.425
49.01000 188.260
49.02000 183.070
49.03000 177.017
49.04000 172.684
49.05000 169.558
49.06000 167.212
49.07000 166.904
49.08000 169.998
49.09000 173.145
49.10000 176.009
49.11000 178.553
49.12000 181.089
49.13000 184.803
49.14000 189.360
49.15000 193.829
49.16000 194.928
49.17000 194.306
49.18000 193.634
49.19000 192.123
49.20000 190.316
49.21000 188.653
49.22000 186.957
49.23000 185.433
49.24000 183.555
49.25000 179.618
49.26000 175.349
49.27000 173.458
49.28000 180.785
49.29000 189.035
49.30000 195.122
49.31000 190.227
49.32000 185.970
49.33000 181.828
49.34000 177.897
49.35000 173.970
49.36000 174.129
49.37000 179.438
49.38000 184.759
49.39000 185.210
49.40000 181.620
49.41000 178.096
49.42000 177.982
49.43000 179.796
49.44000 181.569
49.45000 182.526
49.46000 183.164
49.47000 183.758
49.48000 182.777
49.49000 181.506
49.50000 180.608
49.51000 182.149
49.52000 184.132
49.53000 185.432
49.54000 183.786
49.55000 181.802
49.56000 180.296
49.57000 171.038
49.58000 163.365
49.59000 160.843
49.60000 168.867
49.61000 177.205
49.62000 181.884
49.63000 181.425
49.64000 180.931
49.65000 181.476
49.66000 182.987
49.67000 184.504
49.68000 186.414
49.69000 188.569
49.70000 190.414
49.71000 184.507
49.72000 175.246
49.73000 166.525
49.74000 165.070
49.75000 165.728
49.76000 166.345
49.77000 166.654
49.78000 166.901
49.79000 167.235
49.80000 167.985
49.81000 168.789
49.82000 169.416
49.83000 169.299
49.84000 169.160
49.85000 169.921
49.86000 172.720
49.87000 175.597
49.88000 176.762
49.89000 175.254
49.90000 173.714
49.91000 172.927
49.92000 178.805
49.93000 182.721
49.94000 182.457
49.95000 179.282
49.96000 176.166
49.97000 174.903
49.98000 174.527
49.99000 174.169
50.00000 175.741
50.01000 177.786
50.02000 179.738
50.03000 180.908
50.04000 181.900
50.05000 182.842
50.06000 183.515
50.07000 184.148
50.08000 184.653
50.09000 183.481
50.10000 182.412
50.11000 181.306
50.12000 180.106
50.13000 178.902
50.14000 178.548
50.15000 179.663
50.16000 180.805
50.17000 181.422
50.18000 181.211
50.19000 181.073
50.20000 182.776
50.21000 185.905
50.22000 188.986
50.23000 189.981
50.24000 189.873
50.25000 189.770
50.26000 188.563
50.27000 187.055
50.28000 185.607
50.29000 184.735
50.30000 184.007
50.31000 183.400
50.32000 183.523
50.33000 183.768
50.34000 183.969
50.35000 183.312
50.36000 182.700
50.37000 183.029
50.38000 185.959
50.39000 189.041
50.40000 192.064
50.41000 194.974
50.42000 197.881
50.43000 199.534
50.44000 209.256
50.45000 216.045
50.46000 215.725
50.47000 209.251
50.48000 202.941
50.49000 206.431
50.50000 215.667
50.51000 224.608
50.52000 226.824
50.53000 226.340
50.54000 225.954
50.55000 226.650
50.56000 227.649
50.57000 229.425
50.58000 236.506
50.59000 244.590
50.60000 251.332
50.61000 247.636
50.62000 243.526
50.63000 240.664
50.64000 241.628
50.65000 242.858
50.66000 245.174
50.67000 249.794
50.68000 254.489
50.69000 257.284
50.70000 253.980
50.71000 251.603
50.72000 255.452
50.73000 265.347
50.74000 275.130
50.75000 274.709
50.76000 267.650
50.77000 260.766
50.78000 257.153
50.79000 255.102
50.80000 253.417
50.81000 256.545
50.82000 261.167
50.83000 264.379
50.84000 256.652
50.85000 246.616
50.86000 238.078
50.87000 239.622
50.88000 242.084
50.89000 243.138
50.90000 239.416
50.91000 235.302
50.92000 232.298
50.93000 231.902
50.94000 231.615
50.95000 231.436
50.96000 229.250
50.97000 227.657
50.98000 223.904
50.99000 217.795
51.00000 211.702
51.01000 208.238
51.02000 206.677
51.03000 205.145
51.04000 204.348
51.05000 203.932
51.06000 203.606
51.07000 204.694
51.08000 206.268
51.09000 207.492
51.10000 205.606
51.11000 202.989
51.12000 200.721
51.13000 198.913
51.14000 197.435
51.15000 196.102
51.16000 195.312
51.17000 194.575
51.18000 193.551
51.19000 191.785
51.20000 189.981
51.21000 188.814
51.22000 191.244
51.23000 193.075
51.24000 191.335
51.25000 185.234
51.26000 179.135
51.27000 177.689
51.28000 179.995
51.29000 182.270
51.30000 184.633
51.31000 186.979
51.32000 189.116
51.33000 187.290
51.34000 183.957
51.35000 180.986
51.36000 181.709
51.37000 183.401
51.38000 184.891
51.39000 183.446
51.40000 181.757
51.41000 180.332
51.42000 180.011
51.43000 179.813
51.44000 178.577
51.45000 174.366
51.46000 169.969
51.47000 167.016
51.48000 168.602
51.49000 169.872
51.50000 169.011
51.51000 165.246
51.52000 161.468
51.53000 164.156
51.54000 172.673
51.55000 181.114
51.56000 181.345
51.57000 176.674
51.58000 172.125
51.59000 170.414
51.60000 169.897
51.61000 169.136
51.62000 165.465
51.63000 160.950
51.64000 156.907
51.65000 157.756
51.66000 159.337
51.67000 161.545
51.68000 166.683
51.69000 172.192
51.70000 175.542
51.71000 172.033
51.72000 168.016
51.73000 165.225
51.74000 164.305
51.75000 163.662
51.76000 162.639
51.77000 161.040
51.78000 159.434
51.79000 160.474
51.80000 164.195
51.81000 167.895
51.82000 167.165
51.83000 163.491
51.84000 160.013
51.85000 162.335
51.86000 167.354
51.87000 172.181
51.88000 174.320
51.89000 175.595
51.90000 176.753
51.91000 179.173
51.92000 181.555
51.93000 183.175
51.94000 180.819
51.95000 177.892
51.96000 175.053
51.97000 172.530
51.98000 170.035
51.99000 168.244
52.00000 161.283
52.01000 155.782
52.02000 154.913
52.03000 161.831
52.04000 168.874
52.05000 169.282
52.06000 162.146
52.07000 155.023
52.08000 152.793
52.09000 154.229
52.10000 155.750
52.11000 160.569
52.12000 167.085
52.13000 173.132
52.14000 171.337
52.15000 166.748
52.16000 162.524
52.17000 159.784
52.18000 157.659
52.19000 155.423
52.20000 152.541
52.21000 149.555
52.22000 148.103
52.23000 152.653
52.24000 157.809
52.25000 161.621
52.26000 167.128
52.27000 171.472
52.28000 172.426
52.29000 167.066
52.30000 161.563
52.31000 159.624
52.32000 162.213
52.33000 164.816
52.34000 166.475
52.35000 167.341
52.36000 168.159
52.37000 166.418
52.38000 163.220
52.39000 160.155
52.40000 159.793
52.41000 160.496
52.42000 161.152
52.43000 159.541
52.44000 157.526
52.45000 155.638
52.46000 154.589
52.47000 153.693
52.48000 154.054
52.49000 159.880
52.50000 166.342
52.51000 171.255
52.52000 167.173
52.53000 163.494
52.54000 162.683
52.55000 167.788
52.56000 173.072
52.57000 173.539
52.58000 167.186
52.59000 160.785
52.60000 158.088
52.61000 158.871
52.62000 159.676
52.63000 162.331
52.64000 166.154
52.65000 169.726
52.66000 166.944
52.67000 161.394
52.68000 156.164
52.69000 154.771
52.70000 154.555
52.71000 154.509
52.72000 155.727
52.73000 157.204
52.74000 158.530
52.75000 159.124
52.76000 159.622
52.77000 160.010
52.78000 160.117
52.79000 160.184
52.80000 160.885
52.81000 163.032
52.82000 165.234
52.83000 165.703
52.84000 163.442
52.85000 161.148
52.86000 159.970
52.87000 161.681
52.88000 162.810
52.89000 161.021
52.90000 157.186
52.91000 153.531
52.92000 155.745
52.93000 160.787
52.94000 165.587
52.95000 163.285
52.96000 158.959
52.97000 155.575
52.98000 160.226
52.99000 166.711
53.00000 171.505
53.01000 167.116
53.02000 161.347
53.03000 156.733
53.04000 160.449
53.05000 164.071
53.06000 166.939
53.07000 167.909
53.08000 168.787
53.09000 168.971
53.10000 167.941
53.11000 166.890
53.12000 166.320
53.13000 163.973
53.14000 162.358
53.15000 159.433
53.16000 155.483
53.17000 151.671
53.18000 153.810
53.19000 159.123
53.20000 164.227
53.21000 165.709
53.22000 165.843
53.23000 165.963
53.24000 165.937
53.25000 165.874
53.26000 166.585
53.27000 172.024
53.28000 178.264
53.29000 183.368
53.30000 179.538
53.31000 175.622
53.32000 171.873
53.33000 168.590
53.34000 165.335
53.35000 161.636
53.36000 157.077
53.37000 152.497
53.38000 149.885
53.39000 158.707
53.40000 164.893
53.41000 166.649
53.42000 164.538
53.43000 162.520
53.44000 166.218
53.45000 173.293
53.46000 180.146
53.47000 179.254
53.48000 175.418
53.49000 171.316
53.50000 164.187
53.51000 156.205
53.52000 149.273
53.53000 149.578
53.54000 151.260
53.55000 152.666
53.56000 155.025
53.57000 157.081
53.58000 158.969
53.59000 160.345
53.60000 161.684
53.61000 161.146
53.62000 156.597
53.63000 151.915
53.64000 149.118
53.65000 155.256
53.66000 159.667
53.67000 159.805
53.68000 155.758
53.69000 151.766
53.70000 152.886
53.71000 157.357
53.72000 161.718
53.73000 161.608
53.74000 159.574
53.75000 157.730
53.76000 158.433
53.77000 159.933
53.78000 161.484
53.79000 163.448
53.80000 165.498
53.81000 167.245
53.82000 158.197
53.83000 149.329
53.84000 143.753
53.85000 149.431
53.86000 156.047
53.87000 162.137
53.88000 166.987
53.89000 171.784
53.90000 174.775
53.91000 161.559
53.92000 151.867
53.93000 148.207
53.94000 151.187
53.95000 154.165
53.96000 156.143
53.97000 157.394
53.98000 158.622
53.99000 154.853
54.00000 148.809
54.01000 143.051
54.02000 141.827
54.03000 142.172
54.04000 143.000
54.05000 148.148
54.06000 154.321
54.07000 159.676
54.08000 155.869
54.09000 151.402
54.10000 148.856
54.11000 153.600
54.12000 159.051
54.13000 162.738
54.14000 161.813
54.15000 160.649
54.16000 159.893
54.17000 161.215
54.18000 162.213
54.19000 163.617
54.20000 165.519
54.21000 167.412
54.22000 165.763
54.23000 161.234
54.24000 156.765
54.25000 156.396
54.26000 158.243
54.27000 159.920
54.28000 158.308
54.29000 155.438
54.30000 153.094
54.31000 156.176
54.32000 160.690
54.33000 164.672
54.34000 164.600
54.35000 163.919
54.36000 162.567
54.37000 158.384
54.38000 153.884
54.39000 151.167
54.40000 153.600
54.41000 156.358
54.42000 158.214
54.43000 159.134
54.44000 159.799
54.45000 161.267
54.46000 163.838
54.47000 166.416
54.48000 168.028
54.49000 168.761
54.50000 169.489
54.51000 165.395
54.52000 158.482
54.53000 151.906
54.54000 153.331
54.55000 158.144
54.56000 162.715
54.57000 164.375
54.58000 165.183
54.59000 165.906
54.60000 162.802
54.61000 159.429
54.62000 156.895
54.63000 158.309
54.64000 160.228
54.65000 161.678
54.66000 161.624
54.67000 161.458
54.68000 161.342
54.69000 163.952
54.70000 165.996
54.71000 165.774
54.72000 162.092
54.73000 158.373
54.74000 156.421
54.75000 156.275
54.76000 156.131
54.77000 159.536
54.78000 165.286
54.79000 170.858
54.80000 171.058
54.81000 168.744
54.82000 166.520
54.83000 165.581
54.84000 165.059
54.85000 164.584
54.86000 163.142
54.87000 161.678
54.88000 159.796
54.89000 155.712
54.90000 151.308
54.91000 148.802
54.92000 153.028
54.93000 157.847
54.94000 161.312
54.95000 159.010
54.96000 157.047
54.97000 154.764
54.98000 151.939
54.99000 149.105
55.00000 150.009
55.01000 155.196
55.02000 160.374
55.03000 164.537
55.04000 167.909
55.05000 171.101
55.06000 167.135
55.07000 159.463
55.08000 152.296
55.09000 153.690
55.10000 158.155
55.11000 162.270
55.12000 164.732
55.13000 166.571
55.14000 167.871
55.15000 165.986
55.16000 163.580
55.17000 162.652
55.18000 167.545
55.19000 173.032
55.20000 177.098
55.21000 173.151
55.22000 169.739
55.23000 166.771
55.24000 164.638
55.25000 162.525
55.26000 164.728
55.27000 172.462
55.28000 180.208
55.29000 180.390
55.30000 174.190
55.31000 168.082
55.32000 166.966
55.33000 168.713
55.34000 170.499
55.35000 173.109
55.36000 176.045
55.37000 178.784
55.38000 180.842
55.39000 182.536
55.40000 183.887
55.41000 182.950
55.42000 181.592
55.43000 181.491
55.44000 186.899
55.45000 192.954
55.46000 197.567
55.47000 194.530
55.48000 191.734
55.49000 189.959
55.50000 190.305
55.51000 190.716
55.52000 195.581
55.53000 206.797
55.54000 218.061
55.55000 219.195
55.56000 210.735
55.57000 202.407
55.58000 204.919
55.59000 214.325
55.60000 223.761
55.61000 233.949
55.62000 244.467
55.63000 254.388
55.64000 258.984
55.65000 261.715
55.66000 265.021
55.67000 272.663
55.68000 281.199
55.69000 290.057
55.70000 300.492
55.71000 311.138
55.72000 319.460
55.73000 335.398
55.74000 348.601
55.75000 359.209
55.76000 363.855
55.77000 368.264
55.78000 375.119
55.79000 385.850
55.80000 396.629
55.81000 402.189
55.82000 423.587
55.83000 438.004
55.84000 452.211
55.85000 466.272
55.86000 480.380
55.87000 496.056
55.88000 512.493
55.89000 528.153
55.90000 534.644
55.91000 537.801
55.92000 540.958
55.93000 544.101
55.94000 547.242
55.95000 551.801
55.96000 564.125
55.97000 577.626
55.98000 588.440
55.99000 575.629
56.00000 563.490
56.01000 554.326
56.02000 552.719
56.03000 551.484
56.04000 547.653
56.05000 539.259
56.06000 530.780
56.07000 526.163
56.08000 526.044
56.09000 525.929
56.10000 514.551
56.11000 494.304
56.12000 474.227
56.13000 461.655
56.14000 453.113
56.15000 444.901
56.16000 434.607
56.17000 424.238
56.18000 413.564
56.19000 399.882
56.20000 385.430
56.21000 370.614
56.22000 353.555
56.23000 336.111
56.24000 321.823
56.25000 316.353
56.26000 312.645
56.27000 307.811
56.28000 299.817
56.29000 291.633
56.30000 283.985
56.31000 277.380
56.32000 270.803
56.33000 267.038
56.34000 257.848
56.35000 251.415
56.36000 249.885
56.37000 252.669
56.38000 255.371
56.39000 252.861
56.40000 247.250
56.41000 241.813
56.42000 237.433
56.43000 233.698
56.44000 230.098
56.45000 228.037
56.46000 226.414
56.47000 224.159
56.48000 217.513
56.49000 210.023
56.50000 203.758
56.51000 202.317
56.52000 201.612
56.53000 200.914
56.54000 200.236
56.55000 199.559
56.56000 198.274
56.57000 195.679
56.58000 193.039
56.59000 191.457
56.60000 189.920
56.61000 188.829
56.62000 186.726
56.63000 183.625
56.64000 180.522
56.65000 177.303
56.66000 174.007
56.67000 170.789
56.68000 171.121
56.69000 172.981
56.70000 174.640
56.71000 173.583
56.72000 171.671
56.73000 169.897
56.74000 169.219
56.75000 168.776
56.76000 168.398
56.77000 165.615
56.78000 162.988
56.79000 161.091
56.80000 161.704
56.81000 162.527
56.82000 163.189
56.83000 163.466
56.84000 163.725
56.85000 163.888
56.86000 157.010
56.87000 151.971
56.88000 150.042
56.89000 151.562
56.90000 153.096
56.91000 156.690
56.92000 161.796
56.93000 166.811
56.94000 165.792
56.95000 161.876
56.96000 158.078
56.97000 156.167
56.98000 154.915
56.99000 153.746
57.00000 153.327
57.01000 153.089
57.02000 152.881
57.03000 159.741
57.04000 166.543
57.05000 170.245
57.06000 162.097
57.07000 152.790
57.08000 147.143
57.09000 151.133
57.10000 155.632
57.11000 158.559
57.12000 155.371
57.13000 152.939
57.14000 151.077
57.15000 149.922
57.16000 148.772
57.17000 149.109
57.18000 150.664
57.19000 152.199
57.20000 152.054
57.21000 151.001
57.22000 149.960
57.23000 149.127
57.24000 148.374
57.25000 147.922
57.26000 150.611
57.27000 154.134
57.28000 157.247
57.29000 153.507
57.30000 149.224
57.31000 146.701
57.32000 151.660
57.33000 157.464
57.34000 160.061
57.35000 153.325
57.36000 145.992
57.37000 141.043
57.38000 147.497
57.39000 152.542
57.40000 154.220
57.41000 151.240
57.42000 148.230
57.43000 145.346
57.44000 142.578
57.45000 139.834
57.46000 139.534
57.47000 140.720
57.48000 141.883
57.49000 142.451
57.50000 142.767
57.51000 143.023
57.52000 142.545
57.53000 141.851
57.54000 141.229
57.55000 143.024
57.56000 145.015
57.57000 146.855
57.58000 147.977
57.59000 149.006
57.60000 149.715
57.61000 149.390
57.62000 148.987
57.63000 148.706
57.64000 142.404
57.65000 137.476
57.66000 135.538
57.67000 138.197
57.68000 140.908
57.69000 143.131
57.70000 144.852
57.71000 146.565
57.72000 147.753
57.73000 148.572
57.74000 149.367
57.75000 149.415
57.76000 149.111
57.77000 148.732
57.78000 147.279
57.79000 145.476
57.80000 143.834
57.81000 147.732
57.82000 152.276
57.83000 155.368
57.84000 150.760
57.85000 145.025
57.86000 141.074
57.87000 143.494
57.88000 146.482
57.89000 148.635
57.90000 146.478
57.91000 144.672
57.92000 142.337
57.93000 139.100
57.94000 135.848
57.95000 135.707
57.96000 139.160
57.97000 142.610
57.98000 145.410
57.99000 147.700
58.00000 149.924
58.01000 149.435
58.02000 147.533
58.03000 145.699
58.04000 145.048
58.05000 144.823
58.06000 144.617
58.07000 142.798
58.08000 140.811
58.09000 139.456
58.10000 141.868
58.11000 144.902
58.12000 146.884
58.13000 144.694
58.14000 142.073
58.15000 140.127
58.16000 140.570
58.17000 141.021
58.18000 142.797
58.19000 147.079
58.20000 151.421
58.21000 151.488
58.22000 146.036
58.23000 140.568
58.24000 138.284
58.25000 138.714
58.26000 139.167
58.27000 140.959
58.28000 143.524
58.29000 145.947
58.30000 145.410
58.31000 143.689
58.32000 142.082
58.33000 142.264
58.34000 142.876
58.35000 143.586
58.36000 144.956
58.37000 146.449
58.38000 147.357
58.39000 145.680
58.40000 143.696
58.41000 142.183
58.42000 137.470
58.43000 133.585
58.44000 131.748
58.45000 134.193
58.46000 136.772
58.47000 138.161
58.48000 137.838
58.49000 137.502
58.50000 137.236
58.51000 137.037
58.52000 136.846
58.53000 137.264
58.54000 138.074
58.55000 138.815
58.56000 137.740
58.57000 135.862
58.58000 134.090
58.59000 132.656
58.60000 131.435
58.61000 130.406
58.62000 130.840
58.63000 131.578
58.64000 132.706
58.65000 135.757
58.66000 139.068
58.67000 141.661
58.68000 139.127
58.69000 136.772
58.70000 134.915
58.71000 134.211
58.72000 133.553
58.73000 132.088
58.74000 129.335
58.75000 126.565
58.76000 125.131
58.77000 129.054
58.78000 131.714
58.79000 136.020
58.80000 141.498
58.81000 146.761
58.82000 144.752
58.83000 139.187
58.84000 133.882
58.85000 132.198
58.86000 131.773
58.87000 131.549
58.88000 133.075
58.89000 135.006
58.90000 136.388
58.91000 134.734
58.92000 132.615
58.93000 130.915
58.94000 137.359
58.95000 143.197
58.96000 146.157
58.97000 141.757
58.98000 136.990
58.99000 133.883
59.00000 133.718
59.01000 133.608
59.02000 133.548
59.03000 134.043
59.04000 134.379
59.05000 133.650
59.06000 132.073
59.07000 130.570
59.08000 132.396
59.09000 136.022
59.10000 139.510
59.11000 139.697
59.12000 138.713
59.13000 137.593
59.14000 135.116
59.15000 132.289
59.16000 129.635
59.17000 128.056
59.18000 126.663
59.19000 125.521
59.20000 128.898
59.21000 132.073
59.22000 134.149
59.23000 133.115
59.24000 131.894
59.25000 130.689
59.26000 129.518
59.27000 128.348
59.28000 127.676
59.29000 130.017
59.30000 131.664
59.31000 132.431
59.32000 132.419
59.33000 132.396
59.34000 131.727
59.35000 130.669
59.36000 129.643
59.37000 127.963
59.38000 126.115
59.39000 124.919
59.40000 131.308
59.41000 139.868
59.42000 146.714
59.43000 141.525
59.44000 134.007
59.45000 127.709
59.46000 132.953
59.47000 138.506
59.48000 142.413
59.49000 141.169
59.50000 139.552
59.51000 138.371
59.52000 138.136
59.53000 137.933
59.54000 137.811
59.55000 134.470
59.56000 132.072
59.57000 132.199
59.58000 134.840
59.59000 137.457
59.60000 137.709
59.61000 136.387
59.62000 135.096
59.63000 134.804
59.64000 134.961
59.65000 135.200
59.66000 136.555
59.67000 138.264
59.68000 139.320
59.69000 135.160
59.70000 129.873
59.71000 125.357
59.72000 126.730
59.73000 128.588
59.74000 130.471
59.75000 132.443
59.76000 134.422
59.77000 135.867
59.78000 136.029
59.79000 136.135
59.80000 136.202
59.81000 138.374
59.82000 139.967
59.83000 139.273
59.84000 136.022
59.85000 132.778
59.86000 131.460
59.87000 131.565
59.88000 131.668
59.89000 133.170
59.90000 135.306
59.91000 137.018
59.92000 131.826
59.93000 124.210
59.94000 117.699
59.95000 121.282
59.96000 127.297
59.97000 132.528
59.98000 134.792
59.99000 136.320
60.00000 137.263
60.01000 135.954
60.02000 134.423
60.03000 133.988
60.04000 136.459
60.05000 139.086
60.06000 140.799
60.07000 133.407
60.08000 127.838
60.09000 125.393
60.10000 126.856
60.11000 128.330
60.12000 129.243
60.13000 129.694
60.14000 130.140
60.15000 130.112
60.16000 129.827
60.17000 129.675
60.18000 132.147
60.19000 135.639
60.20000 139.076
60.21000 141.941
60.22000 144.653
60.23000 147.051
60.24000 144.311
60.25000 141.146
60.26000 138.625
60.27000 138.870
60.28000 139.429
60.29000 138.966
60.30000 135.505
60.31000 131.849
60.32000 129.376
60.33000 131.532
60.34000 133.239
60.35000 134.443
60.36000 134.947
60.37000 135.446
60.38000 134.379
60.39000 131.865
60.40000 129.372
60.41000 131.966
60.42000 137.622
60.43000 142.945
60.44000 140.137
60.45000 133.836
60.46000 128.185
60.47000 130.533
60.48000 135.257
60.49000 139.500
60.50000 139.454
60.51000 138.658
60.52000 138.149
60.53000 139.012
60.54000 140.052
60.55000 138.821
60.56000 130.212
60.57000 121.036
60.58000 114.613
60.59000 120.630
60.60000 125.533
60.61000 130.566
60.62000 135.802
60.63000 141.040
60.64000 140.443
60.65000 133.783
60.66000 127.155
60.67000 125.496
60.68000 127.250
60.69000 129.029
60.70000 131.606
60.71000 134.561
60.72000 137.334
60.73000 137.456
60.74000 136.706
60.75000 136.024
60.76000 138.132
60.77000 140.556
60.78000 142.125
60.79000 139.128
60.80000 135.457
60.81000 133.047
60.82000 135.179
60.83000 137.720
60.84000 139.556
60.85000 134.217
60.86000 129.864
60.87000 128.617
60.88000 132.711
60.89000 136.897
60.90000 138.249
60.91000 136.298
60.92000 134.347
60.93000 133.666
60.94000 133.958
60.95000 134.286
60.96000 136.044
60.97000 138.554
60.98000 140.908
60.99000 140.541
61.00000 139.182
61.01000 137.928
61.02000 139.210
61.03000 140.929
61.04000 141.889
61.05000 138.298
61.06000 133.948
61.07000 130.911
61.08000 133.123
61.09000 135.882
61.10000 137.935
61.11000 131.962
61.12000 126.957
61.13000 126.068
61.14000 133.017
61.15000 140.155
61.16000 145.204
61.17000 147.534
61.18000 149.851
61.19000 148.058
61.20000 142.745
61.21000 137.479
61.22000 134.920
61.23000 133.938
61.24000 133.122
61.25000 135.854
61.26000 140.014
61.27000 143.901
61.28000 143.129
61.29000 141.253
61.30000 139.311
61.31000 136.915
61.32000 134.435
61.33000 132.464
61.34000 132.763
61.35000 133.332
61.36000 133.768
61.37000 137.577
61.38000 140.766
61.39000 142.747
61.40000 142.184
61.41000 141.540
61.42000 141.967
61.43000 143.947
61.44000 145.940
61.45000 145.544
61.46000 142.847
61.47000 140.241
61.48000 145.539
61.49000 155.939
61.50000 166.092
61.51000 169.637
61.52000 170.240
61.53000 170.810
61.54000 186.260
61.55000 204.650
61.56000 222.498
61.57000 236.190
61.58000 249.010
61.59000 261.794
61.60000 274.393
61.61000 286.968
61.62000 296.834
61.63000 299.595
61.64000 301.341
61.65000 304.026
61.66000 308.900
61.67000 313.863
61.68000 317.718
61.69000 319.789
61.70000 321.835
61.71000 322.900
61.72000 324.689
61.73000 325.864
61.74000 321.973
61.75000 314.446
61.76000 306.874
61.77000 297.721
61.78000 287.791
61.79000 278.318
61.80000 260.410
61.81000 241.118
61.82000 222.280
61.83000 207.435
61.84000 193.522
61.85000 180.988
61.86000 176.128
61.87000 172.454
61.88000 169.501
61.89000 166.550
61.90000 164.158
61.91000 161.711
61.92000 159.124
61.93000 156.531
61.94000 154.022
61.95000 151.667
61.96000 149.315
61.97000 148.024
61.98000 142.616
61.99000 138.904
62.00000 140.049
62.01000 145.079
62.02000 150.003
62.03000 150.048
62.04000 147.433
62.05000 144.916
62.06000 141.169
62.07000 137.217
62.08000 133.796
62.09000 135.745
62.10000 139.090
62.11000 141.682
62.12000 139.556
62.13000 136.610
62.14000 134.189
62.15000 133.383
62.16000 132.867
62.17000 133.285
62.18000 136.364
62.19000 139.606
62.20000 141.465
62.21000 140.592
62.22000 139.646
62.23000 139.101
62.24000 139.656
62.25000 140.051
62.26000 142.304
62.27000 146.221
62.28000 150.047
62.29000 147.842
62.30000 141.995
62.31000 136.321
62.32000 137.826
62.33000 142.094
62.34000 146.217
62.35000 148.636
62.36000 150.564
62.37000 151.826
62.38000 148.367
62.39000 143.988
62.40000 140.314
62.41000 141.483
62.42000 142.962
62.43000 143.518
62.44000 141.166
62.45000 138.601
62.46000 137.408
62.47000 139.211
62.48000 141.119
62.49000 142.270
62.50000 139.570
62.51000 137.620
62.52000 136.514
62.53000 136.254
62.54000 136.009
62.55000 137.290
62.56000 139.595
62.57000 141.847
62.58000 142.799
62.59000 143.137
62.60000 143.597
62.61000 145.752
62.62000 148.450
62.63000 150.817
62.64000 150.525
62.65000 149.653
62.66000 148.908
62.67000 145.639
62.68000 142.579
62.69000 140.589
62.70000 142.338
62.71000 144.410
62.72000 145.333
62.73000 143.485
62.74000 141.514
62.75000 140.274
62.76000 143.535
62.77000 145.943
62.78000 147.455
62.79000 147.957
62.80000 148.446
62.81000 146.703
62.82000 143.295
62.83000 139.946
62.84000 139.483
62.85000 140.459
62.86000 141.543
62.87000 144.407
62.88000 147.900
62.89000 150.992
62.90000 150.386
62.91000 148.882
62.92000 147.572
62.93000 147.386
62.94000 147.382
62.95000 147.371
62.96000 147.336
62.97000 147.299
62.98000 147.061
62.99000 146.290
63.00000 145.489
63.01000 144.966
63.02000 138.952
63.03000 134.444
63.04000 133.756
63.05000 137.883
63.06000 142.022
63.07000 144.300
63.08000 145.029
63.09000 145.749
63.10000 144.434
63.11000 142.031
63.12000 139.810
63.13000 141.266
63.14000 144.160
63.15000 146.941
63.16000 148.524
63.17000 149.783
63.18000 150.897
63.19000 149.249
63.20000 147.391
63.21000 145.689
63.22000 144.661
63.23000 143.711
63.24000 143.323
63.25000 144.593
63.26000 145.972
63.27000 146.908
63.28000 144.025
63.29000 141.791
63.30000 143.100
63.31000 149.390
63.32000 155.712
63.33000 157.212
63.34000 154.218
63.35000 151.248
63.36000 150.763
63.37000 151.816
63.38000 152.862
63.39000 153.709
63.40000 154.469
63.41000 154.996
63.42000 152.621
63.43000 149.377
63.44000 146.461
63.45000 149.922
63.46000 154.087
63.47000 157.945
63.48000 160.331
63.49000 162.524
63.50000 162.475
63.51000 155.097
63.52000 147.148
63.53000 141.572
63.54000 145.799
63.55000 149.282
63.56000 151.250
63.57000 150.853
63.58000 150.427
63.59000 151.385
63.60000 153.791
63.61000 156.187
63.62000 155.596
63.63000 152.956
63.64000 150.344
63.65000 148.631
63.66000 147.349
63.67000 146.001
63.68000 143.690
63.69000 141.060
63.70000 138.662
63.71000 143.868
63.72000 150.012
63.73000 155.059
63.74000 154.194
63.75000 152.449
63.76000 150.799
63.77000 149.493
63.78000 148.218
63.79000 147.296
63.80000 151.419
63.81000 154.771
63.82000 156.623
63.83000 155.878
63.84000 155.088
63.85000 155.068
63.86000 155.954
63.87000 156.839
63.88000 157.241
63.89000 157.267
63.90000 157.350
63.91000 159.816
63.92000 163.543
63.93000 167.028
63.94000 166.230
63.95000 163.860
63.96000 161.671
63.97000 164.273
63.98000 167.692
63.99000 169.816
64.00000 164.102
64.01000 157.069
64.02000 152.337
64.03000 156.870
64.04000 162.379
64.05000 166.486
64.06000 161.909
64.07000 157.950
64.08000 156.080
64.09000 158.213
64.10000 160.446
64.11000 161.561
64.12000 161.211
64.13000 160.855
64.14000 159.860
64.15000 158.315
64.16000 156.820
64.17000 158.312
64.18000 161.554
64.19000 164.749
64.20000 166.934
64.21000 168.710
64.22000 170.370
64.23000 173.182
64.24000 176.028
64.25000 177.696
64.26000 171.311
64.27000 163.406
64.28000 157.952
64.29000 163.488
64.30000 170.353
64.31000 175.612
64.32000 170.060
64.33000 165.081
64.34000 162.534
64.35000 165.150
64.36000 167.935
64.37000 168.457
64.38000 165.677
64.39000 162.868
64.40000 161.404
64.41000 161.245
64.42000 161.125
64.43000 164.565
64.44000 170.320
64.45000 175.842
64.46000 175.049
64.47000 171.425
64.48000 167.999
64.49000 168.000
64.50000 168.979
64.51000 169.524
64.52000 166.704
64.53000 163.173
64.54000 160.200
64.55000 160.021
64.56000 160.226
64.57000 160.387
64.58000 169.415
64.59000 177.226
64.60000 181.476
64.61000 177.371
64.62000 172.919
64.63000 170.836
64.64000 172.593
64.65000 174.403
64.66000 175.347
64.67000 178.445
64.68000 180.530
64.69000 181.058
64.70000 180.459
64.71000 179.797
64.72000 176.946
64.73000 173.009
64.74000 169.250
64.75000 175.519
64.76000 184.544
64.77000 192.260
64.78000 188.369
64.79000 181.744
64.80000 176.062
64.81000 175.669
64.82000 176.100
64.83000 176.446
64.84000 183.324
64.85000 189.412
64.86000 194.460
64.87000 196.806
64.88000 199.014
64.89000 198.910
64.90000 194.652
64.91000 190.311
64.92000 187.920
64.93000 197.248
64.94000 203.682
64.95000 206.100
64.96000 205.279
64.97000 204.470
64.98000 204.199
64.99000 204.225
65.00000 204.249
65.01000 204.772
65.02000 205.439
65.03000 206.116
65.04000 206.883
65.05000 207.674
65.06000 208.632
65.07000 210.647
65.08000 212.847
65.09000 214.657
65.10000 217.008
65.11000 218.991
65.12000 220.564
65.13000 220.963
65.14000 221.289
65.15000 222.100
65.16000 223.877
65.17000 225.681
65.18000 226.723
65.19000 224.279
65.20000 222.556
65.21000 226.693
65.22000 236.117
65.23000 245.518
65.24000 253.436
65.25000 260.452
65.26000 267.263
65.27000 270.875
65.28000 273.028
65.29000 275.255
65.30000 278.378
65.31000 281.762
65.32000 285.655
65.33000 293.190
65.34000 301.442
65.35000 308.374
65.36000 303.293
65.37000 297.793
65.38000 296.831
65.39000 310.283
65.40000 324.803
65.41000 336.707
65.42000 342.856
65.43000 348.800
65.44000 352.395
65.45000 363.654
65.46000 371.734
65.47000 381.365
65.48000 392.568
65.49000 403.708
65.50000 407.980
65.51000 407.613
65.52000 407.255
65.53000 411.065
65.54000 416.572
65.55000 422.338
65.56000 431.725
65.57000 442.278
65.58000 451.598
65.59000 450.887
65.60000 447.973
65.61000 445.477
65.62000 468.155
65.63000 490.352
65.64000 508.958
65.65000 514.920
65.66000 519.781
65.67000 531.039
65.68000 557.854
65.69000 585.368
65.70000 602.724
65.71000 669.286
65.72000 718.053
65.73000 782.876
65.74000 865.956
65.75000 948.971
65.76000 1014.914
65.77000 1068.027
65.78000 1120.253
65.79000 1177.766
65.80000 1236.023
65.81000 1291.889
65.82000 1307.756
65.83000 1309.370
65.84000 1313.243
65.85000 1338.164
65.86000 1368.235
65.87000 1394.452
65.88000 1389.342
65.89000 1380.621
65.90000 1368.055
65.91000 1340.456
65.92000 1311.339
65.93000 1277.476
65.94000 1230.850
65.95000 1183.519
65.96000 1152.480
65.97000 1060.811
65.98000 992.388
65.99000 913.977
66.00000 822.872
66.01000 731.765
66.02000 663.065
66.03000 613.159
66.04000 563.839
66.05000 525.233
66.06000 493.524
66.07000 462.088
66.08000 436.201
66.09000 412.502
66.10000 389.732
66.11000 376.986
66.12000 366.963
66.13000 358.079
66.14000 353.891
66.15000 351.007
66.16000 348.479
66.17000 347.495
66.18000 346.692
66.19000 345.056
66.20000 340.943
66.21000 336.667
66.22000 333.759
66.23000 337.827
66.24000 341.022
66.25000 344.606
66.26000 348.740
66.27000 352.880
66.28000 362.487
66.29000 377.233
66.30000 391.865
66.31000 409.015
66.32000 427.435
66.33000 445.653
66.34000 458.730
66.35000 469.567
66.36000 480.263
66.37000 489.189
66.38000 497.580
66.39000 505.132
66.40000 508.932
66.41000 511.589
66.42000 514.937
66.43000 521.633
66.44000 528.772
66.45000 533.026
66.46000 527.767
66.47000 521.761
66.48000 517.538
66.49000 508.933
66.50000 502.285
66.51000 492.305
66.52000 477.081
66.53000 461.793
66.54000 443.875
66.55000 423.177
66.56000 402.570
66.57000 392.071
66.58000 388.697
66.59000 385.235
66.60000 378.920
66.61000 371.229
66.62000 363.658
66.63000 357.887
66.64000 352.717
66.65000 347.997
66.66000 345.593
66.67000 343.929
66.68000 342.471
66.69000 342.129
66.70000 341.955
66.71000 342.598
66.72000 346.222
66.73000 350.121
66.74000 352.949
66.75000 348.594
66.76000 344.979
66.77000 342.403
66.78000 341.643
66.79000 340.915
66.80000 343.054
66.81000 348.585
66.82000 354.112
66.83000 356.595
66.84000 356.702
66.85000 356.802
66.86000 356.617
66.87000 356.280
66.88000 355.884
66.89000 354.429
66.90000 352.582
66.91000 350.874
66.92000 352.976
66.93000 355.732
66.94000 358.162
66.95000 358.596
66.96000 358.691
66.97000 360.148
66.98000 367.130
66.99000 374.701
67.00000 380.356
67.01000 386.096
67.02000 390.574
67.03000 392.053
67.04000 387.736
67.05000 383.273
67.06000 377.800
67.07000 370.994
67.08000 364.186
67.09000 364.730
67.10000 371.681
67.11000 378.613
67.12000 384.357
67.13000 389.398
67.14000 394.287
67.15000 395.811
67.16000 395.961
67.17000 396.101
67.18000 400.078
67.19000 404.676
67.20000 409.440
67.21000 415.349
67.22000 421.477
67.23000 425.801
67.24000 421.974
67.25000 417.153
67.26000 413.453
67.27000 411.770
67.28000 410.552
67.29000 411.008
67.30000 415.040
67.31000 419.192
67.32000 422.704
67.33000 425.277
67.34000 427.841
67.35000 433.640
67.36000 442.607
67.37000 451.477
67.38000 451.153
67.39000 444.805
67.40000 438.752
67.41000 440.824
67.42000 446.566
67.43000 451.999
67.44000 447.610
67.45000 440.752
67.46000 435.184
67.47000 439.721
67.48000 446.410
67.49000 451.101
67.50000 445.705
67.51000 438.907
67.52000 433.555
67.53000 448.510
67.54000 461.848
67.55000 472.575
67.56000 477.135
67.57000 481.433
67.58000 480.888
67.59000 472.434
67.60000 463.867
67.61000 459.377
67.62000 466.044
67.63000 470.595
67.64000 480.365
67.65000 493.937
67.66000 507.080
67.67000 504.902
67.68000 495.068
67.69000 485.673
67.70000 492.941
67.71000 505.059
67.72000 516.005
67.73000 516.444
67.74000 514.391
67.75000 512.480
67.76000 511.374
67.77000 510.395
67.78000 509.606
67.79000 513.589
67.80000 517.199
67.81000 521.101
67.82000 525.767
67.83000 530.473
67.84000 535.831
67.85000 542.369
67.86000 548.932
67.87000 552.559
67.88000 550.206
67.89000 548.587
67.90000 552.319
67.91000 560.399
67.92000 568.344
67.93000 569.732
67.94000 567.493
67.95000 565.335
67.96000 565.506
67.97000 566.504
67.98000 568.435
67.99000 580.005
68.00000 594.119
68.01000 604.858
68.02000 594.096
68.03000 579.532
68.04000 567.528
68.05000 575.434
68.06000 583.772
68.07000 589.485
68.08000 587.610
68.09000 585.256
68.10000 590.821
68.11000 612.252
68.12000 634.126
68.13000 646.816
68.14000 640.152
68.15000 635.394
68.16000 633.850
68.17000 635.226
68.18000 636.647
68.19000 641.192
68.20000 647.652
68.21000 653.926
68.22000 661.847
68.23000 670.031
68.24000 678.108
68.25000 684.906
68.26000 691.329
68.27000 698.222
68.28000 708.506
68.29000 719.461
68.30000 728.678
68.31000 719.923
68.32000 710.707
68.33000 706.468
68.34000 718.157
68.35000 731.041
68.36000 740.186
68.37000 741.049
68.38000 741.610
68.39000 741.951
68.40000 763.464
68.41000 778.975
68.42000 786.757
68.43000 786.642
68.44000 786.602
68.45000 794.995
68.46000 809.129
68.47000 822.950
68.48000 834.223
68.49000 843.889
68.50000 854.247
68.51000 874.417
68.52000 897.768
68.53000 920.130
68.54000 934.367
68.55000 946.806
68.56000 957.473
68.57000 997.570
68.58000 1035.050
68.59000 1073.312
68.60000 1114.347
68.61000 1155.625
68.62000 1207.052
68.63000 1283.339
68.64000 1360.762
68.65000 1409.741
68.66000 1462.078
68.67000 1500.060
68.68000 1558.575
68.69000 1640.629
68.70000 1722.709
68.71000 1804.584
68.72000 1886.305
68.73000 1966.692
68.74000 2043.420
68.75000 2115.846
68.76000 2188.366
68.77000 2262.468
68.78000 2337.138
68.79000 2415.205
68.80000 2525.243
68.81000 2643.164
68.82000 2746.100
68.83000 2919.038
68.84000 3076.828
68.85000 3250.862
68.86000 3488.871
68.87000 3733.413
68.88000 4054.939
68.89000 4585.014
68.90000 5126.758
68.91000 5482.983
68.92000 7304.993
68.93000 8671.352
68.94000 10767.079
68.95000 13797.116
68.96000 16832.672
68.97000 21050.574
68.98000 26268.115
68.99000 31426.135
69.00000 37467.523
69.01000 43859.047
69.02000 50207.582
69.03000 55668.449
69.04000 60776.957
69.05000 65716.016
69.06000 68809.641
69.07000 71397.852
69.08000 73694.672
69.09000 74740.961
69.10000 75447.930
69.11000 76149.938
69.12000 76830.211
69.13000 77507.938
69.14000 78236.500
69.15000 79117.438
69.16000 80008.617
69.17000 80616.055
69.18000 80596.836
69.19000 80568.023
69.20000 79710.102
69.21000 77669.242
69.22000 75619.211
69.23000 72416.844
69.24000 68122.703
69.25000 63860.234
69.26000 59807.762
69.27000 55953.461
69.28000 52133.211
69.29000 49189.691
69.30000 46630.973
69.31000 44144.117
69.32000 42572.336
69.33000 41278.465
69.34000 40112.656
69.35000 38973.445
69.36000 37978.773
69.37000 36877.668
69.38000 35255.934
69.39000 33564.512
69.40000 31621.365
69.41000 28842.611
69.42000 25997.389
69.43000 23992.104
69.44000 19945.412
69.45000 16815.158
69.46000 14026.659
69.47000 11779.871
69.48000 9539.905
69.49000 7759.617
69.50000 6468.964
69.51000 5183.876
69.52000 4304.515
69.53000 3717.897
69.54000 3138.096
69.55000 2783.888
69.56000 2539.181
69.57000 2299.487
69.58000 2135.403
69.59000 1996.748
69.60000 1870.052
69.61000 1776.817
69.62000 1700.849
69.63000 1625.995
69.64000 1557.243
69.65000 1489.417
69.66000 1425.339
69.67000 1375.057
69.68000 1326.057
69.69000 1290.429
69.70000 1248.198
69.71000 1215.458
69.72000 1185.844
69.73000 1161.727
69.74000 1137.712
69.75000 1111.311
69.76000 1082.062
69.77000 1052.864
69.78000 1026.587
69.79000 1002.729
69.80000 979.038
69.81000 962.783
69.82000 950.522
69.83000 937.871
69.84000 918.126
69.85000 895.743
69.86000 875.024
69.87000 861.982
69.88000 852.025
69.89000 841.261
69.90000 825.527
69.91000 808.943
69.92000 795.162
69.93000 792.849
69.94000 791.768
69.95000 790.958
69.96000 775.634
69.97000 762.998
69.98000 754.309
69.99000 753.302
70.00000 752.492
