20.00000 553.440
20.01000 558.392
20.02000 564.052
20.03000 569.956
20.04000 576.834
20.05000 583.815
20.06000 589.008
20.07000 578.786
20.08000 570.146
20.09000 565.893
20.10000 569.993
20.11000 574.294
20.12000 573.014
20.13000 564.474
20.14000 555.911
20.15000 553.604
20.16000 556.663
20.17000 559.661
20.18000 559.103
20.19000 556.476
20.20000 553.990
20.21000 554.497
20.22000 556.209
20.23000 557.809
20.24000 552.159
20.25000 545.207
20.26000 539.245
20.27000 539.996
20.28000 542.004
20.29000 546.088
20.30000 559.413
20.31000 573.842
20.32000 584.876
20.33000 567.926
20.34000 553.035
20.35000 544.742
20.36000 550.344
20.37000 556.391
20.38000 558.758
20.39000 555.797
20.40000 552.793
20.41000 554.892
20.42000 561.903
20.43000 568.815
20.44000 566.982
20.45000 559.505
20.46000 552.365
20.47000 554.166
20.48000 559.947
20.49000 565.407
20.50000 560.599
20.51000 553.284
20.52000 545.411
20.53000 533.258
20.54000 520.209
20.55000 512.468
20.56000 531.092
20.57000 553.309
20.58000 570.740
20.59000 556.899
20.60000 543.797
20.61000 535.305
20.62000 537.549
20.63000 540.232
20.64000 544.878
20.65000 552.682
20.66000 560.528
20.67000 564.607
20.68000 570.522
20.69000 574.498
20.70000 575.472
20.71000 574.291
20.72000 572.930
20.73000 565.357
20.74000 554.727
20.75000 544.587
20.76000 546.885
20.77000 552.957
20.78000 557.992
20.79000 553.918
20.80000 547.716
20.81000 542.918
20.82000 545.935
20.83000 550.158
20.84000 553.551
20.85000 563.032
20.86000 571.186
20.87000 578.890
20.88000 585.440
20.89000 591.930
20.90000 591.769
20.91000 579.750
20.92000 567.499
20.93000 560.779
20.94000 564.900
20.95000 567.735
20.96000 565.106
20.97000 558.109
20.98000 551.180
20.99000 547.342
21.00000 545.189
21.01000 543.117
21.02000 543.092
21.03000 543.792
21.04000 543.997
21.05000 539.192
21.06000 533.085
21.07000 528.386
21.08000 532.496
21.09000 538.138
21.10000 542.773
21.11000 540.947
21.12000 538.866
21.13000 538.130
21.14000 541.225
21.15000 544.555
21.16000 548.554
21.17000 553.874
21.18000 559.229
21.19000 562.314
21.20000 559.669
21.21000 557.797
21.22000 558.242
21.23000 560.759
21.24000 563.278
21.25000 565.896
21.26000 568.575
21.27000 571.174
21.28000 571.146
21.29000 570.079
21.30000 569.075
21.31000 568.798
21.32000 568.731
21.33000 567.820
21.34000 560.932
21.35000 552.878
21.36000 546.122
21.37000 549.972
21.38000 554.284
21.39000 558.981
21.40000 564.896
21.41000 570.899
21.42000 572.624
21.43000 565.007
21.44000 557.063
21.45000 552.273
21.46000 561.931
21.47000 568.907
21.48000 572.040
21.49000 571.312
21.50000 570.608
21.51000 572.506
21.52000 576.147
21.53000 579.703
21.54000 578.967
21.55000 576.365
21.56000 573.529
21.57000 567.446
21.58000 560.326
21.59000 554.581
21.60000 559.907
21.61000 567.645
21.62000 574.262
21.63000 571.260
21.64000 567.572
21.65000 566.053
21.66000 572.114
21.67000 578.828
21.68000 584.656
21.69000 588.349
21.70000 591.947
21.71000 594.210
21.72000 588.784
21.73000 584.773
21.74000 583.103
21.75000 584.073
21.76000 585.064
21.77000 589.680
21.78000 596.998
21.79000 604.190
21.80000 616.129
21.81000 630.011
21.82000 643.457
21.83000 649.716
21.84000 653.434
21.85000 656.710
21.86000 655.909
21.87000 654.117
21.88000 652.558
21.89000 659.339
21.90000 666.278
21.91000 673.541
21.92000 682.063
21.93000 690.711
21.94000 697.202
21.95000 697.936
21.96000 698.357
21.97000 698.633
21.98000 718.347
21.99000 733.144
22.00000 748.830
22.01000 765.638
22.02000 782.418
22.03000 784.394
22.04000 774.057
22.05000 763.845
22.06000 762.941
22.07000 767.187
22.08000 771.250
22.09000 771.649
22.10000 770.615
22.11000 769.592
22.12000 768.680
22.13000 767.798
22.14000 767.017
22.15000 761.728
22.16000 756.446
22.17000 749.707
22.18000 736.682
22.19000 722.935
22.20000 712.539
22.21000 712.045
22.22000 712.199
22.23000 712.303
22.24000 697.196
22.25000 685.593
22.26000 679.985
22.27000 682.797
22.28000 685.665
22.29000 678.516
22.30000 662.038
22.31000 645.690
22.32000 638.672
22.33000 637.519
22.34000 636.378
22.35000 635.512
22.36000 634.766
22.37000 633.909
22.38000 631.677
22.39000 629.032
22.40000 626.654
22.41000 617.502
22.42000 608.283
22.43000 599.875
22.44000 595.371
22.45000 591.381
22.46000 588.696
22.47000 590.279
22.48000 592.195
22.49000 593.538
22.50000 579.732
22.51000 568.845
22.52000 563.314
22.53000 566.144
22.54000 569.072
22.55000 571.655
22.56000 573.878
22.57000 576.090
22.58000 577.761
22.59000 579.043
22.60000 579.917
22.61000 567.831
22.62000 549.546
22.63000 532.493
22.64000 533.545
22.65000 540.596
22.66000 547.026
22.67000 540.677
22.68000 532.482
22.69000 526.208
22.70000 530.282
22.71000 535.898
22.72000 540.757
22.73000 542.870
22.74000 544.733
22.75000 546.082
22.76000 548.340
22.77000 550.108
22.78000 547.328
22.79000 536.676
22.80000 525.884
22.81000 520.020
22.82000 519.942
22.83000 519.872
22.84000 522.301
22.85000 526.641
22.86000 530.825
22.87000 528.434
22.88000 522.564
22.89000 516.925
22.90000 515.389
22.91000 515.357
22.92000 515.327
22.93000 515.083
22.94000 514.815
22.95000 514.513
22.96000 514.004
22.97000 513.461
22.98000 514.084
22.99000 519.403
23.00000 525.217
23.01000 529.551
23.02000 522.965
23.03000 517.341
23.04000 514.076
23.05000 515.332
23.06000 516.699
23.07000 516.406
23.08000 513.933
23.09000 511.453
23.10000 509.447
23.11000 507.854
23.12000 506.409
23.13000 513.766
23.14000 526.284
23.15000 538.274
23.16000 538.886
23.17000 534.886
23.18000 531.145
23.19000 526.311
23.20000 521.644
23.21000 517.725
23.22000 518.916
23.23000 521.070
23.24000 521.743
23.25000 515.772
23.26000 508.998
23.27000 503.808
23.28000 519.577
23.29000 533.182
23.30000 538.715
23.31000 527.126
23.32000 514.979
23.33000 509.390
23.34000 513.370
23.35000 517.431
23.36000 519.322
23.37000 519.105
23.38000 518.856
23.39000 515.692
23.40000 510.633
23.41000 505.796
23.42000 507.003
23.43000 510.920
23.44000 514.622
23.45000 504.554
23.46000 491.382
23.47000 480.888
23.48000 491.174
23.49000 505.847
23.50000 518.603
23.51000 521.762
23.52000 523.602
23.53000 525.049
23.54000 512.474
23.55000 501.485
23.56000 494.287
23.57000 495.979
23.58000 498.041
23.59000 503.300
23.60000 513.737
23.61000 524.246
23.62000 529.732
23.63000 518.599
23.64000 511.109
23.65000 510.714
23.66000 515.449
23.67000 519.945
23.68000 516.061
23.69000 508.022
23.70000 500.348
23.71000 500.593
23.72000 503.347
23.73000 506.492
23.74000 513.104
23.75000 520.533
23.76000 525.608
23.77000 517.476
23.78000 507.287
23.79000 499.087
23.80000 508.542
23.81000 517.586
23.82000 520.738
23.83000 508.611
23.84000 495.698
23.85000 491.544
23.86000 503.120
23.87000 515.013
23.88000 521.559
23.89000 518.740
23.90000 516.773
23.91000 511.325
23.92000 503.073
23.93000 495.073
23.94000 499.031
23.95000 509.551
23.96000 519.683
23.97000 514.399
23.98000 503.935
23.99000 494.016
24.00000 489.663
24.01000 486.766
24.02000 484.845
24.03000 489.082
24.04000 494.399
24.05000 498.774
24.06000 502.196
24.07000 504.922
24.08000 507.150
24.09000 507.950
24.10000 508.661
24.11000 507.018
24.12000 500.696
24.13000 494.247
24.14000 490.518
24.15000 502.868
24.16000 511.587
24.17000 516.590
24.18000 518.242
24.19000 519.838
24.20000 517.485
24.21000 512.732
24.22000 508.118
24.23000 507.227
24.24000 507.866
24.25000 508.560
24.26000 509.906
24.27000 511.443
24.28000 510.961
24.29000 496.061
24.30000 478.327
24.31000 463.429
24.32000 477.691
24.33000 492.648
24.34000 501.497
24.35000 490.952
24.36000 478.971
24.37000 471.458
24.38000 473.771
24.39000 476.435
24.40000 478.046
24.41000 487.819
24.42000 494.844
24.43000 500.465
24.44000 504.666
24.45000 508.874
24.46000 513.810
24.47000 519.238
24.48000 524.544
24.49000 514.082
24.50000 497.036
24.51000 481.186
24.52000 482.066
24.53000 488.330
24.54000 494.412
24.55000 499.018
24.56000 503.298
24.57000 506.964
24.58000 500.031
24.59000 492.893
24.60000 487.939
24.61000 490.673
24.62000 494.077
24.63000 495.309
24.64000 491.261
24.65000 486.977
24.66000 484.275
24.67000 488.212
24.68000 491.139
24.69000 491.906
24.70000 490.216
24.71000 488.542
24.72000 490.508
24.73000 495.207
24.74000 499.828
24.75000 494.523
24.76000 484.456
24.77000 474.935
24.78000 474.518
24.79000 477.345
24.80000 479.900
24.81000 479.921
24.82000 479.322
24.83000 478.800
24.84000 483.668
24.85000 488.577
24.86000 491.372
24.87000 485.904
24.88000 479.600
24.89000 476.555
24.90000 482.269
24.91000 488.465
24.92000 492.529
24.93000 491.482
24.94000 490.627
24.95000 490.366
24.96000 490.858
24.97000 491.343
24.98000 487.032
24.99000 478.701
25.00000 470.468
25.01000 471.344
25.02000 477.257
25.03000 482.567
25.04000 475.610
25.05000 463.819
25.06000 453.300
25.07000 456.473
25.08000 463.367
25.09000 469.478
25.10000 474.356
25.11000 478.384
25.12000 481.708
25.13000 481.969
25.14000 481.875
25.15000 480.369
25.16000 474.663
25.17000 468.678
25.18000 464.609
25.19000 471.379
25.20000 476.678
25.21000 480.685
25.22000 482.863
25.23000 485.027
25.24000 482.137
25.25000 474.502
25.26000 466.926
25.27000 467.119
25.28000 472.130
25.29000 477.080
25.30000 480.479
25.31000 483.202
25.32000 485.698
25.33000 485.338
25.34000 484.118
25.35000 483.019
25.36000 482.437
25.37000 482.019
25.38000 482.206
25.39000 485.328
25.40000 488.839
25.41000 489.733
25.42000 482.007
25.43000 473.603
25.44000 467.694
25.45000 471.442
25.46000 474.565
25.47000 477.232
25.48000 479.178
25.49000 481.116
25.50000 479.142
25.51000 473.037
25.52000 466.958
25.53000 466.694
25.54000 470.467
25.55000 474.096
25.56000 473.047
25.57000 469.744
25.58000 466.649
25.59000 466.640
25.60000 467.661
25.61000 468.593
25.62000 470.747
25.63000 472.906
25.64000 475.079
25.65000 477.323
25.66000 479.578
25.67000 479.120
25.68000 468.753
25.69000 457.475
25.70000 449.293
25.71000 457.758
25.72000 464.883
25.73000 468.875
25.74000 467.402
25.75000 465.829
25.76000 464.918
25.77000 464.791
25.78000 464.664
25.79000 465.657
25.80000 467.514
25.81000 469.478
25.82000 476.063
25.83000 485.113
25.84000 493.376
25.85000 487.593
25.86000 476.623
25.87000 466.479
25.88000 456.213
25.89000 446.966
25.90000 439.694
25.91000 444.478
25.92000 451.305
25.93000 456.246
25.94000 453.533
25.95000 450.007
25.96000 447.373
25.97000 463.402
25.98000 476.755
25.99000 483.392
26.00000 477.060
26.01000 470.401
26.02000 468.936
26.03000 474.332
26.04000 479.757
26.05000 478.178
26.06000 470.500
26.07000 462.885
26.08000 459.204
26.09000 457.845
26.10000 456.514
26.11000 455.814
26.12000 455.372
26.13000 454.958
26.14000 457.588
26.15000 460.757
26.16000 464.244
26.17000 469.923
26.18000 476.019
26.19000 480.219
26.20000 475.853
26.21000 470.442
26.22000 466.289
26.23000 459.884
26.24000 454.696
26.25000 454.005
26.26000 462.924
26.27000 472.161
26.28000 474.555
26.29000 466.887
26.30000 459.130
26.31000 450.892
26.32000 442.184
26.33000 433.599
26.34000 436.602
26.35000 447.198
26.36000 457.456
26.37000 458.396
26.38000 455.128
26.39000 452.036
26.40000 445.333
26.41000 438.134
26.42000 432.591
26.43000 440.024
26.44000 450.218
26.45000 458.430
26.46000 456.640
26.47000 453.463
26.48000 450.962
26.49000 464.383
26.50000 476.199
26.51000 483.332
26.52000 479.401
26.53000 475.003
26.54000 469.417
26.55000 461.892
26.56000 454.339
26.57000 450.382
26.58000 451.717
26.59000 452.616
26.60000 452.189
26.61000 450.797
26.62000 449.737
26.63000 460.574
26.64000 477.351
26.65000 493.378
26.66000 482.784
26.67000 464.370
26.68000 447.360
26.69000 442.911
26.70000 441.442
26.71000 441.234
26.72000 448.163
26.73000 456.213
26.74000 462.702
26.75000 447.577
26.76000 433.593
26.77000 426.803
26.78000 438.805
26.79000 451.787
26.80000 455.592
26.81000 442.794
26.82000 429.655
26.83000 422.396
26.84000 435.331
26.85000 444.281
26.86000 449.877
26.87000 452.750
26.88000 455.577
26.89000 456.165
26.90000 455.516
26.91000 454.891
26.92000 444.921
26.93000 432.189
26.94000 420.661
26.95000 421.568
26.96000 425.754
26.97000 429.711
26.98000 432.207
26.99000 434.446
27.00000 436.291
27.01000 437.599
27.02000 438.627
27.03000 441.272
27.04000 448.595
27.05000 456.212
27.06000 462.374
27.07000 465.622
27.08000 468.789
27.09000 470.626
27.10000 463.126
27.11000 457.825
27.12000 457.312
27.13000 461.150
27.14000 464.895
27.15000 462.116
27.16000 455.341
27.17000 448.760
27.18000 448.444
27.19000 450.661
27.20000 452.299
27.21000 446.983
27.22000 439.632
27.23000 433.217
27.24000 433.551
27.25000 435.222
27.26000 436.628
27.27000 434.555
27.28000 432.455
27.29000 432.469
27.30000 439.243
27.31000 446.525
27.32000 450.997
27.33000 449.246
27.34000 447.270
27.35000 446.071
27.36000 438.942
27.37000 433.811
27.38000 432.646
27.39000 435.532
27.40000 438.366
27.41000 435.419
27.42000 428.539
27.43000 421.811
27.44000 428.721
27.45000 441.469
27.46000 453.682
27.47000 458.336
27.48000 460.538
27.49000 461.611
27.50000 453.420
27.51000 443.180
27.52000 434.399
27.53000 442.045
27.54000 450.518
27.55000 455.967
27.56000 450.698
27.57000 444.485
27.58000 440.229
27.59000 440.765
27.60000 441.521
27.61000 441.998
27.62000 434.718
27.63000 429.349
27.64000 427.026
27.65000 428.194
27.66000 429.365
27.67000 430.158
27.68000 430.664
27.69000 431.163
27.70000 427.999
27.71000 423.102
27.72000 418.995
27.73000 428.281
27.74000 442.372
27.75000 455.012
27.76000 453.990
27.77000 449.601
27.78000 445.770
27.79000 444.992
27.80000 444.753
27.81000 443.402
27.82000 437.667
27.83000 431.484
27.84000 428.494
27.85000 434.149
27.86000 440.287
27.87000 444.323
27.88000 447.630
27.89000 450.052
27.90000 449.526
27.91000 445.224
27.92000 440.908
27.93000 437.088
27.94000 433.687
27.95000 430.324
27.96000 430.401
27.97000 432.402
27.98000 434.270
27.99000 433.398
28.00000 431.438
28.01000 429.545
28.02000 428.391
28.03000 427.438
28.04000 426.592
28.05000 438.287
28.06000 450.422
28.07000 460.007
28.08000 458.420
28.09000 455.523
28.10000 451.244
28.11000 442.829
28.12000 434.135
28.13000 428.210
28.14000 433.182
28.15000 437.149
28.16000 439.194
28.17000 438.500
28.18000 437.784
28.19000 435.343
28.20000 431.268
28.21000 427.223
28.22000 424.788
28.23000 423.399
28.24000 422.072
28.25000 422.313
28.26000 423.242
28.27000 424.351
28.28000 427.737
28.29000 431.815
28.30000 435.490
28.31000 430.316
28.32000 424.178
28.33000 418.592
28.34000 415.715
28.35000 413.201
28.36000 413.606
28.37000 423.704
28.38000 434.572
28.39000 442.231
28.40000 439.341
28.41000 436.833
28.42000 435.585
28.43000 436.335
28.44000 437.109
28.45000 435.935
28.46000 432.688
28.47000 429.454
28.48000 425.307
28.49000 420.564
28.50000 415.808
28.51000 410.603
28.52000 405.181
28.53000 400.547
28.54000 407.804
28.55000 419.058
28.56000 429.342
28.57000 429.553
28.58000 427.684
28.59000 425.985
28.60000 425.221
28.61000 424.599
28.62000 422.906
28.63000 417.269
28.64000 411.266
28.65000 406.901
28.66000 407.677
28.67000 408.468
28.68000 411.586
28.69000 418.789
28.70000 426.070
28.71000 428.270
28.72000 424.413
28.73000 420.551
28.74000 418.266
28.75000 417.226
28.76000 416.111
28.77000 411.667
28.78000 405.437
28.79000 399.785
28.80000 404.642
28.81000 413.408
28.82000 421.521
28.83000 423.414
28.84000 423.685
28.85000 423.303
28.86000 418.899
28.87000 413.807
28.88000 408.527
28.89000 402.482
28.90000 396.353
28.91000 391.767
28.92000 401.568
28.93000 409.887
28.94000 414.719
28.95000 412.766
28.96000 410.639
28.97000 413.654
28.98000 423.515
28.99000 433.405
29.00000 430.983
29.01000 417.749
29.02000 404.732
29.03000 405.398
29.04000 414.204
29.05000 422.637
29.06000 422.773
29.07000 419.495
29.08000 416.425
29.09000 426.613
29.10000 439.305
29.11000 449.503
29.12000 442.357
29.13000 431.883
29.14000 422.634
29.15000 418.962
29.16000 415.976
29.17000 413.680
29.18000 417.331
29.19000 420.555
29.20000 421.158
29.21000 416.118
29.22000 410.887
29.23000 408.662
29.24000 410.888
29.25000 413.155
29.26000 417.802
29.27000 424.800
29.28000 431.687
29.29000 427.715
29.30000 416.574
29.31000 405.911
29.32000 408.628
29.33000 417.430
29.34000 425.763
29.35000 424.837
29.36000 421.303
29.37000 417.525
29.38000 411.812
29.39000 405.684
29.40000 400.681
29.41000 401.404
29.42000 402.929
29.43000 404.132
29.44000 404.016
29.45000 403.834
29.46000 404.312
29.47000 406.359
29.48000 408.473
29.49000 408.892
29.50000 406.520
29.51000 404.108
29.52000 402.839
29.53000 403.610
29.54000 404.117
29.55000 401.560
29.56000 396.755
29.57000 392.212
29.58000 397.227
29.59000 407.052
29.60000 416.443
29.61000 419.431
29.62000 420.134
29.63000 420.726
29.64000 420.306
29.65000 419.645
29.66000 418.989
29.67000 418.358
29.68000 417.732
29.69000 417.226
29.70000 414.050
29.71000 411.255
29.72000 410.454
29.73000 414.896
29.74000 419.615
29.75000 421.676
29.76000 418.893
29.77000 416.007
29.78000 414.408
29.79000 424.389
29.80000 431.286
29.81000 430.428
29.82000 423.222
29.83000 416.165
29.84000 416.522
29.85000 421.009
29.86000 425.335
29.87000 426.051
29.88000 425.416
29.89000 424.752
29.90000 423.791
29.91000 422.751
29.92000 423.585
29.93000 436.461
29.94000 451.483
29.95000 463.883
29.96000 452.170
29.97000 440.280
29.98000 435.406
29.99000 450.953
30.00000 467.804
30.01000 476.086
30.02000 467.087
30.03000 457.594
30.04000 452.070
30.05000 454.215
30.06000 455.758
30.07000 459.688
30.08000 465.805
30.09000 471.862
30.10000 473.497
30.11000 472.403
30.12000 471.340
30.13000 467.968
30.14000 463.828
30.15000 459.195
30.16000 448.558
30.17000 436.151
30.18000 425.782
30.19000 430.238
30.20000 437.654
30.21000 443.903
30.22000 441.530
30.23000 438.622
30.24000 435.948
30.25000 434.026
30.26000 432.160
30.27000 431.760
30.28000 434.628
30.29000 437.617
30.30000 439.436
30.31000 437.796
30.32000 436.597
30.33000 438.884
30.34000 444.762
30.35000 450.608
30.36000 452.713
30.37000 452.255
30.38000 451.806
30.39000 445.501
30.40000 436.801
30.41000 428.472
30.42000 425.459
30.43000 424.184
30.44000 423.074
30.45000 423.345
30.46000 423.924
30.47000 424.421
30.48000 436.169
30.49000 447.495
30.50000 454.868
30.51000 448.120
30.52000 440.115
30.53000 434.913
30.54000 436.620
30.55000 438.648
30.56000 439.934
30.57000 438.730
30.58000 437.825
30.59000 436.514
30.60000 434.734
30.61000 432.983
30.62000 438.084
30.63000 448.413
30.64000 458.578
30.65000 456.889
30.66000 449.266
30.67000 442.362
30.68000 447.808
30.69000 457.719
30.70000 466.641
30.71000 466.178
30.72000 463.384
30.73000 460.942
30.74000 468.432
30.75000 476.253
30.76000 482.510
30.77000 482.567
30.78000 481.984
30.79000 481.729
30.80000 482.368
30.81000 483.057
30.82000 483.511
30.83000 484.311
30.84000 484.906
30.85000 485.407
30.86000 485.784
30.87000 486.170
30.88000 491.704
30.89000 501.625
30.90000 511.436
30.91000 516.118
30.92000 517.797
30.93000 519.740
30.94000 527.211
30.95000 536.891
30.96000 546.735
30.97000 558.383
30.98000 570.530
30.99000 581.321
31.00000 594.097
31.01000 605.497
31.02000 618.229
31.03000 636.844
31.04000 656.156
31.05000 677.322
31.06000 704.084
31.07000 731.226
31.08000 749.771
31.09000 786.359
31.10000 814.156
31.11000 852.011
31.12000 904.321
31.13000 956.745
31.14000 1015.025
31.15000 1078.895
31.16000 1142.311
31.17000 1217.901
31.18000 1299.956
31.19000 1382.654
31.20000 1482.182
31.21000 1589.147
31.22000 1696.389
31.23000 1807.198
31.24000 1919.099
31.25000 2020.024
31.26000 2144.702
31.27000 2258.514
31.28000 2370.947
31.29000 2476.581
31.30000 2581.297
31.31000 2687.431
31.32000 2798.304
31.33000 2909.559
31.34000 2988.143
31.35000 3111.332
31.36000 3206.213
31.37000 3275.691
31.38000 3304.617
31.39000 3333.016
31.40000 3338.399
31.41000 3319.071
31.42000 3299.813
31.43000 3284.102
31.44000 3271.043
31.45000 3256.666
31.46000 3197.807
31.47000 3117.208
31.48000 3035.453
31.49000 2936.042
31.50000 2830.652
31.51000 2734.263
31.52000 2589.337
31.53000 2450.513
31.54000 2316.166
31.55000 2206.532
31.56000 2100.680
31.57000 1992.057
31.58000 1873.159
31.59000 1753.297
31.60000 1665.966
31.61000 1555.225
31.62000 1469.042
31.63000 1384.132
31.64000 1301.475
31.65000 1218.862
31.66000 1156.642
31.67000 1118.944
31.68000 1081.365
31.69000 1028.207
31.70000 962.995
31.71000 898.176
31.72000 851.170
31.73000 813.800
31.74000 777.445
31.75000 759.771
31.76000 749.095
31.77000 739.206
31.78000 718.165
31.79000 696.650
31.80000 675.074
31.81000 653.129
31.82000 631.120
31.83000 611.405
31.84000 601.145
31.85000 591.911
31.86000 584.985
31.87000 554.693
31.88000 529.926
31.89000 512.731
31.90000 510.372
31.91000 508.404
31.92000 505.069
31.93000 499.902
31.94000 494.727
31.95000 488.580
31.96000 481.580
31.97000 474.598
31.98000 468.779
31.99000 463.656
32.00000 458.591
32.01000 454.820
32.02000 451.587
32.03000 448.557
32.04000 441.477
32.05000 433.977
32.06000 427.107
32.07000 424.650
32.08000 423.047
32.09000 422.023
32.10000 423.652
32.11000 425.612
32.12000 427.122
32.13000 432.676
32.14000 437.306
32.15000 438.401
32.16000 431.834
32.17000 425.002
32.18000 418.661
32.19000 413.052
32.20000 407.451
32.21000 408.316
32.22000 415.621
32.23000 422.829
32.24000 420.282
32.25000 411.248
32.26000 402.376
32.27000 398.161
32.28000 396.080
32.29000 394.108
32.30000 400.352
32.31000 408.502
32.32000 414.892
32.33000 407.239
32.34000 396.551
32.35000 387.355
32.36000 385.812
32.37000 385.350
32.38000 384.985
32.39000 388.134
32.40000 390.902
32.41000 393.579
32.42000 396.036
32.43000 398.484
32.44000 398.718
32.45000 395.282
32.46000 391.790
32.47000 389.946
32.48000 382.071
32.49000 376.756
32.50000 377.907
32.51000 383.842
32.52000 389.768
32.53000 395.353
32.54000 400.766
32.55000 405.943
32.56000 408.445
32.57000 409.900
32.58000 410.772
32.59000 406.327
32.60000 400.601
32.61000 393.874
32.62000 381.389
32.63000 367.984
32.64000 357.141
32.65000 370.356
32.66000 383.044
32.67000 390.141
32.68000 382.418
32.69000 373.900
32.70000 371.821
32.71000 381.563
32.72000 391.559
32.73000 397.122
32.74000 399.691
32.75000 401.446
32.76000 396.713
32.77000 386.624
32.78000 376.768
32.79000 378.759
32.80000 387.397
32.81000 395.730
32.82000 397.966
32.83000 397.840
32.84000 397.786
32.85000 398.476
32.86000 399.367
32.87000 399.969
32.88000 398.702
32.89000 397.099
32.90000 395.775
32.91000 391.096
32.92000 386.923
32.93000 385.907
32.94000 394.149
32.95000 402.990
32.96000 407.680
32.97000 403.937
32.98000 399.948
32.99000 397.619
33.00000 390.744
33.01000 385.888
33.02000 383.555
33.03000 383.553
33.04000 383.512
33.05000 380.515
33.06000 375.679
33.07000 370.978
33.08000 374.498
33.09000 381.202
33.10000 386.976
33.11000 381.306
33.12000 372.237
33.13000 364.000
33.14000 361.875
33.15000 360.980
33.16000 360.225
33.17000 361.272
33.18000 362.342
33.19000 362.684
33.20000 360.661
33.21000 358.457
33.22000 355.639
33.23000 351.442
33.24000 347.193
33.25000 344.600
33.26000 349.017
33.27000 352.233
33.28000 353.678
33.29000 353.282
33.30000 352.873
33.31000 350.824
33.32000 347.642
33.33000 344.527
33.34000 347.092
33.35000 352.144
33.36000 356.743
33.37000 354.752
33.38000 350.592
33.39000 346.585
33.40000 343.844
33.41000 341.388
33.42000 339.277
33.43000 342.768
33.44000 346.423
33.45000 349.166
33.46000 348.630
33.47000 347.799
33.48000 347.535
33.49000 348.681
33.50000 349.894
33.51000 350.665
33.52000 359.907
33.53000 366.727
33.54000 362.454
33.55000 345.260
33.56000 328.118
33.57000 327.796
33.58000 340.407
33.59000 352.822
33.60000 352.721
33.61000 346.251
33.62000 339.953
33.63000 336.658
33.64000 334.455
33.65000 333.060
33.66000 339.426
33.67000 347.733
33.68000 355.002
33.69000 355.722
33.70000 355.403
33.71000 354.040
33.72000 348.498
33.73000 342.521
33.74000 338.947
33.75000 341.979
33.76000 345.390
33.77000 347.645
33.78000 338.688
33.79000 331.880
33.80000 331.086
33.81000 338.116
33.82000 345.168
33.83000 345.295
33.84000 339.475
33.85000 333.717
33.86000 336.844
33.87000 344.953
33.88000 352.597
33.89000 350.345
33.90000 344.109
33.91000 337.956
33.92000 332.727
33.93000 327.756
33.94000 323.334
33.95000 329.034
33.96000 335.626
33.97000 340.902
33.98000 340.317
33.99000 339.032
34.00000 338.210
34.01000 338.797
34.02000 339.480
34.03000 339.949
34.04000 346.336
34.05000 351.262
34.06000 349.575
34.07000 338.312
34.08000 326.972
34.09000 326.512
34.10000 336.529
34.11000 346.478
34.12000 351.892
34.13000 354.339
34.14000 356.522
34.15000 351.691
34.16000 343.737
34.17000 336.463
34.18000 338.039
34.19000 342.341
34.20000 346.226
34.21000 346.849
34.22000 346.796
34.23000 345.805
34.24000 340.152
34.25000 333.864
34.26000 329.275
34.27000 330.405
34.28000 332.002
34.29000 333.132
34.30000 336.017
34.31000 338.264
34.32000 339.517
34.33000 339.172
34.34000 338.805
34.35000 337.446
34.36000 335.011
34.37000 332.586
34.38000 333.607
34.39000 337.067
34.40000 340.430
34.41000 340.449
34.42000 338.821
34.43000 337.012
34.44000 332.386
34.45000 326.799
34.46000 321.684
34.47000 326.749
34.48000 333.370
34.49000 338.092
34.50000 332.242
34.51000 324.761
34.52000 319.152
34.53000 320.541
34.54000 322.594
34.55000 324.092
34.56000 328.605
34.57000 332.201
34.58000 334.969
34.59000 336.259
34.60000 337.520
34.61000 337.975
34.62000 337.454
34.63000 336.931
34.64000 332.331
34.65000 324.505
34.66000 316.884
34.67000 318.796
34.68000 325.902
34.69000 332.787
34.70000 335.556
34.71000 336.772
34.72000 337.899
34.73000 336.909
34.74000 335.523
34.75000 334.369
34.76000 334.672
34.77000 335.228
34.78000 334.839
34.79000 330.526
34.80000 325.784
34.81000 322.221
34.82000 318.255
34.83000 315.134
34.84000 315.953
34.85000 324.548
34.86000 333.351
34.87000 336.342
34.88000 331.474
34.89000 326.565
34.90000 322.627
34.91000 319.562
34.92000 316.525
34.93000 315.396
34.94000 315.418
34.95000 315.241
34.96000 310.494
34.97000 303.839
34.98000 297.596
34.99000 305.388
35.00000 316.174
35.01000 325.020
35.02000 320.132
35.03000 312.565
35.04000 308.029
35.05000 317.516
35.06000 328.762
35.07000 337.442
35.08000 343.545
35.09000 348.234
35.10000 349.270
35.11000 342.333
35.12000 335.116
35.13000 329.054
35.14000 324.730
35.15000 320.423
35.16000 318.265
35.17000 329.980
35.18000 337.685
35.19000 333.845
35.20000 322.269
35.21000 311.114
35.22000 312.183
35.23000 318.893
35.24000 325.254
35.25000 322.692
35.26000 317.702
35.27000 313.709
35.28000 317.738
35.29000 323.515
35.30000 328.381
35.31000 328.533
35.32000 328.013
35.33000 327.602
35.34000 323.454
35.35000 319.862
35.36000 315.721
35.37000 310.258
35.38000 304.736
35.39000 304.340
35.40000 312.501
35.41000 320.794
35.42000 325.191
35.43000 313.579
35.44000 305.710
35.45000 304.892
35.46000 309.331
35.47000 313.631
35.48000 312.649
35.49000 308.970
35.50000 305.449
35.51000 310.301
35.52000 317.583
35.53000 324.128
35.54000 323.885
35.55000 321.995
35.56000 319.934
35.57000 316.885
35.58000 313.677
35.59000 311.078
35.60000 314.117
35.61000 317.052
35.62000 316.561
35.63000 306.929
35.64000 296.799
35.65000 294.421
35.66000 306.378
35.67000 318.651
35.68000 325.505
35.69000 318.549
35.70000 313.705
35.71000 310.737
35.72000 309.329
35.73000 307.934
35.74000 307.210
35.75000 306.866
35.76000 306.533
35.77000 310.716
35.78000 316.320
35.79000 320.836
35.80000 313.751
35.81000 303.538
35.82000 295.058
35.83000 297.908
35.84000 302.811
35.85000 306.870
35.86000 305.270
35.87000 303.413
35.88000 304.049
35.89000 312.049
35.90000 320.531
35.91000 322.947
35.92000 312.948
35.93000 302.581
35.94000 296.507
35.95000 306.608
35.96000 313.799
35.97000 314.317
35.98000 308.618
35.99000 302.980
36.00000 301.973
36.01000 303.869
36.02000 305.713
36.03000 304.707
36.04000 302.577
36.05000 300.751
36.06000 302.703
36.07000 305.786
36.08000 308.363
36.09000 307.191
36.10000 305.259
36.11000 303.626
36.12000 304.350
36.13000 305.214
36.14000 306.155
36.15000 307.347
36.16000 308.560
36.17000 308.993
36.18000 307.661
36.19000 306.262
36.20000 305.406
36.21000 311.259
36.22000 315.506
36.23000 314.250
36.24000 307.230
36.25000 300.257
36.26000 299.313
36.27000 302.566
36.28000 305.750
36.29000 303.372
36.30000 298.530
36.31000 293.747
36.32000 289.819
36.33000 286.176
36.34000 283.593
36.35000 289.973
36.36000 298.382
36.37000 305.622
36.38000 298.420
36.39000 290.497
36.40000 285.779
36.41000 292.688
36.42000 300.655
36.43000 306.143
36.44000 305.431
36.45000 304.423
36.46000 303.780
36.47000 312.410
36.48000 318.806
36.49000 318.495
36.50000 310.307
36.51000 302.129
36.52000 299.604
36.53000 301.459
36.54000 303.286
36.55000 308.446
36.56000 315.158
36.57000 320.914
36.58000 309.797
36.59000 292.493
36.60000 277.343
36.61000 283.099
36.62000 294.125
36.63000 303.785
36.64000 299.020
36.65000 292.851
36.66000 289.037
36.67000 294.703
36.68000 301.367
36.69000 305.499
36.70000 302.624
36.71000 299.340
36.72000 297.163
36.73000 304.539
36.74000 310.161
36.75000 310.910
36.76000 305.269
36.77000 299.604
36.78000 296.910
36.79000 296.789
36.80000 296.669
36.81000 299.354
36.82000 303.587
36.83000 307.554
36.84000 305.767
36.85000 301.646
36.86000 297.868
36.87000 297.962
36.88000 299.139
36.89000 300.186
36.90000 298.499
36.91000 296.584
36.92000 295.505
36.93000 298.178
36.94000 301.304
36.95000 304.354
36.96000 307.175
36.97000 309.980
36.98000 311.906
36.99000 312.324
37.00000 312.601
37.01000 309.657
37.02000 302.013
37.03000 294.329
37.04000 295.645
37.05000 305.701
37.06000 315.691
37.07000 319.217
37.08000 318.549
37.09000 317.727
37.10000 312.711
37.11000 305.814
37.12000 299.082
37.13000 294.530
37.14000 290.656
37.15000 287.154
37.16000 295.399
37.17000 304.834
37.18000 312.643
37.19000 312.306
37.20000 310.849
37.21000 307.681
37.22000 298.705
37.23000 289.251
37.24000 282.543
37.25000 276.938
37.26000 272.709
37.27000 273.387
37.28000 282.017
37.29000 290.756
37.30000 294.974
37.31000 294.257
37.32000 293.540
37.33000 291.096
37.34000 287.438
37.35000 283.940
37.36000 286.102
37.37000 291.070
37.38000 295.759
37.39000 296.082
37.40000 294.903
37.41000 293.823
37.42000 285.954
37.43000 277.524
37.44000 271.544
37.45000 279.312
37.46000 289.220
37.47000 296.475
37.48000 293.744
37.49000 290.056
37.50000 287.357
37.51000 285.718
37.52000 284.495
37.53000 284.782
37.54000 287.782
37.55000 290.836
37.56000 292.756
37.57000 293.292
37.58000 293.823
37.59000 294.582
37.60000 295.519
37.61000 296.393
37.62000 294.210
37.63000 290.350
37.64000 286.682
37.65000 286.636
37.66000 287.968
37.67000 289.204
37.68000 289.480
37.69000 289.503
37.70000 289.999
37.71000 293.486
37.72000 297.497
37.73000 301.114
37.74000 303.084
37.75000 304.872
37.76000 306.218
37.77000 300.669
37.78000 295.991
37.79000 293.410
37.80000 295.000
37.81000 296.704
37.82000 298.007
37.83000 298.764
37.84000 299.517
37.85000 300.714
37.86000 302.309
37.87000 303.837
37.88000 300.818
37.89000 295.034
37.90000 289.459
37.91000 288.767
37.92000 290.129
37.93000 291.407
37.94000 292.932
37.95000 294.388
37.96000 295.540
37.97000 294.512
37.98000 293.057
37.99000 292.102
38.00000 293.484
38.01000 295.161
38.02000 296.458
38.03000 302.631
38.04000 307.815
38.05000 309.166
38.06000 302.086
38.07000 294.705
38.08000 290.819
38.09000 292.230
38.10000 293.695
38.11000 294.432
38.12000 294.852
38.13000 295.176
38.14000 300.182
38.15000 308.348
38.16000 316.221
38.17000 315.397
38.18000 310.532
38.19000 305.917
38.20000 307.739
38.21000 311.332
38.22000 314.512
38.23000 314.343
38.24000 313.439
38.25000 314.005
38.26000 322.242
38.27000 331.582
38.28000 338.986
38.29000 335.068
38.30000 331.123
38.31000 329.954
38.32000 335.534
38.33000 341.416
38.34000 344.814
38.35000 344.034
38.36000 343.187
38.37000 342.736
38.38000 353.887
38.39000 361.476
38.40000 366.853
38.41000 370.568
38.42000 374.382
38.43000 382.034
38.44000 391.660
38.45000 400.879
38.46000 413.777
38.47000 427.026
38.48000 440.446
38.49000 455.452
38.50000 470.845
38.51000 486.996
38.52000 507.577
38.53000 528.878
38.54000 546.161
38.55000 576.072
38.56000 601.496
38.57000 628.189
38.58000 658.297
38.59000 688.593
38.60000 719.856
38.61000 752.919
38.62000 786.023
38.63000 804.576
38.64000 824.359
38.65000 838.090
38.66000 859.034
38.67000 886.027
38.68000 912.927
38.69000 934.837
38.70000 953.906
38.71000 972.325
38.72000 981.588
38.73000 986.918
38.74000 991.595
38.75000 989.229
38.76000 984.949
38.77000 980.193
38.78000 972.298
38.79000 963.830
38.80000 956.809
38.81000 931.832
38.82000 909.477
38.83000 886.719
38.84000 862.766
38.85000 838.733
38.86000 810.324
38.87000 772.897
38.88000 735.196
38.89000 713.037
38.90000 678.066
38.91000 653.341
38.92000 625.735
38.93000 595.422
38.94000 565.172
38.95000 539.916
38.96000 517.814
38.97000 496.303
38.98000 474.416
38.99000 453.417
39.00000 432.972
39.01000 419.487
39.02000 408.101
39.03000 396.983
39.04000 387.870
39.05000 379.168
39.06000 371.806
39.07000 360.369
39.08000 350.344
39.09000 343.104
39.10000 345.037
39.11000 347.691
39.12000 346.358
39.13000 335.936
39.14000 325.159
39.15000 318.541
39.16000 319.063
39.17000 319.499
39.18000 317.148
39.19000 311.853
39.20000 306.566
39.21000 302.612
39.22000 299.592
39.23000 296.634
39.24000 301.233
39.25000 309.155
39.26000 316.310
39.27000 312.035
39.28000 303.945
39.29000 296.093
39.30000 290.260
39.31000 284.888
39.32000 280.257
39.33000 286.326
39.34000 292.836
39.35000 297.299
39.36000 294.287
39.37000 290.589
39.38000 290.246
39.39000 298.362
39.40000 306.888
39.41000 312.343
39.42000 298.125
39.43000 287.512
39.44000 281.397
39.45000 280.605
39.46000 279.816
39.47000 277.180
39.48000 273.101
39.49000 269.082
39.50000 270.461
39.51000 274.591
39.52000 278.591
39.53000 280.279
39.54000 281.113
39.55000 281.575
39.56000 278.394
39.57000 274.287
39.58000 270.684
39.59000 275.159
39.60000 280.177
39.61000 282.584
39.62000 274.391
39.63000 265.071
39.64000 259.430
39.65000 264.046
39.66000 269.267
39.67000 272.737
39.68000 268.237
39.69000 264.761
39.70000 263.316
39.71000 264.555
39.72000 265.805
39.73000 266.625
39.74000 267.067
39.75000 267.505
39.76000 265.339
39.77000 261.715
39.78000 258.572
39.79000 265.975
39.80000 277.686
39.81000 288.140
39.82000 284.313
39.83000 276.458
39.84000 269.456
39.85000 270.788
39.86000 273.324
39.87000 274.023
39.88000 266.415
39.89000 257.793
39.90000 251.745
39.91000 253.635
39.92000 256.086
39.93000 257.773
39.94000 263.854
39.95000 268.528
39.96000 269.056
39.97000 263.489
39.98000 257.867
39.99000 257.685
40.00000 262.830
40.01000 267.942
40.02000 270.618
40.03000 271.682
40.04000 272.621
40.05000 270.127
40.06000 266.083
40.07000 262.285
40.08000 261.755
40.09000 262.248
40.10000 262.693
40.11000 261.745
40.12000 260.649
40.13000 259.662
40.14000 259.225
40.15000 258.865
40.16000 257.601
40.17000 253.253
40.18000 248.647
40.19000 245.372
40.20000 251.968
40.21000 257.309
40.22000 262.414
40.23000 267.134
40.24000 271.849
40.25000 271.455
40.26000 265.439
40.27000 259.440
40.28000 256.739
40.29000 256.442
40.30000 256.208
40.31000 258.215
40.32000 261.341
40.33000 264.090
40.34000 260.837
40.35000 255.507
40.36000 250.619
40.37000 251.399
40.38000 253.292
40.39000 255.658
40.40000 260.699
40.41000 266.160
40.42000 268.726
40.43000 260.312
40.44000 250.835
40.45000 243.885
40.46000 244.156
40.47000 244.656
40.48000 245.515
40.49000 247.025
40.50000 248.548
40.51000 251.275
40.52000 255.484
40.53000 259.690
40.54000 260.717
40.55000 259.168
40.56000 257.584
40.57000 254.326
40.58000 250.142
40.59000 246.378
40.60000 250.666
40.61000 258.038
40.62000 264.885
40.63000 266.991
40.64000 267.763
40.65000 268.017
40.66000 264.966
40.67000 261.331
40.68000 257.611
40.69000 253.534
40.70000 249.417
40.71000 246.310
40.72000 253.823
40.73000 260.233
40.74000 265.334
40.75000 267.815
40.76000 270.223
40.77000 265.777
40.78000 251.923
40.79000 238.016
40.80000 236.843
40.81000 247.237
40.82000 257.540
40.83000 261.404
40.84000 261.323
40.85000 261.120
40.86000 258.030
40.87000 253.717
40.88000 249.665
40.89000 250.062
40.90000 251.612
40.91000 253.291
40.92000 255.900
40.93000 258.693
40.94000 259.792
40.95000 252.929
40.96000 245.049
40.97000 238.943
40.98000 242.484
40.99000 245.872
41.00000 246.843
41.01000 242.464
41.02000 237.891
41.03000 236.193
41.04000 238.886
41.05000 241.626
41.06000 243.010
41.07000 241.509
41.08000 240.513
41.09000 240.495
41.10000 241.142
41.11000 241.726
41.12000 240.388
41.13000 238.150
41.14000 236.026
41.15000 237.432
41.16000 239.785
41.17000 242.108
41.18000 244.181
41.19000 246.199
41.20000 247.988
41.21000 248.574
41.22000 248.986
41.23000 249.313
41.24000 245.307
41.25000 241.775
41.26000 238.523
41.27000 235.954
41.28000 233.416
41.29000 235.289
41.30000 244.632
41.31000 254.097
41.32000 259.155
41.33000 248.784
41.34000 241.742
41.35000 243.283
41.36000 251.325
41.37000 259.272
41.38000 263.443
41.39000 265.658
41.40000 267.781
41.41000 265.958
41.42000 262.935
41.43000 259.809
41.44000 255.708
41.45000 251.367
41.46000 247.365
41.47000 245.362
41.48000 243.687
41.49000 242.326
41.50000 238.010
41.51000 234.242
41.52000 231.685
41.53000 232.408
41.54000 233.315
41.55000 237.037
41.56000 246.044
41.57000 255.173
41.58000 260.308
41.59000 248.239
41.60000 239.832
41.61000 238.914
41.62000 244.326
41.63000 249.675
41.64000 251.528
41.65000 251.376
41.66000 251.229
41.67000 250.568
41.68000 249.752
41.69000 249.063
41.70000 249.757
41.71000 250.829
41.72000 251.170
41.73000 246.649
41.74000 241.232
41.75000 236.734
41.76000 236.729
41.77000 237.160
41.78000 236.825
41.79000 234.190
41.80000 231.401
41.81000 232.746
41.82000 242.676
41.83000 252.871
41.84000 258.883
41.85000 252.201
41.86000 247.417
41.87000 246.097
41.88000 248.058
41.89000 250.008
41.90000 251.109
41.91000 251.668
41.92000 252.213
41.93000 250.989
41.94000 249.084
41.95000 247.324
41.96000 247.423
41.97000 248.086
41.98000 248.665
41.99000 248.602
42.00000 248.408
42.01000 248.243
42.02000 247.907
42.03000 247.606
42.04000 245.463
42.05000 237.207
42.06000 228.464
42.07000 223.955
42.08000 229.169
42.09000 234.767
42.10000 238.216
42.11000 245.172
42.12000 250.196
42.13000 251.619
42.14000 249.207
42.15000 246.795
42.16000 244.342
42.17000 241.861
42.18000 239.430
42.19000 241.407
42.20000 245.369
42.21000 248.992
42.22000 247.512
42.23000 244.316
42.24000 240.921
42.25000 235.811
42.26000 230.308
42.27000 225.557
42.28000 222.365
42.29000 219.858
42.30000 220.097
42.31000 230.451
42.32000 241.745
42.33000 249.335
42.34000 247.522
42.35000 245.247
42.36000 243.787
42.37000 238.502
42.38000 234.598
42.39000 233.873
42.40000 236.940
42.41000 240.015
42.42000 243.296
42.43000 246.737
42.44000 250.129
42.45000 244.591
42.46000 234.557
42.47000 225.108
42.48000 226.257
42.49000 231.349
42.50000 236.062
42.51000 237.023
42.52000 237.023
42.53000 237.023
42.54000 231.857
42.55000 226.659
42.56000 222.963
42.57000 225.414
42.58000 228.526
42.59000 232.554
42.60000 239.155
42.61000 245.909
42.62000 250.409
42.63000 244.407
42.64000 239.764
42.65000 237.899
42.66000 239.733
42.67000 241.584
42.68000 242.690
42.69000 243.139
42.70000 243.584
42.71000 239.902
42.72000 233.895
42.73000 227.998
42.74000 224.563
42.75000 222.140
42.76000 220.241
42.77000 224.354
42.78000 230.175
42.79000 235.369
42.80000 233.729
42.81000 231.159
42.82000 229.481
42.83000 231.858
42.84000 234.734
42.85000 236.037
42.86000 232.452
42.87000 228.518
42.88000 225.804
42.89000 233.019
42.90000 238.692
42.91000 242.255
42.92000 242.692
42.93000 243.100
42.94000 241.478
42.95000 237.853
42.96000 234.250
42.97000 230.469
42.98000 226.626
42.99000 222.842
43.00000 220.715
43.01000 219.341
43.02000 218.140
43.03000 219.288
43.04000 221.176
43.05000 222.885
43.06000 222.866
43.07000 222.523
43.08000 222.337
43.09000 222.952
43.10000 223.678
43.11000 225.161
43.12000 229.248
43.13000 233.555
43.14000 236.625
43.15000 232.263
43.16000 228.696
43.17000 226.517
43.18000 226.623
43.19000 226.763
43.20000 228.096
43.21000 230.754
43.22000 233.403
43.23000 235.663
43.24000 237.619
43.25000 239.477
43.26000 237.769
43.27000 234.265
43.28000 231.108
43.29000 233.509
43.30000 237.848
43.31000 241.831
43.32000 237.738
43.33000 232.364
43.34000 226.942
43.35000 221.244
43.36000 215.502
43.37000 211.950
43.38000 216.770
43.39000 222.409
43.40000 226.553
43.41000 223.316
43.42000 220.511
43.43000 219.721
43.44000 222.602
43.45000 225.560
43.46000 229.408
43.47000 234.361
43.48000 239.310
43.49000 238.449
43.50000 232.850
43.51000 227.285
43.52000 223.360
43.53000 220.350
43.54000 217.702
43.55000 222.106
43.56000 229.230
43.57000 235.853
43.58000 228.688
43.59000 218.913
43.60000 210.737
43.61000 212.844
43.62000 216.783
43.63000 220.394
43.64000 222.609
43.65000 224.668
43.66000 226.223
43.67000 220.430
43.68000 215.519
43.69000 216.482
43.70000 229.296
43.71000 242.447
43.72000 247.610
43.73000 241.721
43.74000 235.763
43.75000 230.340
43.76000 225.409
43.77000 220.498
43.78000 216.976
43.79000 214.310
43.80000 211.746
43.81000 211.620
43.82000 212.533
43.83000 213.391
43.84000 216.017
43.85000 218.892
43.86000 221.633
43.87000 223.400
43.88000 224.972
43.89000 226.558
43.90000 228.208
43.91000 229.866
43.92000 231.153
43.93000 222.350
43.94000 214.743
43.95000 211.437
43.96000 217.728
43.97000 224.374
43.98000 228.295
43.99000 228.024
44.00000 227.706
44.01000 227.545
44.02000 221.298
44.03000 217.140
44.04000 216.262
44.05000 217.633
44.06000 219.028
44.07000 221.149
44.08000 223.614
44.09000 225.956
44.10000 228.459
44.11000 230.820
44.12000 233.131
44.13000 235.023
44.14000 236.822
44.15000 237.718
44.16000 233.827
44.17000 229.235
44.18000 225.582
44.19000 220.363
44.20000 216.044
44.21000 214.122
44.22000 218.110
44.23000 222.372
44.24000 226.457
44.25000 230.242
44.26000 234.021
44.27000 236.048
44.28000 236.552
44.29000 236.881
44.30000 234.237
44.31000 229.325
44.32000 224.566
44.33000 226.012
44.34000 230.695
44.35000 235.185
44.36000 232.948
44.37000 228.587
44.38000 224.288
44.39000 220.585
44.40000 217.031
44.41000 214.914
44.42000 221.348
44.43000 229.196
44.44000 235.585
44.45000 234.859
44.46000 233.667
44.47000 232.087
44.48000 229.449
44.49000 226.751
44.50000 225.952
44.51000 228.742
44.52000 231.616
44.53000 233.239
44.54000 235.955
44.55000 237.841
44.56000 237.081
44.57000 234.067
44.58000 231.108
44.59000 231.286
44.60000 233.276
44.61000 235.200
44.62000 237.287
44.63000 239.319
44.64000 241.061
44.65000 239.609
44.66000 237.275
44.67000 235.794
44.68000 240.030
44.69000 245.327
44.70000 249.733
44.71000 254.847
44.72000 259.149
44.73000 262.450
44.74000 262.730
44.75000 262.804
44.76000 262.586
44.77000 261.754
44.78000 260.903
44.79000 260.399
44.80000 264.937
44.81000 268.174
44.82000 277.131
44.83000 291.554
44.84000 305.844
44.85000 308.958
44.86000 304.909
44.87000 300.966
44.88000 301.734
44.89000 304.453
44.90000 307.777
44.91000 318.884
44.92000 332.372
44.93000 344.281
44.94000 344.176
44.95000 341.574
44.96000 339.367
44.97000 350.342
44.98000 361.038
44.99000 370.109
45.00000 373.746
45.01000 376.946
45.02000 380.873
45.03000 386.480
45.04000 392.155
45.05000 395.662
45.06000 401.817
45.07000 406.263
45.08000 407.002
45.09000 403.758
45.10000 400.506
45.11000 396.202
45.12000 391.149
45.13000 386.195
45.14000 388.539
45.15000 394.231
45.16000 399.381
45.17000 396.269
45.18000 390.359
45.19000 385.469
45.20000 389.454
45.21000 395.497
45.22000 400.719
45.23000 389.071
45.24000 376.985
45.25000 367.837
45.26000 369.583
45.27000 372.351
45.28000 372.182
45.29000 364.499
45.30000 356.440
45.31000 351.256
45.32000 357.856
45.33000 362.837
45.34000 362.528
45.35000 355.858
45.36000 349.164
45.37000 339.180
45.38000 326.585
45.39000 314.169
45.40000 307.227
45.41000 303.362
45.42000 299.615
45.43000 298.063
45.44000 297.332
45.45000 296.820
45.46000 298.488
45.47000 300.719
45.48000 302.680
45.49000 298.210
45.50000 293.411
45.51000 288.921
45.52000 285.699
45.53000 282.614
45.54000 279.973
45.55000 278.586
45.56000 277.276
45.57000 276.400
45.58000 270.303
45.59000 265.684
45.60000 262.438
45.61000 261.034
45.62000 259.640
45.63000 258.692
45.64000 258.140
45.65000 257.593
45.66000 256.648
45.67000 255.488
45.68000 254.206
45.69000 250.137
45.70000 244.913
45.71000 240.374
45.72000 243.802
45.73000 249.510
45.74000 254.609
45.75000 248.930
45.76000 242.167
45.77000 236.912
45.78000 238.586
45.79000 241.120
45.80000 242.567
45.81000 240.608
45.82000 238.403
45.83000 236.878
45.84000 235.810
45.85000 235.019
45.86000 235.673
45.87000 238.482
45.88000 241.312
45.89000 242.472
45.90000 241.971
45.91000 241.472
45.92000 242.910
45.93000 245.599
45.94000 248.078
45.95000 244.559
45.96000 238.292
45.97000 232.242
45.98000 229.157
45.99000 227.013
46.00000 225.070
46.01000 230.252
46.02000 236.182
46.03000 240.226
46.04000 234.598
46.05000 227.603
46.06000 221.330
46.07000 217.557
46.08000 213.998
46.09000 211.455
46.10000 222.349
46.11000 231.108
46.12000 232.638
46.13000 222.190
46.14000 211.562
46.15000 206.910
46.16000 208.943
46.17000 210.975
46.18000 211.990
46.19000 212.252
46.20000 212.521
46.21000 213.110
46.22000 213.861
46.23000 214.470
46.24000 212.787
46.25000 210.299
46.26000 208.012
46.27000 207.706
46.28000 207.859
46.29000 208.085
46.30000 208.731
46.31000 209.445
46.32000 209.401
46.33000 206.441
46.34000 203.192
46.35000 200.800
46.36000 210.033
46.37000 217.662
46.38000 221.153
46.39000 217.045
46.40000 212.772
46.41000 208.082
46.42000 202.868
46.43000 197.659
46.44000 195.421
46.45000 195.636
46.46000 195.915
46.47000 199.488
46.48000 204.909
46.49000 210.113
46.50000 211.036
46.51000 210.298
46.52000 209.611
46.53000 213.886
46.54000 218.948
46.55000 222.144
46.56000 213.237
46.57000 202.155
46.58000 193.023
46.59000 192.236
46.60000 192.400
46.61000 192.524
46.62000 197.217
46.63000 201.132
46.64000 203.996
46.65000 204.724
46.66000 205.390
46.67000 203.831
46.68000 199.171
46.69000 194.490
46.70000 193.609
46.71000 196.236
46.72000 198.837
46.73000 199.508
46.74000 198.979
46.75000 198.435
46.76000 197.510
46.77000 196.423
46.78000 195.399
46.79000 201.473
46.80000 208.951
46.81000 215.242
46.82000 212.820
46.83000 208.643
46.84000 205.476
46.85000 207.134
46.86000 209.419
46.87000 211.196
46.88000 210.487
46.89000 209.770
46.90000 207.205
46.91000 200.484
46.92000 193.606
46.93000 189.602
46.94000 190.051
46.95000 190.550
46.96000 190.804
46.97000 189.944
46.98000 189.383
46.99000 190.838
47.00000 193.684
47.01000 196.501
47.02000 198.408
47.03000 199.884
47.04000 201.287
47.05000 202.026
47.06000 202.508
47.07000 202.659
47.08000 200.039
47.09000 196.796
47.10000 194.140
47.11000 194.619
47.12000 195.561
47.13000 196.312
47.14000 202.312
47.15000 207.533
47.16000 210.310
47.17000 207.014
47.18000 203.433
47.19000 200.322
47.20000 198.020
47.21000 195.732
47.22000 194.499
47.23000 195.745
47.24000 196.588
47.25000 194.797
47.26000 190.982
47.27000 187.232
47.28000 186.202
47.29000 186.601
47.30000 186.984
47.31000 185.484
47.32000 183.441
47.33000 181.452
47.34000 179.984
47.35000 178.646
47.36000 178.044
47.37000 181.858
47.38000 186.407
47.39000 190.116
47.40000 195.715
47.41000 200.454
47.42000 203.330
47.43000 201.088
47.44000 198.552
47.45000 196.886
47.46000 196.877
47.47000 196.908
47.48000 196.925
47.49000 195.568
47.50000 194.621
47.51000 194.886
47.52000 196.190
47.53000 197.394
47.54000 192.777
47.55000 184.773
47.56000 177.028
47.57000 178.598
47.58000 183.626
47.59000 188.112
47.60000 186.587
47.61000 183.392
47.62000 181.169
47.63000 185.540
47.64000 191.146
47.65000 195.814
47.66000 190.909
47.67000 185.897
47.68000 182.487
47.69000 183.947
47.70000 185.743
47.71000 186.246
47.72000 184.025
47.73000 181.717
47.74000 180.347
47.75000 177.915
47.76000 176.189
47.77000 177.033
47.78000 180.354
47.79000 183.670
47.80000 186.571
47.81000 189.204
47.82000 191.771
47.83000 191.388
47.84000 189.770
47.85000 188.015
47.86000 184.476
47.87000 180.388
47.88000 176.957
47.89000 178.571
47.90000 181.242
47.91000 183.512
47.92000 183.439
47.93000 183.111
47.94000 183.457
47.95000 186.078
47.96000 188.884
47.97000 189.192
47.98000 183.683
47.99000 177.936
48.00000 174.374
48.01000 182.284
48.02000 188.083
48.03000 188.649
48.04000 183.549
48.05000 178.464
48.06000 176.014
48.07000 175.455
48.08000 174.907
48.09000 178.254
48.10000 183.328
48.11000 188.172
48.12000 189.481
48.13000 189.584
48.14000 189.337
48.15000 186.027
48.16000 182.001
48.17000 178.517
48.18000 181.752
48.19000 185.383
48.20000 188.007
48.21000 186.866
48.22000 185.367
48.23000 183.987
48.24000 182.909
48.25000 181.848
48.26000 181.162
48.27000 187.823
48.28000 192.794
48.29000 194.063
48.30000 190.844
48.31000 187.616
48.32000 184.411
48.33000 181.226
48.34000 178.084
48.35000 177.308
48.36000 177.806
48.37000 178.441
48.38000 181.611
48.39000 185.737
48.40000 189.491
48.41000 189.480
48.42000 188.491
48.43000 187.621
48.44000 187.212
48.45000 186.929
48.46000 186.281
48.47000 184.118
48.48000 181.790
48.49000 179.316
48.50000 176.428
48.51000 173.515
48.52000 171.564
48.53000 176.867
48.54000 180.946
48.55000 185.207
48.56000 189.715
48.57000 194.222
48.58000 195.368
48.59000 193.508
48.60000 191.665
48.61000 187.589
48.62000 182.274
48.63000 177.164
48.64000 176.768
48.65000 178.341
48.66000 179.830
48.67000 180.352
48.68000 180.595
48.69000 180.811
48.70000 173.795
48.71000 166.448
48.72000 161.489
48.73000 167.583
48.74000 175.064
48.75000 182.116
48.76000 187.816
48.77000 193.417
48.78000 197.300
48.79000 187.671
48.80000 180.065
48.81000 177.097
48.82000 181.104
48.83000 185.180
48.84000 185.010
48.85000 180.576
48.86000 176.167
48.87000 174.004
48.88000 173.357
48.89000 172.725
48.90000 172.553
48.91000 172.593
48.92000 172.520
48.93000 170.898
48.94000 168.780
48.95000 166.859
48.96000 171.315
48.97000 176.475
48.98000 180.719
48.99000 180.225
49.00000 179.055
49.01000 178.079
49.02000 177.783
49.03000 177.546
49.04000 177.376
49.05000 180.514
49.06000 183.023
49.07000 183.835
49.08000 181.814
49.09000 179.750
49.10000 178.336
49.11000 177.655
49.12000 176.978
49.13000 177.014
49.14000 177.579
49.15000 178.152
49.16000 179.074
49.17000 180.173
49.18000 181.374
49.19000 184.269
49.20000 187.763
49.21000 190.977
49.22000 184.772
49.23000 177.184
49.24000 170.940
49.25000 172.495
49.26000 175.307
49.27000 177.424
49.28000 176.849
49.29000 176.005
49.30000 175.382
49.31000 176.918
49.32000 178.198
49.33000 178.878
49.34000 178.446
49.35000 177.990
49.36000 176.351
49.37000 173.220
49.38000 170.089
49.39000 171.229
49.40000 175.909
49.41000 180.600
49.42000 185.834
49.43000 191.376
49.44000 196.739
49.45000 198.535
49.46000 198.935
49.47000 199.307
49.48000 190.139
49.49000 179.521
49.50000 170.512
49.51000 172.023
49.52000 175.440
49.53000 177.992
49.54000 176.816
49.55000 175.211
49.56000 173.993
49.57000 171.954
49.58000 170.310
49.59000 170.272
49.60000 173.521
49.61000 176.867
49.62000 180.212
49.63000 183.556
49.64000 186.899
49.65000 184.463
49.66000 176.648
49.67000 168.932
49.68000 168.992
49.69000 173.923
49.70000 178.695
49.71000 179.499
49.72000 178.588
49.73000 177.729
49.74000 178.533
49.75000 179.723
49.76000 180.391
49.77000 177.188
49.78000 173.200
49.79000 169.281
49.80000 165.695
49.81000 162.152
49.82000 159.392
49.83000 161.927
49.84000 164.274
49.85000 166.455
49.86000 168.261
49.87000 170.052
49.88000 172.280
49.89000 175.191
49.90000 178.110
49.91000 179.603
49.92000 181.244
49.93000 182.327
49.94000 180.936
49.95000 177.822
49.96000 174.818
49.97000 175.322
49.98000 177.504
49.99000 179.579
50.00000 178.852
50.01000 177.319
50.02000 175.864
50.03000 175.058
50.04000 174.398
50.05000 173.516
50.06000 171.435
50.07000 169.174
50.08000 167.369
50.09000 169.191
50.10000 170.928
50.11000 171.775
50.12000 170.392
50.13000 168.903
50.14000 170.266
50.15000 176.569
50.16000 182.960
50.17000 186.414
50.18000 185.814
50.19000 185.403
50.20000 186.005
50.21000 187.393
50.22000 188.696
50.23000 186.402
50.24000 182.203
50.25000 178.171
50.26000 180.314
50.27000 184.437
50.28000 188.609
50.29000 193.259
50.30000 198.030
50.31000 201.628
50.32000 198.123
50.33000 193.423
50.34000 189.586
50.35000 192.058
50.36000 194.624
50.37000 195.647
50.38000 192.401
50.39000 188.906
50.40000 187.860
50.41000 191.512
50.42000 195.279
50.43000 197.421
50.44000 200.617
50.45000 202.844
50.46000 202.629
50.47000 200.300
50.48000 198.087
50.49000 202.812
50.50000 211.604
50.51000 220.116
50.52000 217.727
50.53000 211.290
50.54000 205.431
50.55000 206.078
50.56000 208.546
50.57000 211.689
50.58000 219.434
50.59000 228.048
50.60000 235.232
50.61000 235.234
50.62000 234.517
50.63000 235.417
50.64000 241.274
50.65000 247.476
50.66000 252.774
50.67000 256.152
50.68000 259.468
50.69000 261.443
50.70000 261.005
50.71000 260.679
50.72000 262.129
50.73000 265.302
50.74000 268.463
50.75000 270.624
50.76000 272.134
50.77000 273.606
50.78000 274.044
50.79000 274.021
50.80000 273.594
50.81000 267.859
50.82000 260.476
50.83000 253.802
50.84000 252.634
50.85000 252.629
50.86000 252.625
50.87000 249.266
50.88000 246.057
50.89000 242.868
50.90000 239.747
50.91000 236.632
50.92000 235.144
50.93000 237.476
50.94000 239.967
50.95000 241.515
50.96000 229.506
50.97000 220.723
50.98000 215.872
50.99000 215.310
51.00000 214.753
51.01000 214.541
51.02000 214.579
51.03000 214.616
51.04000 215.314
51.05000 216.301
51.06000 216.855
51.07000 210.604
51.08000 202.014
51.09000 194.124
51.10000 192.435
51.11000 192.206
51.12000 192.007
51.13000 192.276
51.14000 192.566
51.15000 192.546
51.16000 191.357
51.17000 190.056
51.18000 190.107
51.19000 193.663
51.20000 197.400
51.21000 199.818
51.22000 180.582
51.23000 166.195
51.24000 163.306
51.25000 174.464
51.26000 185.624
51.27000 185.720
51.28000 176.896
51.29000 168.190
51.30000 169.070
51.31000 175.045
51.32000 180.640
51.33000 179.082
51.34000 174.804
51.35000 170.896
51.36000 170.761
51.37000 171.616
51.38000 172.368
51.39000 174.916
51.40000 177.383
51.41000 178.606
51.42000 174.623
51.43000 170.064
51.44000 167.023
51.45000 168.339
51.46000 169.926
51.47000 170.992
51.48000 179.844
51.49000 186.576
51.50000 186.507
51.51000 177.171
51.52000 167.786
51.53000 164.706
51.54000 167.311
51.55000 169.894
51.56000 171.559
51.57000 172.646
51.58000 173.698
51.59000 173.944
51.60000 173.851
51.61000 173.927
51.62000 176.022
51.63000 178.704
51.64000 181.106
51.65000 177.443
51.66000 173.206
51.67000 169.504
51.68000 168.295
51.69000 167.403
51.70000 166.344
51.71000 164.758
51.72000 163.133
51.73000 162.004
51.74000 162.529
51.75000 162.969
51.76000 164.608
51.77000 168.065
51.78000 171.540
51.79000 170.280
51.80000 164.224
51.81000 158.200
51.82000 157.645
51.83000 160.743
51.84000 163.761
51.85000 164.418
51.86000 163.977
51.87000 163.747
51.88000 166.457
51.89000 170.113
51.90000 173.434
51.91000 173.311
51.92000 172.533
51.93000 171.732
51.94000 170.810
51.95000 169.871
51.96000 169.299
51.97000 170.017
51.98000 170.848
51.99000 171.444
52.00000 179.200
52.01000 185.376
52.02000 187.515
52.03000 182.866
52.04000 178.108
52.05000 172.736
52.06000 166.664
52.07000 160.609
52.08000 158.409
52.09000 159.101
52.10000 159.719
52.11000 157.491
52.12000 153.798
52.13000 150.655
52.14000 156.705
52.15000 166.030
52.16000 174.615
52.17000 172.727
52.18000 168.748
52.19000 165.000
52.20000 162.606
52.21000 160.431
52.22000 158.868
52.23000 159.689
52.24000 160.751
52.25000 161.536
52.26000 162.255
52.27000 162.810
52.28000 163.193
52.29000 163.254
52.30000 163.309
52.31000 163.724
52.32000 164.598
52.33000 165.471
52.34000 164.452
52.35000 161.851
52.36000 159.288
52.37000 158.764
52.38000 159.401
52.39000 159.886
52.40000 157.300
52.41000 153.502
52.42000 149.963
52.43000 150.631
52.44000 152.271
52.45000 153.446
52.46000 151.554
52.47000 149.102
52.48000 147.975
52.49000 152.612
52.50000 157.919
52.51000 161.954
52.52000 169.153
52.53000 174.981
52.54000 178.168
52.55000 175.911
52.56000 173.489
52.57000 171.792
52.58000 171.120
52.59000 170.456
52.60000 169.520
52.61000 168.328
52.62000 167.160
52.63000 167.906
52.64000 169.860
52.65000 171.705
52.66000 170.826
52.67000 168.760
52.68000 166.812
52.69000 163.499
52.70000 160.089
52.71000 157.250
52.72000 158.680
52.73000 160.983
52.74000 163.525
52.75000 167.224
52.76000 171.077
52.77000 174.083
52.78000 168.396
52.79000 163.317
52.80000 159.999
52.81000 160.695
52.82000 161.547
52.83000 163.252
52.84000 166.297
52.85000 169.359
52.86000 170.932
52.87000 163.867
52.88000 159.114
52.89000 154.516
52.90000 150.025
52.91000 145.689
52.92000 146.388
52.93000 149.512
52.94000 152.487
52.95000 153.386
52.96000 153.577
52.97000 153.995
52.98000 156.342
52.99000 159.129
53.00000 161.146
53.01000 158.977
53.02000 156.178
53.03000 153.940
53.04000 156.766
53.05000 159.426
53.06000 161.174
53.07000 160.621
53.08000 159.956
53.09000 158.720
53.10000 156.487
53.11000 154.236
53.12000 153.015
53.13000 156.747
53.14000 159.304
53.15000 160.129
53.16000 159.601
53.17000 159.059
53.18000 157.878
53.19000 156.357
53.20000 154.895
53.21000 159.204
53.22000 165.233
53.23000 170.606
53.24000 169.552
53.25000 166.866
53.26000 164.589
53.27000 164.813
53.28000 165.462
53.29000 165.993
53.30000 165.970
53.31000 165.903
53.32000 165.523
53.33000 164.272
53.34000 162.969
53.35000 162.502
53.36000 163.649
53.37000 164.838
53.38000 165.515
53.39000 160.137
53.40000 156.368
53.41000 155.275
53.42000 156.517
53.43000 157.742
53.44000 157.920
53.45000 157.479
53.46000 157.052
53.47000 156.376
53.48000 155.639
53.49000 155.228
53.50000 158.517
53.51000 162.849
53.52000 166.775
53.53000 167.904
53.54000 168.500
53.55000 168.997
53.56000 168.627
53.57000 168.231
53.58000 166.138
53.59000 158.808
53.60000 151.108
53.61000 146.663
53.62000 149.172
53.63000 151.912
53.64000 153.549
53.65000 155.627
53.66000 157.104
53.67000 155.622
53.68000 151.242
53.69000 146.936
53.70000 149.596
53.71000 156.821
53.72000 163.870
53.73000 164.387
53.74000 162.062
53.75000 159.944
53.76000 160.586
53.77000 162.091
53.78000 163.405
53.79000 163.221
53.80000 162.718
53.81000 162.289
53.82000 160.135
53.83000 158.123
53.84000 156.370
53.85000 155.500
53.86000 154.703
53.87000 155.029
53.88000 158.009
53.89000 161.102
53.90000 163.030
53.91000 168.402
53.92000 172.311
53.93000 172.157
53.94000 167.531
53.95000 162.921
53.96000 161.356
53.97000 162.010
53.98000 162.651
53.99000 163.608
54.00000 164.683
54.01000 165.572
54.02000 163.509
54.03000 160.425
54.04000 157.613
54.05000 157.242
54.06000 157.449
54.07000 157.629
54.08000 156.515
54.09000 155.394
54.10000 155.510
54.11000 160.315
54.12000 165.575
54.13000 167.374
54.14000 160.129
54.15000 152.413
54.16000 147.407
54.17000 148.900
54.18000 150.091
54.19000 151.534
54.20000 153.289
54.21000 155.041
54.22000 155.817
54.23000 155.799
54.24000 155.782
54.25000 156.356
54.26000 157.234
54.27000 157.933
54.28000 155.190
54.29000 151.130
54.30000 147.420
54.31000 147.322
54.32000 148.176
54.33000 148.930
54.34000 154.139
54.35000 159.312
54.36000 163.136
54.37000 161.270
54.38000 158.768
54.39000 156.137
54.40000 153.133
54.41000 150.105
54.42000 148.067
54.43000 155.024
54.44000 160.382
54.45000 164.195
54.46000 165.886
54.47000 167.564
54.48000 166.710
54.49000 163.555
54.50000 160.429
54.51000 158.160
54.52000 156.451
54.53000 154.839
54.54000 155.538
54.55000 157.215
54.56000 158.836
54.57000 159.789
54.58000 160.546
54.59000 161.224
54.60000 160.963
54.61000 160.572
54.62000 159.182
54.63000 153.091
54.64000 146.400
54.65000 142.512
54.66000 147.591
54.67000 153.344
54.68000 157.351
54.69000 155.254
54.70000 153.504
54.71000 150.829
54.72000 146.739
54.73000 142.634
54.74000 143.184
54.75000 148.489
54.76000 153.767
54.77000 155.340
54.78000 154.405
54.79000 153.555
54.80000 155.258
54.81000 158.157
54.82000 161.010
54.83000 163.223
54.84000 165.228
54.85000 167.052
54.86000 165.139
54.87000 162.717
54.88000 160.871
54.89000 162.055
54.90000 163.678
54.91000 163.837
54.92000 158.804
54.93000 153.313
54.94000 149.364
54.95000 152.431
54.96000 155.024
54.97000 156.221
54.98000 155.054
54.99000 153.849
55.00000 155.168
55.01000 159.383
55.02000 163.589
55.03000 165.605
55.04000 165.960
55.05000 166.285
55.06000 165.430
55.07000 163.963
55.08000 162.449
55.09000 160.136
55.10000 157.537
55.11000 155.142
55.12000 154.053
55.13000 153.367
55.14000 153.488
55.15000 158.378
55.16000 164.050
55.17000 167.220
55.18000 160.534
55.19000 152.841
55.20000 147.142
55.21000 154.087
55.22000 160.029
55.23000 164.716
55.24000 167.050
55.25000 169.329
55.26000 169.952
55.27000 168.457
55.28000 166.955
55.29000 167.959
55.30000 171.075
55.31000 174.171
55.32000 176.112
55.33000 177.390
55.34000 178.483
55.35000 175.732
55.36000 171.456
55.37000 167.467
55.38000 168.340
55.39000 170.337
55.40000 172.896
55.41000 179.195
55.42000 186.184
55.43000 191.887
55.44000 191.958
55.45000 191.368
55.46000 190.919
55.47000 191.108
55.48000 191.290
55.49000 192.017
55.50000 193.875
55.51000 195.767
55.52000 197.230
55.53000 198.081
55.54000 198.928
55.55000 201.127
55.56000 204.606
55.57000 208.085
55.58000 211.531
55.59000 214.955
55.60000 218.415
55.61000 222.781
55.62000 227.544
55.63000 232.036
55.64000 234.539
55.65000 236.278
55.66000 237.734
55.67000 237.060
55.68000 235.946
55.69000 238.161
55.70000 256.661
55.71000 277.341
55.72000 293.508
55.73000 304.919
55.74000 313.724
55.75000 322.722
55.76000 332.162
55.77000 341.620
55.78000 353.051
55.79000 367.608
55.80000 382.206
55.81000 389.735
55.82000 400.468
55.83000 407.715
55.84000 417.201
55.85000 428.271
55.86000 439.339
55.87000 450.333
55.88000 461.291
55.89000 471.731
55.90000 482.488
55.91000 492.555
55.92000 502.832
55.93000 514.908
55.94000 527.399
55.95000 537.738
55.96000 536.294
55.97000 533.063
55.98000 530.475
55.99000 533.388
56.00000 536.159
56.01000 537.189
56.02000 533.801
56.03000 530.195
56.04000 527.240
56.05000 525.429
56.06000 523.640
56.07000 522.665
56.08000 508.643
56.09000 499.006
56.10000 489.968
56.11000 481.403
56.12000 472.740
56.13000 459.793
56.14000 444.546
56.15000 429.887
56.16000 424.831
56.17000 423.443
56.18000 420.672
56.19000 404.218
56.20000 384.261
56.21000 365.405
56.22000 353.326
56.23000 342.406
56.24000 333.460
56.25000 327.236
56.26000 322.372
56.27000 317.173
56.28000 311.033
56.29000 304.837
56.30000 296.782
56.31000 285.110
56.32000 273.346
56.33000 266.613
56.34000 261.116
56.35000 257.282
56.36000 253.810
56.37000 250.656
56.38000 247.436
56.39000 240.071
56.40000 230.238
56.41000 220.709
56.42000 213.428
56.43000 207.412
56.44000 202.100
56.45000 204.898
56.46000 210.000
56.47000 214.055
56.48000 210.825
56.49000 206.198
56.50000 202.327
56.51000 199.118
56.52000 196.520
56.53000 195.484
56.54000 199.299
56.55000 203.462
56.56000 204.216
56.57000 197.631
56.58000 190.797
56.59000 186.702
56.60000 185.937
56.61000 185.416
56.62000 185.749
56.63000 186.927
56.64000 188.118
56.65000 190.538
56.66000 193.770
56.67000 196.924
56.68000 192.854
56.69000 185.817
56.70000 178.967
56.71000 174.633
56.72000 171.090
56.73000 167.985
56.74000 168.329
56.75000 169.413
56.76000 170.339
56.77000 167.358
56.78000 164.388
56.79000 160.545
56.80000 153.694
56.81000 146.590
56.82000 143.779
56.83000 151.187
56.84000 159.034
56.85000 163.941
56.86000 169.142
56.87000 172.899
56.88000 172.429
56.89000 167.269
56.90000 162.128
56.91000 160.834
56.92000 162.365
56.93000 163.868
56.94000 162.134
56.95000 158.887
56.96000 155.792
56.97000 155.124
56.98000 155.303
56.99000 155.557
57.00000 156.489
57.01000 157.582
57.02000 158.532
57.03000 156.064
57.04000 153.499
57.05000 151.892
57.06000 153.950
57.07000 156.368
57.08000 157.338
57.09000 154.500
57.10000 151.460
57.11000 149.483
57.12000 150.790
57.13000 151.799
57.14000 152.682
57.15000 153.409
57.16000 154.126
57.17000 150.753
57.18000 144.030
57.19000 137.393
57.20000 139.245
57.21000 145.654
57.22000 151.824
57.23000 153.350
57.24000 153.085
57.25000 152.483
57.26000 148.360
57.27000 143.301
57.28000 138.833
57.29000 138.377
57.30000 138.600
57.31000 139.513
57.32000 143.354
57.33000 147.526
57.34000 149.986
57.35000 147.463
57.36000 144.621
57.37000 142.704
57.38000 143.132
57.39000 143.501
57.40000 143.351
57.41000 142.483
57.42000 141.612
57.43000 142.967
57.44000 146.361
57.45000 149.726
57.46000 148.575
57.47000 144.710
57.48000 140.926
57.49000 139.119
57.50000 138.154
57.51000 137.607
57.52000 142.153
57.53000 148.201
57.54000 153.627
57.55000 151.170
57.56000 147.645
57.57000 144.962
57.58000 146.265
57.59000 148.082
57.60000 148.762
57.61000 145.778
57.62000 142.516
57.63000 140.238
57.64000 143.056
57.65000 145.326
57.66000 144.961
57.67000 140.540
57.68000 136.075
57.69000 136.133
57.70000 140.852
57.71000 145.548
57.72000 147.312
57.73000 147.068
57.74000 146.778
57.75000 145.047
57.76000 142.636
57.77000 140.510
57.78000 142.452
57.79000 145.725
57.80000 148.703
57.81000 144.534
57.82000 139.432
57.83000 135.281
57.84000 136.167
57.85000 137.791
57.86000 139.623
57.87000 142.198
57.88000 144.839
57.89000 146.743
57.90000 147.074
57.91000 147.271
57.92000 146.266
57.93000 143.210
57.94000 140.119
57.95000 140.194
57.96000 143.927
57.97000 147.656
57.98000 147.766
57.99000 145.131
58.00000 142.527
58.01000 141.158
58.02000 140.433
58.03000 139.864
58.04000 141.971
58.05000 145.046
58.06000 147.882
58.07000 147.919
58.08000 147.330
58.09000 146.508
58.10000 144.304
58.11000 141.871
58.12000 140.026
58.13000 140.513
58.14000 141.241
58.15000 141.782
58.16000 140.413
58.17000 139.265
58.18000 138.393
58.19000 138.042
58.20000 137.704
58.21000 139.178
58.22000 142.991
58.23000 146.810
58.24000 147.203
58.25000 144.683
58.26000 142.164
58.27000 139.701
58.28000 137.271
58.29000 134.833
58.30000 132.227
58.31000 129.553
58.32000 127.057
58.33000 130.591
58.34000 135.302
58.35000 140.037
58.36000 144.936
58.37000 149.866
58.38000 153.529
58.39000 151.599
58.40000 149.005
58.41000 147.025
58.42000 143.662
58.43000 140.937
58.44000 138.817
58.45000 137.964
58.46000 137.150
58.47000 136.388
58.48000 135.699
58.49000 135.010
58.50000 134.992
58.51000 135.614
58.52000 136.264
58.53000 139.323
58.54000 143.925
58.55000 148.338
58.56000 147.815
58.57000 145.110
58.58000 142.556
58.59000 137.149
58.60000 131.390
58.61000 126.785
58.62000 130.965
58.63000 136.971
58.64000 141.527
58.65000 138.936
58.66000 135.379
58.67000 132.594
58.68000 136.834
58.69000 140.673
58.70000 142.784
58.71000 140.895
58.72000 138.845
58.73000 138.206
58.74000 139.821
58.75000 141.465
58.76000 142.317
58.77000 141.834
58.78000 141.499
58.79000 139.906
58.80000 137.417
58.81000 134.983
58.82000 134.408
58.83000 134.741
58.84000 135.059
58.85000 132.803
58.86000 129.902
58.87000 127.446
58.88000 128.858
58.89000 131.167
58.90000 133.806
58.91000 138.270
58.92000 143.014
58.93000 146.820
58.94000 143.535
58.95000 140.335
58.96000 137.206
58.97000 134.256
58.98000 131.315
58.99000 130.905
59.00000 134.976
59.01000 139.132
59.02000 141.403
59.03000 137.351
59.04000 134.565
59.05000 133.967
59.06000 135.106
59.07000 136.242
59.08000 137.259
59.09000 138.212
59.10000 139.128
59.11000 138.578
59.12000 137.547
59.13000 136.350
59.14000 133.496
59.15000 130.215
59.16000 127.918
59.17000 131.734
59.18000 136.605
59.19000 140.601
59.20000 138.677
59.21000 136.572
59.22000 134.795
59.23000 133.948
59.24000 133.158
59.25000 133.062
59.26000 134.330
59.27000 135.633
59.28000 136.381
59.29000 130.505
59.30000 126.373
59.31000 123.983
59.32000 123.140
59.33000 122.315
59.34000 122.646
59.35000 123.672
59.36000 124.666
59.37000 126.989
59.38000 129.711
59.39000 132.405
59.40000 134.770
59.41000 137.041
59.42000 138.753
59.43000 136.545
59.44000 133.579
59.45000 131.094
59.46000 131.686
59.47000 132.495
59.48000 132.660
59.49000 130.807
59.50000 128.808
59.51000 128.348
59.52000 131.226
59.53000 134.219
59.54000 136.018
59.55000 135.287
59.56000 134.751
59.57000 135.008
59.58000 136.055
59.59000 137.082
59.60000 136.170
59.61000 133.968
59.62000 131.817
59.63000 129.191
59.64000 126.471
59.65000 123.932
59.66000 123.873
59.67000 124.602
59.68000 125.499
59.69000 127.750
59.70000 130.293
59.71000 132.465
59.72000 130.459
59.73000 128.270
59.74000 126.488
59.75000 126.116
59.76000 125.863
59.77000 125.357
59.78000 124.245
59.79000 123.107
59.80000 122.393
59.81000 128.333
59.82000 132.697
59.83000 134.254
59.84000 132.671
59.85000 131.090
59.86000 130.243
59.87000 129.939
59.88000 129.641
59.89000 128.487
59.90000 126.954
59.91000 125.531
59.92000 125.880
59.93000 126.852
59.94000 128.053
59.95000 131.342
59.96000 135.133
59.97000 138.431
59.98000 137.434
59.99000 135.998
60.00000 134.610
60.01000 133.405
60.02000 132.218
60.03000 132.829
60.04000 138.204
60.05000 143.835
60.06000 147.508
60.07000 138.721
60.08000 132.075
60.09000 129.994
60.10000 133.625
60.11000 137.260
60.12000 135.464
60.13000 129.182
60.14000 122.979
60.15000 122.530
60.16000 125.239
60.17000 127.978
60.18000 131.316
60.19000 134.887
60.20000 137.827
60.21000 134.112
60.22000 128.616
60.23000 123.755
60.24000 128.887
60.25000 134.873
60.26000 140.518
60.27000 144.696
60.28000 148.707
60.29000 150.333
60.30000 144.963
60.31000 139.141
60.32000 135.202
60.33000 134.862
60.34000 134.687
60.35000 134.015
60.36000 132.650
60.37000 131.281
60.38000 130.236
60.39000 129.491
60.40000 128.752
60.41000 127.604
60.42000 126.226
60.43000 124.990
60.44000 127.208
60.45000 130.909
60.46000 134.576
60.47000 137.817
60.48000 140.932
60.49000 143.729
60.50000 142.873
60.51000 141.480
60.52000 139.313
60.53000 133.448
60.54000 127.101
60.55000 123.048
60.56000 126.439
60.57000 130.402
60.58000 133.176
60.59000 131.866
60.60000 130.759
60.61000 129.888
60.62000 129.381
60.63000 128.879
60.64000 130.113
60.65000 133.149
60.66000 136.170
60.67000 134.328
60.68000 129.185
60.69000 124.217
60.70000 124.686
60.71000 127.739
60.72000 130.566
60.73000 130.115
60.74000 128.585
60.75000 127.191
60.76000 125.200
60.77000 123.317
60.78000 122.079
60.79000 124.284
60.80000 126.997
60.81000 128.808
60.82000 127.370
60.83000 125.639
60.84000 124.389
60.85000 127.776
60.86000 130.542
60.87000 131.243
60.88000 128.392
60.89000 125.479
60.90000 125.694
60.91000 129.550
60.92000 133.403
60.93000 133.677
60.94000 131.215
60.95000 128.820
60.96000 129.236
60.97000 131.129
60.98000 132.995
60.99000 134.380
61.00000 135.590
61.01000 136.707
61.02000 139.747
61.03000 142.903
61.04000 145.700
61.05000 146.339
61.06000 146.619
61.07000 146.450
61.08000 144.482
61.09000 142.328
61.10000 140.725
61.11000 140.935
61.12000 141.179
61.13000 140.851
61.14000 139.433
61.15000 137.989
61.16000 138.012
61.17000 139.943
61.18000 141.881
61.19000 140.417
61.20000 136.039
61.21000 131.720
61.22000 130.803
61.23000 131.867
61.24000 132.859
61.25000 132.335
61.26000 131.201
61.27000 130.142
61.28000 129.573
61.29000 129.179
61.30000 129.304
61.31000 132.933
61.32000 137.218
61.33000 140.673
61.34000 140.426
61.35000 139.737
61.36000 139.210
61.37000 139.095
61.38000 139.027
61.39000 139.978
61.40000 143.077
61.41000 146.246
61.42000 146.943
61.43000 144.059
61.44000 141.147
61.45000 140.252
61.46000 141.301
61.47000 142.371
61.48000 145.331
61.49000 149.512
61.50000 153.846
61.51000 162.264
61.52000 172.499
61.53000 182.168
61.54000 192.454
61.55000 202.070
61.56000 212.261
61.57000 226.881
61.58000 242.428
61.59000 256.253
61.60000 261.523
61.61000 265.627
61.62000 268.847
61.63000 271.455
61.64000 273.500
61.65000 277.888
61.66000 287.729
61.67000 297.794
61.68000 304.765
61.69000 306.760
61.70000 308.689
61.71000 309.691
61.72000 315.069
61.73000 318.664
61.74000 316.235
61.75000 309.484
61.76000 302.499
61.77000 287.465
61.78000 268.466
61.79000 250.341
61.80000 233.390
61.81000 218.028
61.82000 203.158
61.83000 192.611
61.84000 183.073
61.85000 174.328
61.86000 169.997
61.87000 166.346
61.88000 163.413
61.89000 156.451
61.90000 150.498
61.91000 145.314
61.92000 142.113
61.93000 139.011
61.94000 137.362
61.95000 138.303
61.96000 139.295
61.97000 139.839
61.98000 145.926
61.99000 150.110
62.00000 150.200
62.01000 147.017
62.02000 143.884
62.03000 143.061
62.04000 143.497
62.05000 143.916
62.06000 141.532
62.07000 138.301
62.08000 135.444
62.09000 136.353
62.10000 138.241
62.11000 140.391
62.12000 144.179
62.13000 148.251
62.14000 151.598
62.15000 144.642
62.16000 138.001
62.17000 133.558
62.18000 135.378
62.19000 137.582
62.20000 138.505
62.21000 136.897
62.22000 135.220
62.23000 134.254
62.24000 135.304
62.25000 136.047
62.26000 136.614
62.27000 137.024
62.28000 137.452
62.29000 139.127
62.30000 141.555
62.31000 143.910
62.32000 145.086
62.33000 145.735
62.34000 146.428
62.35000 147.633
62.36000 148.986
62.37000 149.909
62.38000 147.794
62.39000 145.085
62.40000 142.813
62.41000 144.465
62.42000 146.248
62.43000 146.862
62.44000 143.783
62.45000 140.433
62.46000 139.472
62.47000 143.727
62.48000 148.165
62.49000 150.841
62.50000 146.499
62.51000 143.359
62.52000 142.787
62.53000 144.794
62.54000 146.779
62.55000 146.447
62.56000 144.561
62.57000 142.720
62.58000 142.488
62.59000 142.978
62.60000 143.570
62.61000 145.567
62.62000 148.013
62.63000 149.987
62.64000 148.158
62.65000 145.499
62.66000 143.225
62.67000 140.334
62.68000 137.821
62.69000 136.458
62.70000 139.114
62.71000 142.116
62.72000 143.416
62.73000 140.607
62.74000 137.617
62.75000 135.736
62.76000 133.436
62.77000 131.767
62.78000 133.937
62.79000 140.438
62.80000 146.915
62.81000 147.880
62.82000 144.736
62.83000 141.646
62.84000 140.506
62.85000 140.366
62.86000 140.283
62.87000 141.132
62.88000 142.312
62.89000 143.867
62.90000 148.894
62.91000 154.764
62.92000 159.875
62.93000 151.422
62.94000 142.336
62.95000 135.176
62.96000 135.488
62.97000 136.548
62.98000 138.363
62.99000 142.196
63.00000 146.139
63.01000 148.718
63.02000 147.978
63.03000 147.381
63.04000 147.202
63.05000 147.549
63.06000 147.896
63.07000 147.578
63.08000 146.707
63.09000 145.847
63.10000 144.053
63.11000 141.789
63.12000 139.797
63.13000 143.248
63.14000 148.830
63.15000 153.405
63.16000 147.246
63.17000 138.190
63.18000 130.173
63.19000 134.504
63.20000 140.186
63.21000 144.974
63.22000 145.901
63.23000 146.384
63.24000 146.276
63.25000 144.421
63.26000 142.451
63.27000 141.115
63.28000 145.974
63.29000 149.735
63.30000 151.391
63.31000 150.089
63.32000 148.768
63.33000 148.950
63.34000 150.534
63.35000 152.105
63.36000 153.981
63.37000 156.013
63.38000 157.859
63.39000 155.063
63.40000 150.260
63.41000 145.850
63.42000 146.330
63.43000 148.272
63.44000 150.019
63.45000 152.247
63.46000 154.283
63.47000 155.846
63.48000 155.127
63.49000 154.109
63.50000 152.462
63.51000 148.756
63.52000 144.890
63.53000 142.178
63.54000 148.962
63.55000 154.371
63.56000 156.146
63.57000 152.247
63.58000 148.280
63.59000 147.572
63.60000 150.278
63.61000 152.972
63.62000 156.021
63.63000 159.281
63.64000 162.388
63.65000 160.625
63.66000 156.532
63.67000 152.779
63.68000 154.028
63.69000 156.936
63.70000 159.587
63.71000 160.275
63.72000 160.491
63.73000 160.292
63.74000 157.854
63.75000 155.082
63.76000 152.976
63.77000 153.289
63.78000 153.822
63.79000 154.207
63.80000 153.094
63.81000 152.184
63.82000 153.525
63.83000 158.765
63.84000 164.073
63.85000 165.483
63.86000 162.316
63.87000 159.148
63.88000 158.421
63.89000 159.581
63.90000 160.703
63.91000 160.208
63.92000 158.857
63.93000 157.369
63.94000 153.461
63.95000 148.667
63.96000 144.236
63.97000 145.799
63.98000 148.558
63.99000 150.796
64.00000 149.884
64.01000 148.442
64.02000 147.452
64.03000 148.284
64.04000 149.307
64.05000 150.070
64.06000 154.941
64.07000 158.921
64.08000 161.033
64.09000 159.563
64.10000 158.004
64.11000 157.424
64.12000 158.125
64.13000 158.833
64.14000 160.138
64.15000 161.957
64.16000 163.750
64.17000 163.946
64.18000 163.207
64.19000 162.529
64.20000 163.168
64.21000 164.342
64.22000 165.440
64.23000 169.666
64.24000 174.299
64.25000 178.051
64.26000 175.791
64.27000 172.396
64.28000 169.251
64.29000 167.229
64.30000 165.343
64.31000 163.898
64.32000 167.209
64.33000 170.085
64.34000 170.960
64.35000 167.586
64.36000 164.073
64.37000 162.541
64.38000 163.901
64.39000 165.285
64.40000 167.650
64.41000 170.968
64.42000 174.231
64.43000 172.444
64.44000 167.374
64.45000 162.450
64.46000 161.501
64.47000 162.334
64.48000 163.122
64.49000 164.130
64.50000 165.118
64.51000 166.246
64.52000 168.455
64.53000 170.892
64.54000 172.595
64.55000 170.616
64.56000 168.131
64.57000 166.179
64.58000 168.545
64.59000 170.725
64.60000 171.607
64.61000 169.447
64.62000 167.160
64.63000 166.927
64.64000 170.023
64.65000 173.165
64.66000 174.806
64.67000 176.898
64.68000 178.299
64.69000 177.404
64.70000 174.848
64.71000 172.496
64.72000 177.277
64.73000 185.598
64.74000 193.541
64.75000 193.217
64.76000 190.276
64.77000 187.227
64.78000 183.213
64.79000 178.971
64.80000 175.796
64.81000 178.608
64.82000 182.352
64.83000 185.366
64.84000 183.977
64.85000 182.508
64.86000 181.648
64.87000 182.369
64.88000 183.171
64.89000 184.749
64.90000 187.722
64.91000 190.723
64.92000 192.375
64.93000 192.185
64.94000 192.054
64.95000 192.706
64.96000 193.990
64.97000 195.240
64.98000 194.822
64.99000 193.488
65.00000 192.204
65.01000 195.775
65.02000 200.862
65.03000 205.498
65.04000 205.524
65.05000 204.343
65.06000 203.896
65.07000 208.092
65.08000 213.103
65.09000 217.226
65.10000 212.318
65.11000 207.461
65.12000 203.887
65.13000 203.994
65.14000 204.329
65.15000 205.756
65.16000 209.353
65.17000 213.009
65.18000 215.122
65.19000 217.698
65.20000 219.506
65.21000 223.482
65.22000 229.412
65.23000 235.328
65.24000 240.300
65.25000 244.699
65.26000 248.968
65.27000 255.893
65.28000 263.523
65.29000 270.790
65.30000 273.748
65.31000 275.452
65.32000 277.257
65.33000 279.769
65.34000 282.421
65.35000 284.649
65.36000 291.205
65.37000 297.123
65.38000 302.758
65.39000 307.496
65.40000 312.166
65.41000 317.185
65.42000 322.970
65.43000 328.783
65.44000 332.299
65.45000 341.374
65.46000 347.882
65.47000 354.967
65.48000 362.636
65.49000 370.274
65.50000 374.448
65.51000 376.282
65.52000 378.075
65.53000 384.083
65.54000 391.719
65.55000 399.802
65.56000 414.160
65.57000 430.539
65.58000 445.097
65.59000 444.858
65.60000 441.370
65.61000 438.382
65.62000 452.327
65.63000 466.152
65.64000 480.608
65.65000 497.282
65.66000 514.149
65.67000 536.893
65.68000 573.933
65.69000 611.615
65.70000 635.385
65.71000 680.658
65.72000 713.690
65.73000 762.121
65.74000 828.062
65.75000 893.992
65.76000 954.274
65.77000 1010.311
65.78000 1065.412
65.79000 1113.846
65.80000 1157.378
65.81000 1199.797
65.82000 1223.595
65.83000 1240.758
65.84000 1257.618
65.85000 1271.655
65.86000 1285.002
65.87000 1296.638
65.88000 1292.969
65.89000 1287.705
65.90000 1278.046
65.91000 1251.203
65.92000 1222.625
65.93000 1190.533
65.94000 1148.994
65.95000 1106.934
65.96000 1079.351
65.97000 968.966
65.98000 886.410
65.99000 809.800
66.00000 740.747
66.01000 671.732
66.02000 608.819
66.03000 551.023
66.04000 493.905
66.05000 459.080
66.06000 437.491
66.07000 416.116
66.08000 399.109
66.09000 383.823
66.10000 369.157
66.11000 361.183
66.12000 355.028
66.13000 349.572
66.14000 348.300
66.15000 347.861
66.16000 347.215
66.17000 345.672
66.18000 344.024
66.19000 343.659
66.20000 347.113
66.21000 350.821
66.22000 353.342
66.23000 347.694
66.24000 343.292
66.25000 341.595
66.26000 343.726
66.27000 345.887
66.28000 358.984
66.29000 382.355
66.30000 405.548
66.31000 426.909
66.32000 446.769
66.33000 466.039
66.34000 470.386
66.35000 468.229
66.36000 466.616
66.37000 471.847
66.38000 479.140
66.39000 485.705
66.40000 488.027
66.41000 489.301
66.42000 489.400
66.43000 483.798
66.44000 477.439
66.45000 474.261
66.46000 481.561
66.47000 489.684
66.48000 495.396
66.49000 475.734
66.50000 460.090
66.51000 448.826
66.52000 444.454
66.53000 440.166
66.54000 429.580
66.55000 412.340
66.56000 395.176
66.57000 380.673
66.58000 368.170
66.59000 355.798
66.60000 347.681
66.61000 341.614
66.62000 335.880
66.63000 335.105
66.64000 335.985
66.65000 336.789
66.66000 337.032
66.67000 337.135
66.68000 337.845
66.69000 341.848
66.70000 346.347
66.71000 348.011
66.72000 339.319
66.73000 329.674
66.74000 322.677
66.75000 317.257
66.76000 313.150
66.77000 313.678
66.78000 322.293
66.79000 331.055
66.80000 335.743
66.81000 335.607
66.82000 335.462
66.83000 339.535
66.84000 346.863
66.85000 353.974
66.86000 351.692
66.87000 344.401
66.88000 337.635
66.89000 340.246
66.90000 346.321
66.91000 351.939
66.92000 355.360
66.93000 357.931
66.94000 360.794
66.95000 365.431
66.96000 370.370
66.97000 372.741
66.98000 364.683
66.99000 355.516
67.00000 348.668
67.01000 354.096
67.02000 358.893
67.03000 362.488
67.04000 363.761
67.05000 364.975
67.06000 365.645
67.07000 365.594
67.08000 365.539
67.09000 368.447
67.10000 373.930
67.11000 379.446
67.12000 386.911
67.13000 395.528
67.14000 403.694
67.15000 401.950
67.16000 396.158
67.17000 390.738
67.18000 386.338
67.19000 382.602
67.20000 379.056
67.21000 376.822
67.22000 374.837
67.23000 375.428
67.24000 387.660
67.25000 401.312
67.26000 411.792
67.27000 409.938
67.28000 407.784
67.29000 405.836
67.30000 404.328
67.31000 402.835
67.32000 404.694
67.33000 411.484
67.34000 418.318
67.35000 421.490
67.36000 421.076
67.37000 420.671
67.38000 421.186
67.39000 422.304
67.40000 423.377
67.41000 423.190
67.42000 422.434
67.43000 421.720
67.44000 420.977
67.45000 420.287
67.46000 420.002
67.47000 422.891
67.48000 426.455
67.49000 429.645
67.50000 430.947
67.51000 431.988
67.52000 432.807
67.53000 439.008
67.54000 444.336
67.55000 445.858
67.56000 438.387
67.57000 430.536
67.58000 428.110
67.59000 434.542
67.60000 441.101
67.61000 444.538
67.62000 457.573
67.63000 466.379
67.64000 470.845
67.65000 472.148
67.66000 473.413
67.67000 473.300
67.68000 472.499
67.69000 471.734
67.70000 481.189
67.71000 493.268
67.72000 503.514
67.73000 497.342
67.74000 487.274
67.75000 479.085
67.76000 481.533
67.77000 485.650
67.78000 488.970
67.79000 493.099
67.80000 496.516
67.81000 499.203
67.82000 499.981
67.83000 500.660
67.84000 502.658
67.85000 507.045
67.86000 511.481
67.87000 513.932
67.88000 524.849
67.89000 532.379
67.90000 534.288
67.91000 531.630
67.92000 529.115
67.93000 533.587
67.94000 541.922
67.95000 549.955
67.96000 551.636
67.97000 550.929
67.98000 551.058
67.99000 559.826
68.00000 570.872
68.01000 580.663
68.02000 582.457
68.03000 582.837
68.04000 583.150
68.05000 575.998
68.06000 569.425
68.07000 566.851
68.08000 575.839
68.09000 585.556
68.10000 591.850
68.11000 591.289
68.12000 590.536
68.13000 590.099
68.14000 608.014
68.15000 620.661
68.16000 626.951
68.17000 627.461
68.18000 628.052
68.19000 634.393
68.20000 644.258
68.21000 653.839
68.22000 654.797
68.23000 652.239
68.24000 650.286
68.25000 655.617
68.26000 663.080
68.27000 670.241
68.28000 675.227
68.29000 679.781
68.30000 683.613
68.31000 693.552
68.32000 702.490
68.33000 708.233
68.34000 703.753
68.35000 698.506
68.36000 701.670
68.37000 723.466
68.38000 745.940
68.39000 759.577
68.40000 767.545
68.41000 773.187
68.42000 777.766
68.43000 781.259
68.44000 784.768
68.45000 790.088
68.46000 796.638
68.47000 803.045
68.48000 817.639
68.49000 835.311
68.50000 852.637
68.51000 865.056
68.52000 875.883
68.53000 887.531
68.54000 905.914
68.55000 925.787
68.56000 942.830
68.57000 980.622
68.58000 1015.091
68.59000 1050.058
68.60000 1086.786
68.61000 1123.669
68.62000 1165.572
68.63000 1219.772
68.64000 1274.535
68.65000 1309.178
68.66000 1375.052
68.67000 1423.178
68.68000 1489.846
68.69000 1577.770
68.70000 1665.622
68.71000 1732.668
68.72000 1783.957
68.73000 1834.409
68.74000 1887.771
68.75000 1940.875
68.76000 1995.252
68.77000 2071.211
68.78000 2154.916
68.79000 2240.098
68.80000 2339.175
68.81000 2441.678
68.82000 2531.157
68.83000 2698.633
68.84000 2852.871
68.85000 3026.151
68.86000 3274.429
68.87000 3530.365
68.88000 3852.040
68.89000 4351.799
68.90000 4861.523
68.91000 5196.694
68.92000 7111.885
68.93000 8548.791
68.94000 10752.180
68.95000 13937.415
68.96000 17128.129
68.97000 21374.793
68.98000 26514.236
68.99000 31595.045
69.00000 37177.453
69.01000 42907.227
69.02000 48587.969
69.03000 53256.418
69.04000 57523.035
69.05000 61630.355
69.06000 64002.766
69.07000 65900.039
69.08000 67583.711
69.09000 68260.414
69.10000 68686.008
69.11000 69161.297
69.12000 69854.359
69.13000 70572.984
69.14000 71311.742
69.15000 72110.836
69.16000 72913.992
69.17000 73461.422
69.18000 73319.602
69.19000 73197.711
69.20000 72134.617
69.21000 69728.656
69.22000 67312.352
69.23000 63973.234
69.24000 59759.805
69.25000 55577.453
69.26000 51833.961
69.27000 48426.727
69.28000 45060.504
69.29000 42750.121
69.30000 40903.148
69.31000 39104.031
69.32000 37914.262
69.33000 36909.555
69.34000 36004.293
69.35000 34945.977
69.36000 33989.777
69.37000 32918.406
69.38000 31283.689
69.39000 29573.564
69.40000 27617.418
69.41000 24844.611
69.42000 22006.842
69.43000 20006.809
69.44000 16341.886
69.45000 13512.461
69.46000 11075.692
69.47000 9261.316
69.48000 7454.779
69.49000 6058.847
69.50000 5100.281
69.51000 4145.867
69.52000 3504.778
69.53000 3089.379
69.54000 2678.301
69.55000 2410.190
69.56000 2211.475
69.57000 2017.474
69.58000 1894.556
69.59000 1795.545
69.60000 1705.074
69.61000 1611.661
69.62000 1528.096
69.63000 1448.010
69.64000 1386.978
69.65000 1328.837
69.66000 1277.818
69.67000 1253.022
69.68000 1230.663
69.69000 1214.405
69.70000 1183.104
69.71000 1158.452
69.72000 1131.839
69.73000 1101.777
69.74000 1071.652
69.75000 1039.178
69.76000 1003.904
69.77000 968.693
69.78000 940.352
69.79000 917.534
69.80000 895.022
69.81000 886.055
69.82000 884.364
69.83000 882.264
69.84000 872.736
69.85000 860.444
69.86000 849.067
69.87000 842.692
69.88000 838.112
69.89000 832.410
69.90000 819.799
69.91000 806.006
69.92000 792.058
69.93000 777.474
69.94000 762.822
69.95000 751.855
69.96000 735.875
69.97000 723.172
69.98000 717.280
69.99000 724.644
70.00000 732.349
