20.00000 567.567
20.01000 570.215
20.02000 573.241
20.03000 574.425
20.04000 568.247
20.05000 561.303
20.06000 556.137
20.07000 569.170
20.08000 580.122
20.09000 581.342
20.10000 564.037
20.11000 546.285
20.12000 542.494
20.13000 556.859
20.14000 571.290
20.15000 575.911
20.16000 572.116
20.17000 568.261
20.18000 560.896
20.19000 551.488
20.20000 542.558
20.21000 543.757
20.22000 549.035
20.23000 553.965
20.24000 566.392
20.25000 579.557
20.26000 590.215
20.27000 583.907
20.28000 574.422
20.29000 565.204
20.30000 557.171
20.31000 549.280
20.32000 543.245
20.33000 554.923
20.34000 565.096
20.35000 572.968
20.36000 575.991
20.37000 578.859
20.38000 578.292
20.39000 572.753
20.40000 567.173
20.41000 563.274
20.42000 560.995
20.43000 558.772
20.44000 561.499
20.45000 567.421
20.46000 573.167
20.47000 574.252
20.48000 573.261
20.49000 572.325
20.50000 572.134
20.51000 572.171
20.52000 572.252
20.53000 572.681
20.54000 573.182
20.55000 573.198
20.56000 570.803
20.57000 568.079
20.58000 565.942
20.59000 565.999
20.60000 566.188
20.61000 566.453
20.62000 566.897
20.63000 567.348
20.64000 568.050
20.65000 569.155
20.66000 570.266
20.67000 570.843
20.68000 568.303
20.69000 566.587
20.70000 564.932
20.71000 563.319
20.72000 561.607
20.73000 556.444
20.74000 549.583
20.75000 543.038
20.76000 557.735
20.77000 578.100
20.78000 595.026
20.79000 581.754
20.80000 561.428
20.81000 543.783
20.82000 541.059
20.83000 540.638
20.84000 540.299
20.85000 553.068
20.86000 564.427
20.87000 572.882
20.88000 573.864
20.89000 574.467
20.90000 572.946
20.91000 567.639
20.92000 562.257
20.93000 559.306
20.94000 561.463
20.95000 562.949
20.96000 562.729
20.97000 561.145
20.98000 559.576
20.99000 558.727
21.00000 558.270
21.01000 557.830
21.02000 558.459
21.03000 559.427
21.04000 560.330
21.05000 560.574
21.06000 560.646
21.07000 561.740
21.08000 569.229
21.09000 577.830
21.10000 584.896
21.11000 562.499
21.12000 541.451
21.13000 525.129
21.14000 522.265
21.15000 520.227
21.16000 524.091
21.17000 539.605
21.18000 555.430
21.19000 564.548
21.20000 555.598
21.21000 549.267
21.22000 547.043
21.23000 548.491
21.24000 549.994
21.25000 555.075
21.26000 562.317
21.27000 569.343
21.28000 564.884
21.29000 556.114
21.30000 548.371
21.31000 552.706
21.32000 560.524
21.33000 567.885
21.34000 572.007
21.35000 575.499
21.36000 578.428
21.37000 571.425
21.38000 564.560
21.39000 559.410
21.40000 559.663
21.41000 560.311
21.42000 559.165
21.43000 554.103
21.44000 548.903
21.45000 545.768
21.46000 560.439
21.47000 571.008
21.48000 576.643
21.49000 577.324
21.50000 577.956
21.51000 573.602
21.52000 565.905
21.53000 558.386
21.54000 555.256
21.55000 554.198
21.56000 553.182
21.57000 552.737
21.58000 552.474
21.59000 553.015
21.60000 560.024
21.61000 568.441
21.62000 575.640
21.63000 579.667
21.64000 582.681
21.65000 586.046
21.66000 590.636
21.67000 595.332
21.68000 596.808
21.69000 590.512
21.70000 583.873
21.71000 579.697
21.72000 608.531
21.73000 629.755
21.74000 634.634
21.75000 621.083
21.76000 607.580
21.77000 606.306
21.78000 614.150
21.79000 621.860
21.80000 639.613
21.81000 661.726
21.82000 682.589
21.83000 682.825
21.84000 675.767
21.85000 670.808
21.86000 685.208
21.87000 704.305
21.88000 720.935
21.89000 743.178
21.90000 762.947
21.91000 779.840
21.92000 785.579
21.93000 790.202
21.94000 797.691
21.95000 812.830
21.96000 828.385
21.97000 838.557
21.98000 854.142
21.99000 865.678
22.00000 870.734
22.01000 867.620
22.02000 864.488
22.03000 865.059
22.04000 868.710
22.05000 872.316
22.06000 877.854
22.07000 884.316
22.08000 889.598
22.09000 871.236
22.10000 843.624
22.11000 818.435
22.12000 819.052
22.13000 826.629
22.14000 833.337
22.15000 822.993
22.16000 811.375
22.17000 799.745
22.18000 788.070
22.19000 776.389
22.20000 766.345
22.21000 761.131
22.22000 756.235
22.23000 752.914
22.24000 716.969
22.25000 689.442
22.26000 673.393
22.27000 673.467
22.28000 673.652
22.29000 671.924
22.30000 668.415
22.31000 664.933
22.32000 656.456
22.33000 645.053
22.34000 633.820
22.35000 626.823
22.36000 621.658
22.37000 616.790
22.38000 615.610
22.39000 615.534
22.40000 615.466
22.41000 613.088
22.42000 610.595
22.43000 606.543
22.44000 594.985
22.45000 582.441
22.46000 572.798
22.47000 572.640
22.48000 573.219
22.49000 573.625
22.50000 569.380
22.51000 566.033
22.52000 562.212
22.53000 557.651
22.54000 553.082
22.55000 550.477
22.56000 549.929
22.57000 549.383
22.58000 545.259
22.59000 538.716
22.60000 532.359
22.61000 531.890
22.62000 534.238
22.63000 536.540
22.64000 538.168
22.65000 539.573
22.66000 540.854
22.67000 543.580
22.68000 546.287
22.69000 548.456
22.70000 547.730
22.71000 546.572
22.72000 546.711
22.73000 551.548
22.74000 556.813
22.75000 560.624
22.76000 546.802
22.77000 535.544
22.78000 527.844
22.79000 526.302
22.80000 524.870
22.81000 527.567
22.82000 535.110
22.83000 542.643
22.84000 542.331
22.85000 535.974
22.86000 529.647
22.87000 524.578
22.88000 520.177
22.89000 516.296
22.90000 521.594
22.91000 530.258
22.92000 538.263
22.93000 536.430
22.94000 532.560
22.95000 528.565
22.96000 523.816
22.97000 518.941
22.98000 516.787
22.99000 525.597
23.00000 535.560
23.01000 542.988
23.02000 528.858
23.03000 516.879
23.04000 509.994
23.05000 512.878
23.06000 516.004
23.07000 519.721
23.08000 524.214
23.09000 528.708
23.10000 527.250
23.11000 520.654
23.12000 514.202
23.13000 516.362
23.14000 523.571
23.15000 530.438
23.16000 529.917
23.17000 526.401
23.18000 523.113
23.19000 518.753
23.20000 514.521
23.21000 510.715
23.22000 509.814
23.23000 509.461
23.24000 510.485
23.25000 517.687
23.26000 525.635
23.27000 531.724
23.28000 515.470
23.29000 501.405
23.30000 493.811
23.31000 499.944
23.32000 506.524
23.33000 510.091
23.34000 509.260
23.35000 508.391
23.36000 509.634
23.37000 512.925
23.38000 516.118
23.39000 510.332
23.40000 498.707
23.41000 487.612
23.42000 490.850
23.43000 500.514
23.44000 509.649
23.45000 507.097
23.46000 501.423
23.47000 496.312
23.48000 495.576
23.49000 495.763
23.50000 496.847
23.51000 502.425
23.52000 508.622
23.53000 513.491
23.54000 522.270
23.55000 529.555
23.56000 530.062
23.57000 514.672
23.58000 498.622
23.59000 492.445
23.60000 502.266
23.61000 512.306
23.62000 517.547
23.63000 517.576
23.64000 517.576
23.65000 514.631
23.66000 509.559
23.67000 504.628
23.68000 504.672
23.69000 507.182
23.70000 509.578
23.71000 507.094
23.72000 503.230
23.73000 499.789
23.74000 500.096
23.75000 501.284
23.76000 503.178
23.77000 509.027
23.78000 515.492
23.79000 520.695
23.80000 519.120
23.81000 517.315
23.82000 514.661
23.83000 509.805
23.84000 504.836
23.85000 504.127
23.86000 511.069
23.87000 518.165
23.88000 522.071
23.89000 505.735
23.90000 494.467
23.91000 489.825
23.92000 490.521
23.93000 491.172
23.94000 489.659
23.95000 486.958
23.96000 484.356
23.97000 483.029
23.98000 482.238
23.99000 482.336
24.00000 491.518
24.01000 503.078
24.02000 513.263
24.03000 514.762
24.04000 514.737
24.05000 514.718
24.06000 509.739
24.07000 505.194
24.08000 500.065
24.09000 493.260
24.10000 486.351
24.11000 481.159
24.12000 479.382
24.13000 477.700
24.14000 476.727
24.15000 501.033
24.16000 518.162
24.17000 522.514
24.18000 515.347
24.19000 508.288
24.20000 508.681
24.21000 513.604
24.22000 518.384
24.23000 513.230
24.24000 504.380
24.25000 496.159
24.26000 495.420
24.27000 496.854
24.28000 497.608
24.29000 493.498
24.30000 488.433
24.31000 484.178
24.32000 494.374
24.33000 504.393
24.34000 511.219
24.35000 507.908
24.36000 503.845
24.37000 499.334
24.38000 493.839
24.39000 488.308
24.40000 484.962
24.41000 496.075
24.42000 504.100
24.43000 502.796
24.44000 492.043
24.45000 481.366
24.46000 478.901
24.47000 481.981
24.48000 484.992
24.49000 481.412
24.50000 475.046
24.51000 469.236
24.52000 471.202
24.53000 475.671
24.54000 480.354
24.55000 486.788
24.56000 493.606
24.57000 499.445
24.58000 494.069
24.59000 488.171
24.60000 483.347
24.61000 482.303
24.62000 481.587
24.63000 481.347
24.64000 482.262
24.65000 483.229
24.66000 483.839
24.67000 475.936
24.68000 470.116
24.69000 470.698
24.70000 478.560
24.71000 486.409
24.72000 490.136
24.73000 490.765
24.74000 491.384
24.75000 488.386
24.76000 483.687
24.77000 479.013
24.78000 474.757
24.79000 470.649
24.80000 467.721
24.81000 475.781
24.82000 486.528
24.83000 495.898
24.84000 493.701
24.85000 490.217
24.86000 487.476
24.87000 487.637
24.88000 488.091
24.89000 488.126
24.90000 487.037
24.91000 485.886
24.92000 485.131
24.93000 482.167
24.94000 479.950
24.95000 482.005
24.96000 489.489
24.97000 496.973
24.98000 495.275
24.99000 485.877
25.00000 476.589
25.01000 477.716
25.02000 484.600
25.03000 491.057
25.04000 488.854
25.05000 483.239
25.06000 477.703
25.07000 473.024
25.08000 468.579
25.09000 464.639
25.10000 470.731
25.11000 477.592
25.12000 484.983
25.13000 494.680
25.14000 504.644
25.15000 508.695
25.16000 495.154
25.17000 480.446
25.18000 470.446
25.19000 472.963
25.20000 475.125
25.21000 477.065
25.22000 478.693
25.23000 480.317
25.24000 477.421
25.25000 470.279
25.26000 463.192
25.27000 459.664
25.28000 458.405
25.29000 457.344
25.30000 461.309
25.31000 467.462
25.32000 473.057
25.33000 471.630
25.34000 468.085
25.35000 464.895
25.36000 470.564
25.37000 477.121
25.38000 481.931
25.39000 478.271
25.40000 473.489
25.41000 469.436
25.42000 467.790
25.43000 466.333
25.44000 465.309
25.45000 473.334
25.46000 479.680
25.47000 481.865
25.48000 477.505
25.49000 473.065
25.50000 472.459
25.51000 475.902
25.52000 479.330
25.53000 478.855
25.54000 475.677
25.55000 472.693
25.56000 476.000
25.57000 482.338
25.58000 488.028
25.59000 484.079
25.60000 476.911
25.61000 470.369
25.62000 473.829
25.63000 478.926
25.64000 482.612
25.65000 478.637
25.66000 473.511
25.67000 468.683
25.68000 464.945
25.69000 461.308
25.70000 458.670
25.71000 468.156
25.72000 475.898
25.73000 480.193
25.74000 478.475
25.75000 476.647
25.76000 474.294
25.77000 471.319
25.78000 468.349
25.79000 466.424
25.80000 465.320
25.81000 464.231
25.82000 463.822
25.83000 463.775
25.84000 463.895
25.85000 467.000
25.86000 471.206
25.87000 475.095
25.88000 473.155
25.89000 470.082
25.90000 467.837
25.91000 470.644
25.92000 474.306
25.93000 476.149
25.94000 470.605
25.95000 464.276
25.96000 459.549
25.97000 456.569
25.98000 454.328
25.99000 451.984
26.00000 449.445
26.01000 446.900
26.02000 449.027
26.03000 457.327
26.04000 465.650
26.05000 469.223
26.06000 468.652
26.07000 468.008
26.08000 462.939
26.09000 455.256
26.10000 448.054
26.11000 451.378
26.12000 459.001
26.13000 466.134
26.14000 469.660
26.15000 471.940
26.16000 472.636
26.17000 462.414
26.18000 450.114
26.19000 440.897
26.20000 445.618
26.21000 452.038
26.22000 456.965
26.23000 457.608
26.24000 457.878
26.25000 458.266
26.26000 458.907
26.27000 459.557
26.28000 461.060
26.29000 463.819
26.30000 466.589
26.31000 466.743
26.32000 464.335
26.33000 461.928
26.34000 459.557
26.35000 457.209
26.36000 455.092
26.37000 459.364
26.38000 466.520
26.39000 473.290
26.40000 474.462
26.41000 473.930
26.42000 472.687
26.43000 465.873
26.44000 457.873
26.45000 451.643
26.46000 454.352
26.47000 458.302
26.48000 461.411
26.49000 466.473
26.50000 470.659
26.51000 471.324
26.52000 463.672
26.53000 455.669
26.54000 451.272
26.55000 452.762
26.56000 454.335
26.57000 455.160
26.58000 456.277
26.59000 457.034
26.60000 457.675
26.61000 458.233
26.62000 458.866
26.63000 462.187
26.64000 466.850
26.65000 471.304
26.66000 469.615
26.67000 466.068
26.68000 462.823
26.69000 462.279
26.70000 462.376
26.71000 461.477
26.72000 454.940
26.73000 447.517
26.74000 441.533
26.75000 451.170
26.76000 460.225
26.77000 466.928
26.78000 467.489
26.79000 467.730
26.80000 468.635
26.81000 470.739
26.82000 472.869
26.83000 474.045
26.84000 465.939
26.85000 460.326
26.86000 452.616
26.87000 443.204
26.88000 434.076
26.89000 438.784
26.90000 451.140
26.91000 463.048
26.92000 461.219
26.93000 454.559
26.94000 448.472
26.95000 448.301
26.96000 449.690
26.97000 450.229
26.98000 445.355
26.99000 439.525
27.00000 434.719
27.01000 442.462
27.02000 449.987
27.03000 456.717
27.04000 461.148
27.05000 465.434
27.06000 463.673
27.07000 449.802
27.08000 435.592
27.09000 427.350
27.10000 430.486
27.11000 432.733
27.12000 430.701
27.13000 424.778
27.14000 419.018
27.15000 424.751
27.16000 437.526
27.17000 449.933
27.18000 450.762
27.19000 446.894
27.20000 443.456
27.21000 445.176
27.22000 448.406
27.23000 451.415
27.24000 452.832
27.25000 453.935
27.26000 454.862
27.27000 449.240
27.28000 443.854
27.29000 439.113
27.30000 436.435
27.31000 433.912
27.32000 433.000
27.33000 435.656
27.34000 438.443
27.35000 440.133
27.36000 448.078
27.37000 453.794
27.38000 453.723
27.39000 447.740
27.40000 441.756
27.41000 435.639
27.42000 429.432
27.43000 423.362
27.44000 424.055
27.45000 427.754
27.46000 431.411
27.47000 434.463
27.48000 437.319
27.49000 440.494
27.50000 446.295
27.51000 452.678
27.52000 458.151
27.53000 452.161
27.54000 445.696
27.55000 442.061
27.56000 448.461
27.57000 455.744
27.58000 459.072
27.59000 452.717
27.60000 445.920
27.61000 441.620
27.62000 431.403
27.63000 423.926
27.64000 419.851
27.65000 419.674
27.66000 419.503
27.67000 419.559
27.68000 419.787
27.69000 420.011
27.70000 423.259
27.71000 427.918
27.72000 432.546
27.73000 436.656
27.74000 440.581
27.75000 443.651
27.76000 438.688
27.77000 431.745
27.78000 425.685
27.79000 430.199
27.80000 435.543
27.81000 439.708
27.82000 439.228
27.83000 438.274
27.84000 437.557
27.85000 437.482
27.86000 437.443
27.87000 437.418
27.88000 426.545
27.89000 418.356
27.90000 420.242
27.91000 435.030
27.92000 449.848
27.93000 453.772
27.94000 448.491
27.95000 443.270
27.96000 441.682
27.97000 442.164
27.98000 442.459
27.99000 438.895
28.00000 433.799
28.01000 429.100
28.02000 428.721
28.03000 429.525
28.04000 430.239
28.05000 431.216
28.06000 432.106
28.07000 434.463
28.08000 443.254
28.09000 452.799
28.10000 458.629
28.11000 453.329
28.12000 447.280
28.13000 443.157
28.14000 439.143
28.15000 436.145
28.16000 435.773
28.17000 439.143
28.18000 442.541
28.19000 441.390
28.20000 435.929
28.21000 430.508
28.22000 430.678
28.23000 434.340
28.24000 438.028
28.25000 442.383
28.26000 447.030
28.27000 451.190
28.28000 449.154
28.29000 445.238
28.30000 441.709
28.31000 444.818
28.32000 448.745
28.33000 450.387
28.34000 440.847
28.35000 429.812
28.36000 419.410
28.37000 411.110
28.38000 402.977
28.39000 397.246
28.40000 416.694
28.41000 432.198
28.42000 437.611
28.43000 427.034
28.44000 416.257
28.45000 412.653
28.46000 416.689
28.47000 420.709
28.48000 423.296
28.49000 424.856
28.50000 426.348
28.51000 425.593
28.52000 423.748
28.53000 422.148
28.54000 424.262
28.55000 427.625
28.56000 430.697
28.57000 434.120
28.58000 437.233
28.59000 438.536
28.60000 429.931
28.61000 419.824
28.62000 413.129
28.63000 418.994
28.64000 426.026
28.65000 431.138
28.66000 425.230
28.67000 420.268
28.68000 419.757
28.69000 427.064
28.70000 434.518
28.71000 439.304
28.72000 440.909
28.73000 442.504
28.74000 439.021
28.75000 431.578
28.76000 424.258
28.77000 422.360
28.78000 423.373
28.79000 424.367
28.80000 425.029
28.81000 425.567
28.82000 426.064
28.83000 421.565
28.84000 416.372
28.85000 412.433
28.86000 416.216
28.87000 421.319
28.88000 424.868
28.89000 422.062
28.90000 418.573
28.91000 415.962
28.92000 418.939
28.93000 421.523
28.94000 421.729
28.95000 417.308
28.96000 412.768
28.97000 411.432
28.98000 414.361
28.99000 417.310
29.00000 420.892
29.01000 425.024
29.02000 429.080
29.03000 428.299
29.04000 424.642
29.05000 421.199
29.06000 422.517
29.07000 425.794
29.08000 428.863
29.09000 433.807
29.10000 438.789
29.11000 442.282
29.12000 435.422
29.13000 426.576
29.14000 420.412
29.15000 426.460
29.16000 434.012
29.17000 439.819
29.18000 425.979
29.19000 413.919
29.20000 407.407
29.21000 412.835
29.22000 418.667
29.23000 422.409
29.24000 423.054
29.25000 423.671
29.26000 423.065
29.27000 421.251
29.28000 419.430
29.29000 416.863
29.30000 413.805
29.31000 410.735
29.32000 407.338
29.33000 403.791
29.34000 400.434
29.35000 410.276
29.36000 423.156
29.37000 434.100
29.38000 429.749
29.39000 422.119
29.40000 416.033
29.41000 417.808
29.42000 420.683
29.43000 422.950
29.44000 420.397
29.45000 418.023
29.46000 418.926
29.47000 427.625
29.48000 436.659
29.49000 438.679
29.50000 429.167
29.51000 419.486
29.52000 414.392
29.53000 418.645
29.54000 421.506
29.55000 419.611
29.56000 414.224
29.57000 409.179
29.58000 416.606
29.59000 430.307
29.60000 443.404
29.61000 434.747
29.62000 419.638
29.63000 406.521
29.64000 411.412
29.65000 420.609
29.66000 427.108
29.67000 418.219
29.68000 406.893
29.69000 397.748
29.70000 401.458
29.71000 405.498
29.72000 410.249
29.73000 416.871
29.74000 423.593
29.75000 425.175
29.76000 417.391
29.77000 409.410
29.78000 404.984
29.79000 406.552
29.80000 407.661
29.81000 414.920
29.82000 427.213
29.83000 439.341
29.84000 443.236
29.85000 442.548
29.86000 441.883
29.87000 444.700
29.88000 448.611
29.89000 451.631
29.90000 445.347
29.91000 436.592
29.92000 429.582
29.93000 433.782
29.94000 439.979
29.95000 445.095
29.96000 443.628
29.97000 441.807
29.98000 441.992
29.99000 448.017
30.00000 454.414
30.01000 460.131
30.02000 464.476
30.03000 468.782
30.04000 471.288
30.05000 454.747
30.06000 443.046
30.07000 441.943
30.08000 450.553
30.09000 459.046
30.10000 459.074
30.11000 453.875
30.12000 448.824
30.13000 450.246
30.14000 454.219
30.15000 458.087
30.16000 460.669
30.17000 462.872
30.18000 464.480
30.19000 461.754
30.20000 458.162
30.21000 455.136
30.22000 449.924
30.23000 445.338
30.24000 442.447
30.25000 445.018
30.26000 448.004
30.27000 451.159
30.28000 454.690
30.29000 458.235
30.30000 460.393
30.31000 463.388
30.32000 465.534
30.33000 459.281
30.34000 444.376
30.35000 429.571
30.36000 426.522
30.37000 431.532
30.38000 436.433
30.39000 440.451
30.40000 443.907
30.41000 446.868
30.42000 442.723
30.43000 436.257
30.44000 430.873
30.45000 434.456
30.46000 440.037
30.47000 444.830
30.48000 448.030
30.49000 450.537
30.50000 452.210
30.51000 450.900
30.52000 449.324
30.53000 448.521
30.54000 449.624
30.55000 450.816
30.56000 451.571
30.57000 439.779
30.58000 431.068
30.59000 430.397
30.60000 439.017
30.61000 447.638
30.62000 454.054
30.63000 458.788
30.64000 463.446
30.65000 466.342
30.66000 468.256
30.67000 470.051
30.68000 469.813
30.69000 468.841
30.70000 468.369
30.71000 472.643
30.72000 478.096
30.73000 482.861
30.74000 486.594
30.75000 489.644
30.76000 492.787
30.77000 496.295
30.78000 499.841
30.79000 502.035
30.80000 500.542
30.81000 498.839
30.82000 497.716
30.83000 497.217
30.84000 496.861
30.85000 500.217
30.86000 508.365
30.87000 516.530
30.88000 523.287
30.89000 528.843
30.90000 534.338
30.91000 538.410
30.92000 541.583
30.93000 544.922
30.94000 551.704
30.95000 559.863
30.96000 568.581
30.97000 583.450
30.98000 600.016
30.99000 614.733
31.00000 640.905
31.01000 665.448
31.02000 688.212
31.03000 703.126
31.04000 717.110
31.05000 738.087
31.06000 780.170
31.07000 823.690
31.08000 853.424
31.09000 917.799
31.10000 966.775
31.11000 1017.712
31.12000 1071.469
31.13000 1125.250
31.14000 1190.150
31.15000 1265.667
31.16000 1340.646
31.17000 1427.934
31.18000 1521.586
31.19000 1615.660
31.20000 1720.802
31.21000 1830.834
31.22000 1941.138
31.23000 2054.926
31.24000 2169.781
31.25000 2273.371
31.26000 2418.226
31.27000 2552.950
31.28000 2684.153
31.29000 2797.996
31.30000 2909.495
31.31000 3016.557
31.32000 3108.784
31.33000 3199.818
31.34000 3264.120
31.35000 3328.768
31.36000 3377.857
31.37000 3412.561
31.38000 3424.301
31.39000 3435.743
31.40000 3427.622
31.41000 3398.498
31.42000 3369.485
31.43000 3319.260
31.44000 3254.566
31.45000 3189.387
31.46000 3107.851
31.47000 3018.319
31.48000 2926.539
31.49000 2800.437
31.50000 2662.711
31.51000 2536.748
31.52000 2410.897
31.53000 2299.052
31.54000 2188.613
31.55000 2085.939
31.56000 1984.453
31.57000 1881.327
31.58000 1772.123
31.59000 1662.348
31.60000 1582.367
31.61000 1480.430
31.62000 1401.083
31.63000 1327.072
31.64000 1262.504
31.65000 1198.118
31.66000 1136.978
31.67000 1079.742
31.68000 1022.617
31.69000 972.783
31.70000 928.938
31.71000 885.304
31.72000 851.278
31.73000 822.448
31.74000 793.692
31.75000 766.297
31.76000 739.412
31.77000 714.507
31.78000 688.263
31.79000 664.344
31.80000 641.252
31.81000 623.299
31.82000 606.232
31.83000 588.309
31.84000 566.860
31.85000 545.029
31.86000 528.657
31.87000 527.300
31.88000 526.952
31.89000 523.253
31.90000 512.987
31.91000 502.548
31.92000 496.407
31.93000 496.032
31.94000 495.687
31.95000 490.852
31.96000 482.044
31.97000 473.318
31.98000 469.807
31.99000 469.421
32.00000 468.767
32.01000 462.039
32.02000 452.793
32.03000 444.128
32.04000 436.689
32.05000 430.237
32.06000 424.627
32.07000 424.929
32.08000 426.374
32.09000 428.168
32.10000 431.564
32.11000 435.160
32.12000 437.930
32.13000 434.855
32.14000 432.084
32.15000 429.437
32.16000 427.057
32.17000 424.685
32.18000 425.870
32.19000 432.362
32.20000 438.905
32.21000 434.083
32.22000 417.943
32.23000 401.916
32.24000 397.251
32.25000 400.143
32.26000 402.923
32.27000 402.474
32.28000 400.547
32.29000 398.722
32.30000 400.633
32.31000 403.485
32.32000 406.074
32.33000 406.564
32.34000 406.601
32.35000 406.893
32.36000 408.495
32.37000 410.282
32.38000 411.694
32.39000 409.878
32.40000 408.200
32.41000 404.802
32.42000 397.282
32.43000 389.581
32.44000 387.390
32.45000 394.324
32.46000 401.396
32.47000 405.131
32.48000 402.837
32.49000 401.291
32.50000 402.532
32.51000 405.834
32.52000 409.072
32.53000 409.898
32.54000 409.503
32.55000 409.124
32.56000 409.139
32.57000 409.280
32.58000 409.274
32.59000 407.918
32.60000 406.237
32.61000 404.186
32.62000 400.005
32.63000 395.485
32.64000 391.829
32.65000 388.794
32.66000 386.374
32.67000 384.663
32.68000 384.828
32.69000 385.093
32.70000 386.657
32.71000 390.606
32.72000 394.606
32.73000 396.832
32.74000 405.928
32.75000 412.216
32.76000 411.337
32.77000 404.543
32.78000 397.872
32.79000 397.505
32.80000 400.674
32.81000 403.731
32.82000 409.354
32.83000 415.585
32.84000 421.819
32.85000 428.086
32.86000 434.362
32.87000 439.615
32.88000 438.241
32.89000 435.676
32.90000 433.555
32.91000 436.288
32.92000 438.998
32.93000 440.934
32.94000 440.602
32.95000 440.124
32.96000 440.660
32.97000 443.259
32.98000 445.917
32.99000 447.470
33.00000 439.091
33.01000 433.150
33.02000 424.999
33.03000 414.807
33.04000 404.677
33.05000 399.150
33.06000 396.486
33.07000 393.896
33.08000 386.417
33.09000 377.309
33.10000 368.687
33.11000 366.040
33.12000 365.169
33.13000 364.247
33.14000 362.950
33.15000 361.578
33.16000 360.421
33.17000 358.788
33.18000 357.373
33.19000 356.993
33.20000 359.976
33.21000 363.218
33.22000 365.350
33.23000 364.990
33.24000 364.536
33.25000 364.259
33.26000 361.375
33.27000 359.291
33.28000 355.796
33.29000 350.835
33.30000 345.952
33.31000 350.589
33.32000 361.802
33.33000 372.776
33.34000 368.936
33.35000 358.492
33.36000 348.777
33.37000 349.635
33.38000 353.971
33.39000 357.550
33.40000 354.799
33.41000 350.624
33.42000 347.035
33.43000 354.363
33.44000 361.929
33.45000 366.715
33.46000 361.497
33.47000 355.379
33.48000 350.745
33.49000 349.799
33.50000 349.027
33.51000 348.536
33.52000 349.834
33.53000 350.799
33.54000 351.069
33.55000 350.530
33.56000 350.002
33.57000 352.162
33.58000 356.390
33.59000 360.552
33.60000 355.468
33.61000 345.833
33.62000 336.648
33.63000 335.280
33.64000 336.757
33.65000 338.325
33.66000 340.769
33.67000 343.433
33.68000 345.763
33.69000 340.126
33.70000 334.156
33.71000 330.378
33.72000 335.367
33.73000 341.269
33.74000 345.837
33.75000 346.738
33.76000 347.430
33.77000 347.886
33.78000 350.567
33.79000 352.585
33.80000 351.000
33.81000 344.730
33.82000 338.449
33.83000 338.618
33.84000 344.327
33.85000 349.974
33.86000 351.897
33.87000 351.658
33.88000 351.324
33.89000 348.972
33.90000 345.807
33.91000 342.459
33.92000 337.080
33.93000 331.136
33.94000 325.849
33.95000 330.046
33.96000 335.230
33.97000 339.199
33.98000 337.766
33.99000 335.686
34.00000 334.187
34.01000 334.456
34.02000 334.847
34.03000 335.114
34.04000 338.456
34.05000 341.032
34.06000 341.255
34.07000 338.069
34.08000 334.856
34.09000 336.798
34.10000 343.704
34.11000 350.563
34.12000 348.411
34.13000 340.566
34.14000 332.881
34.15000 329.446
34.16000 327.903
34.17000 326.620
34.18000 328.723
34.19000 331.869
34.20000 334.710
34.21000 331.650
34.22000 327.875
34.23000 325.172
34.24000 327.794
34.25000 331.142
34.26000 334.026
34.27000 335.345
34.28000 336.537
34.29000 337.380
34.30000 334.425
34.31000 332.062
34.32000 330.747
34.33000 331.118
34.34000 331.512
34.35000 331.931
34.36000 332.377
34.37000 332.821
34.38000 332.699
34.39000 332.175
34.40000 331.691
34.41000 332.547
34.42000 334.065
34.43000 335.395
34.44000 333.836
34.45000 331.292
34.46000 328.963
34.47000 323.198
34.48000 317.355
34.49000 313.852
34.50000 323.375
34.51000 334.907
34.52000 343.451
34.53000 340.829
34.54000 337.148
34.55000 334.460
34.56000 336.938
34.57000 339.049
34.58000 337.563
34.59000 329.659
34.60000 321.630
34.61000 320.203
34.62000 326.779
34.63000 333.361
34.64000 336.875
34.65000 337.933
34.66000 338.913
34.67000 336.348
34.68000 331.851
34.69000 327.539
34.70000 326.688
34.71000 327.143
34.72000 327.564
34.73000 327.717
34.74000 327.792
34.75000 327.460
34.76000 324.580
34.77000 321.257
34.78000 318.823
34.79000 320.077
34.80000 321.734
34.81000 322.980
34.82000 322.602
34.83000 322.229
34.84000 323.004
34.85000 326.047
34.86000 329.150
34.87000 329.885
34.88000 327.418
34.89000 324.934
34.90000 326.959
34.91000 333.009
34.92000 338.907
34.93000 334.720
34.94000 324.442
34.95000 314.713
34.96000 317.568
34.97000 325.675
34.98000 333.279
34.99000 328.607
35.00000 321.126
35.01000 314.708
35.02000 315.826
35.03000 318.412
35.04000 320.749
35.05000 321.930
35.06000 322.967
35.07000 323.767
35.08000 323.620
35.09000 323.449
35.10000 322.823
35.11000 321.205
35.12000 319.552
35.13000 318.392
35.14000 317.974
35.15000 317.562
35.16000 317.356
35.17000 316.753
35.18000 316.374
35.19000 318.412
35.20000 322.071
35.21000 325.589
35.22000 325.009
35.23000 322.538
35.24000 320.196
35.25000 321.193
35.26000 323.096
35.27000 324.554
35.28000 322.439
35.29000 319.544
35.30000 316.035
35.31000 309.342
35.32000 302.196
35.33000 296.540
35.34000 308.260
35.35000 318.880
35.36000 326.708
35.37000 327.796
35.38000 328.586
35.39000 329.185
35.40000 329.467
35.41000 329.744
35.42000 329.890
35.43000 319.666
35.44000 312.740
35.45000 312.034
35.46000 315.967
35.47000 319.641
35.48000 313.477
35.49000 302.290
35.50000 291.584
35.51000 298.099
35.52000 309.845
35.53000 320.775
35.54000 324.164
35.55000 325.724
35.56000 326.600
35.57000 323.512
35.58000 319.785
35.59000 316.765
35.60000 313.969
35.61000 311.709
35.62000 310.742
35.63000 313.225
35.64000 315.896
35.65000 315.628
35.66000 309.928
35.67000 304.107
35.68000 300.857
35.69000 309.916
35.70000 316.207
35.71000 318.379
35.72000 317.123
35.73000 315.835
35.74000 312.852
35.75000 308.911
35.76000 305.108
35.77000 299.973
35.78000 294.645
35.79000 290.465
35.80000 298.508
35.81000 309.848
35.82000 319.352
35.83000 316.862
35.84000 312.197
35.85000 308.336
35.86000 308.890
35.87000 309.767
35.88000 310.037
35.89000 308.516
35.90000 306.877
35.91000 306.030
35.92000 306.803
35.93000 307.624
35.94000 308.105
35.95000 306.567
35.96000 305.475
35.97000 306.550
35.98000 309.643
35.99000 312.701
36.00000 313.024
36.01000 311.633
36.02000 310.280
36.03000 308.377
36.04000 306.339
36.05000 304.713
36.06000 308.203
36.07000 313.225
36.08000 317.123
36.09000 312.702
36.10000 306.593
36.11000 301.432
36.12000 300.010
36.13000 299.231
36.14000 299.865
36.15000 305.118
36.16000 310.729
36.17000 312.061
36.18000 303.708
36.19000 294.984
36.20000 289.642
36.21000 288.451
36.22000 287.634
36.23000 293.912
36.24000 307.621
36.25000 321.215
36.26000 320.012
36.27000 308.510
36.28000 297.248
36.29000 296.912
36.30000 301.610
36.31000 306.130
36.32000 308.017
36.33000 309.033
36.34000 309.268
36.35000 302.912
36.36000 295.064
36.37000 288.307
36.38000 292.111
36.39000 296.665
36.40000 301.954
36.41000 309.907
36.42000 318.102
36.43000 322.218
36.44000 316.125
36.45000 309.545
36.46000 305.347
36.47000 299.386
36.48000 295.028
36.49000 293.035
36.50000 293.820
36.51000 294.609
36.52000 295.355
36.53000 296.067
36.54000 296.769
36.55000 295.137
36.56000 292.357
36.57000 290.010
36.58000 295.298
36.59000 303.385
36.60000 310.688
36.61000 310.380
36.62000 308.153
36.63000 306.203
36.64000 301.832
36.65000 297.734
36.66000 295.401
36.67000 300.181
36.68000 305.709
36.69000 309.130
36.70000 306.722
36.71000 303.974
36.72000 302.153
36.73000 303.816
36.74000 305.108
36.75000 303.250
36.76000 297.264
36.77000 291.264
36.78000 288.584
36.79000 288.778
36.80000 288.970
36.81000 294.544
36.82000 303.079
36.83000 311.071
36.84000 307.332
36.85000 298.837
36.86000 291.003
36.87000 290.602
36.88000 292.282
36.89000 293.778
36.90000 300.259
36.91000 306.707
36.92000 311.965
36.93000 311.890
36.94000 311.170
36.95000 309.694
36.96000 305.899
36.97000 301.942
36.98000 299.225
36.99000 314.571
37.00000 326.518
37.01000 328.978
37.02000 317.596
37.03000 306.096
37.04000 296.391
37.05000 288.429
37.06000 280.521
37.07000 284.460
37.08000 295.930
37.09000 307.240
37.10000 314.196
37.11000 319.201
37.12000 323.635
37.13000 320.558
37.14000 315.148
37.15000 310.259
37.16000 301.096
37.17000 292.242
37.18000 286.298
37.19000 294.930
37.20000 305.566
37.21000 312.776
37.22000 308.359
37.23000 302.985
37.24000 299.172
37.25000 299.858
37.26000 300.523
37.27000 301.312
37.28000 302.303
37.29000 303.296
37.30000 302.266
37.31000 299.027
37.32000 295.800
37.33000 297.274
37.34000 302.106
37.35000 306.853
37.36000 308.650
37.37000 308.985
37.38000 309.198
37.39000 307.500
37.40000 305.147
37.41000 302.990
37.42000 301.573
37.43000 300.466
37.44000 299.489
37.45000 299.238
37.46000 299.100
37.47000 297.925
37.48000 292.849
37.49000 287.398
37.50000 283.409
37.51000 293.543
37.52000 301.924
37.53000 303.393
37.54000 292.450
37.55000 281.257
37.56000 277.421
37.57000 282.574
37.58000 287.740
37.59000 290.439
37.60000 291.147
37.61000 291.913
37.62000 295.406
37.63000 300.398
37.64000 304.787
37.65000 297.771
37.66000 286.421
37.67000 275.887
37.68000 287.650
37.69000 303.510
37.70000 316.936
37.71000 314.986
37.72000 310.341
37.73000 306.620
37.74000 306.763
37.75000 307.333
37.76000 307.763
37.77000 311.443
37.78000 314.481
37.79000 312.308
37.80000 299.774
37.81000 286.957
37.82000 281.052
37.83000 284.566
37.84000 288.133
37.85000 290.875
37.86000 292.870
37.87000 294.875
37.88000 297.532
37.89000 300.586
37.90000 303.504
37.91000 303.259
37.92000 301.684
37.93000 300.205
37.94000 302.785
37.95000 306.213
37.96000 309.033
37.97000 307.512
37.98000 305.138
37.99000 303.896
38.00000 307.932
38.01000 312.636
38.02000 316.273
38.03000 313.397
38.04000 310.732
38.05000 308.789
38.06000 308.436
38.07000 308.139
38.08000 308.506
38.09000 309.879
38.10000 311.263
38.11000 311.959
38.12000 310.756
38.13000 309.981
38.14000 312.250
38.15000 316.575
38.16000 320.848
38.17000 323.574
38.18000 325.581
38.19000 327.485
38.20000 326.135
38.21000 323.923
38.22000 322.766
38.23000 330.175
38.24000 339.465
38.25000 347.142
38.26000 346.406
38.27000 344.459
38.28000 342.916
38.29000 343.182
38.30000 343.523
38.31000 344.664
38.32000 347.747
38.33000 350.918
38.34000 359.667
38.35000 377.792
38.36000 396.066
38.37000 405.793
38.38000 403.763
38.39000 402.420
38.40000 410.901
38.41000 426.761
38.42000 442.438
38.43000 451.010
38.44000 455.928
38.45000 460.638
38.46000 474.439
38.47000 490.331
38.48000 505.925
38.49000 518.752
38.50000 530.902
38.51000 545.158
38.52000 571.735
38.53000 600.314
38.54000 623.504
38.55000 653.164
38.56000 677.877
38.57000 704.392
38.58000 735.751
38.59000 767.378
38.60000 796.181
38.61000 819.724
38.62000 843.147
38.63000 856.276
38.64000 874.401
38.65000 886.973
38.66000 897.445
38.67000 906.154
38.68000 914.707
38.69000 914.840
38.70000 910.180
38.71000 905.678
38.72000 902.378
38.73000 899.713
38.74000 896.307
38.75000 884.913
38.76000 871.348
38.77000 857.708
38.78000 843.570
38.79000 829.341
38.80000 817.543
38.81000 792.987
38.82000 771.477
38.83000 750.065
38.84000 728.941
38.85000 707.837
38.86000 682.137
38.87000 646.965
38.88000 611.506
38.89000 590.665
38.90000 572.274
38.91000 559.318
38.92000 539.931
38.93000 514.503
38.94000 489.149
38.95000 469.675
38.96000 453.912
38.97000 438.571
38.98000 431.441
38.99000 428.057
39.00000 424.412
39.01000 417.480
39.02000 409.557
39.03000 401.275
39.04000 390.319
39.05000 378.815
39.06000 369.082
39.07000 357.802
39.08000 348.189
39.09000 341.038
39.10000 341.994
39.11000 343.588
39.12000 341.849
39.13000 332.511
39.14000 322.878
39.15000 316.962
39.16000 311.041
39.17000 306.797
39.18000 305.587
39.19000 307.582
39.20000 309.566
39.21000 310.064
39.22000 309.520
39.23000 308.987
39.24000 308.153
39.25000 307.213
39.26000 305.869
39.27000 298.516
39.28000 289.158
39.29000 280.728
39.30000 280.215
39.31000 281.510
39.32000 282.626
39.33000 283.052
39.34000 283.325
39.35000 283.532
39.36000 283.501
39.37000 283.447
39.38000 283.583
39.39000 284.196
39.40000 284.833
39.41000 285.241
39.42000 282.291
39.43000 280.099
39.44000 281.696
39.45000 287.778
39.46000 293.837
39.47000 291.614
39.48000 282.921
39.49000 274.357
39.50000 279.443
39.51000 291.437
39.52000 302.604
39.53000 298.974
39.54000 289.878
39.55000 281.494
39.56000 280.089
39.57000 280.457
39.58000 280.779
39.59000 284.174
39.60000 287.537
39.61000 289.158
39.62000 283.708
39.63000 277.506
39.64000 271.903
39.65000 267.971
39.66000 264.138
39.67000 261.590
39.68000 261.640
39.69000 261.725
39.70000 263.761
39.71000 268.376
39.72000 273.001
39.73000 276.454
39.74000 278.883
39.75000 281.288
39.76000 282.112
39.77000 282.005
39.78000 281.599
39.79000 274.659
39.80000 265.050
39.81000 255.940
39.82000 252.509
39.83000 250.679
39.84000 249.048
39.85000 258.923
39.86000 269.415
39.87000 277.876
39.88000 277.158
39.89000 275.322
39.90000 274.569
39.91000 277.160
39.92000 279.986
39.93000 281.931
39.94000 280.940
39.95000 280.123
39.96000 277.998
39.97000 273.950
39.98000 269.885
39.99000 266.026
40.00000 262.370
40.01000 258.738
40.02000 261.471
40.03000 268.276
40.04000 274.784
40.05000 273.120
40.06000 267.765
40.07000 262.635
40.08000 260.501
40.09000 259.304
40.10000 258.221
40.11000 264.512
40.12000 271.433
40.13000 276.857
40.14000 274.725
40.15000 271.544
40.16000 269.087
40.17000 269.108
40.18000 269.334
40.19000 269.496
40.20000 273.934
40.21000 277.452
40.22000 275.807
40.23000 265.733
40.24000 255.540
40.25000 254.737
40.26000 264.267
40.27000 273.769
40.28000 273.713
40.29000 266.752
40.30000 259.939
40.31000 258.420
40.32000 259.546
40.33000 260.667
40.34000 261.731
40.35000 262.774
40.36000 263.731
40.37000 269.252
40.38000 275.136
40.39000 278.885
40.40000 270.541
40.41000 260.298
40.42000 251.767
40.43000 249.722
40.44000 248.305
40.45000 247.267
40.46000 245.075
40.47000 243.335
40.48000 243.680
40.49000 247.794
40.50000 251.986
40.51000 255.208
40.52000 257.237
40.53000 259.260
40.54000 258.263
40.55000 254.826
40.56000 251.477
40.57000 252.442
40.58000 255.792
40.59000 259.037
40.60000 260.282
40.61000 260.762
40.62000 261.207
40.63000 256.539
40.64000 251.113
40.65000 246.513
40.66000 247.170
40.67000 248.757
40.68000 249.417
40.69000 246.167
40.70000 242.480
40.71000 239.699
40.72000 245.280
40.73000 250.066
40.74000 253.639
40.75000 254.780
40.76000 255.853
40.77000 254.205
40.78000 248.820
40.79000 243.414
40.80000 243.654
40.81000 249.024
40.82000 254.339
40.83000 255.856
40.84000 255.045
40.85000 254.303
40.86000 255.211
40.87000 256.818
40.88000 258.327
40.89000 258.411
40.90000 258.107
40.91000 257.690
40.92000 256.456
40.93000 255.061
40.94000 253.345
40.95000 250.125
40.96000 246.712
40.97000 244.069
40.98000 250.535
40.99000 256.213
41.00000 259.817
41.01000 258.823
41.02000 257.663
41.03000 257.044
41.04000 257.251
41.05000 257.467
41.06000 257.576
41.07000 267.620
41.08000 274.283
41.09000 274.585
41.10000 270.560
41.11000 266.613
41.12000 265.024
41.13000 264.539
41.14000 264.079
41.15000 261.051
41.16000 257.488
41.17000 254.450
41.18000 255.727
41.19000 257.958
41.20000 259.591
41.21000 258.080
41.22000 256.112
41.23000 254.549
41.24000 241.072
41.25000 229.377
41.26000 222.635
41.27000 228.025
41.28000 233.968
41.29000 240.665
41.30000 248.639
41.31000 256.633
41.32000 260.905
41.33000 253.431
41.34000 248.364
41.35000 251.309
41.36000 260.321
41.37000 269.079
41.38000 267.768
41.39000 261.243
41.40000 254.989
41.41000 246.351
41.42000 237.492
41.43000 229.565
41.44000 230.414
41.45000 233.426
41.46000 235.734
41.47000 233.882
41.48000 231.349
41.49000 229.291
41.50000 234.662
41.51000 239.664
41.52000 242.338
41.53000 238.706
41.54000 234.722
41.55000 233.061
41.56000 235.757
41.57000 238.554
41.58000 240.128
41.59000 241.613
41.60000 242.643
41.61000 243.316
41.62000 243.688
41.63000 244.068
41.64000 244.878
41.65000 245.934
41.66000 246.955
41.67000 242.491
41.68000 236.226
41.69000 230.382
41.70000 229.118
41.71000 229.107
41.72000 228.853
41.73000 226.980
41.74000 224.808
41.75000 223.004
41.76000 229.448
41.77000 235.576
41.78000 240.771
41.79000 243.166
41.80000 245.373
41.81000 247.230
41.82000 248.361
41.83000 249.470
41.84000 250.123
41.85000 245.177
41.86000 241.655
41.87000 241.556
41.88000 244.698
41.89000 247.813
41.90000 248.775
41.91000 248.367
41.92000 247.970
41.93000 242.805
41.94000 235.890
41.95000 229.630
41.96000 231.711
41.97000 236.324
41.98000 240.982
41.99000 245.980
42.00000 251.049
42.01000 255.343
42.02000 245.744
42.03000 236.146
42.04000 229.201
42.05000 231.064
42.06000 233.628
42.07000 236.069
42.08000 238.229
42.09000 240.378
42.10000 241.702
42.11000 245.903
42.12000 248.944
42.13000 250.094
42.14000 249.230
42.15000 248.364
42.16000 247.321
42.17000 246.154
42.18000 245.010
42.19000 244.403
42.20000 244.069
42.21000 243.576
42.22000 240.683
42.23000 236.983
42.24000 234.188
42.25000 239.186
42.26000 245.977
42.27000 251.839
42.28000 244.911
42.29000 237.386
42.30000 230.453
42.31000 225.704
42.32000 221.157
42.33000 220.799
42.34000 231.076
42.35000 241.877
42.36000 248.806
42.37000 239.020
42.38000 231.659
42.39000 229.239
42.40000 232.714
42.41000 236.193
42.42000 237.663
42.43000 237.552
42.44000 237.442
42.45000 238.534
42.46000 240.220
42.47000 241.664
42.48000 238.691
42.49000 234.076
42.50000 230.436
42.51000 236.461
42.52000 244.959
42.53000 252.421
42.54000 241.374
42.55000 229.158
42.56000 220.866
42.57000 228.620
42.58000 238.097
42.59000 242.548
42.60000 232.887
42.61000 222.382
42.62000 215.384
42.63000 232.309
42.64000 245.293
42.65000 251.084
42.66000 247.296
42.67000 243.462
42.68000 241.308
42.69000 240.631
42.70000 239.960
42.71000 237.408
42.72000 233.815
42.73000 230.317
42.74000 228.939
42.75000 228.433
42.76000 227.896
42.77000 227.001
42.78000 226.004
42.79000 225.114
42.80000 227.072
42.81000 229.252
42.82000 231.500
42.83000 234.062
42.84000 236.663
42.85000 238.230
42.86000 236.588
42.87000 234.717
42.88000 233.426
42.89000 235.737
42.90000 237.565
42.91000 240.220
42.92000 244.101
42.93000 247.993
42.94000 249.121
42.95000 247.518
42.96000 245.925
42.97000 243.683
42.98000 241.051
42.99000 238.596
43.00000 241.132
43.01000 245.938
43.02000 249.953
43.03000 243.300
43.04000 233.286
43.05000 224.217
43.06000 223.838
43.07000 225.147
43.08000 226.719
43.09000 229.633
43.10000 232.735
43.11000 234.088
43.12000 229.416
43.13000 224.237
43.14000 220.545
43.15000 227.747
43.16000 233.593
43.17000 236.019
43.18000 232.821
43.19000 229.541
43.20000 230.711
43.21000 236.817
43.22000 242.906
43.23000 243.387
43.24000 239.779
43.25000 236.181
43.26000 232.915
43.27000 229.816
43.28000 226.901
43.29000 226.948
43.30000 228.028
43.31000 229.019
43.32000 234.669
43.33000 240.702
43.34000 245.125
43.35000 240.362
43.36000 234.143
43.37000 229.399
43.38000 230.289
43.39000 231.730
43.40000 232.789
43.41000 235.788
43.42000 238.186
43.43000 240.197
43.44000 241.504
43.45000 242.795
43.46000 242.378
43.47000 239.840
43.48000 237.300
43.49000 232.738
43.50000 226.543
43.51000 220.559
43.52000 225.071
43.53000 235.429
43.54000 245.059
43.55000 240.502
43.56000 230.475
43.57000 221.154
43.58000 224.475
43.59000 230.505
43.60000 235.360
43.61000 232.661
43.62000 228.615
43.63000 225.614
43.64000 227.050
43.65000 228.986
43.66000 230.449
43.67000 225.284
43.68000 220.901
43.69000 219.179
43.70000 222.825
43.71000 226.625
43.72000 228.573
43.73000 227.959
43.74000 227.330
43.75000 228.244
43.76000 230.569
43.77000 232.922
43.78000 237.210
43.79000 242.693
43.80000 247.785
43.81000 243.458
43.82000 235.114
43.83000 227.268
43.84000 227.533
43.85000 229.959
43.86000 231.598
43.87000 227.509
43.88000 222.276
43.89000 218.752
43.90000 223.318
43.91000 228.929
43.92000 233.283
43.93000 229.418
43.94000 225.848
43.95000 222.798
43.96000 220.906
43.97000 219.057
43.98000 219.495
43.99000 223.449
44.00000 227.442
44.01000 229.469
44.02000 226.432
44.03000 224.427
44.04000 225.800
44.05000 229.490
44.06000 233.158
44.07000 236.163
44.08000 238.856
44.09000 241.415
44.10000 238.175
44.11000 233.434
44.12000 228.746
44.13000 224.500
44.14000 220.352
44.15000 217.036
44.16000 218.121
44.17000 219.851
44.18000 221.227
44.19000 226.495
44.20000 231.019
44.21000 234.730
44.22000 236.436
44.23000 238.049
44.24000 237.569
44.25000 233.517
44.26000 229.405
44.27000 227.199
44.28000 238.254
44.29000 245.782
44.30000 246.378
44.31000 241.686
44.32000 237.098
44.33000 236.751
44.34000 238.616
44.35000 240.404
44.36000 239.587
44.37000 237.944
44.38000 236.466
44.39000 236.566
44.40000 237.057
44.41000 237.605
44.42000 238.483
44.43000 239.416
44.44000 240.175
44.45000 245.766
44.46000 250.738
44.47000 253.165
44.48000 248.645
44.49000 243.732
44.50000 241.124
44.51000 242.873
44.52000 244.724
44.53000 245.770
44.54000 265.439
44.55000 279.142
44.56000 282.638
44.57000 277.435
44.58000 272.218
44.59000 266.156
44.60000 259.606
44.61000 253.272
44.62000 252.389
44.63000 253.612
44.64000 255.115
44.65000 259.702
44.66000 265.140
44.67000 270.608
44.68000 276.276
44.69000 281.982
44.70000 286.727
44.71000 291.579
44.72000 295.606
44.73000 299.169
44.74000 301.333
44.75000 303.401
44.76000 305.722
44.77000 308.574
44.78000 311.443
44.79000 313.140
44.80000 333.586
44.81000 348.140
44.82000 358.857
44.83000 365.907
44.84000 372.925
44.85000 377.143
44.86000 379.569
44.87000 381.932
44.88000 387.282
44.89000 393.644
44.90000 400.087
44.91000 407.578
44.92000 415.390
44.93000 422.880
44.94000 427.924
44.95000 432.459
44.96000 436.306
44.97000 441.669
44.98000 446.337
44.99000 451.279
45.00000 457.133
45.01000 463.061
45.02000 470.097
45.03000 479.695
45.04000 489.396
45.05000 495.390
45.06000 479.558
45.07000 467.980
45.08000 462.737
45.09000 464.294
45.10000 465.844
45.11000 466.111
45.12000 465.464
45.13000 464.830
45.14000 457.045
45.15000 446.183
45.16000 435.660
45.17000 430.296
45.18000 426.679
45.19000 423.405
45.20000 423.109
45.21000 423.504
45.22000 423.845
45.23000 421.018
45.24000 418.206
45.25000 414.142
45.26000 405.435
45.27000 396.293
45.28000 388.246
45.29000 383.000
45.30000 377.894
45.31000 374.608
45.32000 367.589
45.33000 362.414
45.34000 359.064
45.35000 357.911
45.36000 356.739
45.37000 348.634
45.38000 335.028
45.39000 321.614
45.40000 319.068
45.41000 322.305
45.42000 325.184
45.43000 321.471
45.44000 315.288
45.45000 309.653
45.46000 309.500
45.47000 310.759
45.48000 311.867
45.49000 307.054
45.50000 302.035
45.51000 297.179
45.52000 292.997
45.53000 288.887
45.54000 284.709
45.55000 280.342
45.56000 275.963
45.57000 273.038
45.58000 274.758
45.59000 276.123
45.60000 276.044
45.61000 274.029
45.62000 272.002
45.63000 268.178
45.64000 262.759
45.65000 257.392
45.66000 258.445
45.67000 263.244
45.68000 267.686
45.69000 264.050
45.70000 257.067
45.71000 250.553
45.72000 249.508
45.73000 250.028
45.74000 250.493
45.75000 252.215
45.76000 253.927
45.77000 255.183
45.78000 254.345
45.79000 253.247
45.80000 250.683
45.81000 243.531
45.82000 236.048
45.83000 230.872
45.84000 230.516
45.85000 230.372
45.86000 230.568
45.87000 231.271
45.88000 231.978
45.89000 233.081
45.90000 234.577
45.91000 236.065
45.92000 238.090
45.93000 240.440
45.94000 242.520
45.95000 236.869
45.96000 227.677
45.97000 218.954
45.98000 216.644
45.99000 216.368
46.00000 216.118
46.01000 219.815
46.02000 223.829
46.03000 226.696
46.04000 223.681
46.05000 219.834
46.06000 217.837
46.07000 222.259
46.08000 227.228
46.09000 230.777
46.10000 223.055
46.11000 216.788
46.12000 214.217
46.13000 217.772
46.14000 221.419
46.15000 223.717
46.16000 224.507
46.17000 225.294
46.18000 222.083
46.19000 215.962
46.20000 209.929
46.21000 207.132
46.22000 205.976
46.23000 204.986
46.24000 206.705
46.25000 209.375
46.26000 211.828
46.27000 212.875
46.28000 213.508
46.29000 213.534
46.30000 210.075
46.31000 206.059
46.32000 202.974
46.33000 203.475
46.34000 204.330
46.35000 204.960
46.36000 202.313
46.37000 200.128
46.38000 200.314
46.39000 204.852
46.40000 209.484
46.41000 212.000
46.42000 211.869
46.43000 211.730
46.44000 210.739
46.45000 209.051
46.46000 207.437
46.47000 209.601
46.48000 213.884
46.49000 217.665
46.50000 211.525
46.51000 201.532
46.52000 192.235
46.53000 192.422
46.54000 194.885
46.55000 196.814
46.56000 195.281
46.57000 193.126
46.58000 190.987
46.59000 188.921
46.60000 186.862
46.61000 185.303
46.62000 192.177
46.63000 198.001
46.64000 202.405
46.65000 203.924
46.66000 205.358
46.67000 207.077
46.68000 209.191
46.69000 211.308
46.70000 213.235
46.71000 214.985
46.72000 216.654
46.73000 212.220
46.74000 203.991
46.75000 196.066
46.76000 195.611
46.77000 198.362
46.78000 200.952
46.79000 203.850
46.80000 206.583
46.81000 208.475
46.82000 204.192
46.83000 198.666
46.84000 194.364
46.85000 195.906
46.86000 198.210
46.87000 200.001
46.88000 203.068
46.89000 205.588
46.90000 206.548
46.91000 204.006
46.92000 201.332
46.93000 200.003
46.94000 200.761
46.95000 201.542
46.96000 201.939
46.97000 200.491
46.98000 199.512
46.99000 197.757
47.00000 195.467
47.01000 193.332
47.02000 196.067
47.03000 201.115
47.04000 205.914
47.05000 204.035
47.06000 200.267
47.07000 197.153
47.08000 199.509
47.09000 203.094
47.10000 205.112
47.11000 198.752
47.12000 191.154
47.13000 185.099
47.14000 192.850
47.15000 200.105
47.16000 203.193
47.17000 195.930
47.18000 188.180
47.19000 183.640
47.20000 184.617
47.21000 185.689
47.22000 186.266
47.23000 195.723
47.24000 202.165
47.25000 201.312
47.26000 194.849
47.27000 188.533
47.28000 188.316
47.29000 191.305
47.30000 194.173
47.31000 193.076
47.32000 190.702
47.33000 188.459
47.34000 187.467
47.35000 186.789
47.36000 186.783
47.37000 190.814
47.38000 195.518
47.39000 199.354
47.40000 195.079
47.41000 190.894
47.42000 186.991
47.43000 183.862
47.44000 180.778
47.45000 181.040
47.46000 187.672
47.47000 194.458
47.48000 198.302
47.49000 188.299
47.50000 181.310
47.51000 181.648
47.52000 188.279
47.53000 194.836
47.54000 197.086
47.55000 196.830
47.56000 196.582
47.57000 194.765
47.58000 192.451
47.59000 190.279
47.60000 189.685
47.61000 189.531
47.62000 189.463
47.63000 189.984
47.64000 190.614
47.65000 191.140
47.66000 189.391
47.67000 187.717
47.68000 186.904
47.69000 188.708
47.70000 190.692
47.71000 191.103
47.72000 188.198
47.73000 185.187
47.74000 183.400
47.75000 185.307
47.76000 186.678
47.77000 185.769
47.78000 182.665
47.79000 179.592
47.80000 179.255
47.81000 180.684
47.82000 182.076
47.83000 187.253
47.84000 193.801
47.85000 199.539
47.86000 194.731
47.87000 186.673
47.88000 179.394
47.89000 178.091
47.90000 178.040
47.91000 177.997
47.92000 185.789
47.93000 193.225
47.94000 197.050
47.95000 188.710
47.96000 179.381
47.97000 175.480
47.98000 184.221
47.99000 193.479
48.00000 199.216
48.01000 193.484
48.02000 189.250
48.03000 188.063
48.04000 190.176
48.05000 192.280
48.06000 192.967
48.07000 192.638
48.08000 192.315
48.09000 192.379
48.10000 192.625
48.11000 192.721
48.12000 190.505
48.13000 187.500
48.14000 184.876
48.15000 185.599
48.16000 187.104
48.17000 188.405
48.18000 186.445
48.19000 184.350
48.20000 183.052
48.21000 184.732
48.22000 186.694
48.23000 187.488
48.24000 185.270
48.25000 182.900
48.26000 181.371
48.27000 184.632
48.28000 187.083
48.29000 187.748
48.30000 186.247
48.31000 184.741
48.32000 183.232
48.33000 181.722
48.34000 180.233
48.35000 182.856
48.36000 187.585
48.37000 192.178
48.38000 194.252
48.39000 195.375
48.40000 195.975
48.41000 191.287
48.42000 185.226
48.43000 179.890
48.44000 181.700
48.45000 184.329
48.46000 186.419
48.47000 186.271
48.48000 185.878
48.49000 184.976
48.50000 182.623
48.51000 180.181
48.52000 178.545
48.53000 178.397
48.54000 178.316
48.55000 177.201
48.56000 174.686
48.57000 172.167
48.58000 174.460
48.59000 181.058
48.60000 187.594
48.61000 188.185
48.62000 185.246
48.63000 182.464
48.64000 183.273
48.65000 185.581
48.66000 187.623
48.67000 186.542
48.68000 184.559
48.69000 182.787
48.70000 183.510
48.71000 184.566
48.72000 185.461
48.73000 185.616
48.74000 185.678
48.75000 186.727
48.76000 190.886
48.77000 195.273
48.78000 198.314
48.79000 198.580
48.80000 198.707
48.81000 195.495
48.82000 187.262
48.83000 178.979
48.84000 177.699
48.85000 183.454
48.86000 189.176
48.87000 191.640
48.88000 191.917
48.89000 192.037
48.90000 187.597
48.91000 181.053
48.92000 174.954
48.93000 175.015
48.94000 177.043
48.95000 178.884
48.96000 177.872
48.97000 176.429
48.98000 175.427
48.99000 176.699
49.00000 178.296
49.01000 179.480
49.02000 179.222
49.03000 178.839
49.04000 178.565
49.05000 182.594
49.06000 185.817
49.07000 188.332
49.08000 189.662
49.09000 190.974
49.10000 190.005
49.11000 186.462
49.12000 182.928
49.13000 180.753
49.14000 179.601
49.15000 178.435
49.16000 176.757
49.17000 174.817
49.18000 173.145
49.19000 175.891
49.20000 180.200
49.21000 184.163
49.22000 184.576
49.23000 184.176
49.24000 183.251
49.25000 179.284
49.26000 174.826
49.27000 172.598
49.28000 179.015
49.29000 186.298
49.30000 191.671
49.31000 188.135
49.32000 185.020
49.33000 183.120
49.34000 183.470
49.35000 183.869
49.36000 184.356
49.37000 184.956
49.38000 185.555
49.39000 183.779
49.40000 180.037
49.41000 176.363
49.42000 176.182
49.43000 177.977
49.44000 179.786
49.45000 181.877
49.46000 184.078
49.47000 186.127
49.48000 183.130
49.49000 179.189
49.50000 176.057
49.51000 178.207
49.52000 181.315
49.53000 183.662
49.54000 182.724
49.55000 181.409
49.56000 180.410
49.57000 181.210
49.58000 181.932
49.59000 181.178
49.60000 177.403
49.61000 173.539
49.62000 175.598
49.63000 185.978
49.64000 196.415
49.65000 198.483
49.66000 192.757
49.67000 187.043
49.68000 182.251
49.69000 178.037
49.70000 173.915
49.71000 172.058
49.72000 171.182
49.73000 170.357
49.74000 173.277
49.75000 176.973
49.76000 180.269
49.77000 180.601
49.78000 180.332
49.79000 179.904
49.80000 178.709
49.81000 177.413
49.82000 176.404
49.83000 173.865
49.84000 171.749
49.85000 172.653
49.86000 180.397
49.87000 188.403
49.88000 191.546
49.89000 187.099
49.90000 182.562
49.91000 180.241
49.92000 179.351
49.93000 178.766
49.94000 179.739
49.95000 181.796
49.96000 183.833
49.97000 185.225
49.98000 186.307
49.99000 187.336
50.00000 186.587
50.01000 185.349
50.02000 183.488
50.03000 176.370
50.04000 168.062
50.05000 161.504
50.06000 164.377
50.07000 168.656
50.08000 172.071
50.09000 175.964
50.10000 179.143
50.11000 180.923
50.12000 179.203
50.13000 177.315
50.14000 178.928
50.15000 186.604
50.16000 194.387
50.17000 198.593
50.18000 190.137
50.19000 184.353
50.20000 182.850
50.21000 184.668
50.22000 186.479
50.23000 188.021
50.24000 189.421
50.25000 190.764
50.26000 190.802
50.27000 190.389
50.28000 189.781
50.29000 187.273
50.30000 184.286
50.31000 182.057
50.32000 184.411
50.33000 187.535
50.34000 190.086
50.35000 192.046
50.36000 193.598
50.37000 195.845
50.38000 200.012
50.39000 204.291
50.40000 207.645
50.41000 209.222
50.42000 210.756
50.43000 211.627
50.44000 208.242
50.45000 205.874
50.46000 206.063
50.47000 208.466
50.48000 210.883
50.49000 214.169
50.50000 217.963
50.51000 221.637
50.52000 226.611
50.53000 231.813
50.54000 237.098
50.55000 243.334
50.56000 249.836
50.57000 255.462
50.58000 255.109
50.59000 253.627
50.60000 252.391
50.61000 255.027
50.62000 257.600
50.63000 259.639
50.64000 260.041
50.65000 260.328
50.66000 260.944
50.67000 262.254
50.68000 263.587
50.69000 264.381
50.70000 264.078
50.71000 263.856
50.72000 262.859
50.73000 261.110
50.74000 259.431
50.75000 264.097
50.76000 272.891
50.77000 281.466
50.78000 282.428
50.79000 280.087
50.80000 277.471
50.81000 271.226
50.82000 263.855
50.83000 257.198
50.84000 256.073
50.85000 256.117
50.86000 256.154
50.87000 247.041
50.88000 238.329
50.89000 231.459
50.90000 230.845
50.91000 230.745
50.92000 228.895
50.93000 222.939
50.94000 216.813
50.95000 213.005
50.96000 214.825
50.97000 216.191
50.98000 215.245
50.99000 211.775
51.00000 208.304
51.01000 204.744
51.02000 201.120
51.03000 197.564
51.04000 199.676
51.05000 204.422
51.06000 208.907
51.07000 209.302
51.08000 208.292
51.09000 207.230
51.10000 205.703
51.11000 204.067
51.12000 202.650
51.13000 199.525
51.14000 196.639
51.15000 194.417
51.16000 194.692
51.17000 195.206
51.18000 194.315
51.19000 189.782
51.20000 185.060
51.21000 182.006
51.22000 188.735
51.23000 193.800
51.24000 194.853
51.25000 191.005
51.26000 187.158
51.27000 187.723
51.28000 191.845
51.29000 195.912
51.30000 191.242
51.31000 182.034
51.32000 173.281
51.33000 173.132
51.34000 176.255
51.35000 178.914
51.36000 176.847
51.37000 173.543
51.38000 170.630
51.39000 176.731
51.40000 183.351
51.41000 187.945
51.42000 184.060
51.43000 179.238
51.44000 175.484
51.45000 174.799
51.46000 174.305
51.47000 173.973
51.48000 172.331
51.49000 171.086
51.50000 170.512
51.51000 170.856
51.52000 171.204
51.53000 170.942
51.54000 170.130
51.55000 169.325
51.56000 167.963
51.57000 166.295
51.58000 164.872
51.59000 169.156
51.60000 175.838
51.61000 182.181
51.62000 184.487
51.63000 185.621
51.64000 186.637
51.65000 177.804
51.66000 168.406
51.67000 160.567
51.68000 159.999
51.69000 160.353
51.70000 161.535
51.71000 165.351
51.72000 169.361
51.73000 172.149
51.74000 172.502
51.75000 172.702
51.76000 172.002
51.77000 169.936
51.78000 167.856
51.79000 165.850
51.80000 163.919
51.81000 161.999
51.82000 164.147
51.83000 168.978
51.84000 173.596
51.85000 171.902
51.86000 167.273
51.87000 162.967
51.88000 163.165
51.89000 164.813
51.90000 166.311
51.91000 171.260
51.92000 176.303
51.93000 179.704
51.94000 174.545
51.95000 168.155
51.96000 164.111
51.97000 168.331
51.98000 173.270
51.99000 176.814
52.00000 169.850
52.01000 164.164
52.02000 160.805
52.03000 161.358
52.04000 161.974
52.05000 161.594
52.06000 160.081
52.07000 158.571
52.08000 158.093
52.09000 158.387
52.10000 158.738
52.11000 161.266
52.12000 164.914
52.13000 168.422
52.14000 169.590
52.15000 169.924
52.16000 170.231
52.17000 171.707
52.18000 173.282
52.19000 173.903
52.20000 168.934
52.21000 163.058
52.22000 158.440
52.23000 158.743
52.24000 159.544
52.25000 160.136
52.26000 161.893
52.27000 163.305
52.28000 163.411
52.29000 161.086
52.30000 158.706
52.31000 158.443
52.32000 160.871
52.33000 163.306
52.34000 164.667
52.35000 165.126
52.36000 165.549
52.37000 164.048
52.38000 161.450
52.39000 158.940
52.40000 158.235
52.41000 158.240
52.42000 158.244
52.43000 158.120
52.44000 157.976
52.45000 158.151
52.46000 160.437
52.47000 163.108
52.48000 165.709
52.49000 168.006
52.50000 170.267
52.51000 171.986
52.52000 171.518
52.53000 171.035
52.54000 170.242
52.55000 168.806
52.56000 167.352
52.57000 165.272
52.58000 162.307
52.59000 159.336
52.60000 158.589
52.61000 159.929
52.62000 161.218
52.63000 158.427
52.64000 153.059
52.65000 147.974
52.66000 150.021
52.67000 155.175
52.68000 160.033
52.69000 167.241
52.70000 174.489
52.71000 180.554
52.72000 177.780
52.73000 173.197
52.74000 168.841
52.75000 165.588
52.76000 162.480
52.77000 160.055
52.78000 160.275
52.79000 160.615
52.80000 161.208
52.81000 162.374
52.82000 163.563
52.83000 164.462
52.84000 164.906
52.85000 165.343
52.86000 165.568
52.87000 163.586
52.88000 162.269
52.89000 163.084
52.90000 165.396
52.91000 167.586
52.92000 165.785
52.93000 162.062
52.94000 158.518
52.95000 160.503
52.96000 164.050
52.97000 166.912
52.98000 163.932
52.99000 159.619
53.00000 155.880
53.01000 155.267
53.02000 155.124
53.03000 155.010
53.04000 160.698
53.05000 165.727
53.06000 169.433
53.07000 169.805
53.08000 170.015
53.09000 168.777
53.10000 165.012
53.11000 161.201
53.12000 159.133
53.13000 165.966
53.14000 170.640
53.15000 169.886
53.16000 164.893
53.17000 160.014
53.18000 160.083
53.19000 162.790
53.20000 165.390
53.21000 161.951
53.22000 156.643
53.23000 151.854
53.24000 152.152
53.25000 153.743
53.26000 155.189
53.27000 155.754
53.28000 156.169
53.29000 156.508
53.30000 152.971
53.31000 149.735
53.32000 149.004
53.33000 155.256
53.34000 161.921
53.35000 167.977
53.36000 172.856
53.37000 177.706
53.38000 180.472
53.39000 174.718
53.40000 170.679
53.41000 168.070
53.42000 166.711
53.43000 165.388
53.44000 166.350
53.45000 168.660
53.46000 170.898
53.47000 169.459
53.48000 166.677
53.49000 164.128
53.50000 164.227
53.51000 165.074
53.52000 165.611
53.53000 164.011
53.54000 162.006
53.55000 160.330
53.56000 162.103
53.57000 163.923
53.58000 164.257
53.59000 160.004
53.60000 155.427
53.61000 153.059
53.62000 155.412
53.63000 157.923
53.64000 159.422
53.65000 159.723
53.66000 159.930
53.67000 159.686
53.68000 159.003
53.69000 158.302
53.70000 155.990
53.71000 152.624
53.72000 149.339
53.73000 149.768
53.74000 151.781
53.75000 153.634
53.76000 153.359
53.77000 152.419
53.78000 151.750
53.79000 153.203
53.80000 155.109
53.81000 156.732
53.82000 159.248
53.83000 161.468
53.84000 161.967
53.85000 156.585
53.86000 150.712
53.87000 146.357
53.88000 145.584
53.89000 144.963
53.90000 144.576
53.91000 149.021
53.92000 152.274
53.93000 154.079
53.94000 154.290
53.95000 154.504
53.96000 155.332
53.97000 156.607
53.98000 157.860
53.99000 158.396
54.00000 158.568
54.01000 158.732
54.02000 158.764
54.03000 158.751
54.04000 158.994
54.05000 161.524
54.06000 164.597
54.07000 167.262
54.08000 164.633
54.09000 161.686
54.10000 160.105
54.11000 163.705
54.12000 167.808
54.13000 169.326
54.14000 164.094
54.15000 158.509
54.16000 154.886
54.17000 160.879
54.18000 165.412
54.19000 168.219
54.20000 168.902
54.21000 169.566
54.22000 165.149
54.23000 156.605
54.24000 148.173
54.25000 148.270
54.26000 152.954
54.27000 157.498
54.28000 159.365
54.29000 160.207
54.30000 161.262
54.31000 164.516
54.32000 168.351
54.33000 171.734
54.34000 171.825
54.35000 171.401
54.36000 170.371
54.37000 166.785
54.38000 162.912
54.39000 159.950
54.40000 159.619
54.41000 159.453
54.42000 159.342
54.43000 160.023
54.44000 160.545
54.45000 160.966
54.46000 161.247
54.47000 161.528
54.48000 162.547
54.49000 164.237
54.50000 165.913
54.51000 167.669
54.52000 169.439
54.53000 171.014
54.54000 167.949
54.55000 162.918
54.56000 158.045
54.57000 155.062
54.58000 152.633
54.59000 150.455
54.60000 152.339
54.61000 154.687
54.62000 157.452
54.63000 162.170
54.64000 167.138
54.65000 170.425
54.66000 168.333
54.67000 165.837
54.68000 164.098
54.69000 157.911
54.70000 153.121
54.71000 151.597
54.72000 155.059
54.73000 158.574
54.74000 160.396
54.75000 160.489
54.76000 160.582
54.77000 158.973
54.78000 156.241
54.79000 153.543
54.80000 151.896
54.81000 150.741
54.82000 150.020
54.83000 155.460
54.84000 162.897
54.85000 169.659
54.86000 167.565
54.87000 163.979
54.88000 160.403
54.89000 156.874
54.90000 153.352
54.91000 152.061
54.92000 158.680
54.93000 165.995
54.94000 171.257
54.95000 159.391
54.96000 149.711
54.97000 146.845
54.98000 155.526
54.99000 164.396
55.00000 167.598
55.01000 164.303
55.02000 161.009
55.03000 160.258
55.04000 161.425
55.05000 162.606
55.06000 164.395
55.07000 166.498
55.08000 168.395
55.09000 166.812
55.10000 163.981
55.11000 161.371
55.12000 165.344
55.13000 170.351
55.14000 173.800
55.15000 168.048
55.16000 160.789
55.17000 156.619
55.18000 164.615
55.19000 173.853
55.20000 180.698
55.21000 175.516
55.22000 170.970
55.23000 169.255
55.24000 172.851
55.25000 176.570
55.26000 178.027
55.27000 176.585
55.28000 175.133
55.29000 176.155
55.30000 179.260
55.31000 182.294
55.32000 181.421
55.33000 178.308
55.34000 175.346
55.35000 175.522
55.36000 176.942
55.37000 178.266
55.38000 186.210
55.39000 195.047
55.40000 202.609
55.41000 201.696
55.42000 199.220
55.43000 197.520
55.44000 199.214
55.45000 201.307
55.46000 202.902
55.47000 203.763
55.48000 204.402
55.49000 207.467
55.50000 215.567
55.51000 223.822
55.52000 228.170
55.53000 226.946
55.54000 225.680
55.55000 232.969
55.56000 248.357
55.57000 263.590
55.58000 265.981
55.59000 260.204
55.60000 254.903
55.61000 261.858
55.62000 274.192
55.63000 285.825
55.64000 296.310
55.65000 305.599
55.66000 314.628
55.67000 321.694
55.68000 328.356
55.69000 336.208
55.70000 349.883
55.71000 364.336
55.72000 375.636
55.73000 389.986
55.74000 401.633
55.75000 411.973
55.76000 419.311
55.77000 426.531
55.78000 435.835
55.79000 448.441
55.80000 461.088
55.81000 467.612
55.82000 485.320
55.83000 497.247
55.84000 508.482
55.85000 519.227
55.86000 530.108
55.87000 545.471
55.88000 563.009
55.89000 579.718
55.90000 581.103
55.91000 577.610
55.92000 574.524
55.93000 574.935
55.94000 576.151
55.95000 577.705
55.96000 581.112
55.97000 584.800
55.98000 587.753
55.99000 581.539
56.00000 575.823
56.01000 569.416
56.02000 561.255
56.03000 553.007
56.04000 546.402
56.05000 542.683
56.06000 539.017
56.07000 537.021
56.08000 512.058
56.09000 494.907
56.10000 480.334
56.11000 467.792
56.12000 455.302
56.13000 445.158
56.14000 436.274
56.15000 427.733
56.16000 418.201
56.17000 408.925
56.18000 399.241
56.19000 385.506
56.20000 370.736
56.21000 357.017
56.22000 349.775
56.23000 343.641
56.24000 338.616
56.25000 322.618
56.26000 308.534
56.27000 295.047
56.28000 283.233
56.29000 271.519
56.30000 263.564
56.31000 262.923
56.32000 262.470
56.33000 262.210
56.34000 256.041
56.35000 251.715
56.36000 249.585
56.37000 249.387
56.38000 249.114
56.39000 244.148
56.40000 236.388
56.41000 228.868
56.42000 224.144
56.43000 220.761
56.44000 217.380
56.45000 214.026
56.46000 210.679
56.47000 208.229
56.48000 212.011
56.49000 216.989
56.50000 221.154
56.51000 211.374
56.52000 201.824
56.53000 194.147
56.54000 192.290
56.55000 190.849
56.56000 189.906
56.57000 190.032
56.58000 190.195
56.59000 190.293
56.60000 183.828
56.61000 179.194
56.62000 176.510
56.63000 175.754
56.64000 175.013
56.65000 175.743
56.66000 177.445
56.67000 179.106
56.68000 176.531
56.69000 172.227
56.70000 168.087
56.71000 166.167
56.72000 164.947
56.73000 164.349
56.74000 168.675
56.75000 174.057
56.76000 178.647
56.77000 173.527
56.78000 168.072
56.79000 163.959
56.80000 164.465
56.81000 165.360
56.82000 165.912
56.83000 165.649
56.84000 165.350
56.85000 165.163
56.86000 162.261
56.87000 160.139
56.88000 159.136
56.89000 159.376
56.90000 159.607
56.91000 158.029
56.92000 155.124
56.93000 152.270
56.94000 151.676
56.95000 152.201
56.96000 153.026
56.97000 158.678
56.98000 166.014
56.99000 172.335
57.00000 169.483
57.01000 164.439
57.02000 160.057
57.03000 157.021
57.04000 154.616
57.05000 152.293
57.06000 150.291
57.07000 148.320
57.08000 146.384
57.09000 144.539
57.10000 142.699
57.11000 141.502
57.12000 148.524
57.13000 153.797
57.14000 154.830
57.15000 150.597
57.16000 146.353
57.17000 143.363
57.18000 141.400
57.19000 139.461
57.20000 141.774
57.21000 146.333
57.22000 150.746
57.23000 152.345
57.24000 152.857
57.25000 153.176
57.26000 151.465
57.27000 149.214
57.28000 147.227
57.29000 145.732
57.30000 144.517
57.31000 143.640
57.32000 144.194
57.33000 144.911
57.34000 145.610
57.35000 146.259
57.36000 146.905
57.37000 147.341
57.38000 147.899
57.39000 148.316
57.40000 146.791
57.41000 142.577
57.42000 138.347
57.43000 135.067
57.44000 132.660
57.45000 130.272
57.46000 133.882
57.47000 141.059
57.48000 148.003
57.49000 149.346
57.50000 148.299
57.51000 147.208
57.52000 145.581
57.53000 143.795
57.54000 142.193
57.55000 143.335
57.56000 144.813
57.57000 146.040
57.58000 146.081
57.59000 145.969
57.60000 146.003
57.61000 146.507
57.62000 147.047
57.63000 147.423
57.64000 148.066
57.65000 148.558
57.66000 148.006
57.67000 145.845
57.68000 143.668
57.69000 143.207
57.70000 144.517
57.71000 145.819
57.72000 147.372
57.73000 149.075
57.74000 150.678
57.75000 149.215
57.76000 146.305
57.77000 143.273
57.78000 138.473
57.79000 133.095
57.80000 128.200
57.81000 134.023
57.82000 141.292
57.83000 147.536
57.84000 148.344
57.85000 148.357
57.86000 148.096
57.87000 146.862
57.88000 145.540
57.89000 144.588
57.90000 147.159
57.91000 149.254
57.92000 148.479
57.93000 142.804
57.94000 137.047
57.95000 134.796
57.96000 136.595
57.97000 138.395
57.98000 137.025
57.99000 133.260
58.00000 129.671
58.01000 133.172
58.02000 140.372
58.03000 147.241
58.04000 148.412
58.05000 147.523
58.06000 146.703
58.07000 144.802
58.08000 142.859
58.09000 141.473
58.10000 143.406
58.11000 145.888
58.12000 147.341
58.13000 144.711
58.14000 141.661
58.15000 139.395
58.16000 143.424
58.17000 146.832
58.18000 148.154
58.19000 145.532
58.20000 142.816
58.21000 142.322
58.22000 144.696
58.23000 147.078
58.24000 146.831
58.25000 144.349
58.26000 141.843
58.27000 138.017
58.28000 133.430
58.29000 129.145
58.30000 131.203
58.31000 135.798
58.32000 140.087
58.33000 140.122
58.34000 139.090
58.35000 138.435
58.36000 140.307
58.37000 142.649
58.38000 143.871
58.39000 140.150
58.40000 135.843
58.41000 132.556
58.42000 137.835
58.43000 142.454
58.44000 144.817
58.45000 142.464
58.46000 139.961
58.47000 139.915
58.48000 143.398
58.49000 146.910
58.50000 147.970
58.51000 146.690
58.52000 145.389
58.53000 142.298
58.54000 138.060
58.55000 134.040
58.56000 135.716
58.57000 139.911
58.58000 143.870
58.59000 144.587
58.60000 144.335
58.61000 143.995
58.62000 142.980
58.63000 141.826
58.64000 141.475
58.65000 145.086
58.66000 149.233
58.67000 152.480
58.68000 145.874
58.69000 139.962
58.70000 137.525
58.71000 143.126
58.72000 149.049
58.73000 149.631
58.74000 141.683
58.75000 133.624
58.76000 129.451
58.77000 128.405
58.78000 127.704
58.79000 127.416
58.80000 127.423
58.81000 127.580
58.82000 132.765
58.83000 140.409
58.84000 147.696
58.85000 147.321
58.86000 144.566
58.87000 141.865
58.88000 139.633
58.89000 137.511
58.90000 135.188
58.91000 131.764
58.92000 128.172
58.93000 125.290
58.94000 131.839
58.95000 137.859
58.96000 142.454
58.97000 143.401
58.98000 144.167
58.99000 143.947
59.00000 141.983
59.01000 139.986
59.02000 138.894
59.03000 141.572
59.04000 143.408
59.05000 142.140
59.06000 138.408
59.07000 134.733
59.08000 133.626
59.09000 133.908
59.10000 134.179
59.11000 135.957
59.12000 138.152
59.13000 139.999
59.14000 138.365
59.15000 135.832
59.16000 133.815
59.17000 134.999
59.18000 136.735
59.19000 138.159
59.20000 133.080
59.21000 128.333
59.22000 126.136
59.23000 131.153
59.24000 136.608
59.25000 139.271
59.26000 136.462
59.27000 133.508
59.28000 131.812
59.29000 137.209
59.30000 141.007
59.31000 142.421
59.32000 141.722
59.33000 140.944
59.34000 135.109
59.35000 126.243
59.36000 117.645
59.37000 122.203
59.38000 131.686
59.39000 140.490
59.40000 141.387
59.41000 140.019
59.42000 138.678
59.43000 137.523
59.44000 136.404
59.45000 135.466
59.46000 137.430
59.47000 139.363
59.48000 139.725
59.49000 135.173
59.50000 130.264
59.51000 127.732
59.52000 130.356
59.53000 133.158
59.54000 134.842
59.55000 137.298
59.56000 139.049
59.57000 139.612
59.58000 138.992
59.59000 138.380
59.60000 138.638
59.61000 139.476
59.62000 140.295
59.63000 137.077
59.64000 132.227
59.65000 127.785
59.66000 128.916
59.67000 131.816
59.68000 134.117
59.69000 131.648
59.70000 128.147
59.71000 125.156
59.72000 128.204
59.73000 131.490
59.74000 134.383
59.75000 135.910
59.76000 137.321
59.77000 138.194
59.78000 137.781
59.79000 137.311
59.80000 137.017
59.81000 139.538
59.82000 141.390
59.83000 141.008
59.84000 138.127
59.85000 135.253
59.86000 134.311
59.87000 134.798
59.88000 135.276
59.89000 136.646
59.90000 138.406
59.91000 139.817
59.92000 135.540
59.93000 129.266
59.94000 123.902
59.95000 126.845
59.96000 131.789
59.97000 136.090
59.98000 139.061
59.99000 141.416
60.00000 142.182
60.01000 136.830
60.02000 130.873
60.03000 127.257
60.04000 129.848
60.05000 132.771
60.06000 134.677
60.07000 137.964
60.08000 140.398
60.09000 139.996
60.10000 136.045
60.11000 132.088
60.12000 130.237
60.13000 130.124
60.14000 130.012
60.15000 129.384
60.16000 128.490
60.17000 127.689
60.18000 128.723
60.19000 130.470
60.20000 131.790
60.21000 128.611
60.22000 124.227
60.23000 120.350
60.24000 123.892
60.25000 128.105
60.26000 131.638
60.27000 132.257
60.28000 132.544
60.29000 132.348
60.30000 130.738
60.31000 129.037
60.32000 127.886
60.33000 132.801
60.34000 136.594
60.35000 137.619
60.36000 134.786
60.37000 131.927
60.38000 129.798
60.39000 128.345
60.40000 126.903
60.41000 128.152
60.42000 131.023
60.43000 133.847
60.44000 135.499
60.45000 136.648
60.46000 137.295
60.47000 131.771
60.48000 124.414
60.49000 117.805
60.50000 120.952
60.51000 125.423
60.52000 129.478
60.53000 131.539
60.54000 133.342
60.55000 133.847
60.56000 130.140
60.57000 126.110
60.58000 123.290
60.59000 121.658
60.60000 120.457
60.61000 121.934
60.62000 127.559
60.63000 133.232
60.64000 133.628
60.65000 128.541
60.66000 123.479
60.67000 121.414
60.68000 121.421
60.69000 121.523
60.70000 124.617
60.71000 129.133
60.72000 133.444
60.73000 134.781
60.74000 135.138
60.75000 135.464
60.76000 133.317
60.77000 130.922
60.78000 129.081
60.79000 130.193
60.80000 131.743
60.81000 132.947
60.82000 132.912
60.83000 132.766
60.84000 132.660
60.85000 132.242
60.86000 131.910
60.87000 131.297
60.88000 130.201
60.89000 129.097
60.90000 127.215
60.91000 124.427
60.92000 121.643
60.93000 123.428
60.94000 128.694
60.95000 133.916
60.96000 137.285
60.97000 139.680
60.98000 142.014
60.99000 143.278
61.00000 144.152
61.01000 144.959
61.02000 146.214
61.03000 147.439
61.04000 148.035
61.05000 144.850
61.06000 141.035
61.07000 138.422
61.08000 140.615
61.09000 143.309
61.10000 145.314
61.11000 142.646
61.12000 140.361
61.13000 139.146
61.14000 139.968
61.15000 140.840
61.16000 140.488
61.17000 138.544
61.18000 136.596
61.19000 135.513
61.20000 135.175
61.21000 134.851
61.22000 135.351
61.23000 136.330
61.24000 137.292
61.25000 137.881
61.26000 138.321
61.27000 138.732
61.28000 138.336
61.29000 137.773
61.30000 137.399
61.31000 138.295
61.32000 139.429
61.33000 140.873
61.34000 143.697
61.35000 146.686
61.36000 148.971
61.37000 144.328
61.38000 140.289
61.39000 139.102
61.40000 143.922
61.41000 148.934
61.42000 150.063
61.43000 145.566
61.44000 141.023
61.45000 143.713
61.46000 153.371
61.47000 162.957
61.48000 166.348
61.49000 165.739
61.50000 165.465
61.51000 174.142
61.52000 186.805
61.53000 198.766
61.54000 218.040
61.55000 237.799
61.56000 256.486
61.57000 266.931
61.58000 275.649
61.59000 285.754
61.60000 302.749
61.61000 320.683
61.62000 334.755
61.63000 336.506
61.64000 337.104
61.65000 336.752
61.66000 334.186
61.67000 331.529
61.68000 332.243
61.69000 338.380
61.70000 344.591
61.71000 347.820
61.72000 351.461
61.73000 353.863
61.74000 347.653
61.75000 335.263
61.76000 322.663
61.77000 302.831
61.78000 279.437
61.79000 257.120
61.80000 242.165
61.81000 230.615
61.82000 219.113
61.83000 208.029
61.84000 197.042
61.85000 186.816
61.86000 180.826
61.87000 175.491
61.88000 171.203
61.89000 168.894
61.90000 167.174
61.91000 164.493
61.92000 159.339
61.93000 154.060
61.94000 151.678
61.95000 154.462
61.96000 157.348
61.97000 158.931
61.98000 158.162
61.99000 157.623
62.00000 154.870
62.01000 150.347
62.02000 145.913
62.03000 145.666
62.04000 147.700
62.05000 149.657
62.06000 149.469
62.07000 148.533
62.08000 147.267
62.09000 142.660
62.10000 137.184
62.11000 133.038
62.12000 137.218
62.13000 142.846
62.14000 147.470
62.15000 146.692
62.16000 145.567
62.17000 144.523
62.18000 143.711
62.19000 142.913
62.20000 141.779
62.21000 139.985
62.22000 138.172
62.23000 137.128
62.24000 135.157
62.25000 133.775
62.26000 133.314
62.27000 133.677
62.28000 134.089
62.29000 137.671
62.30000 143.169
62.31000 148.503
62.32000 147.094
62.33000 143.090
62.34000 139.506
62.35000 140.877
62.36000 143.676
62.37000 145.905
62.38000 144.100
62.39000 141.509
62.40000 139.335
62.41000 140.718
62.42000 142.239
62.43000 144.109
62.44000 147.074
62.45000 150.120
62.46000 151.187
62.47000 147.934
62.48000 144.529
62.49000 142.475
62.50000 135.581
62.51000 130.639
62.52000 129.742
62.53000 132.910
62.54000 136.088
62.55000 140.383
62.56000 145.427
62.57000 150.356
62.58000 146.110
62.59000 137.989
62.60000 130.713
62.61000 135.131
62.62000 143.285
62.63000 150.546
62.64000 150.604
62.65000 149.092
62.66000 147.800
62.67000 148.082
62.68000 148.510
62.69000 148.740
62.70000 148.276
62.71000 147.753
62.72000 146.697
62.73000 144.353
62.74000 141.952
62.75000 140.442
62.76000 140.369
62.77000 140.333
62.78000 140.037
62.79000 139.449
62.80000 138.864
62.81000 138.987
62.82000 139.637
62.83000 140.276
62.84000 144.611
62.85000 150.627
62.86000 156.304
62.87000 156.402
62.88000 154.527
62.89000 152.481
62.90000 148.858
62.91000 144.852
62.92000 141.364
62.93000 143.276
62.94000 145.652
62.95000 148.187
62.96000 151.334
62.97000 154.542
62.98000 155.303
62.99000 149.531
63.00000 143.404
63.01000 139.396
63.02000 146.312
63.03000 151.570
63.04000 152.909
63.05000 149.304
63.06000 145.693
63.07000 146.602
63.08000 151.271
63.09000 155.884
63.10000 153.682
63.11000 147.779
63.12000 142.253
63.13000 144.288
63.14000 149.280
63.15000 153.623
63.16000 151.039
63.17000 146.586
63.18000 142.643
63.19000 143.797
63.20000 145.595
63.21000 147.684
63.22000 151.030
63.23000 154.520
63.24000 157.060
63.25000 156.791
63.26000 156.338
63.27000 156.031
63.28000 158.207
63.29000 159.885
63.30000 158.695
63.31000 153.475
63.32000 148.228
63.33000 147.018
63.34000 149.568
63.35000 152.099
63.36000 152.729
63.37000 152.178
63.38000 151.624
63.39000 151.027
63.40000 150.411
63.41000 149.951
63.42000 151.438
63.43000 153.508
63.44000 155.369
63.45000 152.749
63.46000 149.657
63.47000 147.514
63.48000 149.937
63.49000 152.960
63.50000 154.837
63.51000 152.965
63.52000 150.802
63.53000 149.284
63.54000 152.808
63.55000 155.620
63.56000 156.325
63.57000 153.740
63.58000 151.115
63.59000 151.807
63.60000 155.973
63.61000 160.119
63.62000 159.921
63.63000 156.734
63.64000 153.657
63.65000 154.102
63.66000 156.232
63.67000 158.274
63.68000 159.022
63.69000 159.342
63.70000 159.633
63.71000 155.673
63.72000 151.309
63.73000 148.091
63.74000 151.056
63.75000 154.943
63.76000 158.730
63.77000 162.155
63.78000 165.547
63.79000 168.003
63.80000 163.173
63.81000 159.198
63.82000 154.274
63.83000 147.710
63.84000 141.117
63.85000 141.105
63.86000 148.823
63.87000 156.536
63.88000 160.240
63.89000 160.832
63.90000 161.343
63.91000 158.422
63.92000 153.684
63.93000 149.262
63.94000 150.426
63.95000 153.639
63.96000 156.607
63.97000 158.022
63.98000 158.940
63.99000 158.998
64.00000 153.851
64.01000 147.828
64.02000 144.434
64.03000 151.629
64.04000 159.940
64.05000 166.136
64.06000 163.070
64.07000 160.263
64.08000 158.799
64.09000 159.912
64.10000 161.088
64.11000 161.452
64.12000 160.749
64.13000 160.043
64.14000 158.296
64.15000 155.654
64.16000 153.047
64.17000 152.516
64.18000 153.202
64.19000 153.981
64.20000 156.755
64.21000 160.339
64.22000 163.690
64.23000 171.113
64.24000 178.889
64.25000 184.594
64.26000 176.150
64.27000 165.035
64.28000 155.912
64.29000 155.732
64.30000 156.632
64.31000 157.321
64.32000 159.570
64.33000 161.432
64.34000 163.703
64.35000 166.844
64.36000 170.013
64.37000 171.785
64.38000 171.519
64.39000 171.235
64.40000 169.444
64.41000 166.189
64.42000 162.964
64.43000 162.507
64.44000 163.851
64.45000 165.144
64.46000 165.071
64.47000 164.385
64.48000 163.737
64.49000 169.387
64.50000 176.372
64.51000 182.381
64.52000 180.811
64.53000 177.641
64.54000 174.563
64.55000 171.945
64.56000 169.390
64.57000 167.382
64.58000 172.221
64.59000 176.545
64.60000 179.093
64.61000 177.471
64.62000 175.675
64.63000 173.972
64.64000 172.416
64.65000 170.863
64.66000 170.052
64.67000 179.259
64.68000 185.456
64.69000 186.187
64.70000 182.964
64.71000 179.819
64.72000 179.426
64.73000 180.397
64.74000 181.323
64.75000 181.693
64.76000 181.859
64.77000 182.074
64.78000 182.728
64.79000 183.485
64.80000 184.220
64.81000 184.825
64.82000 185.411
64.83000 185.882
64.84000 189.496
64.85000 192.672
64.86000 194.933
64.87000 194.818
64.88000 194.581
64.89000 193.925
64.90000 192.513
64.91000 191.086
64.92000 190.300
64.93000 193.810
64.94000 196.232
64.95000 197.696
64.96000 198.387
64.97000 199.081
64.98000 199.954
64.99000 200.925
65.00000 201.860
65.01000 200.801
65.02000 199.094
65.03000 197.917
65.04000 202.156
65.05000 207.813
65.06000 212.445
65.07000 210.604
65.08000 207.627
65.09000 205.177
65.10000 212.759
65.11000 219.905
65.12000 225.959
65.13000 228.878
65.14000 231.603
65.15000 233.940
65.16000 235.507
65.17000 237.053
65.18000 237.947
65.19000 245.699
65.20000 251.159
65.21000 255.411
65.22000 258.575
65.23000 261.748
65.24000 265.546
65.25000 269.726
65.26000 273.783
65.27000 283.040
65.28000 293.900
65.29000 303.998
65.30000 305.054
65.31000 303.482
65.32000 302.916
65.33000 309.535
65.34000 317.567
65.35000 324.315
65.36000 334.585
65.37000 343.512
65.38000 348.648
65.39000 341.742
65.40000 333.943
65.41000 334.277
65.42000 352.503
65.43000 371.368
65.44000 382.780
65.45000 381.518
65.46000 380.526
65.47000 385.977
65.48000 397.957
65.49000 409.857
65.50000 413.070
65.51000 410.415
65.52000 407.819
65.53000 411.478
65.54000 417.770
65.55000 423.987
65.56000 429.156
65.57000 433.987
65.58000 440.049
65.59000 456.128
65.60000 474.406
65.61000 490.061
65.62000 505.745
65.63000 518.986
65.64000 532.775
65.65000 548.495
65.66000 564.383
65.67000 587.304
65.68000 627.331
65.69000 668.127
65.70000 693.862
65.71000 778.038
65.72000 839.667
65.73000 908.595
65.74000 985.824
65.75000 1062.995
65.76000 1126.564
65.77000 1179.910
65.78000 1232.366
65.79000 1299.279
65.80000 1371.190
65.81000 1440.794
65.82000 1471.805
65.83000 1489.065
65.84000 1505.095
65.85000 1509.662
65.86000 1511.425
65.87000 1512.962
65.88000 1515.134
65.89000 1517.079
65.90000 1510.264
65.91000 1469.206
65.92000 1424.686
65.93000 1378.619
65.94000 1328.386
65.95000 1277.924
65.96000 1244.831
65.97000 1114.462
65.98000 1016.969
65.99000 924.478
66.00000 838.343
66.01000 752.262
66.02000 682.768
66.03000 627.186
66.04000 572.256
66.05000 530.851
66.06000 497.972
66.07000 465.610
66.08000 443.768
66.09000 426.072
66.10000 408.545
66.11000 392.843
66.12000 377.637
66.13000 364.159
66.14000 370.165
66.15000 378.447
66.16000 383.892
66.17000 376.996
66.18000 368.667
66.19000 361.866
66.20000 359.615
66.21000 357.667
66.22000 356.342
66.23000 359.170
66.24000 361.376
66.25000 373.219
66.26000 398.708
66.27000 424.295
66.28000 441.043
66.29000 449.488
66.30000 457.868
66.31000 474.612
66.32000 496.263
66.33000 517.451
66.34000 526.916
66.35000 531.272
66.36000 535.514
66.37000 538.314
66.38000 540.680
66.39000 542.810
66.40000 545.721
66.41000 548.414
66.42000 551.055
66.43000 553.448
66.44000 555.808
66.45000 556.807
66.46000 553.320
66.47000 549.481
66.48000 546.781
66.49000 532.564
66.50000 521.454
66.51000 507.526
66.52000 489.166
66.53000 470.752
66.54000 454.172
66.55000 439.529
66.56000 424.952
66.57000 411.591
66.58000 399.215
66.59000 387.078
66.60000 382.695
66.61000 382.049
66.62000 380.978
66.63000 373.581
66.64000 364.073
66.65000 355.393
66.66000 353.530
66.67000 353.258
66.68000 353.179
66.69000 354.149
66.70000 355.277
66.71000 356.118
66.72000 355.909
66.73000 355.603
66.74000 355.381
66.75000 352.647
66.76000 350.453
66.77000 351.368
66.78000 357.707
66.79000 364.145
66.80000 363.827
66.81000 355.511
66.82000 347.197
66.83000 347.658
66.84000 354.935
66.85000 362.266
66.86000 371.950
66.87000 382.890
66.88000 393.040
66.89000 389.038
66.90000 379.808
66.91000 371.273
66.92000 374.056
66.93000 379.138
66.94000 384.560
66.95000 392.054
66.96000 399.899
66.97000 403.709
66.98000 391.134
66.99000 376.816
67.00000 366.121
67.01000 377.261
67.02000 386.950
67.03000 393.868
67.04000 395.434
67.05000 396.864
67.06000 399.066
67.07000 402.286
67.08000 405.509
67.09000 407.279
67.10000 407.779
67.11000 408.270
67.12000 408.201
67.13000 407.801
67.14000 407.508
67.15000 409.581
67.16000 412.619
67.17000 415.463
67.18000 409.785
67.19000 402.441
67.20000 397.543
67.21000 409.506
67.22000 424.679
67.23000 437.379
67.24000 438.894
67.25000 439.045
67.26000 439.161
67.27000 433.049
67.28000 427.870
67.29000 427.274
67.30000 436.472
67.31000 445.996
67.32000 452.217
67.33000 453.581
67.34000 454.902
67.35000 453.019
67.36000 447.996
67.37000 442.981
67.38000 438.736
67.39000 434.996
67.40000 431.774
67.41000 442.857
67.42000 460.400
67.43000 476.996
67.44000 482.494
67.45000 484.358
67.46000 485.381
67.47000 479.819
67.48000 472.856
67.49000 466.501
67.50000 463.221
67.51000 460.367
67.52000 458.120
67.53000 468.388
67.54000 477.450
67.55000 485.654
67.56000 491.828
67.57000 497.917
67.58000 503.694
67.59000 508.961
67.60000 514.220
67.61000 516.977
67.62000 510.644
67.63000 506.365
67.64000 504.413
67.65000 504.158
67.66000 504.108
67.67000 511.401
67.68000 522.363
67.69000 532.835
67.70000 534.869
67.71000 534.044
67.72000 533.406
67.73000 534.434
67.74000 535.858
67.75000 537.104
67.76000 537.344
67.77000 537.427
67.78000 537.494
67.79000 549.672
67.80000 560.516
67.81000 568.055
67.82000 566.957
67.83000 565.407
67.84000 566.942
67.85000 574.058
67.86000 581.289
67.87000 585.285
67.88000 581.323
67.89000 578.581
67.90000 577.750
67.91000 578.472
67.92000 579.157
67.93000 578.091
67.94000 576.056
67.95000 574.095
67.96000 584.412
67.97000 598.526
67.98000 611.506
67.99000 612.769
68.00000 610.942
68.01000 609.570
68.02000 611.091
68.03000 613.125
68.04000 614.802
68.05000 624.137
68.06000 632.524
68.07000 640.848
68.08000 648.987
68.09000 657.114
68.10000 658.441
68.11000 646.147
68.12000 633.470
68.13000 626.117
68.14000 646.320
68.15000 660.609
68.16000 663.382
68.17000 655.684
68.18000 648.262
68.19000 660.326
68.20000 684.334
68.21000 707.651
68.22000 715.402
68.23000 716.505
68.24000 717.747
68.25000 720.663
68.26000 724.070
68.27000 727.934
68.28000 735.088
68.29000 742.894
68.30000 749.462
68.31000 751.356
68.32000 752.437
68.33000 753.863
68.34000 756.390
68.35000 759.000
68.36000 763.721
68.37000 773.120
68.38000 782.689
68.39000 788.495
68.40000 799.370
68.41000 807.168
68.42000 823.883
68.43000 849.710
68.44000 875.403
68.45000 885.974
68.46000 886.254
68.47000 886.528
68.48000 896.886
68.49000 911.347
68.50000 926.814
68.51000 956.549
68.52000 990.911
68.53000 1023.570
68.54000 1042.242
68.55000 1057.818
68.56000 1071.176
68.57000 1098.855
68.58000 1123.993
68.59000 1156.415
68.60000 1214.677
68.61000 1275.212
68.62000 1337.786
68.63000 1405.353
68.64000 1473.148
68.65000 1516.037
68.66000 1644.937
68.67000 1739.404
68.68000 1815.101
68.69000 1869.281
68.70000 1923.575
68.71000 2007.478
68.72000 2113.805
68.73000 2218.398
68.74000 2312.526
68.75000 2398.380
68.76000 2484.905
68.77000 2582.805
68.78000 2684.787
68.79000 2790.965
68.80000 2936.645
68.81000 3092.061
68.82000 3227.729
68.83000 3478.471
68.84000 3709.154
68.85000 3961.351
68.86000 4298.285
68.87000 4643.871
68.88000 5103.907
68.89000 5873.986
68.90000 6661.416
68.91000 7179.191
68.92000 9710.497
68.93000 11608.380
68.94000 14446.036
68.95000 18487.521
68.96000 22535.535
68.97000 27768.297
68.98000 34002.730
68.99000 40166.043
69.00000 47000.152
69.01000 54046.426
69.02000 61023.762
69.03000 66577.648
69.04000 71566.492
69.05000 76380.500
69.06000 79290.406
69.07000 81678.828
69.08000 83798.359
69.09000 84875.813
69.10000 85643.063
69.11000 86423.852
69.12000 87264.016
69.13000 88111.141
69.14000 88946.242
69.15000 89745.281
69.16000 90541.906
69.17000 91084.883
69.18000 90680.711
69.19000 90356.805
69.20000 88795.766
69.21000 85469.641
69.22000 82130.008
69.23000 78024.188
69.24000 73192.453
69.25000 68396.352
69.26000 64178.488
69.27000 60391.891
69.28000 56637.441
69.29000 53710.641
69.30000 51147.102
69.31000 48652.145
69.32000 47030.484
69.33000 45674.047
69.34000 44451.863
69.35000 43114.039
69.36000 41919.379
69.37000 40559.141
69.38000 38388.996
69.39000 36110.445
69.40000 33577.059
69.41000 30197.760
69.42000 26751.174
69.43000 24322.053
69.44000 20029.344
69.45000 16717.844
69.46000 13832.034
69.47000 11620.979
69.48000 9418.421
69.49000 7680.652
69.50000 6437.963
69.51000 5200.639
69.52000 4352.170
69.53000 3784.329
69.54000 3222.560
69.55000 2861.760
69.56000 2598.506
69.57000 2341.973
69.58000 2186.782
69.59000 2065.675
69.60000 1955.013
69.61000 1852.029
69.62000 1762.134
69.63000 1677.643
69.64000 1622.755
69.65000 1572.357
69.66000 1521.915
69.67000 1471.312
69.68000 1420.693
69.69000 1383.888
69.70000 1328.477
69.71000 1285.142
69.72000 1245.672
69.73000 1212.997
69.74000 1180.448
69.75000 1155.743
69.76000 1140.395
69.77000 1125.096
69.78000 1100.259
69.79000 1068.074
69.80000 1036.166
69.81000 1016.497
69.82000 1003.403
69.83000 990.442
69.84000 979.916
69.85000 970.296
69.86000 961.391
69.87000 938.937
69.88000 915.635
69.89000 894.841
69.90000 889.492
69.91000 886.784
69.92000 880.293
69.93000 858.323
69.94000 834.690
69.95000 817.000
69.96000 813.964
69.97000 812.280
69.98000 808.500
69.99000 800.642
70.00000 792.679
