20.00000 560.776
20.01000 562.974
20.02000 565.486
20.03000 569.383
20.04000 578.820
20.05000 588.834
20.06000 596.283
20.07000 580.339
20.08000 566.890
20.09000 559.176
20.10000 562.378
20.11000 565.843
20.12000 564.738
20.13000 557.689
20.14000 550.621
20.15000 550.037
20.16000 555.013
20.17000 560.047
20.18000 568.509
20.19000 578.964
20.20000 588.839
20.21000 586.379
20.22000 578.954
20.23000 572.017
20.24000 566.705
20.25000 562.295
20.26000 557.652
20.27000 551.428
20.28000 544.907
20.29000 540.724
20.30000 546.945
20.31000 554.409
20.32000 560.117
20.33000 556.861
20.34000 553.806
20.35000 553.625
20.36000 559.497
20.37000 565.563
20.38000 571.000
20.39000 575.527
20.40000 580.045
20.41000 576.387
20.42000 564.856
20.43000 553.474
20.44000 555.061
20.45000 565.020
20.46000 574.691
20.47000 576.721
20.48000 575.350
20.49000 574.055
20.50000 567.369
20.51000 559.708
20.52000 551.722
20.53000 541.244
20.54000 530.243
20.55000 523.879
20.56000 540.544
20.57000 560.348
20.58000 575.885
20.59000 565.690
20.60000 555.864
20.61000 549.729
20.62000 552.192
20.63000 555.005
20.64000 555.852
20.65000 553.538
20.66000 551.182
20.67000 549.957
20.68000 559.751
20.69000 566.354
20.70000 570.550
20.71000 573.019
20.72000 575.159
20.73000 566.000
20.74000 551.279
20.75000 537.236
20.76000 532.343
20.77000 530.698
20.78000 530.156
20.79000 539.292
20.80000 550.687
20.81000 561.155
20.82000 566.458
20.83000 570.964
20.84000 574.585
20.85000 571.852
20.86000 569.148
20.87000 564.763
20.88000 556.049
20.89000 547.116
20.90000 544.469
20.91000 553.025
20.92000 561.802
20.93000 566.615
20.94000 575.260
20.95000 581.188
20.96000 578.713
20.97000 569.521
20.98000 560.550
20.99000 561.847
21.00000 568.739
21.01000 575.372
21.02000 571.204
21.03000 563.469
21.04000 556.234
21.05000 554.055
21.06000 553.190
21.07000 551.631
21.08000 545.732
21.09000 539.080
21.10000 533.613
21.11000 549.762
21.12000 564.971
21.13000 573.227
21.14000 561.682
21.15000 548.921
21.16000 543.734
21.17000 553.496
21.18000 563.659
21.19000 569.515
21.20000 562.695
21.21000 557.874
21.22000 555.560
21.23000 555.487
21.24000 555.374
21.25000 552.654
21.26000 548.358
21.27000 544.191
21.28000 544.558
21.29000 546.700
21.30000 548.638
21.31000 548.180
21.32000 547.031
21.33000 546.061
21.34000 546.358
21.35000 546.902
21.36000 547.358
21.37000 545.563
21.38000 543.834
21.39000 541.976
21.40000 539.714
21.41000 537.422
21.42000 539.713
21.43000 552.007
21.44000 564.652
21.45000 572.277
21.46000 567.549
21.47000 564.097
21.48000 556.636
21.49000 545.150
21.50000 533.775
21.51000 533.961
21.52000 541.894
21.53000 549.645
21.54000 550.507
21.55000 548.290
21.56000 546.322
21.57000 547.809
21.58000 550.399
21.59000 552.901
21.60000 554.685
21.61000 556.314
21.62000 557.706
21.63000 555.135
21.64000 552.491
21.65000 552.653
21.66000 562.620
21.67000 573.432
21.68000 581.822
21.69000 584.368
21.70000 586.655
21.71000 588.093
21.72000 583.490
21.73000 580.092
21.74000 579.963
21.75000 583.519
21.76000 587.079
21.77000 591.025
21.78000 595.257
21.79000 599.417
21.80000 604.242
21.81000 609.234
21.82000 614.122
21.83000 617.297
21.84000 619.867
21.85000 623.046
21.86000 631.834
21.87000 641.984
21.88000 650.822
21.89000 660.248
21.90000 668.380
21.91000 674.349
21.92000 671.932
21.93000 668.676
21.94000 669.008
21.95000 678.916
21.96000 689.346
21.97000 696.166
21.98000 715.934
21.99000 730.665
22.00000 741.227
22.01000 746.534
22.02000 751.821
22.03000 755.809
22.04000 758.716
22.05000 761.588
22.06000 764.300
22.07000 766.854
22.08000 769.255
22.09000 768.578
22.10000 766.696
22.11000 764.713
22.12000 761.648
22.13000 758.292
22.14000 755.320
22.15000 751.576
22.16000 748.218
22.17000 744.427
22.18000 738.773
22.19000 732.904
22.20000 727.344
22.21000 722.695
22.22000 718.105
22.23000 714.992
22.24000 712.903
22.25000 711.368
22.26000 707.696
22.27000 701.022
22.28000 694.326
22.29000 680.787
22.30000 660.875
22.31000 641.121
22.32000 633.452
22.33000 633.356
22.34000 633.060
22.35000 627.778
22.36000 620.340
22.37000 613.095
22.38000 608.248
22.39000 604.118
22.40000 600.406
22.41000 595.475
22.42000 590.940
22.43000 586.089
22.44000 579.717
22.45000 573.146
22.46000 568.481
22.47000 570.050
22.48000 572.103
22.49000 573.543
22.50000 565.667
22.51000 559.437
22.52000 552.638
22.53000 544.951
22.54000 537.254
22.55000 536.874
22.56000 544.158
22.57000 551.409
22.58000 552.901
22.59000 550.415
22.60000 548.021
22.61000 548.576
22.62000 550.541
22.63000 552.057
22.64000 546.989
22.65000 539.738
22.66000 533.126
22.67000 531.190
22.68000 530.413
22.69000 530.673
22.70000 536.514
22.71000 543.188
22.72000 547.590
22.73000 543.759
22.74000 539.179
22.75000 535.864
22.76000 524.593
22.77000 515.647
22.78000 512.248
22.79000 518.452
22.80000 524.826
22.81000 529.305
22.82000 531.558
22.83000 533.802
22.84000 533.888
22.85000 532.312
22.86000 530.645
22.87000 525.195
22.88000 517.743
22.89000 510.609
22.90000 509.085
22.91000 509.618
22.92000 510.111
22.93000 515.273
22.94000 520.961
22.95000 525.645
22.96000 524.260
22.97000 521.854
22.98000 519.286
22.99000 516.069
23.00000 512.784
23.01000 510.335
23.02000 512.525
23.03000 514.441
23.04000 517.467
23.05000 522.624
23.06000 527.833
23.07000 526.569
23.08000 516.822
23.09000 507.044
23.10000 506.823
23.11000 514.860
23.12000 522.844
23.13000 527.611
23.14000 530.492
23.15000 533.161
23.16000 531.243
23.17000 527.466
23.18000 523.934
23.19000 514.932
23.20000 505.369
23.21000 497.155
23.22000 498.160
23.23000 500.905
23.24000 503.808
23.25000 507.416
23.26000 511.109
23.27000 513.938
23.28000 510.226
23.29000 506.934
23.30000 506.133
23.31000 510.614
23.32000 515.268
23.33000 516.034
23.34000 511.129
23.35000 506.176
23.36000 505.217
23.37000 508.137
23.38000 511.036
23.39000 512.101
23.40000 511.972
23.41000 511.753
23.42000 509.068
23.43000 505.280
23.44000 501.698
23.45000 504.600
23.46000 509.113
23.47000 513.583
23.48000 517.712
23.49000 521.770
23.50000 523.788
23.51000 515.591
23.52000 505.989
23.53000 498.442
23.54000 517.398
23.55000 534.317
23.56000 540.169
23.57000 520.065
23.58000 498.883
23.59000 488.823
23.60000 496.783
23.61000 504.991
23.62000 509.276
23.63000 518.333
23.64000 524.413
23.65000 523.007
23.66000 516.190
23.67000 509.492
23.68000 506.996
23.69000 506.583
23.70000 506.189
23.71000 509.909
23.72000 514.678
23.73000 518.821
23.74000 517.408
23.75000 514.689
23.76000 512.276
23.77000 511.590
23.78000 511.173
23.79000 510.837
23.80000 520.121
23.81000 528.401
23.82000 534.589
23.83000 535.351
23.84000 535.833
23.85000 533.665
23.86000 526.737
23.87000 519.712
23.88000 515.845
23.89000 514.285
23.90000 513.219
23.91000 514.053
23.92000 516.417
23.93000 518.690
23.94000 516.616
23.95000 512.155
23.96000 507.860
23.97000 513.181
23.98000 521.611
23.99000 528.708
24.00000 522.189
24.01000 512.105
24.02000 503.801
24.03000 506.732
24.04000 511.632
24.05000 515.664
24.06000 514.657
24.07000 513.370
24.08000 512.437
24.09000 512.517
24.10000 512.660
24.11000 511.548
24.12000 507.942
24.13000 504.267
24.14000 502.143
24.15000 509.070
24.16000 513.960
24.17000 515.073
24.18000 512.780
24.19000 510.441
24.20000 504.861
24.21000 497.310
24.22000 489.981
24.23000 488.516
24.24000 489.465
24.25000 490.918
24.26000 498.369
24.27000 507.562
24.28000 515.413
24.29000 513.680
24.30000 510.063
24.31000 507.024
24.32000 503.635
24.33000 500.775
24.34000 497.835
24.35000 494.643
24.36000 491.432
24.37000 493.733
24.38000 508.155
24.39000 523.009
24.40000 531.993
24.41000 508.089
24.42000 490.814
24.43000 485.209
24.44000 491.425
24.45000 497.583
24.46000 497.515
24.47000 493.245
24.48000 489.071
24.49000 490.395
24.50000 494.113
24.51000 497.333
24.52000 493.585
24.53000 487.595
24.54000 482.630
24.55000 486.009
24.56000 491.220
24.57000 495.682
24.58000 491.113
24.59000 486.161
24.60000 484.163
24.61000 492.563
24.62000 501.867
24.63000 507.479
24.64000 504.113
24.65000 500.344
24.66000 497.967
24.67000 481.508
24.68000 469.427
24.69000 469.432
24.70000 483.176
24.71000 496.853
24.72000 494.373
24.73000 479.753
24.74000 465.378
24.75000 469.467
24.76000 482.602
24.77000 494.951
24.78000 494.151
24.79000 488.668
24.80000 483.568
24.81000 482.030
24.82000 481.364
24.83000 480.784
24.84000 477.667
24.85000 474.651
24.86000 473.105
24.87000 477.302
24.88000 482.079
24.89000 483.749
24.90000 477.068
24.91000 469.925
24.92000 465.242
24.93000 473.425
24.94000 479.656
24.95000 484.341
24.96000 487.062
24.97000 489.773
24.98000 490.692
24.99000 490.109
25.00000 489.533
25.01000 482.964
25.02000 473.229
25.03000 464.254
25.04000 470.726
25.05000 483.285
25.06000 494.321
25.07000 488.961
25.08000 479.145
25.09000 470.444
25.10000 475.908
25.11000 482.878
25.12000 488.708
25.13000 489.582
25.14000 489.881
25.15000 489.360
25.16000 486.406
25.17000 483.290
25.18000 481.171
25.19000 478.519
25.20000 476.527
25.21000 476.236
25.22000 478.353
25.23000 480.487
25.24000 479.030
25.25000 474.200
25.26000 469.407
25.27000 464.619
25.28000 459.914
25.29000 455.456
25.30000 457.254
25.31000 461.776
25.32000 466.290
25.33000 470.699
25.34000 475.077
25.35000 479.018
25.36000 476.755
25.37000 473.660
25.38000 471.683
25.39000 475.130
25.40000 479.296
25.41000 479.057
25.42000 464.309
25.43000 448.420
25.44000 437.249
25.45000 447.816
25.46000 456.462
25.47000 464.308
25.48000 470.894
25.49000 477.464
25.50000 480.258
25.51000 479.062
25.52000 477.871
25.53000 474.467
25.54000 469.562
25.55000 464.766
25.56000 463.483
25.57000 463.892
25.58000 464.280
25.59000 464.360
25.60000 464.338
25.61000 464.317
25.62000 470.159
25.63000 476.530
25.64000 481.668
25.65000 480.110
25.66000 477.546
25.67000 476.409
25.68000 480.480
25.69000 485.030
25.70000 488.331
25.71000 474.868
25.72000 463.896
25.73000 458.323
25.74000 462.167
25.75000 466.183
25.76000 466.856
25.77000 463.574
25.78000 460.291
25.79000 455.821
25.80000 450.451
25.81000 445.369
25.82000 452.759
25.83000 466.798
25.84000 480.083
25.85000 479.891
25.86000 474.723
25.87000 469.944
25.88000 467.056
25.89000 464.894
25.90000 462.827
25.91000 461.342
25.92000 459.956
25.93000 459.310
25.94000 461.666
25.95000 464.342
25.96000 466.340
25.97000 459.264
25.98000 453.331
25.99000 451.710
26.00000 458.417
26.01000 465.334
26.02000 468.760
26.03000 467.574
26.04000 466.368
26.05000 470.228
26.06000 478.497
26.07000 486.578
26.08000 483.154
26.09000 472.935
26.10000 463.103
26.11000 461.749
26.12000 463.859
26.13000 465.833
26.14000 466.013
26.15000 465.717
26.16000 464.880
26.17000 460.316
26.18000 455.044
26.19000 451.234
26.20000 454.041
26.21000 457.653
26.22000 460.426
26.23000 470.105
26.24000 478.140
26.25000 480.472
26.26000 470.617
26.27000 460.358
26.28000 454.755
26.29000 455.998
26.30000 457.301
26.31000 456.784
26.32000 454.486
26.33000 452.221
26.34000 453.127
26.35000 456.112
26.36000 458.904
26.37000 456.419
26.38000 451.550
26.39000 446.945
26.40000 441.750
26.41000 436.805
26.42000 432.996
26.43000 438.069
26.44000 445.033
26.45000 451.161
26.46000 453.076
26.47000 454.406
26.48000 455.453
26.49000 448.438
26.50000 442.279
26.51000 436.989
26.52000 433.751
26.53000 430.600
26.54000 433.222
26.55000 445.265
26.56000 457.442
26.57000 463.824
26.58000 452.877
26.59000 445.459
26.60000 438.396
26.61000 431.590
26.62000 425.120
26.63000 430.647
26.64000 442.166
26.65000 453.169
26.66000 458.672
26.67000 462.018
26.68000 464.819
26.69000 462.743
26.70000 459.510
26.71000 456.352
26.72000 453.621
26.73000 450.957
26.74000 448.810
26.75000 445.367
26.76000 442.470
26.77000 442.881
26.78000 451.938
26.79000 461.446
26.80000 464.685
26.81000 456.586
26.82000 448.253
26.83000 443.649
26.84000 444.156
26.85000 444.520
26.86000 447.010
26.87000 451.227
26.88000 455.360
26.89000 455.427
26.90000 453.245
26.91000 451.142
26.92000 444.498
26.93000 436.621
26.94000 429.095
26.95000 425.194
26.96000 422.249
26.97000 420.905
26.98000 429.762
26.99000 440.421
27.00000 449.206
27.01000 452.473
27.02000 454.654
27.03000 455.303
27.04000 451.525
27.05000 447.468
27.06000 443.488
27.07000 439.662
27.08000 435.840
27.09000 433.623
27.10000 441.743
27.11000 447.483
27.12000 450.224
27.13000 450.240
27.14000 450.216
27.15000 447.396
27.16000 442.863
27.17000 438.461
27.18000 438.022
27.19000 439.198
27.20000 440.272
27.21000 440.129
27.22000 439.629
27.23000 438.568
27.24000 433.465
27.25000 427.562
27.26000 422.596
27.27000 421.636
27.28000 421.262
27.29000 421.552
27.30000 423.962
27.31000 426.531
27.32000 429.478
27.33000 433.260
27.34000 437.073
27.35000 439.386
27.36000 441.069
27.37000 442.265
27.38000 442.413
27.39000 441.491
27.40000 440.566
27.41000 439.305
27.42000 437.816
27.43000 436.359
27.44000 439.529
27.45000 444.645
27.46000 449.427
27.47000 449.468
27.48000 447.973
27.49000 445.981
27.50000 439.923
27.51000 432.965
27.52000 426.998
27.53000 433.213
27.54000 439.955
27.55000 444.263
27.56000 439.938
27.57000 434.853
27.58000 429.912
27.59000 425.325
27.60000 420.755
27.61000 417.864
27.62000 431.570
27.63000 441.702
27.64000 443.718
27.65000 436.432
27.66000 429.176
27.67000 430.517
27.68000 438.367
27.69000 446.089
27.70000 446.886
27.71000 444.187
27.72000 441.235
27.73000 433.998
27.74000 425.225
27.75000 417.985
27.76000 425.169
27.77000 435.908
27.78000 445.282
27.79000 439.745
27.80000 432.917
27.81000 426.686
27.82000 422.810
27.83000 419.174
27.84000 419.106
27.85000 428.700
27.86000 438.834
27.87000 445.497
27.88000 435.809
27.89000 428.398
27.90000 424.691
27.91000 425.728
27.92000 426.780
27.93000 427.207
27.94000 427.105
27.95000 427.003
27.96000 424.707
27.97000 421.236
27.98000 418.095
27.99000 421.750
28.00000 428.103
28.01000 434.082
28.02000 435.988
28.03000 436.779
28.04000 437.481
28.05000 432.163
28.06000 426.594
28.07000 423.496
28.08000 431.221
28.09000 440.217
28.10000 445.185
28.11000 438.088
28.12000 430.180
28.13000 424.790
28.14000 426.517
28.15000 427.971
28.16000 429.548
28.17000 431.302
28.18000 433.057
28.19000 436.538
28.20000 441.653
28.21000 446.731
28.22000 445.362
28.23000 439.985
28.24000 434.619
28.25000 429.559
28.26000 424.633
28.27000 420.038
28.28000 419.654
28.29000 420.550
28.30000 421.356
28.31000 423.873
28.32000 426.391
28.33000 428.375
28.34000 427.749
28.35000 426.774
28.36000 425.982
28.37000 425.796
28.38000 425.659
28.39000 425.562
28.40000 427.364
28.41000 428.787
28.42000 428.917
28.43000 426.998
28.44000 425.053
28.45000 424.745
28.46000 426.179
28.47000 427.608
28.48000 428.272
28.49000 428.393
28.50000 428.511
28.51000 428.524
28.52000 428.486
28.53000 428.298
28.54000 425.841
28.55000 422.622
28.56000 419.680
28.57000 413.100
28.58000 406.514
28.59000 401.580
28.60000 405.698
28.61000 411.189
28.62000 416.825
28.63000 422.995
28.64000 429.214
28.65000 433.736
28.66000 420.449
28.67000 409.553
28.68000 406.741
28.69000 418.132
28.70000 429.787
28.71000 434.645
28.72000 431.395
28.73000 428.136
28.74000 425.464
28.75000 423.265
28.76000 421.138
28.77000 422.179
28.78000 424.921
28.79000 427.609
28.80000 429.295
28.81000 430.609
28.82000 431.825
28.83000 425.082
28.84000 417.190
28.85000 411.094
28.86000 416.055
28.87000 422.907
28.88000 427.682
28.89000 423.959
28.90000 419.325
28.91000 415.857
28.92000 420.667
28.93000 424.807
28.94000 426.847
28.95000 424.802
28.96000 422.652
28.97000 422.089
28.98000 423.639
28.99000 425.198
29.00000 422.252
29.01000 415.350
29.02000 408.600
29.03000 411.341
29.04000 419.727
29.05000 427.655
29.06000 425.374
29.07000 418.894
29.08000 412.826
29.09000 412.876
29.10000 414.503
29.11000 415.562
29.12000 412.667
29.13000 409.014
29.14000 406.126
29.15000 406.716
29.16000 407.735
29.17000 408.518
29.18000 418.921
29.19000 427.696
29.20000 431.987
29.21000 426.632
29.22000 420.951
29.23000 416.184
29.24000 412.770
29.25000 409.369
29.26000 408.358
29.27000 409.707
29.28000 411.041
29.29000 411.009
29.30000 410.075
29.31000 409.308
29.32000 413.220
29.33000 419.260
29.34000 424.978
29.35000 425.920
29.36000 425.403
29.37000 425.083
29.38000 426.316
29.39000 427.882
29.40000 427.766
29.41000 419.091
29.42000 409.217
29.43000 401.430
29.44000 400.763
29.45000 400.708
29.46000 403.112
29.47000 411.368
29.48000 419.875
29.49000 423.298
29.50000 418.359
29.51000 413.298
29.52000 410.635
29.53000 415.724
29.54000 419.151
29.55000 417.828
29.56000 413.018
29.57000 408.219
29.58000 403.827
29.59000 399.639
29.60000 395.635
29.61000 400.667
29.62000 408.278
29.63000 415.446
29.64000 418.604
29.65000 420.804
29.66000 421.934
29.67000 416.962
29.68000 411.025
29.69000 406.230
29.70000 408.002
29.71000 409.964
29.72000 411.468
29.73000 411.768
29.74000 412.003
29.75000 414.836
29.76000 422.401
29.77000 430.066
29.78000 434.316
29.79000 430.796
29.80000 428.351
29.81000 425.902
29.82000 423.450
29.83000 421.098
29.84000 423.709
29.85000 429.083
29.86000 434.266
29.87000 436.507
29.88000 437.548
29.89000 438.066
29.90000 433.123
29.91000 426.728
29.92000 422.384
29.93000 431.213
29.94000 442.390
29.95000 451.615
29.96000 446.314
29.97000 440.596
29.98000 435.793
29.99000 433.650
30.00000 431.677
30.01000 430.394
30.02000 430.503
30.03000 430.652
30.04000 430.738
30.05000 436.798
30.06000 441.081
30.07000 442.586
30.08000 441.545
30.09000 440.491
30.10000 438.485
30.11000 435.891
30.12000 433.370
30.13000 433.805
30.14000 435.416
30.15000 436.924
30.16000 437.169
30.17000 437.042
30.18000 437.551
30.19000 442.693
30.20000 448.759
30.21000 453.869
30.22000 450.728
30.23000 447.219
30.24000 444.728
30.25000 445.521
30.26000 446.563
30.27000 444.788
30.28000 436.731
30.29000 428.441
30.30000 423.395
30.31000 427.325
30.32000 430.203
30.33000 432.222
30.34000 433.357
30.35000 434.457
30.36000 431.577
30.37000 425.967
30.38000 420.479
30.39000 424.759
30.40000 433.285
30.41000 441.375
30.42000 443.222
30.43000 443.030
30.44000 442.488
30.45000 439.051
30.46000 434.969
30.47000 431.464
30.48000 429.791
30.49000 428.604
30.50000 428.237
30.51000 430.802
30.52000 433.627
30.53000 435.807
30.54000 436.391
30.55000 436.902
30.56000 437.226
30.57000 446.359
30.58000 453.094
30.59000 458.728
30.60000 463.090
30.61000 467.394
30.62000 459.124
30.63000 441.259
30.64000 423.678
30.65000 422.953
30.66000 430.765
30.67000 438.765
30.68000 449.985
30.69000 462.368
30.70000 473.261
30.71000 469.987
30.72000 463.195
30.73000 457.259
30.74000 453.202
30.75000 449.994
30.76000 448.033
30.77000 451.021
30.78000 454.519
30.79000 460.155
30.80000 471.625
30.81000 483.426
30.82000 491.205
30.83000 495.169
30.84000 498.025
30.85000 497.823
30.86000 493.677
30.87000 489.525
30.88000 491.768
30.89000 499.461
30.90000 507.068
30.91000 517.264
30.92000 528.683
30.93000 539.857
30.94000 545.908
30.95000 549.911
30.96000 554.489
30.97000 565.404
30.98000 578.065
30.99000 589.313
31.00000 594.552
31.01000 598.127
31.02000 605.017
31.03000 626.543
31.04000 649.803
31.05000 674.122
31.06000 701.639
31.07000 729.374
31.08000 748.323
31.09000 787.485
31.10000 817.258
31.11000 853.085
31.12000 897.610
31.13000 942.206
31.14000 994.719
31.15000 1054.795
31.16000 1114.443
31.17000 1191.696
31.18000 1278.812
31.19000 1366.214
31.20000 1461.094
31.21000 1559.279
31.22000 1658.071
31.23000 1764.680
31.24000 1873.679
31.25000 1971.988
31.26000 2117.645
31.27000 2254.185
31.28000 2385.696
31.29000 2492.422
31.30000 2595.802
31.31000 2697.454
31.32000 2793.333
31.33000 2888.747
31.34000 2956.142
31.35000 3029.929
31.36000 3086.139
31.37000 3141.711
31.38000 3196.262
31.39000 3250.801
31.40000 3272.233
31.41000 3258.123
31.42000 3244.059
31.43000 3213.122
31.44000 3170.588
31.45000 3127.142
31.46000 3052.948
31.47000 2963.725
31.48000 2874.616
31.49000 2787.247
31.50000 2700.466
31.51000 2621.096
31.52000 2499.748
31.53000 2383.233
31.54000 2266.432
31.55000 2148.045
31.56000 2029.415
31.57000 1915.984
31.58000 1821.825
31.59000 1729.475
31.60000 1662.190
31.61000 1539.659
31.62000 1443.171
31.63000 1352.124
31.64000 1270.705
31.65000 1189.471
31.66000 1122.354
31.67000 1072.211
31.68000 1022.194
31.69000 981.831
31.70000 949.279
31.71000 916.576
31.72000 876.959
31.73000 833.603
31.74000 790.664
31.75000 755.404
31.76000 723.022
31.77000 693.023
31.78000 671.671
31.79000 654.469
31.80000 637.296
31.81000 620.305
31.82000 603.346
31.83000 587.831
31.84000 578.271
31.85000 569.356
31.86000 562.670
31.87000 544.371
31.88000 529.529
31.89000 517.059
31.90000 509.238
31.91000 501.539
31.92000 493.533
31.93000 485.113
31.94000 476.696
31.95000 475.950
31.96000 481.999
31.97000 487.850
31.98000 480.858
31.99000 466.168
32.00000 451.984
32.01000 449.262
32.02000 451.287
32.03000 453.186
32.04000 449.633
32.05000 444.977
32.06000 440.536
32.07000 437.596
32.08000 434.947
32.09000 432.681
32.10000 432.177
32.11000 431.893
32.12000 431.674
32.13000 428.913
32.14000 426.582
32.15000 423.622
32.16000 419.298
32.17000 414.928
32.18000 411.000
32.19000 407.731
32.20000 404.468
32.21000 401.549
32.22000 398.974
32.23000 396.454
32.24000 399.528
32.25000 406.323
32.26000 412.852
32.27000 411.780
32.28000 407.226
32.29000 402.912
32.30000 408.497
32.31000 416.530
32.32000 423.766
32.33000 424.636
32.34000 424.131
32.35000 422.562
32.36000 415.533
32.37000 407.733
32.38000 401.570
32.39000 402.728
32.40000 404.158
32.41000 404.115
32.42000 400.542
32.43000 396.815
32.44000 396.789
32.45000 402.894
32.46000 409.091
32.47000 412.364
32.48000 403.427
32.49000 397.369
32.50000 394.401
32.51000 393.721
32.52000 392.976
32.53000 389.863
32.54000 385.548
32.55000 381.422
32.56000 383.446
32.57000 387.342
32.58000 390.688
32.59000 389.013
32.60000 386.129
32.61000 384.097
32.62000 386.971
32.63000 390.627
32.64000 393.585
32.65000 386.768
32.66000 380.434
32.67000 377.345
32.68000 382.855
32.69000 388.827
32.70000 390.204
32.71000 383.143
32.72000 375.901
32.73000 371.870
32.74000 378.088
32.75000 382.400
32.76000 382.932
32.77000 380.343
32.78000 377.842
32.79000 379.747
32.80000 384.124
32.81000 388.347
32.82000 388.440
32.83000 387.019
32.84000 385.879
32.85000 387.710
32.86000 390.338
32.87000 392.044
32.88000 387.785
32.89000 382.454
32.90000 378.047
32.91000 387.593
32.92000 396.774
32.93000 403.201
32.94000 401.555
32.95000 399.385
32.96000 398.690
32.97000 400.991
32.98000 403.378
32.99000 404.773
33.00000 388.900
33.01000 377.656
33.02000 372.628
33.03000 373.343
33.04000 374.084
33.05000 376.732
33.06000 380.566
33.07000 384.294
33.08000 376.117
33.09000 363.481
33.10000 352.055
33.11000 355.513
33.12000 363.392
33.13000 370.114
33.14000 368.349
33.15000 364.876
33.16000 361.946
33.17000 368.741
33.18000 375.474
33.19000 378.346
33.20000 368.681
33.21000 358.054
33.22000 350.640
33.23000 350.444
33.24000 350.520
33.25000 350.567
33.26000 340.543
33.27000 333.293
33.28000 335.137
33.29000 346.425
33.30000 357.629
33.31000 358.512
33.32000 352.266
33.33000 346.152
33.34000 347.747
33.35000 352.793
33.36000 357.532
33.37000 357.814
33.38000 356.630
33.39000 355.720
33.40000 357.110
33.41000 359.017
33.42000 360.657
33.43000 356.732
33.44000 352.715
33.45000 349.179
33.46000 347.371
33.47000 345.718
33.48000 342.846
33.49000 336.946
33.50000 330.904
33.51000 327.060
33.52000 336.676
33.53000 343.831
33.54000 348.122
33.55000 349.077
33.56000 350.027
33.57000 350.768
33.58000 351.348
33.59000 351.920
33.60000 347.896
33.61000 341.658
33.62000 335.729
33.63000 335.188
33.64000 336.610
33.65000 338.232
33.66000 341.779
33.67000 345.807
33.68000 349.332
33.69000 345.755
33.70000 341.674
33.71000 339.011
33.72000 342.020
33.73000 345.619
33.74000 348.598
33.75000 349.875
33.76000 351.054
33.77000 351.834
33.78000 347.219
33.79000 343.719
33.80000 343.625
33.81000 347.964
33.82000 352.314
33.83000 351.403
33.84000 345.975
33.85000 340.606
33.86000 337.777
33.87000 336.457
33.88000 335.165
33.89000 334.480
33.90000 334.039
33.91000 333.991
33.92000 338.302
33.93000 343.825
33.94000 348.737
33.95000 351.885
33.96000 354.331
33.97000 355.632
33.98000 351.839
33.99000 347.437
34.00000 343.439
34.01000 340.672
34.02000 337.990
34.03000 336.153
34.04000 338.601
34.05000 340.536
34.06000 341.638
34.07000 341.532
34.08000 341.415
34.09000 340.816
34.10000 339.752
34.11000 338.695
34.12000 335.641
34.13000 331.367
34.14000 327.431
34.15000 332.501
34.16000 341.581
34.17000 349.835
34.18000 347.332
34.19000 341.514
34.20000 336.261
34.21000 337.736
34.22000 340.271
34.23000 342.433
34.24000 342.740
34.25000 342.795
34.26000 342.586
34.27000 341.492
34.28000 340.326
34.29000 339.500
34.30000 336.665
34.31000 334.448
34.32000 333.526
34.33000 334.689
34.34000 335.879
34.35000 339.757
34.36000 346.544
34.37000 353.306
34.38000 352.412
34.39000 346.086
34.40000 339.881
34.41000 337.853
34.42000 337.881
34.43000 337.996
34.44000 339.457
34.45000 341.377
34.46000 343.135
34.47000 337.065
34.48000 330.038
34.49000 325.192
34.50000 332.482
34.51000 341.644
34.52000 347.254
34.53000 339.592
34.54000 330.671
34.55000 324.157
34.56000 325.973
34.57000 327.698
34.58000 329.312
34.59000 330.730
34.60000 332.144
34.61000 329.452
34.62000 321.784
34.63000 314.118
34.64000 314.721
34.65000 321.905
34.66000 328.951
34.67000 329.662
34.68000 326.921
34.69000 324.450
34.70000 327.036
34.71000 331.530
34.72000 335.697
34.73000 335.286
34.74000 333.845
34.75000 332.821
34.76000 334.408
34.77000 336.450
34.78000 338.001
34.79000 337.517
34.80000 336.809
34.81000 336.277
34.82000 331.828
34.83000 328.162
34.84000 325.018
34.85000 322.907
34.86000 320.823
34.87000 321.285
34.88000 325.188
34.89000 329.108
34.90000 329.430
34.91000 326.537
34.92000 323.608
34.93000 318.254
34.94000 311.438
34.95000 304.928
34.96000 305.475
34.97000 308.967
34.98000 312.243
34.99000 317.069
35.00000 321.872
35.01000 326.162
35.02000 326.821
35.03000 326.771
35.04000 325.830
35.05000 320.766
35.06000 315.184
35.07000 310.875
35.08000 314.558
35.09000 317.941
35.10000 320.259
35.11000 320.252
35.12000 320.163
35.13000 316.921
35.14000 308.936
35.15000 300.904
35.16000 296.879
35.17000 309.253
35.18000 317.470
35.19000 321.657
35.20000 323.144
35.21000 324.468
35.22000 321.035
35.23000 315.408
35.24000 310.073
35.25000 312.496
35.26000 317.013
35.27000 320.354
35.28000 314.223
35.29000 306.028
35.30000 299.900
35.31000 304.460
35.32000 310.543
35.33000 315.358
35.34000 313.548
35.35000 311.635
35.36000 311.633
35.37000 316.245
35.38000 321.061
35.39000 322.771
35.40000 319.295
35.41000 315.740
35.42000 313.855
35.43000 309.757
35.44000 306.997
35.45000 309.624
35.46000 316.267
35.47000 322.489
35.48000 312.720
35.49000 294.789
35.50000 277.625
35.51000 286.602
35.52000 303.581
35.53000 318.339
35.54000 312.597
35.55000 301.880
35.56000 293.284
35.57000 296.992
35.58000 302.683
35.59000 307.293
35.60000 310.321
35.61000 312.658
35.62000 315.380
35.63000 319.133
35.64000 322.941
35.65000 326.346
35.66000 329.007
35.67000 331.652
35.68000 333.128
35.69000 319.335
35.70000 309.769
35.71000 309.343
35.72000 316.518
35.73000 323.543
35.74000 322.705
35.75000 317.422
35.76000 312.322
35.77000 310.290
35.78000 309.506
35.79000 308.453
35.80000 304.529
35.81000 299.832
35.82000 296.905
35.83000 305.559
35.84000 316.312
35.85000 325.215
35.86000 312.965
35.87000 300.848
35.88000 292.217
35.89000 293.884
35.90000 296.227
35.91000 299.949
35.92000 306.494
35.93000 313.124
35.94000 317.007
35.95000 304.948
35.96000 296.378
35.97000 289.803
35.98000 285.088
35.99000 280.452
36.00000 281.998
36.01000 287.417
36.02000 292.688
36.03000 300.136
36.04000 308.118
36.05000 315.237
36.06000 311.600
36.07000 304.747
36.08000 298.835
36.09000 299.903
36.10000 302.387
36.11000 304.486
36.12000 304.356
36.13000 304.001
36.14000 302.991
36.15000 299.837
36.16000 296.517
36.17000 296.204
36.18000 302.698
36.19000 309.453
36.20000 313.589
36.21000 310.730
36.22000 308.624
36.23000 309.337
36.24000 313.002
36.25000 316.641
36.26000 316.853
36.27000 314.681
36.28000 312.554
36.29000 310.650
36.30000 308.923
36.31000 307.317
36.32000 307.493
36.33000 308.258
36.34000 309.034
36.35000 309.902
36.36000 310.790
36.37000 311.555
36.38000 312.303
36.39000 312.934
36.40000 312.044
36.41000 305.634
36.42000 298.723
36.43000 292.830
36.44000 289.486
36.45000 286.264
36.46000 284.208
36.47000 292.459
36.48000 298.593
36.49000 301.849
36.50000 301.726
36.51000 301.578
36.52000 296.227
36.53000 286.843
36.54000 277.603
36.55000 281.650
36.56000 292.394
36.57000 302.787
36.58000 306.991
36.59000 308.926
36.60000 310.136
36.61000 304.314
36.62000 296.720
36.63000 290.068
36.64000 292.111
36.65000 295.118
36.66000 297.833
36.67000 299.367
36.68000 300.778
36.69000 300.640
36.70000 296.219
36.71000 291.548
36.72000 288.453
36.73000 285.969
36.74000 284.145
36.75000 284.956
36.76000 289.219
36.77000 293.499
36.78000 298.680
36.79000 304.642
36.80000 310.541
36.81000 309.578
36.82000 304.702
36.83000 299.799
36.84000 294.316
36.85000 288.597
36.86000 283.393
36.87000 283.984
36.88000 286.198
36.89000 288.169
36.90000 293.332
36.91000 298.340
36.92000 301.704
36.93000 297.689
36.94000 292.784
36.95000 290.628
36.96000 296.891
36.97000 303.742
36.98000 308.446
36.99000 309.765
37.00000 310.670
37.01000 310.499
37.02000 308.755
37.03000 306.998
37.04000 307.020
37.05000 308.768
37.06000 310.505
37.07000 306.909
37.08000 299.951
37.09000 293.297
37.10000 294.864
37.11000 300.118
37.12000 305.406
37.13000 311.154
37.14000 317.045
37.15000 322.369
37.16000 314.611
37.17000 305.357
37.18000 297.560
37.19000 297.060
37.20000 297.563
37.21000 298.147
37.22000 299.005
37.23000 299.885
37.24000 300.510
37.25000 294.570
37.26000 289.844
37.27000 290.657
37.28000 300.445
37.29000 310.357
37.30000 310.926
37.31000 301.298
37.32000 291.700
37.33000 287.857
37.34000 288.173
37.35000 288.425
37.36000 286.440
37.37000 283.346
37.38000 280.713
37.39000 285.297
37.40000 292.362
37.41000 298.836
37.42000 303.055
37.43000 306.340
37.44000 309.154
37.45000 309.322
37.46000 309.078
37.47000 307.673
37.48000 301.899
37.49000 295.706
37.50000 291.175
37.51000 288.803
37.52000 287.058
37.53000 288.507
37.54000 295.692
37.55000 302.992
37.56000 305.198
37.57000 301.182
37.58000 297.157
37.59000 297.380
37.60000 301.011
37.61000 304.570
37.62000 304.732
37.63000 303.030
37.64000 301.027
37.65000 293.328
37.66000 283.464
37.67000 274.310
37.68000 278.047
37.69000 284.456
37.70000 290.281
37.71000 292.425
37.72000 293.924
37.73000 295.770
37.74000 299.072
37.75000 302.535
37.76000 305.142
37.77000 293.837
37.78000 284.312
37.79000 280.378
37.80000 287.559
37.81000 295.045
37.82000 300.211
37.83000 302.218
37.84000 304.206
37.85000 305.486
37.86000 306.128
37.87000 306.721
37.88000 304.027
37.89000 299.333
37.90000 294.921
37.91000 297.076
37.92000 301.990
37.93000 306.603
37.94000 301.282
37.95000 293.798
37.96000 287.516
37.97000 289.821
37.98000 293.813
37.99000 297.411
38.00000 299.170
38.01000 300.697
38.02000 301.877
38.03000 300.460
38.04000 299.182
38.05000 299.908
38.06000 305.041
38.07000 310.330
38.08000 311.009
38.09000 304.700
38.10000 298.320
38.11000 295.109
38.12000 293.237
38.13000 292.036
38.14000 296.340
38.15000 304.360
38.16000 312.271
38.17000 316.944
38.18000 320.111
38.19000 323.116
38.20000 321.980
38.21000 319.703
38.22000 316.977
38.23000 310.593
38.24000 303.406
38.25000 298.799
38.26000 307.639
38.27000 318.413
38.28000 326.955
38.29000 329.058
38.30000 330.299
38.31000 331.154
38.32000 331.068
38.33000 330.940
38.34000 335.246
38.35000 347.008
38.36000 358.888
38.37000 365.211
38.38000 363.651
38.39000 362.597
38.40000 364.222
38.41000 367.859
38.42000 371.531
38.43000 376.519
38.44000 382.184
38.45000 387.610
38.46000 404.248
38.47000 423.488
38.48000 443.220
38.49000 467.542
38.50000 492.987
38.51000 517.060
38.52000 533.109
38.53000 547.854
38.54000 559.819
38.55000 581.389
38.56000 599.764
38.57000 624.553
38.58000 666.587
38.59000 709.573
38.60000 746.185
38.61000 770.926
38.62000 795.398
38.63000 809.113
38.64000 839.841
38.65000 861.189
38.66000 885.744
38.67000 912.990
38.68000 940.164
38.69000 963.494
38.70000 984.636
38.71000 1005.058
38.72000 1009.506
38.73000 1007.767
38.74000 1006.497
38.75000 1010.267
38.76000 1015.408
38.77000 1018.628
38.78000 1009.182
38.79000 997.422
38.80000 987.670
38.81000 961.650
38.82000 938.593
38.83000 913.845
38.84000 884.064
38.85000 853.949
38.86000 826.180
38.87000 803.248
38.88000 780.462
38.89000 767.069
38.90000 706.024
38.91000 662.739
38.92000 630.748
38.93000 609.368
38.94000 587.918
38.95000 560.937
38.96000 530.466
38.97000 500.811
38.98000 479.291
38.99000 462.173
39.00000 445.605
39.01000 435.960
39.02000 428.402
39.03000 420.203
39.04000 407.220
39.05000 393.258
39.06000 381.447
39.07000 373.239
39.08000 366.770
39.09000 360.365
39.10000 354.169
39.11000 347.989
39.12000 341.375
39.13000 333.772
39.14000 326.131
39.15000 321.438
39.16000 314.299
39.17000 309.161
39.18000 306.597
39.19000 306.751
39.20000 306.897
39.21000 306.036
39.22000 304.470
39.23000 302.935
39.24000 295.495
39.25000 285.607
39.26000 276.430
39.27000 277.850
39.28000 282.806
39.29000 287.239
39.30000 287.213
39.31000 286.168
39.32000 285.267
39.33000 284.421
39.34000 283.711
39.35000 283.081
39.36000 282.743
39.37000 282.432
39.38000 283.632
39.39000 288.642
39.40000 293.836
39.41000 297.160
39.42000 289.785
39.43000 284.274
39.44000 280.240
39.45000 277.953
39.46000 275.676
39.47000 275.440
39.48000 276.799
39.49000 278.138
39.50000 277.528
39.51000 275.930
39.52000 274.390
39.53000 273.909
39.54000 273.819
39.55000 274.070
39.56000 277.665
39.57000 282.109
39.58000 286.008
39.59000 275.059
39.60000 263.495
39.61000 256.421
39.62000 267.568
39.63000 280.652
39.64000 288.012
39.65000 279.416
39.66000 269.878
39.67000 263.540
39.68000 266.713
39.69000 269.237
39.70000 267.662
39.71000 260.673
39.72000 253.665
39.73000 253.067
39.74000 258.063
39.75000 263.009
39.76000 268.012
39.77000 272.939
39.78000 277.561
39.79000 275.484
39.80000 270.673
39.81000 266.318
39.82000 267.168
39.83000 269.485
39.84000 271.550
39.85000 265.468
39.86000 258.831
39.87000 254.696
39.88000 261.873
39.89000 270.429
39.90000 276.303
39.91000 273.900
39.92000 270.912
39.93000 268.856
39.94000 274.657
39.95000 279.207
39.96000 280.010
39.97000 275.304
39.98000 270.549
39.99000 268.917
40.00000 270.344
40.01000 271.761
40.02000 272.177
40.03000 271.940
40.04000 271.744
40.05000 272.691
40.06000 274.154
40.07000 275.440
40.08000 274.365
40.09000 272.551
40.10000 270.909
40.11000 266.488
40.12000 262.074
40.13000 258.472
40.14000 258.971
40.15000 260.040
40.16000 261.976
40.17000 266.878
40.18000 272.026
40.19000 275.688
40.20000 272.744
40.21000 270.289
40.22000 268.488
40.23000 267.756
40.24000 267.038
40.25000 265.769
40.26000 263.894
40.27000 262.026
40.28000 260.790
40.29000 260.023
40.30000 259.280
40.31000 259.420
40.32000 260.000
40.33000 260.482
40.34000 259.409
40.35000 257.798
40.36000 256.320
40.37000 255.755
40.38000 255.443
40.39000 254.597
40.40000 250.725
40.41000 246.377
40.42000 243.164
40.43000 244.253
40.44000 245.758
40.45000 246.863
40.46000 259.926
40.47000 270.499
40.48000 275.052
40.49000 268.711
40.50000 262.147
40.51000 257.229
40.52000 254.337
40.53000 251.455
40.54000 252.673
40.55000 257.205
40.56000 261.675
40.57000 263.203
40.58000 263.104
40.59000 262.529
40.60000 252.820
40.61000 239.615
40.62000 227.350
40.63000 235.590
40.64000 247.901
40.65000 258.708
40.66000 259.933
40.67000 259.464
40.68000 259.233
40.69000 260.003
40.70000 260.885
40.71000 261.550
40.72000 258.505
40.73000 255.936
40.74000 255.513
40.75000 259.390
40.76000 263.387
40.77000 263.967
40.78000 259.854
40.79000 255.714
40.80000 250.426
40.81000 244.100
40.82000 237.901
40.83000 240.635
40.84000 248.844
40.85000 256.840
40.86000 259.779
40.87000 260.576
40.88000 261.326
40.89000 260.758
40.90000 259.888
40.91000 258.259
40.92000 251.156
40.93000 242.969
40.94000 237.080
40.95000 241.999
40.96000 248.300
40.97000 253.181
40.98000 253.899
40.99000 254.221
41.00000 253.416
41.01000 250.115
41.02000 246.722
41.03000 246.308
41.04000 250.438
41.05000 254.618
41.06000 256.730
41.07000 256.646
41.08000 256.567
41.09000 253.899
41.10000 249.468
41.11000 245.158
41.12000 244.479
41.13000 245.499
41.14000 246.468
41.15000 246.582
41.16000 246.431
41.17000 246.295
41.18000 246.273
41.19000 246.277
41.20000 246.188
41.21000 245.615
41.22000 244.972
41.23000 244.461
41.24000 245.597
41.25000 246.628
41.26000 247.318
41.27000 247.174
41.28000 246.993
41.29000 244.538
41.30000 238.234
41.31000 231.866
41.32000 228.464
41.33000 242.094
41.34000 251.369
41.35000 253.853
41.36000 251.195
41.37000 248.612
41.38000 249.009
41.39000 250.950
41.40000 252.810
41.41000 251.008
41.42000 248.100
41.43000 246.239
41.44000 254.241
41.45000 264.674
41.46000 273.024
41.47000 269.088
41.48000 263.138
41.49000 258.302
41.50000 251.697
41.51000 246.161
41.52000 242.069
41.53000 241.888
41.54000 241.926
41.55000 241.823
41.56000 241.456
41.57000 241.082
41.58000 240.872
41.59000 238.796
41.60000 237.354
41.61000 238.672
41.62000 242.322
41.63000 245.858
41.64000 243.112
41.65000 236.763
41.66000 230.627
41.67000 231.559
41.68000 235.084
41.69000 238.255
41.70000 237.565
41.71000 235.817
41.72000 234.887
41.73000 239.393
41.74000 244.901
41.75000 249.474
41.76000 245.824
41.77000 242.008
41.78000 239.862
41.79000 242.723
41.80000 245.921
41.81000 247.220
41.82000 244.577
41.83000 241.813
41.84000 240.183
41.85000 239.893
41.86000 239.695
41.87000 240.328
41.88000 241.748
41.89000 243.140
41.90000 242.265
41.91000 239.949
41.92000 237.693
41.93000 236.596
41.94000 236.037
41.95000 235.735
41.96000 238.723
41.97000 242.710
41.98000 245.951
41.99000 243.561
42.00000 240.011
42.01000 237.004
42.02000 241.125
42.03000 245.377
42.04000 247.698
42.05000 243.612
42.06000 239.017
42.07000 236.821
42.08000 240.137
42.09000 243.671
42.10000 245.848
42.11000 234.899
42.12000 226.925
42.13000 227.733
42.14000 237.894
42.15000 247.994
42.16000 249.417
42.17000 244.709
42.18000 240.094
42.19000 236.782
42.20000 234.203
42.21000 231.960
42.22000 234.795
42.23000 239.337
42.24000 243.802
42.25000 247.605
42.26000 251.255
42.27000 254.406
42.28000 255.907
42.29000 256.970
42.30000 256.581
42.31000 250.852
42.32000 244.628
42.33000 240.327
42.34000 240.910
42.35000 241.734
42.36000 242.263
42.37000 246.645
42.38000 249.893
42.39000 248.759
42.40000 242.397
42.41000 236.044
42.42000 235.132
42.43000 238.502
42.44000 241.823
42.45000 240.409
42.46000 236.568
42.47000 232.868
42.48000 231.743
42.49000 231.574
42.50000 231.384
42.51000 230.973
42.52000 230.506
42.53000 230.095
42.54000 231.975
42.55000 233.927
42.56000 235.692
42.57000 236.693
42.58000 237.612
42.59000 237.201
42.60000 233.057
42.61000 228.689
42.62000 225.779
42.63000 224.972
42.64000 224.415
42.65000 225.766
42.66000 229.657
42.67000 233.561
42.68000 238.374
42.69000 243.986
42.70000 249.543
42.71000 248.434
42.72000 243.467
42.73000 238.561
42.74000 235.003
42.75000 232.000
42.76000 229.366
42.77000 230.975
42.78000 233.790
42.79000 236.301
42.80000 236.888
42.81000 237.077
42.82000 237.227
42.83000 237.201
42.84000 237.153
42.85000 235.655
42.86000 229.651
42.87000 223.324
42.88000 218.958
42.89000 221.286
42.90000 223.205
42.91000 225.928
42.92000 229.841
42.93000 233.766
42.94000 233.603
42.95000 229.404
42.96000 225.231
42.97000 223.043
42.98000 222.179
42.99000 221.521
43.00000 226.660
43.01000 234.435
43.02000 241.504
43.03000 239.054
43.04000 233.604
43.05000 228.669
43.06000 231.916
43.07000 236.324
43.08000 239.794
43.09000 238.488
43.10000 236.513
43.11000 234.459
43.12000 232.132
43.13000 229.782
43.14000 228.107
43.15000 233.119
43.16000 237.159
43.17000 238.042
43.18000 233.735
43.19000 229.351
43.20000 227.575
43.21000 228.692
43.22000 229.807
43.23000 228.712
43.24000 226.018
43.25000 223.390
43.26000 223.204
43.27000 224.245
43.28000 225.245
43.29000 225.571
43.30000 225.663
43.31000 225.747
43.32000 229.369
43.33000 233.354
43.34000 236.567
43.35000 235.376
43.36000 233.489
43.37000 232.510
43.38000 235.008
43.39000 237.847
43.40000 239.932
43.41000 227.798
43.42000 217.834
43.43000 211.990
43.44000 213.653
43.45000 215.475
43.46000 217.453
43.47000 219.624
43.48000 221.793
43.49000 224.304
43.50000 227.084
43.51000 229.882
43.52000 233.532
43.53000 237.657
43.54000 241.359
43.55000 236.854
43.56000 229.184
43.57000 222.054
43.58000 218.767
43.59000 216.723
43.60000 215.519
43.61000 219.712
43.62000 224.867
43.63000 228.430
43.64000 225.226
43.65000 221.258
43.66000 218.258
43.67000 223.380
43.68000 227.803
43.69000 231.178
43.70000 232.438
43.71000 233.639
43.72000 233.945
43.73000 233.015
43.74000 232.077
43.75000 229.364
43.76000 225.025
43.77000 220.791
43.78000 224.160
43.79000 232.222
43.80000 239.937
43.81000 239.282
43.82000 235.057
43.83000 231.085
43.84000 227.620
43.85000 224.592
43.86000 222.241
43.87000 224.821
43.88000 228.386
43.89000 230.814
43.90000 227.854
43.91000 224.200
43.92000 221.363
43.93000 218.251
43.94000 215.760
43.95000 214.628
43.96000 216.528
43.97000 218.539
43.98000 221.120
43.99000 224.576
44.00000 228.043
44.01000 229.801
44.02000 235.017
44.03000 238.477
44.04000 237.888
44.05000 234.524
44.06000 231.156
44.07000 227.680
44.08000 224.154
44.09000 220.803
44.10000 222.206
44.11000 224.935
44.12000 226.974
44.13000 223.292
44.14000 218.333
44.15000 215.013
44.16000 220.368
44.17000 226.994
44.18000 232.265
44.19000 222.397
44.20000 213.358
44.21000 209.292
44.22000 217.491
44.23000 226.258
44.24000 230.479
44.25000 226.941
44.26000 223.273
44.27000 221.305
44.28000 220.317
44.29000 219.668
44.30000 224.862
44.31000 234.513
44.32000 243.940
44.33000 244.296
44.34000 239.920
44.35000 235.723
44.36000 233.847
44.37000 232.877
44.38000 231.498
44.39000 226.217
44.40000 219.968
44.41000 214.949
44.42000 217.246
44.43000 220.752
44.44000 223.607
44.45000 220.877
44.46000 218.176
44.47000 218.957
44.48000 229.231
44.49000 240.044
44.50000 245.163
44.51000 239.522
44.52000 233.626
44.53000 230.298
44.54000 239.036
44.55000 245.133
44.56000 245.761
44.57000 241.731
44.58000 237.773
44.59000 237.905
44.60000 240.399
44.61000 242.811
44.62000 243.104
44.63000 242.581
44.64000 242.313
44.65000 244.862
44.66000 248.188
44.67000 250.947
44.68000 249.906
44.69000 248.160
44.70000 246.708
44.71000 253.521
44.72000 259.970
44.73000 263.759
44.74000 259.519
44.75000 254.733
44.76000 254.718
44.77000 264.683
44.78000 274.962
44.79000 281.043
44.80000 279.179
44.81000 277.817
44.82000 280.202
44.83000 286.165
44.84000 292.132
44.85000 298.524
44.86000 305.187
44.87000 311.678
44.88000 311.534
44.89000 308.599
44.90000 306.327
44.91000 312.590
44.92000 321.463
44.93000 329.957
44.94000 335.554
44.95000 340.549
44.96000 344.787
44.97000 349.538
44.98000 353.579
44.99000 356.646
45.00000 356.453
45.01000 355.999
45.02000 356.813
45.03000 360.562
45.04000 364.429
45.05000 366.819
45.06000 378.459
45.07000 386.907
45.08000 394.423
45.09000 400.937
45.10000 407.386
45.11000 404.534
45.12000 395.059
45.13000 385.770
45.14000 391.763
45.15000 404.727
45.16000 416.496
45.17000 410.026
45.18000 397.378
45.19000 385.572
45.20000 381.082
45.21000 378.288
45.22000 375.874
45.23000 368.816
45.24000 362.218
45.25000 357.941
45.26000 362.275
45.27000 367.417
45.28000 369.176
45.29000 362.284
45.30000 354.961
45.31000 350.249
45.32000 347.371
45.33000 345.296
45.34000 342.670
45.35000 339.380
45.36000 336.095
45.37000 334.963
45.38000 335.538
45.39000 336.105
45.40000 330.973
45.41000 322.992
45.42000 315.212
45.43000 311.131
45.44000 308.435
45.45000 305.538
45.46000 300.635
45.47000 295.214
45.48000 290.448
45.49000 293.943
45.50000 298.174
45.51000 300.949
45.52000 297.725
45.53000 293.850
45.54000 289.439
45.55000 283.514
45.56000 277.497
45.57000 273.478
45.58000 269.357
45.59000 266.302
45.60000 265.649
45.61000 268.220
45.62000 270.805
45.63000 270.544
45.64000 267.760
45.65000 265.002
45.66000 258.984
45.67000 251.175
45.68000 243.489
45.69000 238.554
45.70000 234.759
45.71000 231.805
45.72000 238.621
45.73000 248.235
45.74000 256.822
45.75000 256.118
45.76000 253.940
45.77000 252.178
45.78000 252.328
45.79000 252.717
45.80000 253.586
45.81000 255.959
45.82000 258.441
45.83000 260.157
45.84000 250.963
45.85000 243.765
45.86000 238.486
45.87000 236.071
45.88000 233.683
45.89000 230.159
45.90000 225.502
45.91000 220.872
45.92000 222.618
45.93000 228.523
45.94000 234.209
45.95000 233.674
45.96000 230.287
45.97000 227.014
45.98000 225.299
45.99000 224.078
46.00000 222.972
46.01000 225.332
46.02000 228.075
46.03000 229.154
46.04000 221.692
46.05000 213.025
46.06000 207.320
46.07000 211.895
46.08000 217.344
46.09000 221.238
46.10000 225.264
46.11000 228.342
46.12000 227.614
46.13000 220.582
46.14000 213.455
46.15000 208.076
46.16000 204.651
46.17000 201.238
46.18000 205.100
46.19000 214.273
46.20000 223.221
46.21000 223.773
46.22000 220.070
46.23000 216.559
46.24000 216.192
46.25000 216.927
46.26000 217.603
46.27000 215.232
46.28000 212.460
46.29000 210.274
46.30000 211.462
46.31000 213.189
46.32000 213.350
46.33000 207.481
46.34000 201.014
46.35000 196.253
46.36000 204.128
46.37000 210.749
46.38000 213.292
46.39000 208.347
46.40000 203.241
46.41000 199.491
46.42000 197.436
46.43000 195.389
46.44000 194.637
46.45000 194.953
46.46000 195.302
46.47000 197.343
46.48000 200.335
46.49000 203.208
46.50000 203.758
46.51000 203.406
46.52000 203.079
46.53000 204.167
46.54000 205.493
46.55000 206.307
46.56000 203.802
46.57000 200.700
46.58000 199.660
46.59000 207.453
46.60000 216.252
46.61000 222.916
46.62000 215.958
46.63000 209.804
46.64000 206.067
46.65000 207.242
46.66000 208.560
46.67000 208.135
46.68000 205.283
46.69000 202.414
46.70000 198.282
46.71000 192.985
46.72000 187.761
46.73000 187.960
46.74000 191.531
46.75000 194.921
46.76000 193.866
46.77000 190.900
46.78000 188.110
46.79000 193.189
46.80000 199.967
46.81000 205.707
46.82000 203.814
46.83000 200.385
46.84000 197.938
46.85000 200.177
46.86000 203.026
46.87000 205.242
46.88000 201.363
46.89000 197.904
46.90000 195.980
46.91000 197.504
46.92000 199.157
46.93000 201.393
46.94000 204.533
46.95000 207.682
46.96000 209.287
46.97000 202.407
46.98000 197.841
46.99000 199.284
47.00000 204.878
47.01000 210.298
47.02000 210.252
47.03000 207.612
47.04000 205.101
47.05000 204.308
47.06000 204.097
47.07000 203.556
47.08000 200.257
47.09000 196.338
47.10000 193.437
47.11000 195.975
47.12000 199.317
47.13000 201.980
47.14000 202.767
47.15000 203.265
47.16000 200.759
47.17000 190.791
47.18000 180.471
47.19000 176.897
47.20000 184.919
47.21000 193.141
47.22000 197.567
47.23000 195.339
47.24000 193.805
47.25000 191.229
47.26000 187.852
47.27000 184.566
47.28000 185.058
47.29000 187.535
47.30000 189.911
47.31000 190.678
47.32000 190.846
47.33000 190.991
47.34000 190.905
47.35000 190.763
47.36000 190.470
47.37000 189.273
47.38000 187.926
47.39000 186.827
47.40000 184.566
47.41000 182.618
47.42000 182.534
47.43000 187.572
47.44000 192.905
47.45000 196.580
47.46000 197.100
47.47000 197.544
47.48000 197.795
47.49000 186.917
47.50000 179.324
47.51000 177.083
47.52000 179.440
47.53000 181.778
47.54000 182.984
47.55000 183.530
47.56000 184.059
47.57000 187.876
47.58000 192.732
47.59000 196.561
47.60000 188.954
47.61000 178.168
47.62000 169.159
47.63000 172.181
47.64000 177.455
47.65000 181.847
47.66000 183.669
47.67000 184.922
47.68000 187.225
47.69000 192.714
47.70000 198.424
47.71000 199.222
47.72000 189.678
47.73000 179.802
47.74000 173.940
47.75000 177.836
47.76000 180.650
47.77000 181.273
47.78000 179.787
47.79000 178.320
47.80000 178.496
47.81000 179.735
47.82000 180.942
47.83000 180.819
47.84000 180.137
47.85000 179.500
47.86000 179.447
47.87000 179.574
47.88000 179.317
47.89000 176.108
47.90000 172.280
47.91000 169.029
47.92000 174.225
47.93000 179.552
47.94000 182.776
47.95000 178.912
47.96000 174.472
47.97000 172.786
47.98000 177.516
47.99000 182.509
48.00000 185.603
48.01000 185.587
48.02000 185.545
48.03000 183.603
48.04000 179.604
48.05000 175.619
48.06000 174.001
48.07000 174.082
48.08000 174.160
48.09000 178.735
48.10000 185.276
48.11000 191.393
48.12000 190.951
48.13000 188.272
48.14000 186.199
48.15000 189.448
48.16000 193.940
48.17000 197.828
48.18000 196.878
48.19000 195.436
48.20000 193.370
48.21000 188.976
48.22000 184.361
48.23000 182.307
48.24000 186.847
48.25000 191.722
48.26000 194.866
48.27000 189.886
48.28000 186.132
48.29000 185.213
48.30000 187.732
48.31000 190.243
48.32000 187.351
48.33000 180.140
48.34000 173.028
48.35000 175.370
48.36000 182.654
48.37000 189.715
48.38000 192.627
48.39000 193.972
48.40000 194.822
48.41000 190.662
48.42000 185.200
48.43000 180.392
48.44000 180.628
48.45000 181.587
48.46000 182.495
48.47000 183.197
48.48000 183.876
48.49000 183.995
48.50000 182.518
48.51000 180.943
48.52000 179.889
48.53000 179.483
48.54000 179.196
48.55000 178.702
48.56000 177.928
48.57000 177.156
48.58000 179.125
48.59000 183.546
48.60000 187.926
48.61000 188.988
48.62000 188.065
48.63000 187.036
48.64000 183.552
48.65000 179.044
48.66000 174.901
48.67000 175.053
48.68000 176.444
48.69000 177.688
48.70000 178.500
48.71000 179.134
48.72000 180.109
48.73000 182.662
48.74000 185.414
48.75000 187.098
48.76000 185.412
48.77000 183.480
48.78000 182.140
48.79000 184.695
48.80000 186.722
48.81000 187.245
48.82000 185.508
48.83000 183.748
48.84000 183.227
48.85000 183.950
48.86000 184.670
48.87000 184.198
48.88000 182.945
48.89000 181.685
48.90000 180.207
48.91000 178.628
48.92000 177.186
48.93000 177.648
48.94000 178.717
48.95000 179.687
48.96000 178.029
48.97000 176.059
48.98000 174.521
48.99000 175.218
49.00000 176.233
49.01000 177.134
49.02000 177.632
49.03000 178.095
49.04000 178.427
49.05000 178.875
49.06000 179.220
49.07000 181.053
49.08000 185.368
49.09000 189.722
49.10000 189.346
49.11000 183.633
49.12000 177.933
49.13000 173.606
49.14000 170.326
49.15000 167.201
49.16000 169.999
49.17000 175.820
49.18000 181.295
49.19000 181.063
49.20000 178.813
49.21000 176.742
49.22000 176.507
49.23000 176.695
49.24000 177.214
49.25000 179.656
49.26000 182.407
49.27000 184.380
49.28000 183.335
49.29000 181.987
49.30000 180.993
49.31000 184.385
49.32000 187.197
49.33000 188.285
49.34000 186.186
49.35000 184.016
49.36000 182.346
49.37000 181.307
49.38000 180.272
49.39000 180.738
49.40000 182.449
49.41000 184.123
49.42000 183.886
49.43000 182.569
49.44000 181.213
49.45000 179.073
49.46000 176.625
49.47000 174.346
49.48000 172.294
49.49000 170.494
49.50000 169.114
49.51000 170.479
49.52000 172.341
49.53000 174.451
49.54000 177.627
49.55000 180.927
49.56000 183.430
49.57000 181.777
49.58000 180.263
49.59000 180.281
49.60000 183.432
49.61000 186.677
49.62000 187.693
49.63000 185.577
49.64000 183.440
49.65000 182.508
49.66000 182.699
49.67000 182.880
49.68000 182.225
49.69000 181.048
49.70000 179.856
49.71000 178.267
49.72000 176.508
49.73000 174.852
49.74000 174.423
49.75000 174.368
49.76000 174.058
49.77000 171.859
49.78000 169.277
49.79000 167.810
49.80000 171.707
49.81000 176.310
49.82000 179.895
49.83000 180.830
49.84000 181.411
49.85000 181.539
49.86000 180.642
49.87000 179.706
49.88000 180.138
49.89000 182.709
49.90000 185.305
49.91000 186.633
49.92000 182.653
49.93000 179.998
49.94000 179.837
49.95000 181.411
49.96000 182.956
49.97000 183.604
49.98000 183.823
49.99000 184.031
50.00000 183.818
50.01000 183.493
50.02000 183.219
50.03000 183.383
50.04000 183.645
50.05000 183.208
50.06000 179.002
50.07000 174.235
50.08000 170.429
50.09000 169.664
50.10000 169.269
50.11000 169.104
50.12000 169.512
50.13000 169.949
50.14000 170.075
50.15000 169.665
50.16000 169.245
50.17000 169.019
50.18000 169.656
50.19000 170.107
50.20000 174.277
50.21000 181.330
50.22000 188.172
50.23000 186.130
50.24000 179.385
50.25000 172.909
50.26000 174.545
50.27000 178.858
50.28000 182.867
50.29000 183.928
50.30000 184.246
50.31000 184.661
50.32000 185.661
50.33000 186.759
50.34000 187.656
50.35000 190.415
50.36000 192.834
50.37000 194.754
50.38000 195.294
50.39000 195.753
50.40000 195.451
50.41000 193.687
50.42000 191.887
50.43000 190.864
50.44000 189.378
50.45000 188.344
50.46000 189.848
50.47000 193.550
50.48000 197.223
50.49000 199.118
50.50000 199.973
50.51000 200.799
50.52000 200.918
50.53000 200.757
50.54000 201.141
50.55000 207.635
50.56000 215.841
50.57000 223.922
50.58000 231.148
50.59000 238.212
50.60000 244.104
50.61000 244.197
50.62000 243.693
50.63000 244.091
50.64000 247.253
50.65000 250.609
50.66000 252.597
50.67000 251.684
50.68000 250.677
50.69000 250.077
50.70000 252.799
50.71000 254.749
50.72000 259.950
50.73000 268.309
50.74000 276.578
50.75000 276.628
50.76000 271.333
50.77000 266.169
50.78000 265.817
50.79000 267.542
50.80000 268.729
50.81000 262.819
50.82000 254.708
50.83000 247.146
50.84000 243.851
50.85000 241.458
50.86000 239.422
50.87000 236.540
50.88000 234.022
50.89000 232.925
50.90000 236.649
50.91000 240.771
50.92000 242.472
50.93000 238.495
50.94000 234.282
50.95000 231.663
50.96000 224.028
50.97000 218.481
50.98000 214.679
50.99000 212.781
51.00000 210.913
51.01000 213.575
51.02000 219.515
51.03000 225.343
51.04000 224.271
51.05000 219.938
51.06000 215.491
51.07000 209.261
51.08000 202.418
51.09000 196.374
51.10000 197.414
51.11000 200.122
51.12000 202.468
51.13000 195.279
51.14000 187.899
51.15000 182.044
51.16000 181.933
51.17000 182.373
51.18000 182.483
51.19000 181.739
51.20000 180.952
51.21000 180.442
51.22000 181.870
51.23000 182.943
51.24000 183.001
51.25000 181.819
51.26000 180.640
51.27000 181.650
51.28000 184.425
51.29000 187.162
51.30000 185.698
51.31000 182.031
51.32000 178.601
51.33000 179.668
51.34000 182.444
51.35000 184.826
51.36000 183.192
51.37000 180.506
51.38000 178.139
51.39000 177.909
51.40000 178.034
51.41000 178.237
51.42000 178.769
51.43000 179.336
51.44000 179.892
51.45000 180.414
51.46000 180.933
51.47000 181.282
51.48000 172.879
51.49000 166.462
51.50000 165.332
51.51000 171.407
51.52000 177.522
51.53000 182.274
51.54000 185.796
51.55000 189.286
51.56000 184.659
51.57000 175.281
51.58000 166.214
51.59000 164.389
51.60000 165.609
51.61000 166.740
51.62000 166.812
51.63000 166.576
51.64000 166.365
51.65000 168.337
51.66000 170.433
51.67000 172.422
51.68000 173.912
51.69000 175.340
51.70000 175.740
51.71000 172.880
51.72000 169.778
51.73000 167.622
51.74000 159.638
51.75000 153.464
51.76000 151.366
51.77000 155.446
51.78000 159.590
51.79000 161.679
51.80000 161.688
51.81000 161.697
51.82000 162.820
51.83000 164.672
51.84000 166.644
51.85000 172.167
51.86000 179.340
51.87000 185.765
51.88000 181.699
51.89000 174.256
51.90000 167.495
51.91000 166.547
51.92000 166.837
51.93000 167.077
51.94000 167.054
51.95000 166.994
51.96000 166.802
51.97000 166.148
51.98000 165.455
51.99000 164.957
52.00000 169.536
52.01000 173.211
52.02000 172.849
52.03000 165.696
52.04000 158.435
52.05000 157.200
52.06000 162.817
52.07000 168.426
52.08000 169.042
52.09000 165.927
52.10000 162.801
52.11000 159.228
52.12000 155.426
52.13000 151.831
52.14000 151.730
52.15000 152.873
52.16000 153.925
52.17000 155.516
52.18000 157.058
52.19000 158.153
52.20000 156.635
52.21000 154.694
52.22000 153.589
52.23000 155.753
52.24000 158.248
52.25000 160.093
52.26000 159.283
52.27000 158.541
52.28000 158.015
52.29000 157.891
52.30000 157.777
52.31000 157.202
52.32000 156.042
52.33000 154.880
52.34000 154.258
52.35000 154.089
52.36000 153.919
52.37000 153.708
52.38000 153.472
52.39000 153.359
52.40000 155.716
52.41000 159.046
52.42000 162.151
52.43000 159.246
52.44000 155.141
52.45000 151.963
52.46000 154.909
52.47000 158.975
52.48000 162.648
52.49000 164.615
52.50000 166.384
52.51000 167.729
52.52000 165.332
52.53000 163.252
52.54000 161.770
52.55000 161.520
52.56000 161.308
52.57000 160.234
52.58000 157.940
52.59000 155.637
52.60000 153.571
52.61000 151.727
52.62000 149.906
52.63000 149.914
52.64000 151.076
52.65000 152.288
52.66000 154.739
52.67000 157.729
52.68000 160.548
52.69000 159.241
52.70000 156.906
52.71000 155.208
52.72000 158.272
52.73000 162.310
52.74000 165.028
52.75000 161.344
52.76000 156.810
52.77000 153.272
52.78000 154.048
52.79000 154.938
52.80000 154.659
52.81000 151.719
52.82000 148.674
52.83000 149.137
52.84000 155.115
52.85000 161.161
52.86000 164.267
52.87000 161.278
52.88000 159.272
52.89000 157.959
52.90000 157.132
52.91000 156.399
52.92000 158.737
52.93000 162.554
52.94000 166.188
52.95000 162.753
52.96000 157.388
52.97000 152.886
52.98000 155.754
52.99000 160.305
53.00000 164.577
53.01000 167.338
53.02000 169.871
53.03000 171.897
53.04000 168.593
53.05000 165.527
53.06000 162.240
53.07000 158.395
53.08000 154.523
53.09000 152.278
53.10000 152.872
53.11000 153.517
53.12000 153.867
53.13000 153.433
53.14000 153.145
53.15000 155.576
53.16000 160.131
53.17000 164.531
53.18000 162.218
53.19000 156.325
53.20000 150.663
53.21000 151.349
53.22000 154.186
53.23000 157.152
53.24000 161.382
53.25000 165.933
53.26000 168.919
53.27000 162.355
53.28000 154.171
53.29000 147.478
53.30000 154.661
53.31000 161.753
53.32000 167.462
53.33000 169.312
53.34000 170.935
53.35000 172.019
53.36000 172.062
53.37000 172.078
53.38000 172.088
53.39000 162.703
53.40000 156.131
53.41000 154.062
53.42000 155.925
53.43000 157.756
53.44000 157.699
53.45000 156.526
53.46000 155.390
53.47000 159.136
53.48000 164.568
53.49000 169.380
53.50000 167.138
53.51000 162.906
53.52000 159.185
53.53000 158.990
53.54000 159.467
53.55000 159.865
53.56000 164.640
53.57000 169.046
53.58000 170.903
53.59000 164.890
53.60000 158.322
53.61000 153.689
53.62000 153.193
53.63000 152.835
53.64000 152.621
53.65000 155.293
53.66000 157.207
53.67000 158.297
53.68000 158.581
53.69000 158.874
53.70000 160.079
53.71000 161.881
53.72000 163.639
53.73000 164.033
53.74000 163.821
53.75000 163.218
53.76000 157.417
53.77000 149.991
53.78000 143.918
53.79000 148.451
53.80000 155.241
53.81000 161.024
53.82000 160.453
53.83000 159.231
53.84000 157.884
53.85000 156.110
53.86000 154.300
53.87000 153.657
53.88000 155.769
53.89000 157.997
53.90000 159.387
53.91000 156.621
53.92000 154.585
53.93000 153.166
53.94000 152.427
53.95000 151.697
53.96000 152.517
53.97000 154.466
53.98000 156.379
53.99000 157.390
54.00000 157.932
54.01000 158.182
54.02000 153.810
54.03000 147.838
54.04000 142.717
54.05000 145.211
54.06000 149.511
54.07000 153.242
54.08000 151.874
54.09000 150.027
54.10000 150.137
54.11000 157.675
54.12000 165.931
54.13000 170.587
54.14000 165.835
54.15000 160.591
54.16000 157.189
54.17000 159.022
54.18000 160.442
54.19000 161.065
54.20000 160.704
54.21000 160.343
54.22000 160.985
54.23000 162.440
54.24000 163.877
54.25000 161.837
54.26000 157.981
54.27000 154.298
54.28000 153.931
54.29000 154.833
54.30000 155.694
54.31000 156.121
54.32000 156.434
54.33000 156.710
54.34000 157.949
54.35000 159.166
54.36000 160.200
54.37000 160.466
54.38000 160.646
54.39000 160.515
54.40000 159.488
54.41000 158.404
54.42000 157.674
54.43000 160.766
54.44000 163.144
54.45000 162.376
54.46000 157.290
54.47000 152.181
54.48000 152.508
54.49000 157.777
54.50000 163.000
54.51000 163.666
54.52000 161.580
54.53000 159.593
54.54000 159.952
54.55000 161.304
54.56000 162.531
54.57000 162.253
54.58000 161.535
54.59000 160.892
54.60000 157.082
54.61000 153.207
54.62000 150.431
54.63000 152.819
54.64000 155.867
54.65000 157.737
54.66000 155.834
54.67000 153.649
54.68000 152.127
54.69000 151.288
54.70000 150.673
54.71000 150.108
54.72000 149.618
54.73000 149.130
54.74000 150.852
54.75000 154.834
54.76000 158.796
54.77000 157.903
54.78000 153.759
54.79000 149.737
54.80000 149.380
54.81000 150.739
54.82000 152.083
54.83000 153.227
54.84000 154.307
54.85000 155.288
54.86000 155.290
54.87000 155.099
54.88000 154.999
54.89000 155.376
54.90000 155.821
54.91000 156.044
54.92000 155.476
54.93000 154.838
54.94000 154.379
54.95000 156.296
54.96000 157.847
54.97000 157.857
54.98000 155.258
54.99000 152.616
55.00000 151.357
55.01000 151.682
55.02000 152.008
55.03000 155.306
55.04000 160.817
55.05000 166.198
55.06000 166.410
55.07000 163.945
55.08000 161.517
55.09000 159.734
55.10000 158.181
55.11000 156.750
55.12000 157.911
55.13000 159.521
55.14000 161.065
55.15000 162.210
55.16000 163.291
55.17000 163.934
55.18000 162.857
55.19000 161.605
55.20000 160.677
55.21000 162.834
55.22000 164.642
55.23000 165.889
55.24000 166.080
55.25000 166.247
55.26000 168.339
55.27000 172.895
55.28000 177.457
55.29000 181.427
55.30000 184.888
55.31000 188.211
55.32000 183.926
55.33000 175.278
55.34000 166.918
55.35000 164.498
55.36000 164.436
55.37000 164.378
55.38000 170.782
55.39000 178.185
55.40000 184.199
55.41000 180.975
55.42000 176.048
55.43000 172.213
55.44000 173.161
55.45000 174.670
55.46000 175.820
55.47000 181.397
55.48000 186.022
55.49000 190.100
55.50000 193.042
55.51000 195.949
55.52000 199.481
55.53000 203.905
55.54000 208.335
55.55000 212.352
55.56000 215.977
55.57000 219.588
55.58000 222.057
55.59000 223.799
55.60000 225.484
55.61000 225.697
55.62000 225.266
55.63000 224.858
55.64000 229.370
55.65000 234.874
55.66000 240.291
55.67000 245.065
55.68000 249.706
55.69000 255.185
55.70000 264.757
55.71000 274.878
55.72000 282.790
55.73000 294.587
55.74000 304.250
55.75000 315.387
55.76000 329.912
55.77000 344.570
55.78000 358.673
55.79000 371.897
55.80000 385.109
55.81000 391.925
55.82000 397.938
55.83000 402.021
55.84000 410.411
55.85000 421.846
55.86000 433.302
55.87000 445.467
55.88000 457.977
55.89000 469.895
55.90000 481.762
55.91000 492.744
55.92000 503.484
55.93000 512.149
55.94000 520.336
55.95000 527.639
55.96000 530.095
55.97000 531.815
55.98000 533.194
55.99000 541.871
56.00000 549.441
56.01000 551.113
56.02000 537.814
56.03000 523.777
56.04000 514.086
56.05000 512.033
56.06000 510.121
56.07000 509.081
56.08000 492.683
56.09000 481.410
56.10000 469.888
56.11000 458.171
56.12000 446.575
56.13000 440.301
56.14000 436.886
56.15000 433.603
56.16000 424.345
56.17000 413.588
56.18000 402.815
56.19000 391.890
56.20000 380.925
56.21000 369.658
56.22000 356.531
56.23000 343.085
56.24000 332.070
56.25000 329.931
56.26000 328.959
56.27000 323.748
56.28000 306.634
56.29000 288.806
56.30000 275.371
56.31000 270.483
56.32000 265.816
56.33000 263.144
56.34000 259.166
56.35000 256.383
56.36000 253.212
56.37000 249.700
56.38000 246.139
56.39000 239.474
56.40000 230.963
56.41000 222.714
56.42000 217.262
56.43000 213.191
56.44000 209.384
56.45000 208.608
56.46000 208.693
56.47000 208.063
56.48000 202.455
56.49000 195.893
56.50000 190.404
56.51000 195.169
56.52000 200.176
56.53000 202.944
56.54000 198.750
56.55000 194.059
56.56000 190.543
56.57000 189.555
56.58000 188.653
56.59000 188.112
56.60000 182.762
56.61000 178.931
56.62000 178.414
56.63000 181.169
56.64000 183.877
56.65000 181.943
56.66000 176.943
56.67000 172.063
56.68000 169.538
56.69000 168.148
56.70000 166.930
56.71000 168.043
56.72000 169.892
56.73000 171.701
56.74000 173.202
56.75000 174.638
56.76000 175.862
56.77000 170.659
56.78000 165.523
56.79000 160.510
56.80000 155.920
56.81000 151.366
56.82000 148.762
56.83000 150.798
56.84000 153.033
56.85000 154.430
56.86000 157.864
56.87000 160.364
56.88000 160.569
56.89000 158.228
56.90000 155.879
56.91000 152.458
56.92000 148.250
56.93000 144.117
56.94000 143.765
56.95000 145.263
56.96000 146.711
56.97000 147.376
56.98000 147.767
56.99000 148.131
57.00000 148.253
57.01000 148.316
57.02000 148.371
57.03000 151.017
57.04000 153.622
57.05000 155.562
57.06000 154.955
57.07000 154.100
57.08000 153.034
57.09000 151.416
57.10000 149.769
57.11000 148.698
57.12000 144.235
57.13000 140.911
57.14000 139.516
57.15000 140.516
57.16000 141.525
57.17000 143.428
57.18000 146.063
57.19000 148.665
57.20000 149.274
57.21000 148.785
57.22000 148.252
57.23000 146.846
57.24000 145.104
57.25000 143.547
57.26000 143.914
57.27000 144.793
57.28000 145.569
57.29000 150.322
57.30000 155.037
57.31000 158.064
57.32000 153.919
57.33000 148.965
57.34000 145.485
57.35000 146.299
57.36000 147.387
57.37000 148.121
57.38000 142.091
57.39000 137.460
57.40000 134.438
57.41000 133.643
57.42000 132.862
57.43000 133.444
57.44000 135.275
57.45000 137.090
57.46000 141.451
57.47000 147.274
57.48000 152.922
57.49000 154.355
57.50000 153.991
57.51000 153.547
57.52000 152.137
57.53000 150.443
57.54000 148.923
57.55000 143.576
57.56000 138.233
57.57000 134.212
57.58000 136.451
57.59000 139.498
57.60000 142.138
57.61000 143.470
57.62000 144.701
57.63000 145.562
57.64000 147.202
57.65000 148.462
57.66000 149.104
57.67000 148.795
57.68000 148.476
57.69000 146.405
57.70000 142.531
57.71000 138.675
57.72000 140.037
57.73000 144.917
57.74000 149.651
57.75000 149.927
57.76000 148.101
57.77000 146.486
57.78000 147.892
57.79000 150.284
57.80000 152.462
57.81000 147.506
57.82000 141.710
57.83000 137.013
57.84000 138.130
57.85000 140.100
57.86000 141.975
57.87000 143.514
57.88000 145.024
57.89000 146.112
57.90000 149.536
57.91000 152.242
57.92000 152.917
57.93000 150.126
57.94000 147.276
57.95000 146.805
57.96000 149.084
57.97000 151.361
57.98000 150.012
57.99000 145.924
58.00000 141.890
58.01000 140.123
58.02000 139.538
58.03000 138.952
58.04000 138.347
58.05000 137.736
58.06000 137.173
58.07000 139.989
58.08000 143.263
58.09000 145.807
58.10000 143.999
58.11000 141.472
58.12000 139.457
58.13000 139.475
58.14000 139.702
58.15000 139.870
58.16000 138.805
58.17000 137.923
58.18000 137.076
58.19000 136.295
58.20000 135.517
58.21000 136.275
58.22000 139.017
58.23000 141.765
58.24000 142.116
58.25000 140.427
58.26000 138.785
58.27000 139.786
58.28000 142.314
58.29000 144.819
58.30000 146.853
58.31000 148.699
58.32000 150.422
58.33000 147.221
58.34000 143.089
58.35000 138.922
58.36000 134.521
58.37000 130.077
58.38000 126.313
58.39000 125.553
58.40000 125.149
58.41000 124.841
58.42000 130.784
58.43000 135.803
58.44000 137.046
58.45000 130.394
58.46000 123.493
58.47000 122.218
58.48000 129.032
58.49000 135.910
58.50000 141.290
58.51000 145.240
58.52000 149.150
58.53000 149.603
58.54000 147.841
58.55000 146.085
58.56000 144.475
58.57000 142.928
58.58000 141.468
58.59000 142.663
58.60000 144.504
58.61000 145.613
58.62000 141.156
58.63000 135.541
58.64000 130.806
58.65000 130.407
58.66000 130.594
58.67000 130.740
58.68000 132.882
58.69000 134.721
58.70000 135.217
58.71000 132.604
58.72000 129.866
58.73000 127.542
58.74000 125.879
58.75000 124.225
58.76000 123.369
58.77000 133.675
58.78000 140.594
58.79000 142.348
58.80000 140.424
58.81000 138.581
58.82000 139.456
58.83000 141.660
58.84000 143.762
58.85000 139.801
58.86000 134.223
58.87000 129.276
58.88000 129.804
58.89000 131.603
58.90000 133.072
58.91000 132.718
58.92000 132.085
58.93000 131.577
58.94000 132.159
58.95000 132.713
58.96000 134.060
58.97000 137.435
58.98000 140.911
58.99000 144.255
59.00000 147.365
59.01000 150.471
59.02000 152.168
59.03000 145.167
59.04000 140.353
59.05000 138.055
59.06000 137.753
59.07000 137.393
59.08000 134.343
59.09000 129.837
59.10000 125.503
59.11000 127.155
59.12000 130.806
59.13000 133.962
59.14000 132.155
59.15000 129.068
59.16000 126.971
59.17000 131.024
59.18000 136.138
59.19000 140.334
59.20000 140.696
59.21000 140.652
59.22000 140.610
59.23000 140.575
59.24000 140.539
59.25000 141.212
59.26000 143.273
59.27000 145.370
59.28000 146.574
59.29000 138.888
59.30000 133.485
59.31000 132.618
59.32000 135.773
59.33000 138.902
59.34000 140.288
59.35000 140.630
59.36000 140.962
59.37000 142.726
59.38000 144.961
59.39000 146.669
59.40000 142.242
59.41000 136.058
59.42000 130.645
59.43000 130.639
59.44000 131.679
59.45000 132.550
59.46000 126.691
59.47000 121.123
59.48000 117.961
59.49000 122.335
59.50000 127.253
59.51000 130.940
59.52000 131.956
59.53000 132.880
59.54000 133.435
59.55000 134.091
59.56000 134.558
59.57000 135.111
59.58000 135.750
59.59000 136.373
59.60000 135.542
59.61000 133.744
59.62000 131.987
59.63000 132.348
59.64000 133.622
59.65000 134.793
59.66000 134.559
59.67000 133.878
59.68000 133.515
59.69000 135.677
59.70000 138.385
59.71000 140.698
59.72000 137.955
59.73000 135.042
59.74000 132.878
59.75000 133.315
59.76000 133.973
59.77000 134.287
59.78000 133.776
59.79000 133.229
59.80000 132.886
59.81000 133.554
59.82000 134.048
59.83000 134.015
59.84000 133.390
59.85000 132.769
59.86000 132.728
59.87000 133.116
59.88000 133.498
59.89000 133.709
59.90000 133.829
59.91000 133.984
59.92000 134.719
59.93000 135.656
59.94000 136.638
59.95000 138.026
59.96000 139.512
59.97000 140.805
59.98000 139.194
59.99000 137.423
60.00000 136.017
60.01000 136.013
60.02000 136.148
60.03000 136.977
60.04000 139.643
60.05000 142.407
60.06000 144.211
60.07000 144.338
60.08000 144.405
60.09000 142.658
60.10000 138.642
60.11000 134.626
60.12000 133.522
60.13000 134.823
60.14000 136.109
60.15000 138.659
60.16000 141.835
60.17000 144.871
60.18000 145.126
60.19000 144.301
60.20000 143.415
60.21000 141.892
60.22000 140.198
60.23000 138.699
60.24000 139.287
60.25000 140.119
60.26000 140.024
60.27000 135.958
60.28000 131.440
60.29000 127.694
60.30000 126.214
60.31000 124.880
60.32000 123.978
60.33000 131.572
60.34000 137.414
60.35000 139.291
60.36000 135.639
60.37000 131.952
60.38000 131.403
60.39000 133.754
60.40000 136.086
60.41000 135.975
60.42000 134.373
60.43000 132.871
60.44000 133.802
60.45000 135.780
60.46000 137.652
60.47000 138.232
60.48000 138.428
60.49000 138.604
60.50000 137.512
60.51000 136.334
60.52000 135.812
60.53000 138.428
60.54000 141.453
60.55000 142.939
60.56000 139.428
60.57000 135.533
60.58000 132.807
60.59000 132.414
60.60000 132.184
60.61000 131.518
60.62000 130.176
60.63000 128.827
60.64000 127.648
60.65000 126.646
60.66000 125.649
60.67000 128.460
60.68000 133.839
60.69000 139.030
60.70000 138.336
60.71000 134.846
60.72000 131.613
60.73000 132.103
60.74000 133.818
60.75000 135.380
60.76000 134.154
60.77000 132.512
60.78000 130.986
60.79000 130.079
60.80000 129.264
60.81000 128.671
60.82000 128.878
60.83000 129.156
60.84000 129.358
60.85000 133.661
60.86000 137.109
60.87000 138.090
60.88000 134.829
60.89000 131.494
60.90000 131.441
60.91000 135.210
60.92000 138.975
60.93000 137.795
60.94000 132.840
60.95000 128.061
60.96000 130.564
60.97000 136.894
60.98000 142.922
60.99000 143.679
61.00000 142.518
61.01000 141.446
61.02000 141.629
61.03000 142.076
61.04000 141.945
61.05000 138.348
61.06000 134.174
61.07000 130.711
61.08000 130.092
61.09000 129.769
61.10000 129.529
61.11000 131.192
61.12000 132.571
61.13000 135.426
61.14000 141.094
61.15000 146.830
61.16000 147.952
61.17000 143.072
61.18000 138.171
61.19000 137.791
61.20000 141.287
61.21000 144.740
61.22000 145.663
61.23000 145.113
61.24000 144.433
61.25000 141.012
61.26000 136.487
61.27000 132.259
61.28000 131.133
61.29000 130.894
61.30000 130.856
61.31000 132.173
61.32000 133.744
61.33000 135.996
61.34000 141.277
61.35000 146.921
61.36000 151.238
61.37000 149.224
61.38000 147.292
61.39000 144.351
61.40000 139.287
61.41000 134.154
61.42000 134.112
61.43000 141.443
61.44000 148.835
61.45000 151.124
61.46000 148.499
61.47000 145.928
61.48000 148.088
61.49000 153.303
61.50000 158.510
61.51000 163.503
61.52000 168.402
61.53000 173.029
61.54000 185.190
61.55000 198.482
61.56000 211.598
61.57000 223.358
61.58000 234.834
61.59000 245.790
61.60000 254.163
61.61000 262.184
61.62000 268.477
61.63000 280.634
61.64000 290.738
61.65000 298.216
61.66000 299.575
61.67000 300.684
61.68000 299.249
61.69000 293.721
61.70000 288.138
61.71000 285.236
61.72000 286.023
61.73000 286.548
61.74000 285.941
61.75000 284.523
61.76000 282.909
61.77000 274.530
61.78000 262.820
61.79000 251.649
61.80000 231.747
61.81000 210.510
61.82000 190.751
61.83000 183.970
61.84000 180.222
61.85000 175.650
61.86000 166.492
61.87000 156.625
61.88000 148.696
61.89000 149.858
61.90000 151.499
61.91000 153.660
61.92000 157.162
61.93000 160.732
61.94000 160.646
61.95000 154.040
61.96000 147.306
61.97000 143.612
61.98000 144.652
61.99000 145.373
62.00000 145.211
62.01000 144.343
62.02000 143.487
62.03000 143.213
62.04000 143.255
62.05000 143.295
62.06000 143.533
62.07000 143.825
62.08000 144.118
62.09000 144.410
62.10000 144.703
62.11000 144.931
62.12000 144.759
62.13000 144.516
62.14000 144.317
62.15000 142.366
62.16000 140.605
62.17000 138.905
62.18000 137.379
62.19000 135.863
62.20000 133.769
62.21000 130.533
62.22000 127.265
62.23000 125.383
62.24000 136.869
62.25000 144.959
62.26000 149.191
62.27000 149.972
62.28000 150.698
62.29000 147.768
62.30000 142.629
62.31000 137.644
62.32000 139.234
62.33000 143.344
62.34000 146.988
62.35000 145.149
62.36000 141.729
62.37000 138.749
62.38000 138.885
62.39000 139.629
62.40000 140.253
62.41000 142.638
62.42000 144.807
62.43000 145.980
62.44000 144.011
62.45000 141.811
62.46000 140.730
62.47000 142.090
62.48000 143.535
62.49000 144.407
62.50000 139.445
62.51000 135.871
62.52000 137.489
62.53000 144.323
62.54000 151.084
62.55000 150.358
62.56000 144.611
62.57000 138.997
62.58000 140.659
62.59000 145.466
62.60000 150.006
62.61000 150.856
62.62000 150.526
62.63000 150.295
62.64000 150.849
62.65000 151.574
62.66000 152.194
62.67000 146.714
62.68000 141.360
62.69000 137.626
62.70000 139.554
62.71000 141.969
62.72000 145.063
62.73000 149.796
62.74000 154.601
62.75000 157.624
62.76000 156.646
62.77000 155.895
62.78000 155.527
62.79000 155.594
62.80000 155.656
62.81000 154.946
62.82000 153.659
62.83000 152.395
62.84000 149.957
62.85000 147.022
62.86000 144.325
62.87000 145.573
62.88000 148.215
62.89000 150.242
62.90000 146.597
62.91000 141.574
62.92000 137.200
62.93000 141.391
62.94000 146.150
62.95000 149.441
62.96000 147.038
62.97000 144.065
62.98000 141.927
62.99000 142.018
63.00000 142.230
63.01000 142.368
63.02000 140.439
63.03000 138.988
63.04000 140.160
63.05000 144.639
63.06000 149.130
63.07000 154.234
63.08000 159.847
63.09000 165.392
63.10000 163.040
63.11000 156.396
63.12000 149.991
63.13000 148.390
63.14000 148.669
63.15000 148.787
63.16000 147.178
63.17000 145.103
63.18000 143.266
63.19000 142.974
63.20000 142.964
63.21000 142.464
63.22000 139.843
63.23000 136.979
63.24000 135.289
63.25000 137.066
63.26000 139.071
63.27000 140.431
63.28000 143.024
63.29000 144.985
63.30000 146.022
63.31000 145.761
63.32000 145.491
63.33000 145.657
63.34000 146.230
63.35000 146.797
63.36000 142.644
63.37000 135.655
63.38000 129.057
63.39000 132.178
63.40000 139.503
63.41000 146.320
63.42000 146.822
63.43000 145.433
63.44000 144.184
63.45000 144.218
63.46000 144.475
63.47000 144.770
63.48000 145.251
63.49000 145.755
63.50000 147.091
63.51000 151.145
63.52000 155.409
63.53000 158.401
63.54000 151.775
63.55000 146.481
63.56000 142.312
63.57000 139.898
63.58000 137.505
63.59000 138.642
63.60000 143.476
63.61000 148.288
63.62000 150.739
63.63000 151.538
63.64000 152.437
63.65000 156.531
63.66000 162.154
63.67000 167.333
63.68000 165.978
63.69000 162.457
63.70000 159.246
63.71000 155.600
63.72000 152.279
63.73000 150.058
63.74000 153.754
63.75000 158.332
63.76000 161.231
63.77000 158.037
63.78000 154.290
63.79000 151.577
63.80000 148.066
63.81000 145.342
63.82000 144.701
63.83000 147.672
63.84000 150.706
63.85000 154.915
63.86000 160.503
63.87000 166.081
63.88000 164.823
63.89000 158.302
63.90000 151.945
63.91000 152.513
63.92000 156.746
63.93000 160.768
63.94000 161.049
63.95000 159.959
63.96000 158.952
63.97000 158.149
63.98000 157.474
63.99000 156.873
64.00000 156.718
64.01000 156.637
64.02000 156.593
64.03000 156.694
64.04000 156.811
64.05000 156.898
64.06000 153.898
64.07000 151.422
64.08000 152.154
64.09000 159.038
64.10000 166.075
64.11000 167.438
64.12000 161.365
64.13000 155.263
64.14000 155.709
64.15000 161.814
64.16000 167.818
64.17000 167.780
64.18000 164.199
64.19000 160.744
64.20000 160.036
64.21000 160.441
64.22000 160.820
64.23000 159.968
64.24000 158.881
64.25000 157.967
64.26000 158.232
64.27000 158.719
64.28000 159.048
64.29000 158.668
64.30000 158.202
64.31000 157.845
64.32000 158.572
64.33000 159.206
64.34000 161.003
64.35000 165.269
64.36000 169.616
64.37000 174.467
64.38000 180.054
64.39000 185.647
64.40000 183.179
64.41000 172.881
64.42000 162.671
64.43000 160.509
64.44000 163.583
64.45000 166.593
64.46000 167.884
64.47000 168.404
64.48000 168.895
64.49000 167.364
64.50000 165.380
64.51000 163.574
64.52000 163.142
64.53000 163.001
64.54000 163.413
64.55000 166.597
64.56000 170.163
64.57000 172.966
64.58000 170.513
64.59000 168.204
64.60000 167.131
64.61000 168.960
64.62000 170.909
64.63000 171.480
64.64000 169.816
64.65000 168.121
64.66000 167.236
64.67000 171.931
64.68000 175.113
64.69000 179.006
64.70000 183.414
64.71000 187.636
64.72000 185.365
64.73000 179.873
64.74000 174.630
64.75000 174.844
64.76000 176.785
64.77000 178.720
64.78000 180.604
64.79000 182.474
64.80000 183.831
64.81000 182.299
64.82000 180.317
64.83000 178.722
64.84000 187.338
64.85000 195.124
64.86000 199.500
64.87000 195.032
64.88000 190.108
64.89000 187.514
64.90000 189.103
64.91000 190.777
64.92000 191.699
64.93000 191.582
64.94000 191.499
64.95000 191.512
64.96000 191.602
64.97000 191.684
64.98000 191.446
64.99000 191.030
65.00000 190.630
65.01000 191.382
65.02000 192.500
65.03000 193.874
65.04000 197.872
65.05000 202.556
65.06000 206.278
65.07000 203.922
65.08000 200.500
65.09000 197.683
65.10000 203.215
65.11000 208.523
65.12000 213.491
65.13000 217.484
65.14000 221.416
65.15000 221.835
65.16000 215.268
65.17000 208.510
65.18000 204.602
65.19000 210.587
65.20000 214.821
65.21000 218.965
65.22000 223.026
65.23000 227.083
65.24000 230.880
65.25000 234.518
65.26000 238.049
65.27000 240.965
65.28000 243.487
65.29000 246.517
65.30000 255.596
65.31000 266.433
65.32000 276.078
65.33000 277.197
65.34000 276.640
65.35000 276.173
65.36000 293.380
65.37000 309.581
65.38000 321.718
65.39000 320.949
65.40000 319.223
65.41000 318.800
65.42000 321.243
65.43000 323.788
65.44000 325.328
65.45000 341.863
65.46000 353.756
65.47000 362.547
65.48000 368.195
65.49000 373.874
65.50000 382.945
65.51000 394.308
65.52000 405.414
65.53000 407.451
65.54000 405.363
65.55000 403.822
65.56000 409.938
65.57000 418.520
65.58000 426.999
65.59000 434.637
65.60000 442.091
65.61000 448.475
65.62000 456.503
65.63000 463.477
65.64000 472.133
65.65000 486.710
65.66000 501.802
65.67000 519.978
65.68000 545.657
65.69000 571.673
65.70000 588.084
65.71000 642.567
65.72000 682.459
65.73000 733.352
65.74000 796.754
65.75000 860.115
65.76000 912.535
65.77000 956.734
65.78000 1000.195
65.79000 1050.893
65.80000 1103.528
65.81000 1154.327
65.82000 1174.415
65.83000 1183.558
65.84000 1192.225
65.85000 1196.457
65.86000 1199.604
65.87000 1202.347
65.88000 1203.823
65.89000 1204.908
65.90000 1203.890
65.91000 1194.652
65.92000 1184.583
65.93000 1160.861
65.94000 1100.422
65.95000 1037.957
65.96000 996.992
65.97000 909.735
65.98000 844.795
65.99000 772.833
66.00000 691.947
66.01000 611.083
66.02000 558.825
66.03000 530.560
66.04000 502.626
66.05000 474.423
66.06000 446.760
66.07000 419.489
66.08000 400.165
66.09000 383.974
66.10000 368.343
66.11000 358.752
66.12000 350.802
66.13000 343.756
66.14000 331.379
66.15000 319.822
66.16000 311.123
66.17000 314.863
66.18000 320.047
66.19000 324.894
66.20000 328.734
66.21000 332.506
66.22000 335.072
66.23000 337.811
66.24000 339.860
66.25000 342.271
66.26000 345.196
66.27000 348.125
66.28000 358.229
66.29000 375.074
66.30000 391.790
66.31000 404.206
66.32000 413.742
66.33000 423.151
66.34000 429.334
66.35000 434.111
66.36000 439.545
66.37000 453.256
66.38000 469.462
66.39000 484.048
66.40000 480.975
66.41000 475.115
66.42000 470.444
66.43000 471.550
66.44000 473.422
66.45000 475.322
66.46000 477.311
66.47000 479.307
66.48000 480.711
66.49000 457.320
66.50000 438.868
66.51000 423.391
66.52000 412.594
66.53000 401.855
66.54000 392.578
66.55000 384.846
66.56000 377.147
66.57000 367.244
66.58000 355.913
66.59000 344.801
66.60000 340.811
66.61000 340.251
66.62000 339.445
66.63000 334.972
66.64000 329.273
66.65000 324.072
66.66000 317.892
66.67000 312.211
66.68000 308.061
66.69000 312.231
66.70000 317.651
66.71000 322.192
66.72000 323.517
66.73000 324.547
66.74000 325.294
66.75000 327.722
66.76000 329.650
66.77000 331.199
66.78000 332.086
66.79000 332.961
66.80000 333.993
66.81000 335.213
66.82000 336.430
66.83000 337.434
66.84000 338.266
66.85000 339.010
66.86000 335.923
66.87000 330.794
66.88000 326.107
66.89000 329.346
66.90000 335.514
66.91000 341.217
66.92000 347.199
66.93000 352.636
66.94000 357.048
66.95000 355.204
66.96000 352.298
66.97000 349.907
66.98000 349.601
66.99000 349.518
67.00000 349.455
67.01000 354.997
67.02000 359.576
67.03000 362.314
67.04000 361.496
67.05000 360.588
67.06000 359.978
67.07000 359.761
67.08000 359.546
67.09000 362.098
67.10000 367.056
67.11000 372.036
67.12000 378.318
67.13000 385.370
67.14000 391.939
67.15000 387.945
67.16000 379.636
67.17000 371.860
67.18000 375.273
67.19000 381.244
67.20000 386.950
67.21000 390.834
67.22000 394.371
67.23000 396.846
67.24000 394.521
67.25000 391.611
67.26000 389.377
67.27000 397.487
67.28000 404.474
67.29000 407.900
67.30000 403.711
67.31000 399.269
67.32000 396.943
67.33000 397.728
67.34000 398.541
67.35000 402.223
67.36000 408.714
67.37000 415.132
67.38000 414.750
67.39000 409.911
67.40000 405.354
67.41000 408.593
67.42000 415.352
67.43000 421.746
67.44000 420.723
67.45000 417.651
67.46000 415.224
67.47000 417.847
67.48000 421.544
67.49000 424.720
67.50000 425.264
67.51000 425.443
67.52000 425.583
67.53000 427.646
67.54000 429.428
67.55000 433.003
67.56000 440.817
67.57000 448.810
67.58000 453.384
67.59000 452.375
67.60000 451.286
67.61000 450.715
67.62000 469.013
67.63000 481.330
67.64000 479.822
67.65000 468.237
67.66000 456.977
67.67000 457.344
67.68000 463.518
67.69000 469.417
67.70000 475.494
67.71000 481.201
67.72000 486.440
67.73000 487.492
67.74000 487.551
67.75000 488.417
67.76000 493.846
67.77000 499.993
67.78000 504.949
67.79000 501.149
67.80000 497.374
67.81000 493.397
67.82000 488.893
67.83000 484.361
67.84000 484.095
67.85000 491.548
67.86000 499.160
67.87000 503.366
67.88000 518.941
67.89000 529.677
67.90000 529.840
67.91000 521.414
67.92000 513.142
67.93000 512.380
67.94000 515.772
67.95000 519.040
67.96000 518.914
67.97000 517.575
67.98000 516.930
67.99000 523.448
68.00000 531.855
68.01000 540.207
68.02000 548.205
68.03000 556.140
68.04000 562.680
68.05000 567.834
68.06000 571.948
68.07000 574.716
68.08000 573.595
68.09000 572.228
68.10000 573.374
68.11000 579.553
68.12000 585.872
68.13000 589.538
68.14000 588.540
68.15000 587.824
68.16000 594.470
68.17000 607.809
68.18000 621.025
68.19000 625.535
68.20000 624.710
68.21000 623.908
68.22000 621.544
68.23000 618.670
68.24000 616.446
68.25000 622.034
68.26000 629.909
68.27000 637.579
68.28000 643.769
68.29000 649.665
68.30000 654.626
68.31000 672.003
68.32000 687.815
68.33000 700.782
68.34000 704.641
68.35000 707.817
68.36000 710.868
68.37000 713.642
68.38000 716.407
68.39000 718.084
68.40000 717.536
68.41000 717.127
68.42000 727.082
68.43000 747.624
68.44000 768.054
68.45000 775.839
68.46000 775.020
68.47000 774.219
68.48000 784.236
68.49000 798.699
68.50000 813.333
68.51000 830.398
68.52000 848.253
68.53000 866.380
68.54000 886.752
68.55000 907.621
68.56000 925.517
68.57000 960.416
68.58000 991.983
68.59000 1024.979
68.60000 1063.048
68.61000 1101.564
68.62000 1142.458
68.63000 1189.180
68.64000 1236.167
68.65000 1265.893
68.66000 1362.675
68.67000 1433.632
68.68000 1489.952
68.69000 1529.492
68.70000 1569.071
68.71000 1621.078
68.72000 1682.498
68.73000 1742.915
68.74000 1803.624
68.75000 1862.526
68.76000 1922.280
68.77000 1996.466
68.78000 2075.832
68.79000 2155.146
68.80000 2233.974
68.81000 2312.683
68.82000 2381.390
68.83000 2494.048
68.84000 2596.607
68.85000 2718.192
68.86000 2914.714
68.87000 3118.886
68.88000 3393.708
68.89000 3859.912
68.90000 4336.827
68.91000 4650.423
68.92000 6327.534
68.93000 7585.475
68.94000 9533.536
68.95000 12365.628
68.96000 15202.866
68.97000 19114.713
68.98000 23935.107
68.99000 28700.510
69.00000 33995.781
69.01000 39461.105
69.02000 44881.371
69.03000 49371.223
69.04000 53491.742
69.05000 57456.602
69.06000 59726.129
69.07000 61531.352
69.08000 63133.340
69.09000 63896.082
69.10000 64423.008
69.11000 64955.168
69.12000 65510.262
69.13000 66068.047
69.14000 66690.781
69.15000 67508.211
69.16000 68338.727
69.17000 68904.820
69.18000 68731.031
69.19000 68584.086
69.20000 67590.297
69.21000 65388.285
69.22000 63176.965
69.23000 60152.566
69.24000 56357.820
69.25000 52591.059
69.26000 49123.859
69.27000 45901.215
69.28000 42712.105
69.29000 40386.406
69.30000 38439.656
69.31000 36550.098
69.32000 35388.723
69.33000 34448.500
69.34000 33601.336
69.35000 32761.557
69.36000 32026.117
69.37000 31160.756
69.38000 29659.904
69.39000 28073.988
69.40000 26263.498
69.41000 23707.543
69.42000 21092.291
69.43000 19249.084
69.44000 15768.257
69.45000 13079.267
69.46000 10752.429
69.47000 8999.631
69.48000 7254.062
69.49000 5898.892
69.50000 4959.563
69.51000 4024.299
69.52000 3394.610
69.53000 2985.076
69.54000 2580.056
69.55000 2324.461
69.56000 2141.394
69.57000 1961.279
69.58000 1825.693
69.59000 1705.082
69.60000 1594.873
69.61000 1521.115
69.62000 1463.056
69.63000 1407.496
69.64000 1365.627
69.65000 1325.834
69.66000 1284.646
69.67000 1238.323
69.68000 1191.522
69.69000 1157.493
69.70000 1111.169
69.71000 1075.063
69.72000 1047.131
69.73000 1033.567
69.74000 1020.271
69.75000 1004.203
69.76000 984.827
69.77000 965.482
69.78000 945.610
69.79000 925.424
69.80000 905.310
69.81000 888.452
69.82000 873.341
69.83000 858.031
69.84000 839.109
69.85000 818.843
69.86000 800.084
69.87000 791.394
69.88000 785.899
69.89000 780.798
69.90000 778.124
69.91000 775.865
69.92000 771.916
69.93000 761.055
69.94000 749.451
69.95000 740.765
69.96000 736.401
69.97000 733.198
69.98000 728.454
69.99000 720.711
70.00000 712.891
