20.00000 1368.197
20.01000 1375.547
20.02000 1383.947
20.03000 1389.359
20.04000 1382.830
20.05000 1375.056
20.06000 1369.273
20.07000 1351.720
20.08000 1337.539
20.09000 1327.382
20.10000 1324.887
20.11000 1322.577
20.12000 1331.159
20.13000 1353.908
20.14000 1376.699
20.15000 1380.125
20.16000 1366.949
20.17000 1354.104
20.18000 1360.387
20.19000 1377.800
20.20000 1393.895
20.21000 1381.968
20.22000 1358.762
20.23000 1337.081
20.24000 1332.796
20.25000 1333.294
20.26000 1334.838
20.27000 1343.465
20.28000 1353.418
20.29000 1359.294
20.30000 1347.026
20.31000 1332.590
20.32000 1321.550
20.33000 1324.923
20.34000 1328.367
20.35000 1331.487
20.36000 1333.928
20.37000 1336.346
20.38000 1335.815
20.39000 1331.011
20.40000 1326.173
20.41000 1331.274
20.42000 1345.945
20.43000 1360.489
20.44000 1363.916
20.45000 1360.169
20.46000 1356.366
20.47000 1351.092
20.48000 1345.163
20.49000 1339.563
20.50000 1340.912
20.51000 1344.113
20.52000 1345.948
20.53000 1337.273
20.54000 1326.397
20.55000 1316.091
20.56000 1308.611
20.57000 1301.517
20.58000 1295.951
20.59000 1292.425
20.60000 1289.738
20.61000 1294.218
20.62000 1315.388
20.63000 1337.240
20.64000 1344.142
20.65000 1327.001
20.66000 1309.539
20.67000 1300.461
20.68000 1306.248
20.69000 1310.132
20.70000 1309.682
20.71000 1306.123
20.72000 1302.623
20.73000 1301.133
20.74000 1300.633
20.75000 1300.155
20.76000 1296.293
20.77000 1291.637
20.78000 1288.264
20.79000 1296.158
20.80000 1306.684
20.81000 1316.635
20.82000 1323.392
20.83000 1329.657
20.84000 1334.691
20.85000 1321.790
20.86000 1309.954
20.87000 1298.334
20.88000 1287.271
20.89000 1276.237
20.90000 1272.891
20.91000 1283.250
20.92000 1293.877
20.93000 1299.706
20.94000 1277.592
20.95000 1262.375
20.96000 1260.059
20.97000 1268.058
20.98000 1276.113
20.99000 1286.710
21.00000 1298.693
21.01000 1310.227
21.02000 1301.701
21.03000 1286.599
21.04000 1272.159
21.05000 1264.412
21.06000 1258.405
21.07000 1255.180
21.08000 1269.380
21.09000 1286.609
21.10000 1300.764
21.11000 1289.914
21.12000 1278.752
21.13000 1274.500
21.14000 1289.929
21.15000 1306.567
21.16000 1317.696
21.17000 1317.950
21.18000 1317.912
21.19000 1317.891
21.20000 1287.574
21.21000 1266.243
21.22000 1255.749
21.23000 1254.943
21.24000 1254.170
21.25000 1255.489
21.26000 1258.070
21.27000 1260.575
21.28000 1254.426
21.29000 1245.172
21.30000 1237.276
21.31000 1245.335
21.32000 1257.995
21.33000 1270.313
21.34000 1280.209
21.35000 1289.632
21.36000 1297.537
21.37000 1285.106
21.38000 1272.638
21.39000 1263.299
21.40000 1263.823
21.41000 1265.070
21.42000 1262.523
21.43000 1251.693
21.44000 1240.573
21.45000 1233.868
21.46000 1242.290
21.47000 1248.392
21.48000 1248.600
21.49000 1242.889
21.50000 1237.198
21.51000 1233.523
21.52000 1231.199
21.53000 1228.928
21.54000 1230.319
21.55000 1233.268
21.56000 1235.828
21.57000 1233.007
21.58000 1228.467
21.59000 1224.343
21.60000 1223.579
21.61000 1223.546
21.62000 1223.518
21.63000 1225.656
21.64000 1227.719
21.65000 1228.984
21.66000 1227.459
21.67000 1225.693
21.68000 1223.860
21.69000 1221.864
21.70000 1219.860
21.71000 1218.600
21.72000 1211.725
21.73000 1206.689
21.74000 1207.143
21.75000 1213.786
21.76000 1220.418
21.77000 1223.984
21.78000 1225.263
21.79000 1226.521
21.80000 1225.741
21.81000 1223.981
21.82000 1222.266
21.83000 1221.289
21.84000 1220.573
21.85000 1219.667
21.86000 1217.003
21.87000 1213.912
21.88000 1211.222
21.89000 1210.187
21.90000 1209.531
21.91000 1209.365
21.92000 1211.098
21.93000 1213.021
21.94000 1213.170
21.95000 1208.578
21.96000 1203.729
21.97000 1200.558
21.98000 1200.656
21.99000 1200.782
22.00000 1197.418
22.01000 1189.656
22.02000 1181.894
22.03000 1180.789
22.04000 1185.220
22.05000 1189.597
22.06000 1191.966
22.07000 1193.170
22.08000 1194.587
22.09000 1200.276
22.10000 1207.636
22.11000 1213.578
22.12000 1204.414
22.13000 1191.175
22.14000 1179.453
22.15000 1176.647
22.16000 1175.616
22.17000 1176.404
22.18000 1185.044
22.19000 1194.587
22.20000 1200.620
22.21000 1196.290
22.22000 1191.281
22.23000 1187.883
22.24000 1169.418
22.25000 1155.314
22.26000 1154.927
22.27000 1173.807
22.28000 1192.814
22.29000 1192.162
22.30000 1173.195
22.31000 1154.379
22.32000 1155.675
22.33000 1169.326
22.34000 1182.433
22.35000 1182.019
22.36000 1175.755
22.37000 1169.548
22.38000 1164.028
22.39000 1158.714
22.40000 1153.937
22.41000 1156.764
22.42000 1160.591
22.43000 1163.732
22.44000 1163.566
22.45000 1162.967
22.46000 1161.398
22.47000 1156.659
22.48000 1151.674
22.49000 1148.177
22.50000 1159.276
22.51000 1168.097
22.52000 1170.060
22.53000 1161.315
22.54000 1152.444
22.55000 1149.417
22.56000 1152.510
22.57000 1155.589
22.58000 1162.636
22.59000 1172.336
22.60000 1181.581
22.61000 1176.341
22.62000 1164.172
22.63000 1152.813
22.64000 1153.365
22.65000 1157.862
22.66000 1161.964
22.67000 1163.264
22.68000 1163.855
22.69000 1162.441
22.70000 1150.234
22.71000 1136.419
22.72000 1128.152
22.73000 1140.001
22.74000 1153.678
22.75000 1163.579
22.76000 1150.094
22.77000 1138.883
22.78000 1132.796
22.79000 1135.580
22.80000 1138.521
22.81000 1136.147
22.82000 1127.534
22.83000 1118.931
22.84000 1113.802
22.85000 1111.380
22.86000 1109.144
22.87000 1114.740
22.88000 1124.481
22.89000 1133.971
22.90000 1139.015
22.91000 1142.429
22.92000 1145.583
22.93000 1135.359
22.94000 1123.158
22.95000 1111.825
22.96000 1105.734
22.97000 1100.526
22.98000 1096.655
22.99000 1098.172
23.00000 1100.257
23.01000 1101.811
23.02000 1101.606
23.03000 1101.366
23.04000 1105.831
23.05000 1119.313
23.06000 1133.019
23.07000 1134.763
23.08000 1120.831
23.09000 1106.839
23.10000 1099.407
23.11000 1097.656
23.12000 1096.052
23.13000 1103.212
23.14000 1115.508
23.15000 1127.509
23.16000 1133.138
23.17000 1136.182
23.18000 1139.029
23.19000 1118.913
23.20000 1094.810
23.21000 1073.417
23.22000 1070.537
23.23000 1071.150
23.24000 1073.857
23.25000 1085.948
23.26000 1099.173
23.27000 1109.305
23.28000 1102.723
23.29000 1096.606
23.30000 1093.265
23.31000 1095.815
23.32000 1098.557
23.33000 1095.786
23.34000 1084.971
23.35000 1074.089
23.36000 1067.329
23.37000 1064.574
23.38000 1061.945
23.39000 1070.815
23.40000 1087.163
23.41000 1102.991
23.42000 1104.737
23.43000 1100.170
23.44000 1095.853
23.45000 1087.835
23.46000 1079.415
23.47000 1072.708
23.48000 1079.283
23.49000 1088.663
23.50000 1096.683
23.51000 1097.897
23.52000 1098.175
23.53000 1098.393
23.54000 1089.093
23.55000 1081.021
23.56000 1075.474
23.57000 1075.848
23.58000 1076.468
23.59000 1078.073
23.60000 1081.276
23.61000 1084.501
23.62000 1086.185
23.63000 1081.444
23.64000 1078.266
23.65000 1079.779
23.66000 1084.686
23.67000 1089.403
23.68000 1087.486
23.69000 1082.281
23.70000 1077.311
23.71000 1071.915
23.72000 1066.765
23.73000 1061.934
23.74000 1059.921
23.75000 1058.571
23.76000 1057.294
23.77000 1056.428
23.78000 1055.626
23.79000 1054.980
23.80000 1044.256
23.81000 1034.771
23.82000 1028.263
23.83000 1029.475
23.84000 1031.084
23.85000 1039.226
23.86000 1059.104
23.87000 1079.217
23.88000 1090.289
23.89000 1096.942
23.90000 1101.483
23.91000 1094.245
23.92000 1077.514
23.93000 1060.960
23.94000 1052.810
23.95000 1049.271
23.96000 1045.864
23.97000 1044.500
23.98000 1043.950
23.99000 1043.770
24.00000 1047.367
24.01000 1051.953
24.02000 1056.539
24.03000 1061.126
24.04000 1065.712
24.05000 1069.487
24.06000 1069.603
24.07000 1069.365
24.08000 1068.087
24.09000 1063.823
24.10000 1059.373
24.11000 1054.883
24.12000 1050.313
24.13000 1045.740
24.14000 1043.097
24.15000 1046.370
24.16000 1048.687
24.17000 1048.696
24.18000 1046.624
24.19000 1044.522
24.20000 1040.334
24.21000 1034.877
24.22000 1029.580
24.23000 1027.332
24.24000 1026.416
24.25000 1025.885
24.26000 1029.942
24.27000 1035.331
24.28000 1038.719
24.29000 1027.810
24.30000 1014.091
24.31000 1002.566
24.32000 1006.618
24.33000 1011.636
24.34000 1015.327
24.35000 1014.802
24.36000 1013.965
24.37000 1009.773
24.38000 998.202
24.39000 986.369
24.40000 979.211
24.41000 988.324
24.42000 994.937
24.43000 1004.206
24.44000 1016.165
24.45000 1028.044
24.46000 1031.296
24.47000 1028.722
24.48000 1026.207
24.49000 1024.102
24.50000 1022.268
24.51000 1020.778
24.52000 1024.089
24.53000 1028.945
24.54000 1032.620
24.55000 1026.693
24.56000 1018.657
24.57000 1011.775
24.58000 1016.000
24.59000 1020.914
24.60000 1025.908
24.61000 1031.186
24.62000 1036.488
24.63000 1038.164
24.64000 1031.024
24.65000 1023.487
24.66000 1018.733
24.67000 1018.874
24.68000 1019.032
24.69000 1011.500
24.70000 995.228
24.71000 979.025
24.72000 978.717
24.73000 990.350
24.74000 1001.788
24.75000 1001.744
24.76000 995.993
24.77000 990.701
24.78000 993.074
24.79000 998.178
24.80000 1003.120
24.81000 1006.557
24.82000 1009.627
24.83000 1012.303
24.84000 1005.898
24.85000 999.162
24.86000 994.853
24.87000 1000.029
24.88000 1006.164
24.89000 1010.441
24.90000 1009.722
24.91000 1008.727
24.92000 1008.075
24.93000 1001.546
24.94000 996.647
24.95000 993.383
24.96000 992.199
24.97000 991.021
24.98000 989.676
24.99000 988.191
25.00000 986.723
25.01000 985.611
25.02000 984.722
25.03000 984.441
25.04000 996.497
25.05000 1013.414
25.06000 1027.683
25.07000 1013.449
25.08000 991.470
25.09000 971.988
25.10000 969.430
25.11000 969.891
25.12000 971.325
25.13000 976.985
25.14000 983.136
25.15000 987.083
25.16000 984.475
25.17000 981.431
25.18000 979.361
25.19000 972.480
25.20000 967.235
25.21000 967.438
25.22000 975.353
25.23000 983.323
25.24000 982.755
25.25000 974.168
25.26000 965.647
25.27000 960.100
25.28000 956.494
25.29000 952.992
25.30000 952.155
25.31000 952.479
25.32000 953.587
25.33000 964.569
25.34000 978.527
25.35000 991.090
25.36000 975.360
25.37000 956.499
25.38000 942.299
25.39000 950.706
25.40000 962.111
25.41000 970.230
25.42000 967.526
25.43000 963.971
25.44000 961.471
25.45000 976.141
25.46000 987.759
25.47000 990.907
25.48000 980.731
25.49000 970.392
25.50000 968.150
25.51000 974.458
25.52000 980.740
25.53000 981.658
25.54000 978.845
25.55000 975.804
25.56000 965.397
25.57000 951.441
25.58000 937.899
25.59000 930.524
25.60000 925.206
25.61000 920.353
25.62000 931.291
25.63000 944.195
25.64000 955.761
25.65000 960.057
25.66000 963.261
25.67000 965.472
25.68000 964.052
25.69000 962.298
25.70000 961.026
25.71000 963.524
25.72000 965.584
25.73000 961.321
25.74000 946.031
25.75000 930.541
25.76000 923.567
25.77000 926.670
25.78000 929.784
25.79000 932.006
25.80000 933.525
25.81000 935.112
25.82000 939.693
25.83000 945.870
25.84000 951.723
25.85000 951.801
25.86000 949.746
25.87000 947.846
25.88000 942.001
25.89000 935.852
25.90000 929.457
25.91000 921.560
25.92000 913.408
25.93000 909.215
25.94000 921.088
25.95000 934.669
25.96000 944.813
25.97000 931.248
25.98000 919.584
25.99000 913.940
26.00000 919.923
26.01000 926.199
26.02000 930.925
26.03000 933.606
26.04000 936.275
26.05000 938.528
26.06000 940.414
26.07000 942.102
26.08000 931.633
26.09000 913.983
26.10000 897.273
26.11000 901.131
26.12000 913.389
26.13000 924.860
26.14000 926.702
26.15000 925.907
26.16000 924.953
26.17000 922.898
26.18000 920.635
26.19000 918.978
26.20000 920.065
26.21000 921.486
26.22000 922.577
26.23000 921.710
26.24000 920.915
26.25000 922.274
26.26000 928.232
26.27000 934.343
26.28000 935.820
26.29000 930.484
26.30000 925.088
26.31000 920.730
26.32000 917.388
26.33000 914.078
26.34000 913.657
26.35000 915.130
26.36000 916.304
26.37000 909.215
26.38000 898.394
26.39000 888.159
26.40000 893.587
26.41000 903.077
26.42000 909.947
26.43000 896.297
26.44000 878.281
26.45000 865.240
26.46000 877.315
26.47000 892.876
26.48000 905.127
26.49000 903.375
26.50000 901.038
26.51000 900.908
26.52000 905.992
26.53000 911.297
26.54000 911.895
26.55000 904.811
26.56000 897.618
26.57000 893.849
26.58000 891.830
26.59000 890.470
26.60000 890.285
26.61000 890.955
26.62000 891.689
26.63000 894.663
26.64000 898.756
26.65000 902.666
26.66000 895.561
26.67000 885.413
26.68000 875.973
26.69000 872.878
26.70000 871.288
26.71000 872.241
26.72000 887.582
26.73000 905.182
26.74000 919.371
26.75000 911.800
26.76000 903.940
26.77000 896.921
26.78000 892.098
26.79000 887.391
26.80000 885.875
26.81000 890.134
26.82000 894.511
26.83000 896.930
26.84000 870.025
26.85000 851.456
26.86000 848.337
26.87000 857.769
26.88000 867.117
26.89000 872.388
26.90000 875.406
26.91000 878.313
26.92000 879.773
26.93000 880.623
26.94000 881.625
26.95000 884.195
26.96000 887.178
26.97000 889.662
26.98000 888.964
26.99000 887.704
27.00000 886.665
27.01000 876.937
27.02000 868.132
27.03000 863.291
27.04000 869.907
27.05000 877.244
27.06000 881.061
27.07000 877.827
27.08000 874.395
27.09000 872.405
27.10000 884.511
27.11000 893.063
27.12000 894.797
27.13000 890.334
27.14000 885.803
27.15000 876.436
27.16000 864.107
27.17000 852.132
27.18000 853.717
27.19000 860.673
27.20000 867.289
27.21000 869.812
27.22000 871.138
27.23000 871.675
27.24000 866.533
27.25000 860.266
27.26000 854.993
27.27000 859.267
27.28000 863.847
27.29000 865.680
27.30000 858.720
27.31000 851.102
27.32000 848.517
27.33000 857.081
27.34000 866.050
27.35000 871.492
27.36000 867.035
27.37000 863.780
27.38000 858.193
27.39000 850.222
27.40000 842.402
27.41000 851.557
27.42000 872.260
27.43000 892.505
27.44000 888.900
27.45000 874.739
27.46000 861.819
27.47000 866.494
27.48000 876.873
27.49000 884.905
27.50000 873.678
27.51000 858.190
27.52000 844.908
27.53000 841.757
27.54000 840.337
27.55000 839.925
27.56000 843.087
27.57000 846.563
27.58000 847.064
27.59000 840.280
27.60000 833.163
27.61000 828.662
27.62000 846.137
27.63000 859.066
27.64000 861.435
27.65000 851.705
27.66000 842.006
27.67000 841.960
27.68000 849.222
27.69000 856.365
27.70000 854.340
27.71000 847.784
27.72000 841.814
27.73000 845.762
27.74000 853.270
27.75000 859.735
27.76000 856.390
27.77000 850.627
27.78000 845.597
27.79000 850.334
27.80000 855.756
27.81000 859.058
27.82000 854.015
27.83000 848.120
27.84000 841.691
27.85000 833.817
27.86000 825.863
27.87000 820.633
27.88000 826.153
27.89000 830.400
27.90000 835.408
27.91000 841.389
27.92000 847.375
27.93000 854.213
27.94000 861.771
27.95000 869.242
27.96000 860.680
27.97000 843.350
27.98000 826.703
27.99000 824.161
28.00000 827.216
28.01000 829.230
28.02000 819.906
28.03000 807.479
28.04000 796.452
28.05000 807.379
28.06000 820.350
28.07000 830.064
28.08000 825.508
28.09000 819.278
28.10000 814.956
28.11000 816.351
28.12000 818.131
28.13000 819.344
28.14000 825.941
28.15000 830.996
28.16000 829.047
28.17000 817.108
28.18000 805.096
28.19000 803.573
28.20000 811.984
28.21000 820.333
28.22000 822.122
28.23000 819.777
28.24000 817.474
28.25000 816.239
28.26000 815.473
28.27000 814.771
28.28000 814.899
28.29000 815.279
28.30000 815.621
28.31000 809.599
28.32000 803.164
28.33000 799.237
28.34000 807.568
28.35000 817.539
28.36000 823.895
28.37000 818.251
28.38000 811.654
28.39000 807.004
28.40000 795.056
28.41000 785.776
28.42000 782.599
28.43000 789.092
28.44000 795.707
28.45000 800.618
28.46000 803.715
28.47000 806.798
28.48000 805.850
28.49000 802.090
28.50000 798.344
28.51000 795.030
28.52000 791.925
28.53000 789.328
28.54000 794.377
28.55000 801.997
28.56000 808.959
28.57000 818.892
28.58000 828.321
28.59000 835.260
28.60000 828.565
28.61000 819.803
28.62000 810.059
28.63000 796.699
28.64000 783.004
28.65000 773.047
28.66000 788.787
28.67000 801.869
28.68000 808.681
28.69000 804.480
28.70000 800.073
28.71000 796.214
28.72000 793.010
28.73000 789.812
28.74000 793.056
28.75000 801.328
28.76000 809.404
28.77000 808.797
28.78000 803.529
28.79000 798.738
28.80000 802.622
28.81000 809.734
28.82000 816.315
28.83000 808.740
28.84000 798.674
28.85000 790.398
28.86000 793.137
28.87000 797.759
28.88000 802.279
28.89000 806.385
28.90000 810.446
28.91000 813.486
28.92000 796.015
28.93000 781.425
28.94000 771.160
28.95000 769.309
28.96000 767.674
28.97000 770.100
28.98000 777.931
28.99000 785.785
29.00000 788.066
29.01000 785.448
29.02000 782.949
29.03000 787.939
29.04000 797.385
29.05000 806.275
29.06000 802.828
29.07000 794.306
29.08000 786.324
29.09000 777.587
29.10000 769.445
29.11000 763.422
29.12000 772.128
29.13000 783.661
29.14000 792.484
29.15000 788.967
29.16000 783.933
29.17000 780.061
29.18000 786.391
29.19000 791.976
29.20000 793.147
29.21000 784.818
29.22000 776.168
29.23000 768.841
29.24000 763.473
29.25000 758.124
29.26000 756.294
29.27000 757.941
29.28000 759.602
29.29000 762.577
29.30000 766.422
29.31000 769.958
29.32000 764.865
29.33000 755.846
29.34000 747.309
29.35000 741.157
29.36000 736.187
29.37000 732.910
29.38000 743.009
29.39000 755.976
29.40000 767.092
29.41000 768.787
29.42000 769.162
29.43000 769.458
29.44000 768.776
29.45000 768.164
29.46000 765.701
29.47000 758.832
29.48000 751.774
29.49000 751.666
29.50000 762.986
29.51000 774.474
29.52000 780.518
29.53000 772.717
29.54000 767.411
29.55000 760.395
29.56000 752.125
29.57000 744.128
29.58000 746.152
29.59000 753.216
29.60000 759.969
29.61000 764.787
29.62000 768.642
29.63000 771.487
29.64000 765.203
29.65000 756.737
29.66000 750.115
29.67000 754.016
29.68000 759.584
29.69000 764.081
29.70000 740.864
29.71000 719.786
29.72000 709.248
29.73000 726.444
29.74000 745.106
29.75000 756.122
29.76000 753.204
29.77000 749.992
29.78000 748.211
29.79000 753.700
29.80000 757.487
29.81000 754.221
29.82000 745.180
29.83000 736.211
29.84000 730.804
29.85000 727.380
29.86000 724.078
29.87000 731.792
29.88000 743.041
29.89000 753.152
29.90000 751.384
29.91000 746.459
29.92000 741.783
29.93000 738.697
29.94000 735.896
29.95000 733.584
29.96000 723.664
29.97000 714.785
29.98000 713.201
29.99000 732.851
30.00000 753.857
30.01000 767.358
30.02000 765.724
30.03000 763.657
30.04000 762.454
30.05000 748.177
30.06000 738.089
30.07000 729.637
30.08000 722.685
30.09000 715.873
30.10000 719.209
30.11000 728.809
30.12000 738.137
30.13000 741.239
30.14000 741.664
30.15000 741.736
30.16000 737.522
30.17000 732.045
30.18000 727.722
30.19000 731.795
30.20000 737.545
30.21000 742.388
30.22000 729.886
30.23000 717.585
30.24000 706.778
30.25000 700.789
30.26000 695.165
30.27000 693.491
30.28000 700.629
30.29000 708.092
30.30000 712.634
30.31000 727.036
30.32000 737.400
30.33000 735.062
30.34000 719.640
30.35000 704.342
30.36000 703.672
30.37000 713.030
30.38000 722.185
30.39000 716.744
30.40000 704.920
30.41000 694.853
30.42000 709.973
30.43000 733.319
30.44000 753.427
30.45000 746.710
30.46000 734.010
30.47000 723.105
30.48000 733.085
30.49000 744.108
30.50000 750.445
30.51000 740.042
30.52000 728.150
30.53000 715.966
30.54000 703.061
30.55000 690.122
30.56000 681.915
30.57000 675.487
30.58000 670.843
30.59000 675.886
30.60000 692.117
30.61000 708.308
30.62000 712.112
30.63000 706.465
30.64000 700.907
30.65000 699.798
30.66000 700.969
30.67000 702.054
30.68000 701.645
30.69000 700.695
30.70000 699.989
30.71000 701.603
30.72000 703.792
30.73000 705.705
30.74000 710.970
30.75000 715.953
30.76000 718.047
30.77000 708.680
30.78000 698.132
30.79000 691.895
30.80000 697.419
30.81000 703.611
30.82000 707.692
30.83000 708.440
30.84000 708.933
30.85000 710.342
30.86000 712.933
30.87000 715.513
30.88000 708.784
30.89000 694.123
30.90000 679.625
30.91000 676.009
30.92000 678.617
30.93000 681.024
30.94000 679.228
30.95000 675.751
30.96000 672.815
30.97000 675.814
30.98000 680.451
30.99000 684.571
31.00000 678.167
31.01000 670.919
31.02000 665.944
31.03000 671.008
31.04000 677.261
31.05000 683.790
31.06000 691.150
31.07000 698.567
31.08000 703.634
31.09000 702.825
31.10000 702.082
31.11000 699.132
31.12000 693.010
31.13000 686.863
31.14000 685.338
31.15000 688.226
31.16000 691.094
31.17000 687.876
31.18000 680.872
31.19000 674.166
31.20000 675.235
31.21000 679.740
31.22000 684.096
31.23000 686.545
31.24000 688.411
31.25000 690.093
31.26000 686.651
31.27000 682.694
31.28000 680.478
31.29000 686.845
31.30000 694.371
31.31000 698.264
31.32000 690.011
31.33000 680.782
31.34000 674.263
31.35000 669.029
31.36000 665.096
31.37000 666.101
31.38000 674.991
31.39000 683.983
31.40000 684.745
31.41000 676.669
31.42000 668.624
31.43000 665.908
31.44000 666.977
31.45000 668.236
31.46000 675.902
31.47000 686.700
31.48000 696.904
31.49000 698.059
31.50000 696.150
31.51000 694.403
31.52000 690.471
31.53000 686.525
31.54000 683.101
31.55000 682.559
31.56000 682.459
31.57000 681.837
31.58000 679.280
31.59000 676.542
31.60000 674.547
31.61000 667.677
31.62000 662.199
31.63000 660.439
31.64000 665.262
31.65000 670.211
31.66000 675.222
31.67000 680.306
31.68000 685.382
31.69000 682.299
31.70000 672.787
31.71000 663.542
31.72000 666.340
31.73000 675.652
31.74000 684.551
31.75000 685.863
31.76000 684.332
31.77000 682.914
31.78000 671.419
31.79000 658.741
31.80000 647.259
31.81000 643.204
31.82000 640.430
31.83000 640.075
31.84000 649.689
31.85000 660.383
31.86000 668.404
31.87000 668.413
31.88000 668.040
31.89000 669.819
31.90000 675.813
31.91000 681.918
31.92000 681.352
31.93000 671.834
31.94000 662.274
31.95000 655.822
31.96000 652.132
31.97000 648.471
31.98000 646.751
31.99000 646.195
32.00000 645.700
32.01000 646.586
32.02000 648.044
32.03000 649.411
32.04000 654.414
32.05000 659.916
32.06000 664.810
32.07000 665.441
32.08000 665.248
32.09000 663.243
32.10000 652.920
32.11000 641.565
32.12000 632.815
32.13000 636.987
32.14000 641.030
32.15000 644.865
32.16000 648.246
32.17000 651.612
32.18000 653.054
32.19000 651.626
32.20000 650.170
32.21000 652.516
32.22000 658.648
32.23000 664.700
32.24000 662.597
32.25000 655.072
32.26000 647.615
32.27000 642.135
32.28000 637.560
32.29000 633.226
32.30000 638.026
32.31000 645.113
32.32000 651.461
32.33000 651.913
32.34000 651.089
32.35000 649.071
32.36000 640.919
32.37000 631.901
32.38000 624.776
32.39000 635.736
32.40000 645.771
32.41000 651.626
32.42000 647.467
32.43000 642.872
32.44000 641.605
32.45000 645.853
32.46000 650.183
32.47000 652.470
32.48000 652.713
32.49000 652.845
32.50000 647.235
32.51000 637.379
32.52000 627.830
32.53000 629.727
32.54000 637.425
32.55000 644.789
32.56000 643.574
32.57000 639.639
32.58000 635.309
32.59000 627.363
32.60000 618.548
32.61000 611.287
32.62000 612.972
32.63000 616.085
32.64000 618.604
32.65000 630.550
32.66000 641.029
32.67000 648.278
32.68000 646.965
32.69000 645.193
32.70000 641.301
32.71000 633.518
32.72000 625.651
32.73000 621.273
32.74000 621.675
32.75000 621.965
32.76000 623.196
32.77000 625.204
32.78000 627.065
32.79000 621.401
32.80000 611.517
32.81000 601.980
32.82000 604.719
32.83000 611.785
32.84000 618.492
32.85000 621.425
32.86000 623.349
32.87000 625.471
32.88000 628.881
32.89000 632.522
32.90000 635.533
32.91000 626.069
32.92000 617.094
32.93000 610.223
32.94000 609.523
32.95000 609.223
32.96000 610.430
32.97000 614.700
32.98000 619.060
32.99000 621.605
33.00000 614.886
33.01000 610.117
33.02000 606.609
33.03000 604.266
33.04000 602.014
33.05000 606.572
33.06000 615.366
33.07000 623.915
33.08000 620.410
33.09000 612.154
33.10000 604.312
33.11000 601.561
33.12000 600.321
33.13000 599.509
33.14000 601.837
33.15000 604.797
33.16000 607.295
33.17000 614.698
33.18000 621.416
33.19000 625.875
33.20000 623.002
33.21000 619.565
33.22000 619.523
33.23000 627.109
33.24000 634.981
33.25000 639.787
33.26000 621.453
33.27000 608.154
33.28000 604.235
33.29000 610.059
33.30000 615.810
33.31000 612.645
33.32000 603.322
33.33000 594.197
33.34000 590.674
33.35000 589.845
33.36000 589.652
33.37000 598.692
33.38000 610.768
33.39000 621.334
33.40000 619.262
33.41000 614.351
33.42000 610.129
33.43000 609.659
33.44000 609.731
33.45000 608.567
33.46000 602.951
33.47000 596.935
33.48000 595.725
33.49000 606.455
33.50000 617.745
33.51000 624.928
33.52000 608.690
33.53000 596.599
33.54000 590.584
33.55000 591.647
33.56000 592.725
33.57000 594.963
33.58000 598.094
33.59000 601.177
33.60000 595.585
33.61000 585.749
33.62000 576.653
33.63000 580.432
33.64000 588.898
33.65000 596.666
33.66000 597.719
33.67000 597.093
33.68000 596.545
33.69000 596.385
33.70000 596.304
33.71000 596.044
33.72000 595.066
33.73000 594.013
33.74000 593.631
33.75000 595.090
33.76000 596.655
33.77000 597.690
33.78000 589.498
33.79000 583.291
33.80000 582.671
33.81000 589.319
33.82000 595.993
33.83000 599.256
33.84000 599.590
33.85000 599.920
33.86000 597.532
33.87000 593.653
33.88000 589.770
33.89000 585.809
33.90000 581.817
33.91000 578.747
33.92000 585.935
33.93000 595.973
33.94000 604.900
33.95000 593.681
33.96000 580.669
33.97000 571.834
33.98000 581.594
33.99000 593.577
34.00000 601.142
34.01000 595.278
34.02000 588.487
34.03000 583.837
34.04000 582.565
34.05000 581.694
34.06000 582.395
34.07000 585.373
34.08000 588.371
34.09000 595.318
34.10000 606.069
34.11000 616.747
34.12000 613.606
34.13000 601.734
34.14000 590.154
34.15000 586.379
34.16000 586.078
34.17000 585.160
34.18000 576.198
34.19000 564.759
34.20000 554.431
34.21000 563.835
34.22000 575.732
34.23000 585.489
34.24000 584.617
34.25000 582.296
34.26000 580.526
34.27000 580.613
34.28000 580.851
34.29000 581.019
34.30000 586.900
34.31000 591.547
34.32000 590.424
34.33000 580.024
34.34000 569.499
34.35000 568.938
34.36000 579.162
34.37000 589.351
34.38000 593.222
34.39000 592.566
34.40000 591.757
34.41000 585.716
34.42000 577.100
34.43000 569.222
34.44000 572.767
34.45000 580.208
34.46000 587.020
34.47000 576.979
34.48000 564.542
34.49000 554.438
34.50000 557.319
34.51000 562.203
34.52000 565.820
34.53000 564.699
34.54000 563.129
34.55000 561.983
34.56000 574.718
34.57000 585.078
34.58000 588.662
34.59000 580.162
34.60000 571.425
34.61000 568.057
34.62000 571.195
34.63000 574.343
34.64000 571.409
34.65000 563.646
34.66000 556.019
34.67000 554.692
34.68000 556.797
34.69000 558.978
34.70000 562.564
34.71000 566.680
34.72000 570.496
34.73000 569.811
34.74000 568.142
34.75000 565.212
34.76000 554.389
34.77000 542.195
34.78000 534.776
34.79000 547.188
34.80000 561.773
34.81000 572.733
34.82000 566.553
34.83000 560.899
34.84000 559.532
34.85000 566.629
34.86000 573.954
34.87000 573.611
34.88000 562.902
34.89000 552.141
34.90000 546.237
34.91000 544.679
34.92000 543.191
34.93000 546.329
34.94000 552.259
34.95000 557.961
34.96000 558.414
34.97000 556.677
34.98000 555.048
34.99000 548.612
35.00000 541.486
35.01000 536.411
35.02000 545.848
35.03000 558.115
35.04000 566.937
35.05000 559.813
35.06000 550.690
35.07000 543.647
35.08000 545.006
35.09000 546.571
35.10000 547.871
35.11000 548.593
35.12000 549.294
35.13000 549.473
35.14000 548.865
35.15000 548.249
35.16000 547.941
35.17000 549.659
35.18000 550.827
35.19000 554.240
35.20000 559.157
35.21000 563.949
35.22000 565.137
35.23000 564.660
35.24000 564.208
35.25000 566.502
35.26000 569.424
35.27000 571.481
35.28000 566.576
35.29000 560.154
35.30000 552.833
35.31000 540.864
35.32000 528.232
35.33000 518.234
35.34000 530.693
35.35000 542.258
35.36000 550.314
35.37000 549.899
35.38000 549.109
35.39000 550.944
35.40000 557.160
35.41000 563.443
35.42000 566.774
35.43000 554.777
35.44000 546.639
35.45000 543.941
35.46000 545.300
35.47000 546.720
35.48000 550.455
35.49000 555.370
35.50000 560.075
35.51000 553.567
35.52000 543.808
35.53000 535.070
35.54000 535.749
35.55000 538.713
35.56000 541.636
35.57000 544.324
35.58000 546.974
35.59000 549.121
35.60000 545.965
35.61000 542.963
35.62000 539.754
35.63000 535.988
35.64000 532.193
35.65000 530.104
35.66000 531.171
35.67000 532.308
35.68000 532.943
35.69000 553.294
35.70000 567.391
35.71000 563.229
35.72000 543.878
35.73000 524.784
35.74000 519.113
35.75000 521.027
35.76000 522.876
35.77000 525.664
35.78000 528.636
35.79000 531.590
35.80000 534.346
35.81000 537.049
35.82000 538.444
35.83000 531.283
35.84000 522.572
35.85000 515.360
35.86000 519.385
35.87000 523.774
35.88000 526.750
35.89000 525.556
35.90000 524.089
35.91000 525.181
35.92000 531.509
35.93000 537.992
35.94000 541.790
35.95000 536.131
35.96000 532.101
35.97000 531.134
35.98000 533.021
35.99000 534.922
36.00000 537.858
36.01000 541.442
36.02000 544.929
36.03000 540.181
36.04000 532.274
36.05000 525.089
36.06000 526.886
36.07000 531.370
36.08000 535.374
36.09000 535.826
36.10000 535.556
36.11000 535.328
36.12000 540.779
36.13000 545.960
36.14000 549.904
36.15000 549.803
36.16000 549.387
36.17000 546.407
36.18000 537.622
36.19000 528.615
36.20000 523.100
36.21000 520.136
36.22000 518.036
36.23000 520.358
36.24000 527.314
36.25000 534.224
36.26000 535.362
36.27000 532.482
36.28000 529.662
36.29000 523.785
36.30000 516.732
36.31000 510.651
36.32000 518.863
36.33000 531.812
36.34000 543.279
36.35000 542.230
36.36000 538.347
36.37000 535.003
36.38000 523.771
36.39000 513.261
36.40000 505.882
36.41000 509.853
36.42000 514.856
36.43000 518.068
36.44000 516.800
36.45000 515.317
36.46000 514.371
36.47000 517.322
36.48000 519.519
36.49000 519.797
36.50000 517.824
36.51000 515.839
36.52000 511.555
36.53000 505.491
36.54000 499.519
36.55000 498.510
36.56000 500.079
36.57000 501.854
36.58000 507.257
36.59000 513.990
36.60000 520.063
36.61000 519.745
36.62000 517.815
36.63000 516.124
36.64000 518.494
36.65000 521.113
36.66000 522.501
36.67000 518.929
36.68000 514.835
36.69000 511.066
36.70000 508.195
36.71000 505.376
36.72000 503.508
36.73000 520.992
36.74000 534.258
36.75000 533.376
36.76000 513.946
36.77000 494.457
36.78000 493.056
36.79000 507.318
36.80000 521.430
36.81000 526.099
36.82000 525.251
36.83000 524.291
36.84000 520.902
36.85000 516.527
36.86000 512.172
36.87000 508.039
36.88000 503.969
36.89000 500.344
36.90000 505.574
36.91000 511.568
36.92000 515.601
36.93000 510.831
36.94000 504.999
36.95000 501.579
36.96000 505.547
36.97000 510.030
36.98000 513.107
36.99000 507.707
37.00000 503.451
37.01000 500.418
37.02000 499.170
37.03000 497.937
37.04000 495.635
37.05000 492.296
37.06000 488.978
37.07000 490.279
37.08000 494.518
37.09000 498.363
37.10000 491.527
37.11000 479.902
37.12000 469.701
37.13000 478.268
37.14000 492.659
37.15000 505.666
37.16000 506.619
37.17000 505.218
37.18000 504.194
37.19000 505.057
37.20000 506.180
37.21000 506.946
37.22000 506.501
37.23000 505.957
37.24000 505.570
37.25000 501.422
37.26000 498.148
37.27000 496.236
37.28000 496.532
37.29000 496.859
37.30000 495.040
37.31000 490.878
37.32000 486.730
37.33000 487.606
37.34000 492.073
37.35000 496.548
37.36000 501.329
37.37000 506.260
37.38000 510.972
37.39000 512.266
37.40000 512.384
37.41000 512.492
37.42000 502.024
37.43000 490.486
37.44000 482.071
37.45000 491.188
37.46000 503.034
37.47000 510.797
37.48000 503.192
37.49000 494.114
37.50000 487.471
37.51000 491.564
37.52000 495.148
37.53000 497.827
37.54000 498.881
37.55000 499.903
37.56000 498.084
37.57000 492.796
37.58000 487.508
37.59000 487.566
37.60000 491.914
37.61000 496.184
37.62000 496.755
37.63000 495.295
37.64000 493.535
37.65000 486.090
37.66000 476.484
37.67000 467.569
37.68000 464.212
37.69000 462.498
37.70000 462.425
37.71000 472.719
37.72000 484.831
37.73000 495.094
37.74000 497.621
37.75000 499.292
37.76000 500.550
37.77000 493.585
37.78000 487.734
37.79000 484.852
37.80000 487.871
37.81000 491.052
37.82000 492.041
37.83000 490.045
37.84000 488.032
37.85000 489.549
37.86000 494.243
37.87000 498.873
37.88000 499.084
37.89000 496.607
37.90000 494.069
37.91000 490.082
37.92000 485.486
37.93000 481.172
37.94000 483.555
37.95000 487.501
37.96000 490.846
37.97000 489.897
37.98000 488.104
37.99000 485.857
38.00000 481.499
38.01000 476.874
38.02000 473.297
38.03000 466.846
38.04000 461.559
38.05000 461.583
38.06000 473.288
38.07000 485.410
38.08000 490.257
38.09000 484.080
38.10000 477.790
38.11000 474.624
38.12000 481.133
38.13000 485.446
38.14000 485.945
38.15000 483.868
38.16000 481.989
38.17000 485.978
38.18000 492.694
38.19000 499.066
38.20000 490.141
38.21000 477.368
38.22000 465.251
38.23000 458.457
38.24000 452.832
38.25000 450.129
38.26000 462.661
38.27000 477.384
38.28000 489.057
38.29000 474.046
38.30000 460.105
38.31000 454.497
38.32000 469.150
38.33000 484.714
38.34000 491.740
38.35000 484.411
38.36000 476.854
38.37000 472.831
38.38000 466.399
38.39000 462.030
38.40000 459.881
38.41000 459.401
38.42000 458.923
38.43000 458.495
38.44000 458.093
38.45000 457.708
38.46000 458.391
38.47000 459.382
38.48000 460.763
38.49000 465.777
38.50000 471.679
38.51000 475.398
38.52000 466.345
38.53000 455.216
38.54000 446.186
38.55000 463.854
38.56000 480.455
38.57000 490.800
38.58000 484.319
38.59000 476.911
38.60000 470.471
38.61000 465.835
38.62000 461.240
38.63000 458.665
38.64000 463.254
38.65000 466.451
38.66000 468.500
38.67000 469.586
38.68000 470.522
38.69000 463.412
38.70000 451.723
38.71000 440.431
38.72000 444.785
38.73000 454.698
38.74000 464.194
38.75000 469.191
38.76000 472.965
38.77000 475.997
38.78000 474.133
38.79000 471.375
38.80000 469.089
38.81000 467.345
38.82000 465.956
38.83000 466.647
38.84000 473.523
38.85000 480.810
38.86000 484.000
38.87000 478.748
38.88000 473.241
38.89000 470.003
38.90000 463.979
38.91000 459.718
38.92000 457.510
38.93000 457.233
38.94000 456.938
38.95000 455.223
38.96000 452.613
38.97000 450.072
38.98000 446.324
38.99000 442.255
39.00000 438.546
39.01000 439.374
39.02000 441.569
39.03000 444.491
39.04000 452.848
39.05000 462.315
39.06000 470.325
39.07000 468.315
39.08000 465.521
39.09000 463.487
39.10000 463.960
39.11000 464.629
39.12000 463.026
39.13000 456.241
39.14000 449.254
39.15000 444.962
39.16000 443.507
39.17000 442.489
39.18000 444.052
39.19000 448.342
39.20000 452.580
39.21000 449.856
39.22000 442.249
39.23000 434.797
39.24000 438.211
39.25000 446.526
39.26000 454.413
39.27000 455.934
39.28000 455.329
39.29000 454.426
39.30000 450.981
39.31000 446.955
39.32000 443.485
39.33000 443.195
39.34000 443.355
39.35000 443.766
39.36000 445.096
39.37000 446.511
39.38000 448.050
39.39000 449.903
39.40000 451.772
39.41000 452.967
39.42000 452.634
39.43000 452.372
39.44000 453.507
39.45000 456.298
39.46000 459.080
39.47000 458.574
39.48000 455.501
39.49000 452.474
39.50000 448.785
39.51000 444.864
39.52000 441.376
39.53000 445.644
39.54000 452.777
39.55000 459.271
39.56000 459.498
39.57000 458.133
39.58000 456.936
39.59000 454.350
39.60000 451.926
39.61000 448.196
39.62000 439.165
39.63000 429.571
39.64000 423.733
39.65000 428.367
39.66000 433.620
39.67000 437.111
39.68000 441.055
39.69000 443.980
39.70000 443.987
39.71000 440.137
39.72000 436.272
39.73000 434.437
39.74000 434.375
39.75000 434.313
39.76000 433.971
39.77000 433.476
39.78000 433.416
39.79000 442.901
39.80000 456.284
39.81000 467.962
39.82000 460.254
39.83000 447.077
39.84000 435.332
39.85000 435.704
39.86000 438.033
39.87000 439.587
39.88000 437.640
39.89000 435.265
39.90000 433.571
39.91000 433.978
39.92000 434.533
39.93000 434.915
39.94000 439.879
39.95000 443.719
39.96000 448.803
39.97000 455.716
39.98000 462.646
39.99000 455.929
40.00000 435.849
40.01000 415.898
40.02000 414.682
40.03000 425.581
40.04000 436.078
40.05000 435.513
40.06000 429.953
40.07000 424.495
40.08000 420.406
40.09000 416.746
40.10000 413.435
40.11000 423.178
40.12000 434.201
40.13000 443.114
40.14000 441.372
40.15000 438.151
40.16000 434.527
40.17000 429.528
40.18000 424.414
40.19000 420.778
40.20000 423.158
40.21000 425.164
40.22000 424.934
40.23000 421.054
40.24000 417.121
40.25000 416.455
40.26000 419.382
40.27000 422.301
40.28000 427.955
40.29000 435.535
40.30000 442.996
40.31000 446.180
40.32000 447.228
40.33000 447.939
40.34000 443.327
40.35000 436.872
40.36000 430.951
40.37000 423.166
40.38000 415.835
40.39000 409.919
40.40000 412.020
40.41000 415.380
40.42000 419.600
40.43000 427.083
40.44000 434.881
40.45000 440.599
40.46000 441.401
40.47000 441.822
40.48000 443.009
40.49000 445.585
40.50000 448.189
40.51000 447.353
40.52000 442.281
40.53000 437.206
40.54000 435.534
40.55000 436.623
40.56000 437.556
40.57000 430.921
40.58000 420.101
40.59000 409.931
40.60000 412.220
40.61000 419.280
40.62000 425.836
40.63000 429.996
40.64000 433.176
40.65000 435.495
40.66000 432.324
40.67000 428.182
40.68000 425.411
40.69000 428.419
40.70000 432.073
40.71000 434.830
40.72000 433.349
40.73000 431.979
40.74000 431.255
40.75000 431.826
40.76000 432.433
40.77000 430.328
40.78000 424.500
40.79000 418.652
40.80000 420.919
40.81000 430.556
40.82000 440.013
40.83000 436.801
40.84000 425.827
40.85000 415.393
40.86000 417.791
40.87000 425.620
40.88000 432.976
40.89000 435.775
40.90000 437.112
40.91000 436.960
40.92000 426.074
40.93000 413.060
40.94000 403.763
40.95000 411.936
40.96000 422.342
40.97000 430.403
40.98000 424.358
40.99000 418.716
41.00000 414.768
41.01000 414.573
41.02000 414.514
41.03000 414.368
41.04000 414.088
41.05000 413.807
41.06000 413.665
41.07000 419.081
41.08000 422.655
41.09000 420.598
41.10000 414.708
41.11000 409.114
41.12000 412.414
41.13000 419.876
41.14000 426.961
41.15000 422.858
41.16000 415.723
41.17000 409.842
41.18000 414.248
41.19000 420.930
41.20000 426.659
41.21000 427.377
41.22000 427.369
41.23000 427.362
41.24000 422.285
41.25000 417.839
41.26000 414.276
41.27000 412.875
41.28000 411.573
41.29000 412.088
41.30000 415.683
41.31000 419.327
41.32000 421.275
41.33000 417.747
41.34000 415.347
41.35000 415.113
41.36000 416.518
41.37000 417.938
41.38000 419.952
41.39000 422.273
41.40000 424.498
41.41000 420.309
41.42000 414.253
41.43000 408.294
41.44000 403.249
41.45000 398.428
41.46000 395.321
41.47000 402.316
41.48000 410.968
41.49000 418.000
41.50000 417.200
41.51000 415.896
41.52000 416.992
41.53000 424.592
41.54000 432.556
41.55000 432.978
41.56000 419.250
41.57000 405.194
41.58000 397.289
41.59000 401.699
41.60000 404.785
41.61000 403.544
41.62000 398.645
41.63000 393.931
41.64000 399.321
41.65000 410.507
41.66000 421.317
41.67000 415.654
41.68000 404.146
41.69000 394.094
41.70000 399.909
41.71000 410.069
41.72000 417.759
41.73000 409.015
41.74000 397.244
41.75000 387.470
41.76000 393.424
41.77000 399.873
41.78000 404.835
41.79000 405.341
41.80000 405.547
41.81000 405.197
41.82000 403.695
41.83000 402.157
41.84000 401.250
41.85000 400.769
41.86000 400.433
41.87000 404.745
41.88000 413.459
41.89000 422.105
41.90000 425.157
41.91000 424.652
41.92000 424.160
41.93000 421.048
41.94000 416.987
41.95000 413.187
41.96000 412.708
41.97000 413.236
41.98000 413.610
41.99000 412.817
42.00000 411.784
42.01000 410.909
42.02000 411.592
42.03000 412.338
42.04000 412.052
42.05000 408.336
42.06000 404.348
42.07000 401.833
42.08000 402.700
42.09000 403.701
42.10000 404.318
42.11000 405.591
42.12000 406.511
42.13000 405.664
42.14000 402.934
42.15000 400.259
42.16000 405.249
42.17000 415.656
42.18000 425.854
42.19000 416.779
42.20000 399.047
42.21000 382.955
42.22000 391.598
42.23000 408.556
42.24000 422.908
42.25000 414.805
42.26000 401.537
42.27000 390.085
42.28000 393.706
42.29000 398.720
42.30000 402.110
42.31000 399.523
42.32000 396.381
42.33000 392.972
42.34000 388.886
42.35000 384.768
42.36000 382.125
42.37000 394.794
42.38000 404.237
42.39000 408.746
42.40000 407.367
42.41000 405.976
42.42000 404.089
42.43000 401.812
42.44000 399.569
42.45000 400.725
42.46000 403.621
42.47000 406.312
42.48000 405.285
42.49000 402.875
42.50000 400.702
42.51000 400.881
42.52000 401.661
42.53000 402.346
42.54000 399.695
42.55000 396.926
42.56000 395.910
42.57000 402.062
42.58000 408.983
42.59000 410.384
42.60000 396.282
42.61000 381.253
42.62000 371.240
42.63000 384.321
42.64000 394.443
42.65000 400.169
42.66000 400.042
42.67000 399.886
42.68000 400.482
42.69000 401.738
42.70000 402.982
42.71000 404.476
42.72000 406.085
42.73000 407.179
42.74000 396.802
42.75000 381.705
42.76000 368.032
42.77000 370.728
42.78000 378.075
42.79000 384.631
42.80000 391.439
42.81000 397.406
42.82000 400.808
42.83000 392.526
42.84000 382.805
42.85000 375.572
42.86000 376.071
42.87000 377.123
42.88000 377.848
42.89000 388.217
42.90000 396.253
42.91000 400.674
42.92000 399.741
42.93000 398.759
42.94000 397.334
42.95000 395.471
42.96000 393.619
42.97000 392.184
42.98000 391.041
42.99000 389.975
43.00000 391.038
43.01000 393.071
43.02000 395.061
43.03000 396.467
43.04000 397.689
43.05000 398.796
43.06000 401.038
43.07000 403.229
43.08000 404.150
43.09000 398.611
43.10000 392.167
43.11000 386.772
43.12000 384.989
43.13000 383.510
43.14000 382.456
43.15000 392.087
43.16000 399.779
43.17000 400.922
43.18000 391.295
43.19000 381.510
43.20000 377.683
43.21000 380.467
43.22000 383.245
43.23000 386.506
43.24000 390.093
43.25000 393.562
43.26000 392.714
43.27000 389.694
43.28000 386.908
43.29000 387.888
43.30000 390.181
43.31000 392.285
43.32000 391.850
43.33000 390.919
43.34000 390.144
43.35000 390.251
43.36000 390.499
43.37000 390.022
43.38000 386.776
43.39000 383.260
43.40000 380.676
43.41000 375.222
43.42000 370.887
43.43000 370.067
43.44000 375.652
43.45000 381.371
43.46000 387.005
43.47000 392.531
43.48000 398.050
43.49000 396.371
43.50000 388.825
43.51000 381.443
43.52000 382.239
43.53000 387.590
43.54000 392.732
43.55000 393.810
43.56000 393.320
43.57000 392.864
43.58000 391.679
43.59000 390.434
43.60000 389.936
43.61000 394.244
43.62000 399.409
43.63000 402.285
43.64000 395.436
43.65000 387.490
43.66000 381.483
43.67000 381.777
43.68000 382.324
43.69000 383.248
43.70000 384.934
43.71000 386.642
43.72000 385.604
43.73000 380.767
43.74000 375.907
43.75000 377.645
43.76000 385.424
43.77000 393.147
43.78000 396.823
43.79000 398.001
43.80000 399.134
43.81000 399.190
43.82000 398.788
43.83000 398.409
43.84000 398.715
43.85000 399.180
43.86000 399.682
43.87000 400.465
43.88000 401.303
43.89000 401.947
43.90000 401.671
43.91000 401.277
43.92000 400.971
43.93000 398.375
43.94000 396.174
43.95000 396.919
43.96000 404.242
43.97000 411.807
43.98000 414.914
43.99000 411.163
44.00000 407.336
44.01000 405.394
44.02000 406.713
44.03000 407.632
44.04000 412.751
44.05000 420.749
44.06000 428.506
44.07000 428.855
44.08000 425.712
44.09000 422.725
44.10000 427.078
44.11000 433.313
44.12000 439.519
44.13000 445.492
44.14000 451.413
44.15000 455.253
44.16000 448.066
44.17000 439.266
44.18000 432.264
44.19000 437.993
44.20000 443.523
44.21000 446.641
44.22000 443.810
44.23000 440.704
44.24000 440.258
44.25000 444.352
44.26000 448.522
44.27000 450.759
44.28000 441.968
44.29000 435.987
44.30000 436.937
44.31000 443.176
44.32000 449.219
44.33000 447.296
44.34000 441.218
44.35000 435.390
44.36000 424.837
44.37000 413.386
44.38000 403.088
44.39000 403.747
44.40000 407.128
44.41000 409.794
44.42000 408.201
44.43000 405.905
44.44000 404.035
44.45000 403.582
44.46000 403.331
44.47000 401.186
44.48000 393.875
44.49000 386.271
44.50000 383.862
44.51000 391.272
44.52000 398.915
44.53000 403.229
44.54000 386.151
44.55000 374.242
44.56000 373.873
44.57000 383.338
44.58000 392.674
44.59000 394.714
44.60000 392.539
44.61000 390.436
44.62000 392.860
44.63000 396.857
44.64000 400.141
44.65000 395.582
44.66000 388.860
44.67000 382.302
44.68000 376.845
44.69000 371.592
44.70000 367.223
44.71000 370.447
44.72000 373.859
44.73000 375.248
44.74000 370.528
44.75000 365.391
44.76000 362.579
44.77000 364.627
44.78000 366.828
44.79000 368.130
44.80000 375.857
44.81000 381.354
44.82000 382.277
44.83000 378.830
44.84000 375.405
44.85000 373.849
44.86000 373.491
44.87000 373.142
44.88000 370.782
44.89000 367.684
44.90000 365.010
44.91000 367.803
44.92000 372.268
44.93000 376.145
44.94000 375.552
44.95000 374.029
44.96000 372.737
44.97000 376.323
44.98000 379.883
44.99000 382.227
45.00000 380.510
45.01000 378.466
45.02000 375.754
45.03000 371.499
45.04000 367.181
45.05000 364.513
45.06000 375.882
45.07000 384.181
45.08000 385.420
45.09000 379.080
45.10000 372.784
45.11000 373.269
45.12000 378.583
45.13000 383.793
45.14000 386.594
45.15000 388.156
45.16000 389.436
45.17000 386.404
45.18000 381.910
45.19000 377.592
45.20000 374.794
45.21000 372.349
45.22000 370.237
45.23000 373.881
45.24000 377.724
45.25000 379.261
45.26000 372.245
45.27000 364.427
45.28000 360.977
45.29000 368.699
45.30000 376.978
45.31000 382.304
45.32000 374.824
45.33000 369.186
45.34000 366.133
45.35000 366.188
45.36000 366.257
45.37000 368.588
45.38000 372.712
45.39000 376.778
45.40000 380.698
45.41000 384.429
45.42000 387.581
45.43000 380.066
45.44000 368.555
45.45000 357.889
45.46000 355.687
45.47000 355.668
45.48000 355.652
45.49000 363.206
45.50000 370.828
45.51000 376.047
45.52000 371.363
45.53000 365.605
45.54000 363.270
45.55000 370.618
45.56000 378.554
45.57000 383.854
45.58000 374.412
45.59000 367.128
45.60000 362.425
45.61000 361.185
45.62000 359.966
45.63000 360.947
45.64000 363.882
45.65000 366.788
45.66000 368.160
45.67000 368.605
45.68000 369.038
45.69000 369.207
45.70000 369.268
45.71000 369.631
45.72000 373.503
45.73000 378.380
45.74000 382.736
45.75000 382.072
45.76000 380.648
45.77000 377.986
45.78000 369.647
45.79000 360.602
45.80000 354.908
45.81000 359.704
45.82000 365.260
45.83000 369.102
45.84000 361.404
45.85000 355.315
45.86000 354.762
45.87000 362.473
45.88000 370.263
45.89000 371.802
45.90000 367.114
45.91000 362.453
45.92000 364.302
45.93000 370.397
45.94000 376.155
45.95000 372.298
45.96000 364.035
45.97000 356.348
45.98000 356.512
45.99000 359.168
46.00000 361.575
46.01000 365.106
46.02000 368.434
46.03000 370.955
46.04000 369.331
46.05000 367.121
46.06000 365.517
46.07000 366.011
46.08000 366.684
46.09000 367.165
46.10000 365.842
46.11000 364.772
46.12000 362.822
46.13000 359.414
46.14000 355.983
46.15000 356.227
46.16000 360.581
46.17000 364.924
46.18000 366.525
46.19000 366.102
46.20000 365.682
46.21000 365.382
46.22000 365.143
46.23000 364.782
46.24000 362.427
46.25000 359.372
46.26000 356.564
46.27000 355.633
46.28000 355.205
46.29000 354.771
46.30000 354.299
46.31000 353.820
46.32000 354.831
46.33000 361.571
46.34000 368.879
46.35000 374.260
46.36000 363.735
46.37000 354.929
46.38000 350.286
46.39000 353.290
46.40000 356.459
46.41000 360.036
46.42000 364.122
46.43000 368.205
46.44000 372.926
46.45000 378.157
46.46000 383.282
46.47000 383.036
46.48000 379.776
46.49000 376.673
46.50000 376.672
46.51000 377.876
46.52000 378.996
46.53000 377.307
46.54000 375.102
46.55000 373.292
46.56000 374.045
46.57000 375.258
46.58000 376.090
46.59000 375.286
46.60000 374.296
46.61000 373.546
46.62000 378.174
46.63000 382.080
46.64000 383.027
46.65000 377.961
46.66000 372.720
46.67000 367.778
46.68000 363.252
46.69000 358.729
46.70000 355.798
46.71000 354.337
46.72000 352.929
46.73000 355.463
46.74000 360.449
46.75000 365.394
46.76000 369.319
46.77000 372.807
46.78000 376.090
46.79000 375.569
46.80000 374.061
46.81000 372.517
46.82000 370.715
46.83000 368.862
46.84000 367.490
46.85000 368.423
46.86000 369.655
46.87000 370.613
46.88000 365.201
46.89000 360.505
46.90000 357.203
46.91000 357.032
46.92000 356.979
46.93000 356.823
46.94000 356.506
46.95000 356.187
46.96000 356.025
46.97000 364.197
46.98000 369.622
46.99000 367.966
47.00000 361.420
47.01000 355.048
47.02000 354.102
47.03000 355.735
47.04000 357.287
47.05000 359.439
47.06000 361.611
47.07000 364.228
47.08000 370.566
47.09000 377.740
47.10000 382.438
47.11000 373.901
47.12000 363.410
47.13000 355.050
47.14000 373.608
47.15000 390.531
47.16000 398.324
47.17000 383.432
47.18000 367.472
47.19000 359.114
47.20000 363.825
47.21000 368.761
47.22000 371.419
47.23000 372.212
47.24000 372.745
47.25000 371.542
47.26000 369.004
47.27000 366.436
47.28000 362.630
47.29000 358.172
47.30000 353.894
47.31000 360.713
47.32000 370.863
47.33000 379.634
47.34000 375.154
47.35000 367.359
47.36000 360.156
47.37000 356.503
47.38000 353.443
47.39000 350.948
47.40000 357.268
47.41000 363.187
47.42000 367.551
47.43000 367.646
47.44000 367.495
47.45000 365.052
47.46000 358.245
47.47000 351.333
47.48000 347.418
47.49000 355.763
47.50000 361.591
47.51000 357.641
47.52000 345.292
47.53000 333.142
47.54000 332.504
47.55000 338.566
47.56000 344.432
47.57000 350.560
47.58000 356.449
47.59000 361.984
47.60000 363.586
47.61000 364.094
47.62000 364.701
47.63000 365.971
47.64000 367.366
47.65000 368.527
47.66000 368.615
47.67000 368.581
47.68000 369.261
47.69000 372.112
47.70000 375.112
47.71000 373.076
47.72000 360.433
47.73000 347.450
47.74000 339.745
47.75000 349.632
47.76000 356.731
47.77000 361.049
47.78000 362.690
47.79000 364.281
47.80000 361.488
47.81000 355.865
47.82000 350.384
47.83000 356.118
47.84000 366.355
47.85000 375.488
47.86000 370.246
47.87000 360.574
47.88000 351.529
47.89000 347.300
47.90000 344.080
47.91000 341.345
47.92000 352.152
47.93000 362.771
47.94000 370.303
47.95000 367.436
47.96000 363.723
47.97000 359.524
47.98000 354.194
47.99000 348.817
48.00000 345.485
48.01000 353.236
48.02000 358.917
48.03000 361.509
48.04000 360.755
48.05000 359.999
48.06000 359.038
48.07000 357.930
48.08000 356.843
48.09000 357.229
48.10000 358.298
48.11000 359.278
48.12000 358.863
48.13000 357.972
48.14000 356.485
48.15000 349.763
48.16000 341.819
48.17000 334.945
48.18000 344.830
48.19000 355.434
48.20000 363.124
48.21000 359.930
48.22000 355.702
48.23000 353.394
48.24000 356.030
48.25000 358.917
48.26000 360.779
48.27000 355.292
48.28000 351.178
48.29000 346.281
48.30000 340.436
48.31000 334.617
48.32000 338.458
48.33000 350.024
48.34000 361.430
48.35000 363.372
48.36000 360.247
48.37000 357.192
48.38000 355.456
48.39000 354.217
48.40000 353.661
48.41000 360.015
48.42000 368.165
48.43000 375.340
48.44000 373.448
48.45000 370.463
48.46000 366.714
48.47000 359.795
48.48000 352.529
48.49000 347.162
48.50000 347.206
48.51000 347.583
48.52000 347.835
48.53000 343.144
48.54000 339.565
48.55000 342.171
48.56000 353.140
48.57000 364.145
48.58000 364.343
48.59000 354.875
48.60000 345.495
48.61000 343.915
48.62000 346.982
48.63000 350.079
48.64000 353.868
48.65000 357.945
48.66000 362.019
48.67000 366.058
48.68000 370.086
48.69000 373.689
48.70000 373.940
48.71000 373.590
48.72000 373.846
48.73000 376.911
48.74000 380.329
48.75000 383.001
48.76000 383.326
48.77000 383.479
48.78000 383.584
48.79000 367.521
48.80000 354.999
48.81000 350.363
48.82000 357.584
48.83000 364.924
48.84000 363.506
48.85000 353.291
48.86000 343.134
48.87000 338.955
48.88000 338.786
48.89000 338.810
48.90000 344.429
48.91000 352.631
48.92000 360.051
48.93000 356.672
48.94000 349.841
48.95000 343.642
48.96000 346.299
48.97000 350.347
48.98000 354.350
48.99000 358.121
49.00000 361.858
49.01000 364.452
49.02000 363.053
49.03000 361.309
49.04000 360.061
49.05000 356.585
49.06000 353.855
49.07000 350.353
49.08000 345.563
49.09000 340.752
49.10000 340.483
49.11000 345.335
49.12000 350.178
49.13000 352.696
49.14000 353.476
49.15000 354.247
49.16000 354.686
49.17000 354.956
49.18000 355.221
49.19000 355.401
49.20000 355.551
49.21000 355.688
49.22000 357.847
49.23000 360.215
49.24000 362.074
49.25000 360.982
49.26000 359.415
49.27000 357.466
49.28000 354.037
49.29000 350.460
49.30000 347.821
49.31000 355.944
49.32000 362.692
49.33000 365.235
49.34000 360.000
49.35000 354.594
49.36000 354.027
49.37000 359.561
49.38000 365.109
49.39000 369.821
49.40000 373.825
49.41000 377.749
49.42000 377.509
49.43000 374.915
49.44000 372.226
49.45000 367.634
49.46000 362.298
49.47000 357.330
49.48000 356.790
49.49000 357.382
49.50000 357.897
49.51000 357.905
49.52000 357.821
49.53000 358.440
49.54000 362.095
49.55000 366.100
49.56000 369.138
49.57000 358.480
49.58000 349.399
49.59000 345.481
49.60000 352.126
49.61000 359.085
49.62000 363.569
49.63000 364.576
49.64000 365.559
49.65000 362.912
49.66000 356.887
49.67000 350.914
49.68000 348.918
49.69000 349.413
49.70000 349.875
49.71000 349.512
49.72000 348.792
49.73000 348.114
49.74000 353.453
49.75000 359.986
49.76000 365.320
49.77000 361.780
49.78000 356.439
49.79000 352.318
49.80000 354.074
49.81000 356.602
49.82000 358.571
49.83000 356.023
49.84000 353.714
49.85000 352.428
49.86000 353.456
49.87000 354.573
49.88000 354.698
49.89000 353.276
49.90000 351.836
49.91000 351.099
49.92000 356.341
49.93000 359.869
49.94000 364.194
49.95000 369.073
49.96000 373.684
49.97000 369.776
49.98000 361.793
49.99000 354.198
50.00000 358.401
50.01000 365.908
50.02000 372.297
50.03000 369.243
50.04000 364.050
50.05000 360.101
50.06000 362.855
50.07000 366.607
50.08000 369.602
50.09000 360.767
50.10000 352.765
50.11000 347.325
50.12000 348.297
50.13000 349.576
50.14000 352.855
50.15000 359.601
50.16000 366.408
50.17000 370.086
50.18000 369.886
50.19000 369.738
50.20000 367.818
50.21000 364.522
50.22000 361.292
50.23000 360.829
50.24000 361.831
50.25000 362.792
50.26000 364.030
50.27000 365.283
50.28000 366.257
50.29000 364.525
50.30000 362.112
50.31000 360.012
50.32000 359.810
50.33000 359.927
50.34000 360.022
50.35000 362.476
50.36000 364.688
50.37000 364.278
50.38000 356.611
50.39000 348.522
50.40000 346.370
50.41000 355.608
50.42000 365.126
50.43000 370.536
50.44000 374.109
50.45000 376.583
50.46000 372.088
50.47000 361.558
50.48000 351.188
50.49000 350.298
50.50000 354.968
50.51000 359.488
50.52000 362.199
50.53000 364.068
50.54000 365.859
50.55000 366.768
50.56000 367.431
50.57000 367.712
50.58000 365.382
50.59000 362.559
50.60000 360.204
50.61000 361.018
50.62000 362.010
50.63000 362.222
50.64000 360.048
50.65000 357.707
50.66000 358.325
50.67000 365.220
50.68000 372.320
50.69000 376.548
50.70000 377.449
50.71000 378.067
50.72000 377.961
50.73000 377.153
50.74000 376.306
50.75000 371.931
50.76000 365.261
50.77000 358.757
50.78000 360.084
50.79000 364.704
50.80000 369.367
50.81000 374.598
50.82000 380.006
50.83000 384.760
50.84000 384.447
50.85000 383.063
50.86000 381.885
50.87000 370.086
50.88000 358.947
50.89000 351.898
50.90000 358.732
50.91000 366.708
50.92000 373.692
50.93000 378.347
50.94000 382.905
50.95000 385.739
50.96000 374.531
50.97000 366.322
50.98000 362.837
50.99000 364.508
51.00000 366.207
51.01000 371.680
51.02000 379.883
51.03000 387.933
51.04000 383.322
51.05000 372.823
51.06000 362.495
51.07000 354.832
51.08000 348.086
51.09000 342.662
51.10000 348.960
51.11000 358.019
51.12000 365.867
51.13000 369.458
51.14000 371.949
51.15000 374.605
51.16000 377.882
51.17000 381.218
51.18000 381.836
51.19000 375.401
51.20000 368.604
51.21000 364.206
51.22000 373.427
51.23000 380.372
51.24000 379.827
51.25000 370.131
51.26000 360.428
51.27000 356.251
51.28000 356.529
51.29000 356.804
51.30000 359.161
51.31000 362.566
51.32000 365.952
51.33000 368.988
51.34000 371.891
51.35000 374.025
51.36000 368.308
51.37000 360.536
51.38000 353.686
51.39000 358.935
51.40000 365.287
51.41000 369.171
51.42000 362.724
51.43000 355.134
51.44000 350.037
51.45000 352.090
51.46000 354.589
51.47000 356.266
51.48000 363.535
51.49000 369.047
51.50000 372.292
51.51000 372.449
51.52000 372.588
51.53000 371.984
51.54000 370.709
51.55000 369.446
51.56000 367.926
51.57000 366.284
51.58000 364.724
51.59000 365.101
51.60000 366.292
51.61000 367.588
51.62000 370.125
51.63000 373.024
51.64000 375.619
51.65000 375.980
51.66000 375.913
51.67000 375.357
51.68000 372.525
51.69000 369.405
51.70000 367.027
51.71000 367.007
51.72000 367.162
51.73000 367.270
51.74000 362.555
51.75000 358.872
51.76000 358.912
51.77000 364.592
51.78000 370.330
51.79000 374.290
51.80000 376.448
51.81000 378.595
51.82000 376.800
51.83000 372.401
51.84000 368.167
51.85000 368.833
51.86000 371.777
51.87000 374.343
51.88000 371.630
51.89000 367.217
51.90000 363.208
51.91000 362.687
51.92000 362.904
51.93000 363.324
51.94000 364.798
51.95000 366.424
51.96000 369.239
51.97000 376.241
51.98000 383.608
51.99000 388.894
52.00000 371.526
52.01000 357.466
52.02000 352.583
52.03000 363.132
52.04000 373.926
52.05000 380.140
52.06000 381.145
52.07000 382.142
52.08000 380.995
52.09000 378.257
52.10000 375.543
52.11000 373.810
52.12000 372.582
52.13000 371.732
52.14000 377.218
52.15000 384.960
52.16000 392.088
52.17000 380.744
52.18000 366.558
52.19000 354.522
52.20000 355.065
52.21000 357.653
52.22000 360.862
52.23000 366.500
52.24000 372.383
52.25000 376.733
52.26000 363.677
52.27000 352.805
52.28000 348.061
52.29000 354.729
52.30000 361.656
52.31000 366.738
52.32000 369.475
52.33000 372.201
52.34000 375.650
52.35000 379.695
52.36000 383.697
52.37000 385.432
52.38000 385.877
52.39000 386.086
52.40000 381.518
52.41000 375.067
52.42000 369.054
52.43000 366.102
52.44000 364.183
52.45000 362.400
52.46000 361.515
52.47000 360.794
52.48000 361.846
52.49000 370.612
52.50000 380.273
52.51000 387.619
52.52000 379.118
52.53000 371.605
52.54000 367.296
52.55000 369.593
52.56000 372.090
52.57000 374.530
52.58000 376.889
52.59000 379.246
52.60000 381.865
52.61000 384.727
52.62000 387.545
52.63000 386.819
52.64000 383.855
52.65000 380.986
52.66000 380.508
52.67000 381.072
52.68000 381.604
52.69000 387.431
52.70000 394.227
52.71000 399.566
52.72000 394.020
52.73000 386.247
52.74000 379.878
52.75000 380.323
52.76000 381.671
52.77000 382.723
52.78000 378.067
52.79000 373.997
52.80000 370.997
52.81000 370.439
52.82000 369.975
52.83000 373.493
52.84000 383.274
52.85000 393.131
52.86000 398.195
52.87000 382.297
52.88000 371.660
52.89000 369.120
52.90000 372.258
52.91000 375.292
52.92000 374.943
52.93000 372.963
52.94000 371.078
52.95000 368.022
52.96000 364.830
52.97000 362.472
52.98000 367.222
52.99000 373.594
53.00000 379.096
53.01000 379.868
53.02000 379.929
53.03000 379.977
53.04000 382.921
53.05000 385.515
53.06000 386.226
53.07000 382.188
53.08000 377.919
53.09000 374.065
53.10000 370.933
53.11000 367.814
53.12000 366.122
53.13000 364.451
53.14000 363.307
53.15000 362.570
53.16000 362.150
53.17000 361.737
53.18000 361.665
53.19000 361.773
53.20000 361.877
53.21000 371.019
53.22000 382.702
53.23000 393.272
53.24000 392.935
53.25000 389.827
53.26000 386.580
53.27000 382.483
53.28000 378.243
53.29000 374.774
53.30000 378.233
53.31000 381.669
53.32000 384.000
53.33000 383.247
53.34000 382.313
53.35000 383.356
53.36000 388.221
53.37000 393.182
53.38000 396.011
53.39000 384.038
53.40000 375.646
53.41000 373.749
53.42000 377.523
53.43000 381.238
53.44000 381.407
53.45000 379.480
53.46000 377.614
53.47000 373.496
53.48000 368.728
53.49000 364.575
53.50000 367.401
53.51000 372.196
53.52000 376.096
53.53000 373.826
53.54000 370.382
53.55000 367.505
53.56000 380.509
53.57000 392.909
53.58000 402.013
53.59000 400.949
53.60000 399.167
53.61000 394.431
53.62000 383.385
53.63000 372.128
53.64000 365.404
53.65000 378.924
53.66000 388.641
53.67000 387.794
53.68000 376.598
53.69000 365.498
53.70000 363.307
53.71000 366.956
53.72000 370.515
53.73000 371.762
53.74000 371.955
53.75000 372.675
53.76000 380.426
53.77000 390.376
53.78000 398.922
53.79000 396.470
53.80000 391.677
53.81000 387.594
53.82000 383.903
53.83000 380.845
53.84000 378.976
53.85000 381.169
53.86000 383.701
53.87000 386.146
53.88000 388.387
53.89000 390.620
53.90000 392.012
53.91000 395.595
53.92000 398.201
53.93000 395.275
53.94000 386.261
53.95000 377.299
53.96000 377.550
53.97000 384.514
53.98000 391.351
53.99000 388.448
54.00000 380.954
54.01000 374.048
54.02000 376.483
54.03000 382.151
54.04000 386.714
54.05000 381.382
54.06000 373.702
54.07000 367.040
54.08000 372.379
54.09000 378.533
54.10000 383.582
54.11000 384.444
54.12000 384.901
54.13000 385.491
54.14000 386.429
54.15000 387.385
54.16000 388.005
54.17000 389.450
54.18000 390.520
54.19000 392.590
54.20000 395.890
54.21000 399.177
54.22000 396.255
54.23000 388.287
54.24000 380.424
54.25000 372.589
54.26000 364.978
54.27000 358.027
54.28000 363.724
54.29000 374.263
54.30000 383.940
54.31000 384.718
54.32000 383.148
54.33000 381.762
54.34000 379.730
54.35000 377.879
54.36000 378.426
54.37000 389.087
54.38000 400.877
54.39000 408.897
54.40000 406.020
54.41000 402.456
54.42000 400.056
54.43000 400.566
54.44000 401.006
54.45000 400.901
54.46000 400.050
54.47000 399.189
54.48000 390.148
54.49000 373.668
54.50000 357.333
54.51000 355.721
54.52000 362.992
54.53000 370.060
54.54000 372.305
54.55000 372.509
54.56000 373.034
54.57000 377.422
54.58000 382.941
54.59000 387.888
54.60000 382.755
54.61000 376.526
54.62000 372.249
54.63000 377.148
54.64000 383.220
54.65000 388.184
54.66000 389.604
54.67000 390.759
54.68000 391.563
54.69000 386.510
54.70000 382.537
54.71000 379.367
54.72000 377.422
54.73000 375.490
54.74000 380.953
54.75000 393.970
54.76000 406.919
54.77000 406.032
54.78000 395.856
54.79000 385.899
54.80000 382.512
54.81000 382.202
54.82000 382.419
54.83000 390.115
54.84000 400.237
54.85000 409.440
54.86000 406.272
54.87000 401.048
54.88000 396.714
54.89000 397.053
54.90000 398.072
54.91000 398.189
54.92000 395.110
54.93000 391.749
54.94000 389.332
54.95000 389.043
54.96000 388.897
54.97000 391.094
54.98000 397.263
54.99000 403.498
55.00000 403.979
55.01000 397.865
55.02000 391.761
55.03000 385.229
55.04000 378.419
55.05000 371.787
55.06000 372.223
55.07000 376.320
55.08000 380.184
55.09000 380.117
55.10000 378.639
55.11000 377.278
55.12000 385.629
55.13000 395.246
55.14000 402.456
55.15000 395.457
55.16000 386.130
55.17000 379.590
55.18000 384.027
55.19000 389.585
55.20000 393.703
55.21000 389.104
55.22000 385.156
55.23000 385.355
55.24000 393.339
55.25000 401.504
55.26000 403.385
55.27000 397.221
55.28000 391.032
55.29000 386.197
55.30000 382.517
55.31000 378.953
55.32000 381.818
55.33000 388.369
55.34000 394.825
55.35000 399.322
55.36000 403.042
55.37000 406.511
55.38000 405.186
55.39000 402.797
55.40000 400.124
55.41000 395.562
55.42000 390.652
55.43000 385.734
55.44000 380.779
55.45000 375.821
55.46000 372.044
55.47000 385.772
55.48000 397.507
55.49000 403.999
55.50000 399.606
55.51000 394.878
55.52000 392.649
55.53000 393.985
55.54000 395.348
55.55000 397.453
55.56000 400.261
55.57000 403.039
55.58000 403.463
55.59000 402.390
55.60000 401.277
55.61000 399.167
55.62000 396.619
55.63000 394.216
55.64000 402.072
55.65000 412.125
55.66000 420.357
55.67000 414.847
55.68000 406.502
55.69000 400.288
55.70000 404.495
55.71000 410.097
55.72000 414.477
55.73000 409.255
55.74000 404.479
55.75000 399.997
55.76000 396.191
55.77000 392.412
55.78000 390.684
55.79000 392.206
55.80000 393.769
55.81000 394.576
55.82000 390.946
55.83000 388.551
55.84000 393.238
55.85000 402.931
55.86000 412.437
55.87000 415.764
55.88000 416.094
55.89000 416.408
55.90000 411.041
55.91000 404.298
55.92000 398.800
55.93000 404.019
55.94000 411.703
55.95000 417.029
55.96000 409.437
55.97000 399.886
55.98000 392.236
55.99000 392.114
56.00000 392.582
56.01000 395.213
56.02000 403.335
56.03000 411.727
56.04000 412.308
56.05000 399.162
56.06000 385.760
56.07000 378.463
56.08000 389.238
56.09000 396.643
56.10000 400.008
56.11000 400.193
56.12000 400.521
56.13000 407.158
56.14000 417.182
56.15000 426.819
56.16000 421.957
56.17000 412.346
56.18000 403.436
56.19000 401.455
56.20000 401.248
56.21000 401.965
56.22000 408.368
56.23000 415.744
56.24000 421.786
56.25000 414.597
56.26000 407.537
56.27000 400.538
56.28000 393.709
56.29000 386.891
56.30000 383.350
56.31000 386.188
56.32000 389.190
56.33000 390.908
56.34000 400.319
56.35000 406.915
56.36000 410.862
56.37000 412.479
56.38000 414.071
56.39000 414.031
56.40000 413.022
56.41000 412.043
56.42000 406.888
56.43000 400.379
56.44000 394.518
56.45000 396.087
56.46000 399.769
56.47000 403.602
56.48000 408.490
56.49000 413.581
56.50000 417.839
56.51000 417.851
56.52000 417.426
56.53000 415.094
56.54000 406.831
56.55000 398.145
56.56000 393.431
56.57000 397.271
56.58000 401.400
56.59000 403.874
56.60000 411.159
56.61000 416.364
56.62000 417.634
56.63000 415.017
56.64000 412.430
56.65000 412.759
56.66000 415.015
56.67000 417.216
56.68000 413.607
56.69000 407.629
56.70000 401.694
56.71000 396.348
56.72000 391.188
56.73000 386.821
56.74000 388.721
56.75000 391.965
56.76000 394.733
56.77000 391.463
56.78000 387.999
56.79000 387.580
56.80000 397.646
56.81000 408.595
56.82000 416.140
56.83000 415.583
56.84000 414.678
56.85000 414.112
56.86000 407.648
56.87000 402.921
56.88000 402.963
56.89000 408.298
56.90000 413.596
56.91000 412.053
56.92000 405.485
56.93000 399.034
56.94000 396.866
56.95000 396.853
56.96000 396.997
56.97000 399.658
56.98000 403.197
56.99000 406.660
57.00000 409.429
57.01000 412.033
57.02000 414.295
57.03000 410.959
57.04000 407.359
57.05000 405.318
57.06000 409.234
57.07000 413.733
57.08000 417.024
57.09000 417.134
57.10000 417.076
57.11000 417.039
57.12000 412.078
57.13000 408.366
57.14000 411.969
57.15000 424.652
57.16000 437.332
57.17000 438.248
57.18000 429.528
57.19000 420.920
57.20000 418.954
57.21000 420.644
57.22000 422.171
57.23000 420.531
57.24000 417.671
57.25000 414.933
57.26000 413.469
57.27000 412.343
57.28000 411.349
57.29000 411.778
57.30000 412.367
57.31000 412.520
57.32000 410.821
57.33000 408.913
57.34000 406.543
57.35000 402.824
57.36000 399.020
57.37000 396.453
57.38000 404.355
57.39000 410.458
57.40000 416.216
57.41000 421.497
57.42000 426.773
57.43000 427.286
57.44000 423.434
57.45000 419.613
57.46000 417.334
57.47000 416.030
57.48000 414.859
57.49000 416.904
57.50000 420.321
57.51000 423.197
57.52000 419.481
57.53000 413.823
57.54000 408.746
57.55000 407.746
57.56000 407.584
57.57000 408.072
57.58000 411.641
57.59000 415.608
57.60000 418.090
57.61000 415.785
57.62000 413.117
57.63000 411.254
57.64000 416.824
57.65000 421.239
57.66000 425.333
57.67000 428.934
57.68000 432.530
57.69000 431.615
57.70000 426.051
57.71000 420.516
57.72000 418.355
57.73000 418.506
57.74000 418.782
57.75000 422.877
57.76000 428.773
57.77000 434.050
57.78000 430.442
57.79000 423.930
57.80000 418.004
57.81000 420.644
57.82000 424.672
57.83000 427.238
57.84000 422.053
57.85000 415.733
57.86000 410.974
57.87000 411.797
57.88000 413.115
57.89000 414.066
57.90000 413.648
57.91000 413.280
57.92000 416.243
57.93000 424.890
57.94000 433.633
57.95000 434.441
57.96000 426.078
57.97000 417.725
57.98000 416.076
57.99000 419.523
58.00000 422.980
58.01000 426.831
58.02000 430.888
58.03000 434.884
58.04000 437.826
58.05000 440.388
58.06000 442.751
58.07000 447.932
58.08000 453.201
58.09000 455.276
58.10000 438.343
58.11000 418.268
58.12000 403.420
58.13000 409.312
58.14000 417.343
58.15000 423.306
58.16000 431.679
58.17000 438.292
58.18000 441.693
58.19000 439.024
58.20000 436.211
58.21000 435.296
58.22000 436.831
58.23000 438.375
58.24000 439.751
58.25000 440.981
58.26000 442.140
58.27000 439.226
58.28000 433.961
58.29000 429.202
58.30000 435.078
58.31000 445.205
58.32000 454.660
58.33000 450.033
58.34000 442.319
58.35000 434.789
58.36000 428.506
58.37000 422.455
58.38000 417.889
58.39000 419.884
58.40000 422.657
58.41000 424.773
58.42000 433.110
58.43000 440.014
58.44000 445.997
58.45000 450.055
58.46000 454.052
58.47000 450.121
58.48000 434.792
58.49000 419.375
58.50000 415.614
58.51000 422.985
58.52000 430.324
58.53000 434.881
58.54000 437.656
58.55000 440.299
58.56000 439.475
58.57000 437.119
58.58000 434.895
58.59000 440.420
58.60000 447.660
58.61000 453.459
58.62000 448.280
58.63000 440.819
58.64000 434.356
58.65000 432.818
58.66000 431.946
58.67000 431.262
58.68000 426.736
58.69000 422.872
58.70000 421.841
58.71000 427.362
58.72000 433.147
58.73000 438.883
58.74000 444.543
58.75000 450.202
58.76000 453.132
58.77000 450.048
58.78000 447.990
58.79000 449.307
58.80000 453.029
58.81000 456.497
58.82000 451.402
58.83000 442.122
58.84000 433.275
58.85000 430.337
58.86000 429.469
58.87000 428.733
58.88000 429.141
58.89000 429.814
58.90000 430.397
58.91000 430.481
58.92000 430.488
58.93000 430.493
58.94000 428.604
58.95000 426.931
58.96000 427.590
58.97000 434.218
58.98000 441.143
58.99000 442.686
59.00000 434.699
59.01000 426.529
59.02000 422.064
59.03000 435.279
59.04000 444.373
59.05000 449.787
59.06000 452.282
59.07000 454.614
59.08000 449.560
59.09000 440.510
59.10000 431.805
59.11000 432.299
59.12000 435.994
59.13000 439.718
59.14000 443.738
59.15000 447.833
59.16000 451.325
59.17000 451.068
59.18000 450.165
59.19000 449.424
59.20000 440.332
59.21000 432.128
59.22000 428.574
59.23000 438.175
59.24000 448.574
59.25000 454.637
59.26000 452.200
59.27000 449.540
59.28000 448.012
59.29000 440.182
59.30000 434.690
59.31000 435.525
59.32000 441.974
59.33000 448.385
59.34000 452.376
59.35000 454.915
59.36000 457.377
59.37000 455.975
59.38000 453.130
59.39000 450.648
59.40000 452.384
59.41000 455.327
59.42000 457.888
59.43000 457.758
59.44000 457.109
59.45000 456.564
59.46000 455.180
59.47000 453.943
59.48000 451.884
59.49000 447.254
59.50000 442.438
59.51000 440.964
59.52000 446.734
59.53000 452.755
59.54000 456.374
59.55000 447.399
59.56000 440.932
59.57000 437.696
59.58000 437.678
59.59000 437.677
59.60000 439.283
59.61000 441.958
59.62000 444.570
59.63000 442.405
59.64000 438.240
59.65000 434.479
59.66000 436.241
59.67000 439.757
59.68000 442.801
59.69000 442.081
59.70000 440.547
59.71000 439.237
59.72000 441.406
59.73000 443.647
59.74000 446.224
59.75000 449.963
59.76000 453.801
59.77000 457.335
59.78000 460.138
59.79000 462.909
59.80000 464.647
59.81000 461.016
59.82000 458.334
59.83000 455.468
59.84000 452.395
59.85000 449.334
59.86000 448.582
59.87000 449.537
59.88000 450.475
59.89000 452.351
59.90000 454.622
59.91000 456.742
59.92000 456.396
59.93000 455.185
59.94000 454.167
59.95000 454.914
59.96000 456.086
59.97000 457.106
59.98000 458.588
59.99000 459.916
60.00000 461.471
60.01000 463.900
60.02000 466.415
60.03000 467.893
60.04000 466.619
60.05000 465.197
60.06000 464.270
60.07000 461.933
60.08000 460.197
60.09000 460.296
60.10000 462.691
60.11000 465.086
60.12000 463.746
60.13000 459.324
60.14000 454.957
60.15000 455.604
60.16000 458.975
60.17000 462.329
60.18000 465.334
60.19000 468.203
60.20000 470.540
60.21000 467.261
60.22000 462.478
60.23000 458.249
60.24000 462.996
60.25000 468.494
60.26000 472.839
60.27000 472.248
60.28000 471.094
60.29000 470.032
60.30000 469.239
60.31000 468.463
60.32000 467.938
60.33000 473.226
60.34000 477.291
60.35000 478.365
60.36000 475.270
60.37000 472.148
60.38000 474.267
60.39000 481.230
60.40000 488.135
60.41000 487.535
60.42000 482.362
60.43000 477.164
60.44000 471.392
60.45000 465.373
60.46000 459.828
60.47000 460.114
60.48000 462.131
60.49000 463.943
60.50000 463.716
60.51000 463.158
60.52000 462.244
60.53000 459.624
60.54000 456.782
60.55000 456.192
60.56000 462.913
60.57000 470.195
60.58000 475.292
60.59000 475.262
60.60000 475.094
60.61000 475.509
60.62000 476.828
60.63000 478.158
60.64000 474.914
60.65000 466.919
60.66000 458.962
60.67000 461.667
60.68000 471.624
60.69000 481.242
60.70000 480.237
60.71000 474.187
60.72000 468.576
60.73000 469.335
60.74000 472.190
60.75000 474.792
60.76000 472.041
60.77000 468.538
60.78000 466.242
60.79000 470.399
60.80000 475.508
60.81000 478.944
60.82000 476.353
60.83000 473.221
60.84000 470.958
60.85000 464.897
60.86000 460.111
60.87000 459.916
60.88000 467.614
60.89000 475.449
60.90000 478.780
60.91000 476.863
60.92000 474.943
60.93000 470.483
60.94000 464.107
60.95000 457.979
60.96000 462.123
60.97000 471.666
60.98000 480.544
60.99000 477.862
61.00000 470.970
61.01000 464.608
61.02000 472.814
61.03000 483.439
61.04000 493.665
61.05000 501.489
61.06000 508.913
61.07000 514.525
61.08000 512.889
61.09000 510.498
61.10000 508.719
61.11000 497.863
61.12000 489.012
61.13000 479.323
61.14000 468.039
61.15000 456.717
61.16000 457.487
61.17000 473.990
61.18000 490.547
61.19000 492.777
61.20000 482.720
61.21000 472.923
61.22000 478.194
61.23000 492.234
61.24000 505.427
61.25000 500.592
61.26000 488.499
61.27000 477.201
61.28000 479.430
61.29000 484.865
61.30000 490.424
61.31000 496.826
61.32000 503.387
61.33000 507.550
61.34000 501.042
61.35000 493.257
61.36000 487.304
61.37000 491.766
61.38000 495.852
61.39000 495.412
61.40000 485.436
61.41000 475.156
61.42000 468.408
61.43000 466.777
61.44000 465.189
61.45000 464.563
61.46000 464.863
61.47000 465.208
61.48000 469.380
61.49000 476.025
61.50000 482.458
61.51000 483.272
61.52000 481.583
61.53000 479.988
61.54000 484.419
61.55000 490.189
61.56000 495.135
61.57000 493.736
61.58000 491.009
61.59000 488.481
61.60000 486.944
61.61000 485.542
61.62000 484.442
61.63000 474.453
61.64000 465.887
61.65000 463.285
61.66000 474.579
61.67000 486.440
61.68000 495.851
61.69000 501.319
61.70000 506.734
61.71000 509.550
61.72000 498.874
61.73000 491.679
61.74000 487.467
61.75000 485.396
61.76000 483.563
61.77000 489.907
61.78000 500.277
61.79000 510.171
61.80000 504.740
61.81000 494.846
61.82000 485.364
61.83000 479.501
61.84000 474.482
61.85000 471.204
61.86000 477.616
61.87000 485.523
61.88000 491.878
61.89000 492.883
61.90000 493.287
61.91000 495.283
61.92000 501.382
61.93000 507.690
61.94000 511.813
61.95000 512.040
61.96000 512.191
61.97000 512.274
61.98000 514.994
61.99000 516.871
62.00000 518.939
62.01000 521.160
62.02000 523.112
62.03000 512.592
62.04000 495.273
62.05000 478.603
62.06000 479.794
62.07000 487.237
62.08000 493.610
62.09000 489.172
62.10000 481.924
62.11000 476.501
62.12000 482.513
62.13000 490.513
62.14000 497.087
62.15000 497.919
62.16000 498.086
62.17000 499.554
62.18000 504.731
62.19000 510.136
62.20000 510.488
62.21000 500.865
62.22000 490.973
62.23000 485.273
62.24000 497.361
62.25000 505.889
62.26000 510.836
62.27000 512.578
62.28000 514.296
62.29000 514.356
62.30000 513.414
62.31000 512.500
62.32000 503.293
62.33000 491.281
62.34000 480.411
62.35000 482.960
62.36000 489.381
62.37000 495.429
62.38000 498.839
62.39000 501.735
62.40000 504.164
62.41000 512.767
62.42000 520.571
62.43000 524.856
62.44000 518.038
62.45000 510.407
62.46000 506.696
62.47000 511.546
62.48000 516.696
62.49000 519.802
62.50000 517.619
62.51000 516.027
62.52000 513.438
62.53000 509.849
62.54000 506.317
62.55000 508.762
62.56000 515.213
62.57000 521.515
62.58000 523.363
62.59000 523.163
62.60000 522.932
62.61000 522.277
62.62000 521.486
62.63000 520.099
62.64000 513.909
62.65000 506.672
62.66000 500.482
62.67000 508.772
62.68000 517.504
62.69000 522.709
62.70000 515.588
62.71000 507.406
62.72000 504.150
62.73000 512.787
62.74000 521.950
62.75000 527.714
62.76000 515.971
62.77000 507.281
62.78000 504.364
62.79000 507.957
62.80000 511.512
62.81000 506.718
62.82000 495.697
62.83000 484.865
62.84000 485.540
62.85000 491.870
62.86000 498.269
62.87000 505.806
62.88000 513.746
62.89000 520.972
62.90000 521.612
62.91000 520.653
62.92000 519.819
62.93000 523.981
62.94000 528.223
62.95000 530.785
62.96000 526.831
62.97000 522.225
62.98000 517.517
62.99000 512.537
63.00000 507.541
63.01000 504.274
63.02000 508.207
63.03000 511.213
63.04000 514.650
63.05000 518.632
63.06000 522.613
63.07000 525.295
63.08000 526.895
63.09000 528.477
63.10000 526.216
63.11000 521.896
63.12000 517.785
63.13000 517.886
63.14000 519.635
63.15000 521.746
63.16000 527.719
63.17000 534.733
63.18000 540.944
63.19000 525.297
63.20000 508.337
63.21000 496.610
63.22000 507.474
63.23000 520.937
63.24000 528.641
63.25000 519.330
63.26000 508.904
63.27000 501.833
63.28000 509.459
63.29000 515.473
63.30000 525.117
63.31000 539.862
63.32000 554.637
63.33000 552.341
63.34000 534.135
63.35000 516.074
63.36000 514.996
63.37000 524.394
63.38000 533.138
63.39000 525.603
63.40000 511.026
63.41000 497.682
63.42000 499.673
63.43000 506.254
63.44000 512.171
63.45000 518.510
63.46000 524.137
63.47000 530.176
63.48000 538.201
63.49000 546.488
63.50000 552.152
63.51000 549.240
63.52000 545.662
63.53000 543.151
63.54000 538.869
63.55000 535.577
63.56000 529.621
63.57000 519.505
63.58000 509.340
63.59000 506.976
63.60000 512.785
63.61000 518.568
63.62000 524.918
63.63000 531.589
63.64000 538.128
63.65000 540.471
63.66000 540.806
63.67000 541.381
63.68000 545.462
63.69000 550.705
63.70000 555.487
63.71000 552.682
63.72000 548.671
63.73000 545.496
63.74000 546.823
63.75000 548.822
63.76000 549.625
63.77000 546.094
63.78000 542.169
63.79000 539.327
63.80000 541.374
63.81000 543.125
63.82000 543.109
63.83000 540.033
63.84000 536.901
63.85000 534.705
63.86000 533.605
63.87000 532.510
63.88000 538.422
63.89000 549.702
63.90000 560.759
63.91000 562.338
63.92000 558.901
63.93000 555.332
63.94000 549.445
63.95000 542.707
63.96000 536.481
63.97000 535.230
63.98000 535.234
63.99000 536.890
64.00000 548.548
64.01000 561.888
64.02000 570.814
64.03000 561.953
64.04000 551.220
64.05000 543.218
64.06000 543.138
64.07000 543.434
64.08000 544.630
64.09000 547.549
64.10000 550.511
64.11000 551.104
64.12000 548.593
64.13000 546.069
64.14000 550.065
64.15000 559.689
64.16000 569.182
64.17000 570.820
64.18000 567.852
64.19000 565.210
64.20000 569.595
64.21000 576.829
64.22000 583.594
64.23000 585.508
64.24000 586.013
64.25000 586.052
64.26000 582.907
64.27000 579.161
64.28000 576.284
64.29000 577.302
64.30000 578.792
64.31000 579.933
64.32000 583.503
64.33000 586.455
64.34000 591.133
64.35000 599.471
64.36000 607.927
64.37000 613.020
64.38000 613.201
64.39000 613.341
64.40000 610.410
64.41000 604.497
64.42000 598.673
64.43000 600.889
64.44000 608.334
64.45000 615.687
64.46000 620.528
64.47000 624.243
64.48000 627.754
64.49000 622.774
64.50000 615.779
64.51000 610.461
64.52000 618.161
64.53000 628.610
64.54000 635.983
64.55000 627.943
64.56000 617.783
64.57000 609.797
64.58000 611.174
64.59000 612.893
64.60000 612.719
64.61000 608.103
64.62000 603.302
64.63000 600.523
64.64000 601.020
64.65000 601.562
64.66000 601.845
64.67000 603.125
64.68000 603.989
64.69000 604.570
64.70000 604.946
64.71000 605.150
64.72000 599.305
64.73000 590.461
64.74000 582.018
64.75000 593.129
64.76000 609.693
64.77000 623.902
64.78000 617.221
64.79000 605.621
64.80000 593.246
64.81000 576.520
64.82000 559.116
64.83000 545.108
64.84000 563.606
64.85000 581.145
64.86000 593.217
64.87000 591.104
64.88000 588.262
64.89000 586.206
64.90000 585.561
64.91000 584.945
64.92000 584.605
64.93000 577.486
64.94000 572.594
64.95000 575.859
64.96000 585.701
64.97000 595.315
64.98000 594.085
64.99000 586.903
65.00000 579.986
65.01000 576.004
65.02000 573.312
65.03000 570.374
65.04000 564.925
65.05000 558.818
65.06000 554.302
65.07000 559.843
65.08000 567.147
65.09000 573.157
65.10000 566.629
65.11000 560.120
65.12000 556.543
65.13000 561.376
65.14000 566.733
65.15000 572.297
65.16000 578.271
65.17000 584.257
65.18000 587.717
65.19000 580.114
65.20000 574.742
65.21000 572.822
65.22000 574.016
65.23000 575.127
65.24000 570.577
65.25000 562.584
65.26000 554.824
65.27000 552.306
65.28000 552.008
65.29000 552.325
65.30000 559.950
65.31000 569.699
65.32000 578.260
65.33000 578.332
65.34000 576.736
65.35000 575.394
65.36000 573.772
65.37000 572.390
65.38000 570.887
65.39000 568.996
65.40000 567.076
65.41000 565.086
65.42000 562.943
65.43000 560.794
65.44000 559.494
65.45000 574.345
65.46000 585.048
65.47000 585.608
65.48000 575.894
65.49000 566.213
65.50000 560.197
65.51000 556.656
65.52000 553.196
65.53000 559.073
65.54000 568.865
65.55000 578.029
65.56000 578.396
65.57000 575.931
65.58000 573.591
65.59000 572.270
65.60000 571.172
65.61000 570.232
65.62000 569.459
65.63000 568.828
65.64000 570.456
65.65000 580.043
65.66000 590.323
65.67000 597.564
65.68000 597.415
65.69000 596.934
65.70000 596.630
65.71000 606.197
65.72000 613.239
65.73000 614.100
65.74000 607.934
65.75000 601.797
65.76000 603.118
65.77000 610.044
65.78000 616.854
65.79000 620.169
65.80000 621.636
65.81000 622.793
65.82000 618.765
65.83000 612.889
65.84000 606.835
65.85000 599.111
65.86000 590.978
65.87000 583.888
65.88000 591.021
65.89000 599.095
65.90000 603.705
65.91000 594.772
65.92000 584.471
65.93000 575.568
65.94000 570.426
65.95000 565.492
65.96000 562.256
65.97000 579.779
65.98000 593.010
65.99000 598.060
66.00000 592.712
66.01000 587.334
66.02000 585.780
66.03000 587.435
66.04000 589.070
66.05000 590.258
66.06000 591.170
66.07000 591.842
66.08000 587.637
66.09000 581.510
66.10000 575.815
66.11000 574.782
66.12000 575.016
66.13000 575.223
66.14000 576.234
66.15000 577.237
66.16000 578.908
66.17000 583.486
66.18000 588.402
66.19000 591.993
66.20000 591.643
66.21000 591.031
66.22000 590.615
66.23000 590.591
66.24000 590.583
66.25000 593.680
66.26000 601.177
66.27000 608.704
66.28000 612.090
66.29000 611.584
66.30000 611.082
66.31000 608.093
66.32000 603.613
66.33000 599.223
66.34000 597.133
66.35000 596.045
66.36000 595.380
66.37000 600.022
66.38000 606.265
66.39000 611.885
66.40000 602.344
66.41000 591.262
66.42000 581.032
66.43000 574.938
66.44000 569.392
66.45000 564.432
66.46000 561.403
66.47000 558.525
66.48000 556.502
66.49000 574.796
66.50000 589.254
66.51000 593.679
66.52000 582.317
66.53000 570.763
66.54000 561.810
66.55000 555.604
66.56000 549.427
66.57000 561.416
66.58000 585.888
66.59000 609.835
66.60000 616.703
66.61000 615.341
66.62000 613.607
66.63000 606.334
66.64000 597.211
66.65000 588.884
66.66000 588.619
66.67000 590.017
66.68000 591.392
66.69000 592.645
66.70000 593.880
66.71000 595.978
66.72000 601.232
66.73000 606.777
66.74000 610.799
66.75000 603.826
66.76000 598.057
66.77000 595.761
66.78000 599.527
66.79000 603.404
66.80000 603.903
66.81000 600.405
66.82000 596.907
66.83000 594.349
66.84000 592.536
66.85000 590.923
66.86000 597.979
66.87000 609.657
66.88000 620.730
66.89000 620.981
66.90000 617.233
66.91000 613.767
66.92000 617.695
66.93000 622.909
66.94000 626.920
66.95000 623.581
66.96000 618.996
66.97000 614.534
66.98000 610.573
66.99000 606.664
67.00000 603.744
67.01000 599.576
67.02000 596.269
67.03000 595.128
67.04000 598.168
67.05000 601.315
67.06000 602.402
67.07000 600.768
67.08000 599.122
67.09000 598.367
67.10000 598.390
67.11000 598.418
67.12000 598.769
67.13000 599.311
67.14000 600.067
67.15000 605.525
67.16000 612.904
67.17000 619.809
67.18000 617.624
67.19000 613.308
67.20000 609.109
67.21000 605.717
67.22000 602.479
67.23000 601.625
67.24000 611.554
67.25000 622.797
67.26000 631.427
67.27000 620.228
67.28000 610.268
67.29000 605.074
67.30000 610.063
67.31000 615.391
67.32000 616.105
67.33000 610.031
67.34000 603.897
67.35000 600.861
67.36000 600.860
67.37000 600.896
67.38000 604.434
67.39000 610.267
67.40000 615.909
67.41000 616.293
67.42000 614.303
67.43000 612.420
67.44000 610.623
67.45000 608.996
67.46000 607.448
67.47000 606.523
67.48000 605.731
67.49000 605.167
67.50000 605.753
67.51000 606.498
67.52000 607.085
67.53000 620.596
67.54000 632.284
67.55000 637.488
67.56000 627.367
67.57000 616.600
67.58000 611.463
67.59000 615.522
67.60000 619.711
67.61000 621.906
67.62000 622.259
67.63000 622.490
67.64000 621.614
67.65000 619.930
67.66000 618.308
67.67000 618.910
67.68000 620.623
67.69000 622.259
67.70000 625.132
67.71000 628.201
67.72000 630.360
67.73000 624.361
67.74000 616.426
67.75000 609.953
67.76000 611.756
67.77000 614.859
67.78000 617.361
67.79000 623.130
67.80000 628.072
67.81000 631.468
67.82000 630.824
67.83000 629.969
67.84000 629.620
67.85000 630.188
67.86000 630.774
67.87000 631.098
67.88000 636.562
67.89000 640.328
67.90000 639.348
67.91000 634.513
67.92000 629.750
67.93000 628.510
67.94000 629.218
67.95000 629.900
67.96000 627.235
67.97000 623.526
67.98000 620.744
67.99000 627.534
68.00000 636.849
68.01000 645.146
68.02000 646.948
68.03000 647.602
68.04000 648.141
68.05000 634.572
68.06000 622.106
68.07000 616.826
68.08000 632.317
68.09000 649.119
68.10000 656.882
68.11000 646.539
68.12000 635.690
68.13000 629.396
68.14000 633.904
68.15000 637.111
68.16000 638.315
68.17000 637.696
68.18000 637.053
68.19000 634.690
68.20000 631.272
68.21000 627.953
68.22000 625.760
68.23000 624.129
68.24000 622.247
68.25000 617.331
68.26000 611.527
68.27000 607.334
68.28000 614.762
68.29000 624.493
68.30000 632.680
68.31000 638.122
68.32000 642.367
68.33000 647.127
68.34000 653.538
68.35000 660.072
68.36000 665.072
68.37000 666.672
68.38000 668.148
68.39000 669.044
68.40000 653.090
68.41000 641.578
68.42000 636.257
68.43000 637.261
68.44000 638.307
68.45000 644.063
68.46000 653.024
68.47000 661.787
68.48000 664.845
68.49000 665.216
68.50000 665.431
68.51000 663.424
68.52000 660.697
68.53000 658.089
68.54000 656.457
68.55000 655.042
68.56000 653.828
68.57000 664.319
68.58000 674.617
68.59000 683.181
68.60000 685.594
68.61000 687.466
68.62000 689.647
68.63000 692.589
68.64000 695.565
68.65000 697.448
68.66000 684.288
68.67000 674.569
68.68000 680.108
68.69000 703.139
68.70000 726.113
68.71000 732.728
68.72000 726.952
68.73000 721.270
68.74000 715.434
68.75000 709.708
68.76000 704.484
68.77000 707.784
68.78000 714.143
68.79000 720.118
68.80000 722.482
68.81000 723.955
68.82000 725.241
68.83000 753.173
68.84000 780.809
68.85000 809.336
68.86000 841.365
68.87000 873.753
68.88000 916.714
68.89000 988.319
68.90000 1061.527
68.91000 1109.666
68.92000 1620.852
68.93000 2005.083
68.94000 2381.825
68.95000 2748.976
68.96000 3115.827
68.97000 3330.192
68.98000 3415.635
68.99000 3500.102
69.00000 3470.045
69.01000 3376.588
69.02000 3283.795
69.03000 3204.723
69.04000 3131.099
69.05000 3057.365
69.06000 2982.436
69.07000 2907.180
69.08000 2840.397
69.09000 2872.069
69.10000 2915.230
69.11000 2965.149
69.12000 3044.690
69.13000 3127.707
69.14000 3157.573
69.15000 3028.135
69.16000 2887.985
69.17000 2792.457
69.18000 2558.750
69.19000 2380.899
69.20000 2241.130
69.21000 2155.695
69.22000 2070.674
69.23000 2000.683
69.24000 1944.933
69.25000 1889.593
69.26000 1845.730
69.27000 1809.769
69.28000 1774.029
69.29000 1743.992
69.30000 1716.458
69.31000 1685.745
69.32000 1614.555
69.33000 1531.072
69.34000 1455.852
69.35000 1302.944
69.36000 1154.734
69.37000 1020.253
69.38000 952.928
69.39000 894.592
69.40000 845.184
69.41000 825.412
69.42000 807.998
69.43000 795.725
69.44000 795.363
69.45000 795.445
69.46000 787.336
69.47000 766.242
69.48000 744.984
69.49000 738.854
69.50000 748.837
69.51000 758.782
69.52000 759.891
69.53000 754.808
69.54000 749.763
69.55000 745.974
69.56000 742.793
69.57000 739.452
69.58000 733.683
69.59000 727.097
69.60000 721.080
69.61000 735.594
69.62000 752.680
69.63000 764.824
69.64000 749.896
69.65000 730.862
69.66000 718.457
69.67000 730.458
69.68000 744.726
69.69000 755.101
69.70000 756.126
69.71000 756.560
69.72000 758.272
69.73000 762.229
69.74000 766.227
69.75000 765.911
69.76000 760.446
69.77000 754.982
69.78000 754.005
69.79000 756.549
69.80000 759.032
69.81000 758.864
69.82000 757.271
69.83000 756.090
69.84000 762.367
69.85000 771.421
69.86000 779.801
69.87000 772.980
69.88000 763.352
69.89000 755.695
69.90000 760.182
69.91000 766.745
69.92000 772.083
69.93000 772.407
69.94000 772.193
69.95000 772.032
69.96000 759.177
69.97000 748.554
69.98000 745.453
69.99000 756.993
70.00000 768.910
