20.00000 560.904
20.01000 561.728
20.02000 562.670
20.03000 563.245
20.04000 562.357
20.05000 561.316
20.06000 560.542
20.07000 563.951
20.08000 566.789
20.09000 567.903
20.10000 565.734
20.11000 563.484
20.12000 563.405
20.13000 566.146
20.14000 568.898
20.15000 571.203
20.16000 573.121
20.17000 575.001
20.18000 574.655
20.19000 573.014
20.20000 571.390
20.21000 570.125
20.22000 569.004
20.23000 567.957
20.24000 566.217
20.25000 564.464
20.26000 562.490
20.27000 559.030
20.28000 555.291
20.29000 552.790
20.30000 555.799
20.31000 559.467
20.32000 562.271
20.33000 566.402
20.34000 569.733
20.35000 570.898
20.36000 567.503
20.37000 563.961
20.38000 564.235
20.39000 570.035
20.40000 575.880
20.41000 572.342
20.42000 559.770
20.43000 547.338
20.44000 547.198
20.45000 554.991
20.46000 562.720
20.47000 568.741
20.48000 574.001
20.49000 578.970
20.50000 578.354
20.51000 576.208
20.52000 574.225
20.53000 573.484
20.54000 573.004
20.55000 572.761
20.56000 573.695
20.57000 574.790
20.58000 575.649
20.59000 569.995
20.60000 565.050
20.61000 562.722
20.62000 566.490
20.63000 570.507
20.64000 569.191
20.65000 559.298
20.66000 549.290
20.67000 544.087
20.68000 554.629
20.69000 561.717
20.70000 563.351
20.71000 561.073
20.72000 558.957
20.73000 562.393
20.74000 568.563
20.75000 574.449
20.76000 571.292
20.77000 565.499
20.78000 559.853
20.79000 555.506
20.80000 551.462
20.81000 548.750
20.82000 553.456
20.83000 559.307
20.84000 564.007
20.85000 561.883
20.86000 559.636
20.87000 556.968
20.88000 553.216
20.89000 549.410
20.90000 549.783
20.91000 557.606
20.92000 565.576
20.93000 569.947
20.94000 568.167
20.95000 566.935
20.96000 566.152
20.97000 565.728
20.98000 565.222
20.99000 560.906
21.00000 554.513
21.01000 548.360
21.02000 555.239
21.03000 566.307
21.04000 575.538
21.05000 566.190
21.06000 552.015
21.07000 540.900
21.08000 548.948
21.09000 560.326
21.10000 569.675
21.11000 565.467
21.12000 560.791
21.13000 557.566
21.14000 558.476
21.15000 559.641
21.16000 561.011
21.17000 562.788
21.18000 564.576
21.19000 565.606
21.20000 563.889
21.21000 562.678
21.22000 563.571
21.23000 566.343
21.24000 569.044
21.25000 567.015
21.26000 562.129
21.27000 557.389
21.28000 554.967
21.29000 553.588
21.30000 552.247
21.31000 551.367
21.32000 550.620
21.33000 549.644
21.34000 547.055
21.35000 544.150
21.36000 541.713
21.37000 552.932
21.38000 563.694
21.39000 571.241
21.40000 568.649
21.41000 565.314
21.42000 564.719
21.43000 570.105
21.44000 575.701
21.45000 579.074
21.46000 567.228
21.47000 558.688
21.48000 554.023
21.49000 553.249
21.50000 552.499
21.51000 554.202
21.52000 557.550
21.53000 560.820
21.54000 563.165
21.55000 565.001
21.56000 566.235
21.57000 559.142
21.58000 549.388
21.59000 541.501
21.60000 548.650
21.61000 559.075
21.62000 567.990
21.63000 564.248
21.64000 559.572
21.65000 558.081
21.66000 567.717
21.67000 578.310
21.68000 585.758
21.69000 585.615
21.70000 585.136
21.71000 584.835
21.72000 587.952
21.73000 590.245
21.74000 593.009
21.75000 596.305
21.76000 599.617
21.77000 605.940
21.78000 614.508
21.79000 622.929
21.80000 626.504
21.81000 627.568
21.82000 628.982
21.83000 636.170
21.84000 645.399
21.85000 654.880
21.86000 666.679
21.87000 679.040
21.88000 689.804
21.89000 695.617
21.90000 699.900
21.91000 706.849
21.92000 724.139
21.93000 742.462
21.94000 756.328
21.95000 758.296
21.96000 759.617
21.97000 760.481
21.98000 777.508
21.99000 790.277
22.00000 805.209
22.01000 822.868
22.02000 840.497
22.03000 839.058
22.04000 821.760
22.05000 804.670
22.06000 807.775
22.07000 821.927
22.08000 835.441
22.09000 836.173
22.10000 831.904
22.11000 827.037
22.12000 815.794
22.13000 802.830
22.14000 791.353
22.15000 782.779
22.16000 775.817
22.17000 769.028
22.18000 762.981
22.19000 757.019
22.20000 751.487
22.21000 747.229
22.22000 743.053
22.23000 740.221
22.24000 726.213
22.25000 715.519
22.26000 703.436
22.27000 689.401
22.28000 675.353
22.29000 663.044
22.30000 652.354
22.31000 641.748
22.32000 636.549
22.33000 634.768
22.34000 632.837
22.35000 627.177
22.36000 619.905
22.37000 613.368
22.38000 615.983
22.39000 621.336
22.40000 626.149
22.41000 618.643
22.42000 609.881
22.43000 600.593
22.44000 588.775
22.45000 576.625
22.46000 568.090
22.47000 571.374
22.48000 575.576
22.49000 578.524
22.50000 573.286
22.51000 569.085
22.52000 562.960
22.53000 553.832
22.54000 544.668
22.55000 540.756
22.56000 542.345
22.57000 543.927
22.58000 548.285
22.59000 554.507
22.60000 560.269
22.61000 551.410
22.62000 535.557
22.63000 521.259
22.64000 529.796
22.65000 545.900
22.66000 560.585
22.67000 556.545
22.68000 549.203
22.69000 541.867
22.70000 534.567
22.71000 527.272
22.72000 523.338
22.73000 531.592
22.74000 540.954
22.75000 547.731
22.76000 541.274
22.77000 535.832
22.78000 529.994
22.79000 523.471
22.80000 516.936
22.81000 515.626
22.82000 520.449
22.83000 525.271
22.84000 525.744
22.85000 522.864
22.86000 520.157
22.87000 524.813
22.88000 533.366
22.89000 541.209
22.90000 536.527
22.91000 527.254
22.92000 518.686
22.93000 514.812
22.94000 512.398
22.95000 510.943
22.96000 515.286
22.97000 520.605
22.98000 524.054
22.99000 519.975
23.00000 515.104
23.01000 511.473
23.02000 512.449
23.03000 513.417
23.04000 515.893
23.05000 521.257
23.06000 526.693
23.07000 526.657
23.08000 519.449
23.09000 512.214
23.10000 511.707
23.11000 517.015
23.12000 522.260
23.13000 523.738
23.14000 523.009
23.15000 522.251
23.16000 520.877
23.17000 519.252
23.18000 517.732
23.19000 515.951
23.20000 514.267
23.21000 513.083
23.22000 515.316
23.23000 518.194
23.24000 519.203
23.25000 511.835
23.26000 503.455
23.27000 497.035
23.28000 511.685
23.29000 524.413
23.30000 531.586
23.31000 526.980
23.32000 521.988
23.33000 519.663
23.34000 521.228
23.35000 522.826
23.36000 520.868
23.37000 515.458
23.38000 510.079
23.39000 507.532
23.40000 506.827
23.41000 506.155
23.42000 506.385
23.43000 507.020
23.44000 507.620
23.45000 503.110
23.46000 497.511
23.47000 492.420
23.48000 491.260
23.49000 490.930
23.50000 491.576
23.51000 497.108
23.52000 503.311
23.53000 508.186
23.54000 496.477
23.55000 486.012
23.56000 479.677
23.57000 483.030
23.58000 486.785
23.59000 491.657
23.60000 498.337
23.61000 505.042
23.62000 508.542
23.63000 508.727
23.64000 508.848
23.65000 508.493
23.66000 507.795
23.67000 507.082
23.68000 505.856
23.69000 504.376
23.70000 502.963
23.71000 503.091
23.72000 503.701
23.73000 503.854
23.74000 499.953
23.75000 495.098
23.76000 490.620
23.77000 488.252
23.78000 486.213
23.79000 484.572
23.80000 492.801
23.81000 500.245
23.82000 504.622
23.83000 501.041
23.84000 497.052
23.85000 493.364
23.86000 490.218
23.87000 487.082
23.88000 485.356
23.89000 501.102
23.90000 511.946
23.91000 511.505
23.92000 501.970
23.93000 492.599
23.94000 491.006
23.95000 493.682
23.96000 496.259
23.97000 497.970
23.98000 499.267
23.99000 500.353
24.00000 499.282
24.01000 497.647
24.02000 496.743
24.03000 500.453
24.04000 504.972
24.05000 508.691
24.06000 496.250
24.07000 484.552
24.08000 476.773
24.09000 480.240
24.10000 484.407
24.11000 487.910
24.12000 490.091
24.13000 492.236
24.14000 493.476
24.15000 491.244
24.16000 489.664
24.17000 487.011
24.18000 483.389
24.19000 479.886
24.20000 484.455
24.21000 493.935
24.22000 503.136
24.23000 505.013
24.24000 503.872
24.25000 502.350
24.26000 496.293
24.27000 488.919
24.28000 482.443
24.29000 482.392
24.30000 483.604
24.31000 484.622
24.32000 485.124
24.33000 485.489
24.34000 486.053
24.35000 487.248
24.36000 488.490
24.37000 490.901
24.38000 495.882
24.39000 500.955
24.40000 504.023
24.41000 500.214
24.42000 497.449
24.43000 490.145
24.44000 478.243
24.45000 466.452
24.46000 466.618
24.47000 474.858
24.48000 482.911
24.49000 483.843
24.50000 481.564
24.51000 479.434
24.52000 479.386
24.53000 480.008
24.54000 480.757
24.55000 482.542
24.56000 484.554
24.57000 486.278
24.58000 490.430
24.59000 494.229
24.60000 495.772
24.61000 489.371
24.62000 482.280
24.63000 479.379
24.64000 486.667
24.65000 494.413
24.66000 499.299
24.67000 487.043
24.68000 477.970
24.69000 476.934
24.70000 485.033
24.71000 493.097
24.72000 492.149
24.73000 484.431
24.74000 476.843
24.75000 472.673
24.76000 470.341
24.77000 467.897
24.78000 463.590
24.79000 458.621
24.80000 455.571
24.81000 470.414
24.82000 489.632
24.83000 506.387
24.84000 498.411
24.85000 488.158
24.86000 480.271
24.87000 481.627
24.88000 483.916
24.89000 486.681
24.90000 490.724
24.91000 494.837
24.92000 497.534
24.93000 497.146
24.94000 496.810
24.95000 495.559
24.96000 493.147
24.97000 490.730
24.98000 487.597
24.99000 483.863
25.00000 480.173
25.01000 481.679
25.02000 486.033
25.03000 490.016
25.04000 486.466
25.05000 479.947
25.06000 473.575
25.07000 468.781
25.08000 464.416
25.09000 460.547
25.10000 454.066
25.11000 448.042
25.12000 444.515
25.13000 451.842
25.14000 460.431
25.15000 467.752
25.16000 471.299
25.17000 474.596
25.18000 476.837
25.19000 480.561
25.20000 483.375
25.21000 481.765
25.22000 473.894
25.23000 465.980
25.24000 463.310
25.25000 465.565
25.26000 467.803
25.27000 472.248
25.28000 477.986
25.29000 483.476
25.30000 482.685
25.31000 479.158
25.32000 476.070
25.33000 478.514
25.34000 482.626
25.35000 486.326
25.36000 486.736
25.37000 486.506
25.38000 485.414
25.39000 480.147
25.40000 474.325
25.41000 468.503
25.42000 462.676
25.43000 456.849
25.44000 452.752
25.45000 461.665
25.46000 468.800
25.47000 472.671
25.48000 471.408
25.49000 470.082
25.50000 469.039
25.51000 468.295
25.52000 467.554
25.53000 466.616
25.54000 465.551
25.55000 464.527
25.56000 464.846
25.57000 465.811
25.58000 466.834
25.59000 468.717
25.60000 470.887
25.61000 472.868
25.62000 469.305
25.63000 465.021
25.64000 461.989
25.65000 465.759
25.66000 470.551
25.67000 473.979
25.68000 472.421
25.69000 470.405
25.70000 468.943
25.71000 471.556
25.72000 473.715
25.73000 474.005
25.74000 471.033
25.75000 468.002
25.76000 465.631
25.77000 464.043
25.78000 462.459
25.79000 463.705
25.80000 467.143
25.81000 470.608
25.82000 475.205
25.83000 480.406
25.84000 485.046
25.85000 479.656
25.86000 470.562
25.87000 462.153
25.88000 458.406
25.89000 456.104
25.90000 454.545
25.91000 457.520
25.92000 461.262
25.93000 465.155
25.94000 469.658
25.95000 474.225
25.96000 477.637
25.97000 468.733
25.98000 461.226
25.99000 458.574
26.00000 465.298
26.01000 472.258
26.02000 472.141
26.03000 462.675
26.04000 453.172
26.05000 451.693
26.06000 457.207
26.07000 462.693
26.08000 466.369
26.09000 468.978
26.10000 471.578
26.11000 473.998
26.12000 476.343
26.13000 478.538
26.14000 474.621
26.15000 469.495
26.16000 465.043
26.17000 465.239
26.18000 466.320
26.19000 466.827
26.20000 464.746
26.21000 462.350
26.22000 460.510
26.23000 465.027
26.24000 468.952
26.25000 470.982
26.26000 468.966
26.27000 466.816
26.28000 461.209
26.29000 450.521
26.30000 439.788
26.31000 438.996
26.32000 447.937
26.33000 456.840
26.34000 462.099
26.35000 464.970
26.36000 467.616
26.37000 464.059
26.38000 457.701
26.39000 451.686
26.40000 446.242
26.41000 441.403
26.42000 438.144
26.43000 447.269
26.44000 459.028
26.45000 467.382
26.46000 458.543
26.47000 447.319
26.48000 438.483
26.49000 440.964
26.50000 443.706
26.51000 446.504
26.52000 449.435
26.53000 452.371
26.54000 454.656
26.55000 455.877
26.56000 457.083
26.57000 457.715
26.58000 454.198
26.59000 451.833
26.60000 452.466
26.61000 455.282
26.62000 458.009
26.63000 457.525
26.64000 455.437
26.65000 453.443
26.66000 448.853
26.67000 443.752
26.68000 440.016
26.69000 448.500
26.70000 459.883
26.71000 468.582
26.72000 462.096
26.73000 453.226
26.74000 446.075
26.75000 442.462
26.76000 439.806
26.77000 438.752
26.78000 441.887
26.79000 445.240
26.80000 443.643
26.81000 433.092
26.82000 422.357
26.83000 416.426
26.84000 438.587
26.85000 453.902
26.86000 461.161
26.87000 461.877
26.88000 462.447
26.89000 455.961
26.90000 445.575
26.91000 435.566
26.92000 437.092
26.93000 442.677
26.94000 448.016
26.95000 450.824
26.96000 452.963
26.97000 454.213
26.98000 449.790
26.99000 444.366
27.00000 439.895
27.01000 441.942
27.02000 444.227
27.03000 446.177
27.04000 447.162
27.05000 448.086
27.06000 448.656
27.07000 448.517
27.08000 448.358
27.09000 448.266
27.10000 456.905
27.11000 462.998
27.12000 459.136
27.13000 446.225
27.14000 433.506
27.15000 434.312
27.16000 443.405
27.17000 452.236
27.18000 453.125
27.19000 450.777
27.20000 448.064
27.21000 440.975
27.22000 432.605
27.23000 425.662
27.24000 429.001
27.25000 434.378
27.26000 438.901
27.27000 444.749
27.28000 449.767
27.29000 451.988
27.30000 445.267
27.31000 437.874
27.32000 432.504
27.33000 431.611
27.34000 430.881
27.35000 430.439
27.36000 439.719
27.37000 446.414
27.38000 446.876
27.39000 440.973
27.40000 435.105
27.41000 433.107
27.42000 433.744
27.43000 434.366
27.44000 435.497
27.45000 436.809
27.46000 437.956
27.47000 436.757
27.48000 434.797
27.49000 433.067
27.50000 433.226
27.51000 433.802
27.52000 434.297
27.53000 437.595
27.54000 440.725
27.55000 443.106
27.56000 442.831
27.57000 442.323
27.58000 440.900
27.59000 437.238
27.60000 433.474
27.61000 431.093
27.62000 426.019
27.63000 422.308
27.64000 423.156
27.65000 429.227
27.66000 435.303
27.67000 441.318
27.68000 447.287
27.69000 453.158
27.70000 450.287
27.71000 443.128
27.72000 436.377
27.73000 436.528
27.74000 439.157
27.75000 441.392
27.76000 439.931
27.77000 437.559
27.78000 435.488
27.79000 434.676
27.80000 434.158
27.81000 434.128
27.82000 436.019
27.83000 438.105
27.84000 440.649
27.85000 444.431
27.86000 448.281
27.87000 450.813
27.88000 438.445
27.89000 429.087
27.90000 423.679
27.91000 423.331
27.92000 423.007
27.93000 425.565
27.94000 430.559
27.95000 435.496
27.96000 434.328
27.97000 429.771
27.98000 425.509
27.99000 427.342
28.00000 431.593
28.01000 435.553
28.02000 436.350
28.03000 436.282
28.04000 436.220
28.05000 431.321
28.06000 426.305
28.07000 423.363
28.08000 429.512
28.09000 436.728
28.10000 441.452
28.11000 438.709
28.12000 435.465
28.13000 433.253
28.14000 427.932
28.15000 423.884
28.16000 423.362
28.17000 427.869
28.18000 432.415
28.19000 434.751
28.20000 434.996
28.21000 435.239
28.22000 438.114
28.23000 442.587
28.24000 446.832
28.25000 445.182
28.26000 440.945
28.27000 437.077
28.28000 437.890
28.29000 440.125
28.30000 442.138
28.31000 439.067
28.32000 435.453
28.33000 432.026
28.34000 429.512
28.35000 427.121
28.36000 425.345
28.37000 425.608
28.38000 426.034
28.39000 426.334
28.40000 430.995
28.41000 434.661
28.42000 437.664
28.43000 439.614
28.44000 441.550
28.45000 440.770
28.46000 437.095
28.47000 433.436
28.48000 427.255
28.49000 419.374
28.50000 411.775
28.51000 413.499
28.52000 419.746
28.53000 425.483
28.54000 423.516
28.55000 418.958
28.56000 414.794
28.57000 416.168
28.58000 418.519
28.59000 420.421
28.60000 419.868
28.61000 418.943
28.62000 419.137
28.63000 423.452
28.64000 428.149
28.65000 431.563
28.66000 429.797
28.67000 428.242
28.68000 427.727
28.69000 429.037
28.70000 430.381
28.71000 430.765
28.72000 430.005
28.73000 429.244
28.74000 429.461
28.75000 430.444
28.76000 431.367
28.77000 429.661
28.78000 426.544
28.79000 423.470
28.80000 421.188
28.81000 419.202
28.82000 417.363
28.83000 417.226
28.84000 417.493
28.85000 417.682
28.86000 417.388
28.87000 417.013
28.88000 417.323
28.89000 420.440
28.90000 423.859
28.91000 426.417
28.92000 426.255
28.93000 426.002
28.94000 424.591
28.95000 420.928
28.96000 417.207
28.97000 412.013
28.98000 404.860
28.99000 397.701
29.00000 399.305
29.01000 408.605
29.02000 417.809
29.03000 420.924
29.04000 420.418
29.05000 419.721
29.06000 414.806
29.07000 408.154
29.08000 401.925
29.09000 408.055
29.10000 416.824
29.11000 424.588
29.12000 425.366
29.13000 424.804
29.14000 422.474
29.15000 412.093
29.16000 400.722
29.17000 391.977
29.18000 400.843
29.19000 408.852
29.20000 415.568
29.21000 419.496
29.22000 423.330
29.23000 422.219
29.24000 413.785
29.25000 405.283
29.26000 401.690
29.27000 402.945
29.28000 404.252
29.29000 410.586
29.30000 420.237
29.31000 429.405
29.32000 425.014
29.33000 414.457
29.34000 404.463
29.35000 400.108
29.36000 397.735
29.37000 396.619
29.38000 405.431
29.39000 416.373
29.40000 424.768
29.41000 420.200
29.42000 413.817
29.43000 408.783
29.44000 417.407
29.45000 425.245
29.46000 431.131
29.47000 432.369
29.48000 433.409
29.49000 432.273
29.50000 427.559
29.51000 422.794
29.52000 420.287
29.53000 424.541
29.54000 427.396
29.55000 424.585
29.56000 417.614
29.57000 410.877
29.58000 412.662
29.59000 418.735
29.60000 424.540
29.61000 424.586
29.62000 422.762
29.63000 421.182
29.64000 421.810
29.65000 422.965
29.66000 424.223
29.67000 426.065
29.68000 428.001
29.69000 429.563
29.70000 425.472
29.71000 421.697
29.72000 418.921
29.73000 418.774
29.74000 418.766
29.75000 419.115
29.76000 420.114
29.77000 421.126
29.78000 421.688
29.79000 432.196
29.80000 439.449
29.81000 437.554
29.82000 428.167
29.83000 418.869
29.84000 413.934
29.85000 411.428
29.86000 409.013
29.87000 414.770
29.88000 423.149
29.89000 431.466
29.90000 439.138
29.91000 446.639
29.92000 453.298
29.93000 454.544
29.94000 454.825
29.95000 455.057
29.96000 461.478
29.97000 467.342
29.98000 469.182
29.99000 459.311
30.00000 448.692
30.01000 442.884
30.02000 446.778
30.03000 450.949
30.04000 453.376
30.05000 458.465
30.06000 462.051
30.07000 461.330
30.08000 456.663
30.09000 452.066
30.10000 452.576
30.11000 456.236
30.12000 459.793
30.13000 460.387
30.14000 459.751
30.15000 459.207
30.16000 459.783
30.17000 460.689
30.18000 461.647
30.19000 462.987
30.20000 464.402
30.21000 465.595
30.22000 462.787
30.23000 460.012
30.24000 456.775
30.25000 452.046
30.26000 447.204
30.27000 440.666
30.28000 430.344
30.29000 419.882
30.30000 413.515
30.31000 422.973
30.32000 429.853
30.33000 435.030
30.34000 438.454
30.35000 441.828
30.36000 439.410
30.37000 433.022
30.38000 426.772
30.39000 428.769
30.40000 434.417
30.41000 439.711
30.42000 439.942
30.43000 438.519
30.44000 436.943
30.45000 434.104
30.46000 430.983
30.47000 428.303
30.48000 425.149
30.49000 422.423
30.50000 422.206
30.51000 430.951
30.52000 440.492
30.53000 447.836
30.54000 449.758
30.55000 451.429
30.56000 452.489
30.57000 444.800
30.58000 439.114
30.59000 436.861
30.60000 438.575
30.61000 440.291
30.62000 441.050
30.63000 441.080
30.64000 441.109
30.65000 433.131
30.66000 421.359
30.67000 410.606
30.68000 417.320
30.69000 430.348
30.70000 443.364
30.71000 456.263
30.72000 469.133
30.73000 480.381
30.74000 475.808
30.75000 469.653
30.76000 465.402
30.77000 468.705
30.78000 472.787
30.79000 475.629
30.80000 475.085
30.81000 474.349
30.82000 473.864
30.83000 476.584
30.84000 478.645
30.85000 479.252
30.86000 477.983
30.87000 476.720
30.88000 483.987
30.89000 498.521
30.90000 512.894
30.91000 518.772
30.92000 519.719
30.93000 520.800
30.94000 524.664
30.95000 529.640
30.96000 535.180
30.97000 546.922
30.98000 560.376
30.99000 572.327
31.00000 594.733
31.01000 615.847
31.02000 633.478
31.03000 635.727
31.04000 636.154
31.05000 643.710
31.06000 672.783
31.07000 703.320
31.08000 724.184
31.09000 761.938
31.10000 790.579
31.11000 832.053
31.12000 891.970
31.13000 952.032
31.14000 1011.491
31.15000 1070.374
31.16000 1128.837
31.17000 1190.617
31.18000 1253.500
31.19000 1317.317
31.20000 1405.560
31.21000 1504.598
31.22000 1605.007
31.23000 1723.066
31.24000 1846.523
31.25000 1957.872
31.26000 2117.381
31.27000 2266.231
31.28000 2406.629
31.29000 2505.371
31.30000 2598.488
31.31000 2696.546
31.32000 2811.124
31.33000 2927.030
31.34000 3008.899
31.35000 3116.184
31.36000 3198.406
31.37000 3266.533
31.38000 3312.162
31.39000 3357.499
31.40000 3377.612
31.41000 3370.645
31.42000 3363.697
31.43000 3352.834
31.44000 3339.316
31.45000 3324.806
31.46000 3276.825
31.47000 3212.487
31.48000 3146.286
31.49000 3051.654
31.50000 2947.394
31.51000 2852.038
31.52000 2733.154
31.53000 2622.631
31.54000 2511.552
31.55000 2397.409
31.56000 2282.796
31.57000 2169.116
31.58000 2058.896
31.59000 1949.001
31.60000 1868.933
31.61000 1736.217
31.62000 1631.987
31.63000 1543.963
31.64000 1484.621
31.65000 1425.828
31.66000 1358.288
31.67000 1280.232
31.68000 1202.294
31.69000 1134.224
31.70000 1074.262
31.71000 1014.482
31.72000 962.976
31.73000 915.944
31.74000 869.735
31.75000 838.655
31.76000 813.243
31.77000 789.701
31.78000 758.695
31.79000 729.069
31.80000 701.778
31.81000 688.990
31.82000 678.701
31.83000 664.462
31.84000 633.945
31.85000 601.662
31.86000 577.452
31.87000 567.486
31.88000 560.378
31.89000 552.241
31.90000 542.088
31.91000 531.883
31.92000 523.815
31.93000 518.615
31.94000 513.432
31.95000 504.980
31.96000 493.642
31.97000 482.329
31.98000 472.660
31.99000 463.976
32.00000 455.623
32.01000 454.735
32.02000 456.940
32.03000 459.006
32.04000 455.913
32.05000 451.752
32.06000 447.727
32.07000 444.648
32.08000 441.754
32.09000 438.452
32.10000 433.285
32.11000 427.887
32.12000 423.727
32.13000 419.930
32.14000 416.943
32.15000 415.217
32.16000 416.225
32.17000 417.328
32.18000 418.103
32.19000 418.390
32.20000 418.672
32.21000 414.130
32.22000 404.785
32.23000 395.511
32.24000 393.477
32.25000 396.258
32.26000 398.994
32.27000 400.425
32.28000 401.258
32.29000 402.048
32.30000 409.068
32.31000 417.352
32.32000 424.294
32.33000 420.530
32.34000 414.453
32.35000 408.006
32.36000 399.660
32.37000 391.047
32.38000 384.242
32.39000 402.818
32.40000 419.465
32.41000 428.387
32.42000 418.791
32.43000 408.389
32.44000 401.293
32.45000 399.674
32.46000 398.137
32.47000 397.325
32.48000 408.948
32.49000 416.806
32.50000 417.080
32.51000 411.742
32.52000 406.392
32.53000 400.589
32.54000 394.558
32.55000 388.788
32.56000 391.862
32.57000 397.614
32.58000 402.588
32.59000 400.452
32.60000 396.603
32.61000 393.213
32.62000 392.464
32.63000 392.137
32.64000 391.873
32.65000 391.335
32.66000 390.875
32.67000 390.929
32.68000 392.346
32.69000 393.836
32.70000 394.761
32.71000 394.647
32.72000 394.511
32.73000 394.435
32.74000 390.363
32.75000 387.547
32.76000 388.626
32.77000 392.920
32.78000 397.080
32.79000 394.440
32.80000 387.984
32.81000 381.756
32.82000 390.858
32.83000 405.028
32.84000 417.696
32.85000 414.529
32.86000 407.122
32.87000 401.014
32.88000 403.325
32.89000 407.149
32.90000 410.310
32.91000 406.164
32.92000 402.058
32.93000 399.867
32.94000 403.288
32.95000 407.072
32.96000 408.215
32.97000 403.994
32.98000 399.617
32.99000 397.061
33.00000 396.806
33.01000 396.638
33.02000 395.984
33.03000 394.881
33.04000 393.785
33.05000 393.146
33.06000 392.792
33.07000 392.448
33.08000 388.488
33.09000 383.245
33.10000 377.932
33.11000 371.747
33.12000 365.304
33.13000 359.764
33.14000 360.858
33.15000 363.287
33.16000 365.337
33.17000 366.923
33.18000 368.197
33.19000 368.025
33.20000 363.160
33.21000 357.934
33.22000 353.833
33.23000 352.258
33.24000 350.779
33.25000 349.876
33.26000 357.829
33.27000 363.589
33.28000 368.250
33.29000 371.771
33.30000 375.279
33.31000 377.209
33.32000 378.050
33.33000 378.873
33.34000 372.502
33.35000 363.105
33.36000 354.318
33.37000 354.380
33.38000 357.354
33.39000 359.816
33.40000 357.999
33.41000 355.221
33.42000 352.833
33.43000 355.924
33.44000 359.225
33.45000 360.847
33.46000 356.424
33.47000 351.458
33.48000 345.146
33.49000 335.487
33.50000 325.670
33.51000 319.425
33.52000 335.705
33.53000 347.816
33.54000 355.771
33.55000 358.886
33.56000 361.971
33.57000 359.398
33.58000 352.474
33.59000 345.659
33.60000 341.595
33.61000 339.059
33.62000 336.683
33.63000 337.119
33.64000 338.577
33.65000 340.412
33.66000 345.860
33.67000 352.211
33.68000 357.769
33.69000 344.632
33.70000 330.700
33.71000 320.502
33.72000 325.234
33.73000 331.520
33.74000 336.447
33.75000 337.642
33.76000 338.622
33.77000 339.269
33.78000 348.343
33.79000 355.188
33.80000 358.354
33.81000 356.737
33.82000 355.099
33.83000 352.763
33.84000 349.826
33.85000 346.922
33.86000 341.392
33.87000 334.495
33.88000 327.829
33.89000 326.088
33.90000 326.330
33.91000 326.894
33.92000 331.044
33.93000 336.191
33.94000 340.769
33.95000 341.746
33.96000 342.009
33.97000 341.351
33.98000 336.595
33.99000 331.349
34.00000 328.844
34.01000 334.672
34.02000 341.075
34.03000 345.460
34.04000 345.465
34.05000 345.364
34.06000 345.032
34.07000 344.364
34.08000 343.693
34.09000 342.362
34.10000 340.395
34.11000 338.440
34.12000 338.541
34.13000 339.946
34.14000 341.230
34.15000 339.308
34.16000 335.960
34.17000 333.288
34.18000 339.429
34.19000 348.285
34.20000 356.281
34.21000 348.370
34.22000 338.488
34.23000 330.959
34.24000 335.116
34.25000 340.865
34.26000 343.477
34.27000 335.526
34.28000 326.715
34.29000 320.477
34.30000 323.660
34.31000 326.372
34.32000 328.769
34.33000 330.662
34.34000 332.548
34.35000 334.265
34.36000 335.799
34.37000 337.327
34.38000 340.129
34.39000 343.811
34.40000 347.407
34.41000 348.042
34.42000 347.218
34.43000 345.941
34.44000 337.654
34.45000 326.977
34.46000 317.202
34.47000 314.484
34.48000 313.532
34.49000 314.132
34.50000 323.370
34.51000 333.939
34.52000 341.703
34.53000 338.980
34.54000 335.263
34.55000 332.549
34.56000 330.680
34.57000 329.272
34.58000 326.810
34.59000 322.466
34.60000 318.086
34.61000 315.267
34.62000 314.340
34.63000 313.419
34.64000 317.507
34.65000 325.565
34.66000 333.455
34.67000 333.578
34.68000 329.469
34.69000 325.572
34.70000 325.632
34.71000 327.184
34.72000 328.624
34.73000 326.164
34.74000 323.037
34.75000 319.825
34.76000 316.078
34.77000 312.238
34.78000 309.710
34.79000 312.627
34.80000 316.141
34.81000 318.782
34.82000 322.498
34.83000 325.454
34.84000 327.421
34.85000 327.434
34.86000 327.395
34.87000 327.208
34.88000 326.822
34.89000 326.435
34.90000 323.660
34.91000 318.754
34.92000 313.981
34.93000 317.951
34.94000 327.200
34.95000 336.055
34.96000 335.856
34.97000 331.879
34.98000 328.148
34.99000 329.031
35.00000 331.048
35.01000 332.598
35.02000 330.843
35.03000 328.444
35.04000 326.104
35.05000 324.036
35.06000 322.003
35.07000 320.433
35.08000 318.110
35.09000 316.224
35.10000 316.186
35.11000 320.181
35.12000 324.318
35.13000 322.075
35.14000 310.241
35.15000 298.311
35.16000 292.333
35.17000 307.815
35.18000 318.078
35.19000 321.516
35.20000 320.379
35.21000 319.237
35.22000 317.971
35.23000 316.647
35.24000 315.393
35.25000 315.564
35.26000 316.143
35.27000 316.551
35.28000 315.591
35.29000 314.333
35.30000 313.175
35.31000 312.540
35.32000 311.978
35.33000 311.534
35.34000 316.928
35.35000 321.667
35.36000 323.501
35.37000 318.324
35.38000 312.837
35.39000 310.834
35.40000 314.647
35.41000 318.549
35.42000 320.618
35.43000 310.729
35.44000 304.040
35.45000 305.636
35.46000 313.407
35.47000 320.976
35.48000 320.830
35.49000 316.746
35.50000 312.837
35.51000 312.592
35.52000 313.572
35.53000 314.429
35.54000 314.164
35.55000 313.626
35.56000 313.473
35.57000 315.552
35.58000 317.991
35.59000 319.966
35.60000 320.773
35.61000 321.334
35.62000 321.520
35.63000 320.701
35.64000 319.827
35.65000 316.909
35.66000 310.211
35.67000 303.428
35.68000 299.641
35.69000 310.446
35.70000 317.951
35.71000 321.155
35.72000 320.782
35.73000 320.336
35.74000 316.038
35.75000 309.564
35.76000 303.315
35.77000 302.925
35.78000 304.716
35.79000 306.136
35.80000 303.595
35.81000 299.987
35.82000 297.378
35.83000 301.311
35.84000 306.428
35.85000 310.665
35.86000 315.764
35.87000 320.054
35.88000 321.583
35.89000 314.955
35.90000 307.793
35.91000 304.400
35.92000 308.718
35.93000 313.266
35.94000 315.930
35.95000 308.200
35.96000 302.706
35.97000 300.094
35.98000 300.168
35.99000 300.297
36.00000 304.715
36.01000 311.820
36.02000 318.731
36.03000 319.376
36.04000 317.411
36.05000 315.299
36.06000 311.368
36.07000 306.891
36.08000 303.366
36.09000 306.881
36.10000 311.825
36.11000 316.002
36.12000 311.684
36.13000 307.141
36.14000 304.447
36.15000 307.802
36.16000 311.628
36.17000 314.533
36.18000 315.355
36.19000 316.097
36.20000 316.552
36.21000 304.818
36.22000 296.314
36.23000 292.269
36.24000 292.892
36.25000 293.536
36.26000 296.743
36.27000 301.733
36.28000 306.619
36.29000 307.195
36.30000 305.769
36.31000 304.407
36.32000 304.000
36.33000 303.909
36.34000 303.823
36.35000 303.770
36.36000 303.725
36.37000 303.686
36.38000 301.997
36.39000 300.357
36.40000 298.727
36.41000 297.129
36.42000 295.534
36.43000 294.815
36.44000 296.292
36.45000 297.873
36.46000 298.882
36.47000 299.305
36.48000 299.605
36.49000 301.064
36.50000 303.885
36.51000 306.699
36.52000 307.394
36.53000 306.446
36.54000 305.512
36.55000 304.572
36.56000 303.657
36.57000 302.775
36.58000 302.471
36.59000 302.379
36.60000 302.380
36.61000 303.286
36.62000 304.420
36.63000 305.414
36.64000 304.964
36.65000 304.371
36.66000 304.030
36.67000 304.703
36.68000 305.483
36.69000 305.734
36.70000 304.522
36.71000 303.225
36.72000 302.366
36.73000 296.802
36.74000 292.607
36.75000 291.178
36.76000 293.377
36.77000 295.588
36.78000 295.329
36.79000 292.931
36.80000 290.557
36.81000 293.839
36.82000 300.290
36.83000 306.418
36.84000 305.581
36.85000 301.919
36.86000 298.555
36.87000 298.547
36.88000 299.479
36.89000 300.308
36.90000 302.279
36.91000 304.178
36.92000 305.768
36.93000 305.971
36.94000 306.006
36.95000 306.010
36.96000 305.916
36.97000 305.814
36.98000 305.745
36.99000 307.117
37.00000 308.182
37.01000 310.074
37.02000 313.174
37.03000 316.284
37.04000 315.334
37.05000 310.441
37.06000 305.581
37.07000 302.736
37.08000 301.225
37.09000 299.859
37.10000 302.423
37.11000 306.749
37.12000 310.815
37.13000 311.465
37.14000 311.054
37.15000 310.684
37.16000 310.321
37.17000 310.003
37.18000 309.247
37.19000 306.290
37.20000 303.030
37.21000 301.804
37.22000 307.475
37.23000 313.714
37.24000 318.141
37.25000 305.835
37.26000 295.944
37.27000 293.003
37.28000 301.322
37.29000 309.797
37.30000 312.082
37.31000 307.612
37.32000 303.155
37.33000 300.836
37.34000 300.068
37.35000 299.400
37.36000 302.216
37.37000 306.759
37.38000 310.759
37.39000 306.242
37.40000 298.798
37.41000 291.977
37.42000 293.228
37.43000 296.035
37.44000 298.209
37.45000 296.842
37.46000 294.922
37.47000 293.945
37.48000 296.514
37.49000 299.423
37.50000 301.551
37.51000 298.503
37.52000 295.945
37.53000 294.862
37.54000 296.430
37.55000 298.052
37.56000 297.893
37.57000 295.561
37.58000 293.228
37.59000 292.368
37.60000 292.696
37.61000 293.058
37.62000 295.019
37.63000 297.859
37.64000 300.417
37.65000 297.644
37.66000 292.845
37.67000 288.392
37.68000 286.584
37.69000 285.578
37.70000 284.475
37.71000 282.759
37.72000 280.935
37.73000 280.330
37.74000 284.827
37.75000 289.887
37.76000 293.698
37.77000 296.922
37.78000 299.417
37.79000 299.606
37.80000 295.208
37.81000 290.685
37.82000 289.375
37.83000 292.442
37.84000 295.533
37.85000 297.284
37.86000 297.828
37.87000 298.342
37.88000 296.871
37.89000 294.192
37.90000 291.623
37.91000 291.619
37.92000 292.692
37.93000 293.700
37.94000 298.048
37.95000 302.898
37.96000 307.254
37.97000 308.083
37.98000 308.218
37.99000 307.874
38.00000 305.296
38.01000 302.435
38.02000 300.222
38.03000 303.294
38.04000 306.042
38.05000 307.150
38.06000 304.649
38.07000 302.019
38.08000 300.506
38.09000 300.687
38.10000 300.884
38.11000 300.984
38.12000 304.303
38.13000 306.496
38.14000 305.983
38.15000 303.643
38.16000 301.358
38.17000 300.694
38.18000 300.785
38.19000 300.870
38.20000 303.316
38.21000 306.271
38.22000 309.255
38.23000 312.466
38.24000 315.727
38.25000 318.918
38.26000 321.740
38.27000 324.509
38.28000 326.705
38.29000 327.541
38.30000 328.118
38.31000 330.372
38.32000 336.706
38.33000 343.222
38.34000 346.020
38.35000 342.564
38.36000 339.008
38.37000 337.116
38.38000 366.070
38.39000 385.739
38.40000 391.931
38.41000 387.999
38.42000 384.289
38.43000 389.268
38.44000 398.714
38.45000 407.761
38.46000 417.910
38.47000 427.740
38.48000 438.868
38.49000 462.080
38.50000 488.247
38.51000 511.757
38.52000 519.713
38.53000 525.142
38.54000 529.547
38.55000 557.665
38.56000 582.540
38.57000 610.898
38.58000 648.620
38.59000 686.860
38.60000 720.587
38.61000 745.908
38.62000 771.040
38.63000 785.125
38.64000 813.409
38.65000 833.053
38.66000 854.745
38.67000 878.152
38.68000 901.201
38.69000 905.013
38.70000 897.874
38.71000 890.977
38.72000 900.590
38.73000 915.781
38.74000 929.485
38.75000 927.169
38.76000 920.500
38.77000 912.299
38.78000 893.993
38.79000 873.840
38.80000 857.131
38.81000 847.909
38.82000 841.011
38.83000 830.252
38.84000 808.013
38.85000 785.011
38.86000 758.417
38.87000 724.418
38.88000 690.194
38.89000 670.078
38.90000 624.990
38.91000 593.072
38.92000 570.329
38.93000 556.204
38.94000 542.025
38.95000 523.509
38.96000 502.255
38.97000 481.571
38.98000 462.925
38.99000 446.015
39.00000 429.712
39.01000 421.041
39.02000 414.670
39.03000 407.359
39.04000 393.014
39.05000 377.229
39.06000 363.876
39.07000 357.813
39.08000 353.548
39.09000 350.059
39.10000 349.127
39.11000 348.397
39.12000 346.230
39.13000 340.793
39.14000 335.228
39.15000 331.810
39.16000 320.042
39.17000 311.534
39.18000 305.574
39.19000 302.305
39.20000 299.076
39.21000 301.182
39.22000 307.029
39.23000 312.757
39.24000 307.014
39.25000 296.177
39.26000 286.173
39.27000 288.552
39.28000 295.064
39.29000 300.514
39.30000 296.908
39.31000 291.234
39.32000 286.344
39.33000 292.166
39.34000 298.467
39.35000 303.464
39.36000 303.690
39.37000 303.479
39.38000 300.666
39.39000 291.296
39.40000 281.608
39.41000 275.410
39.42000 281.038
39.43000 285.293
39.44000 286.436
39.45000 283.896
39.46000 281.339
39.47000 275.824
39.48000 268.000
39.49000 260.291
39.50000 262.478
39.51000 269.718
39.52000 276.579
39.53000 276.669
39.54000 274.259
39.55000 272.354
39.56000 275.414
39.57000 279.736
39.58000 283.526
39.59000 278.564
39.60000 273.029
39.61000 269.570
39.62000 274.535
39.63000 280.396
39.64000 284.168
39.65000 282.118
39.66000 279.723
39.67000 278.131
39.68000 274.292
39.69000 271.412
39.70000 269.329
39.71000 268.299
39.72000 267.276
39.73000 267.285
39.74000 268.195
39.75000 269.096
39.76000 268.291
39.77000 266.518
39.78000 264.860
39.79000 265.720
39.80000 267.609
39.81000 269.447
39.82000 270.714
39.83000 271.819
39.84000 272.804
39.85000 267.115
39.86000 261.063
39.87000 256.541
39.88000 258.936
39.89000 262.174
39.90000 266.070
39.91000 271.993
39.92000 278.060
39.93000 282.236
39.94000 276.820
39.95000 272.516
39.96000 268.276
39.97000 264.129
39.98000 259.984
39.99000 258.063
40.00000 258.321
40.01000 258.577
40.02000 261.880
40.03000 267.103
40.04000 272.119
40.05000 271.471
40.06000 268.266
40.07000 265.037
40.08000 261.508
40.09000 257.884
40.10000 254.605
40.11000 256.337
40.12000 258.801
40.13000 261.030
40.14000 262.070
40.15000 262.945
40.16000 263.249
40.17000 261.598
40.18000 259.785
40.19000 258.495
40.20000 260.658
40.21000 262.415
40.22000 264.050
40.23000 265.485
40.24000 266.916
40.25000 269.366
40.26000 272.936
40.27000 276.494
40.28000 273.568
40.29000 265.984
40.30000 258.650
40.31000 260.262
40.32000 266.343
40.33000 272.155
40.34000 273.693
40.35000 273.751
40.36000 273.805
40.37000 268.600
40.38000 262.849
40.39000 257.792
40.40000 256.665
40.41000 256.155
40.42000 255.868
40.43000 256.429
40.44000 257.071
40.45000 257.543
40.46000 248.350
40.47000 240.860
40.48000 238.805
40.49000 246.586
40.50000 254.569
40.51000 258.560
40.52000 257.634
40.53000 256.697
40.54000 254.226
40.55000 250.525
40.56000 246.847
40.57000 244.340
40.58000 242.479
40.59000 240.977
40.60000 246.343
40.61000 254.338
40.62000 261.764
40.63000 259.721
40.64000 255.626
40.65000 251.495
40.66000 247.136
40.67000 242.737
40.68000 239.265
40.69000 239.707
40.70000 240.586
40.71000 241.249
40.72000 246.160
40.73000 250.217
40.74000 251.034
40.75000 245.363
40.76000 239.510
40.77000 239.484
40.78000 247.459
40.79000 255.480
40.80000 264.510
40.81000 274.449
40.82000 284.199
40.83000 280.549
40.84000 268.689
40.85000 257.194
40.86000 254.358
40.87000 255.187
40.88000 255.965
40.89000 259.503
40.90000 263.469
40.91000 266.791
40.92000 265.471
40.93000 263.231
40.94000 261.178
40.95000 260.001
40.96000 258.936
40.97000 258.111
40.98000 257.961
40.99000 257.882
41.00000 257.719
41.01000 257.367
41.02000 257.008
41.03000 255.896
41.04000 253.635
41.05000 251.361
41.06000 250.212
41.07000 246.492
41.08000 244.020
41.09000 243.490
41.10000 244.282
41.11000 245.017
41.12000 244.015
41.13000 242.201
41.14000 240.478
41.15000 245.291
41.16000 251.689
41.17000 257.908
41.18000 262.653
41.19000 267.072
41.20000 270.520
41.21000 268.858
41.22000 266.455
41.23000 264.547
41.24000 257.508
41.25000 251.478
41.26000 248.381
41.27000 252.468
41.28000 256.882
41.29000 257.056
41.30000 250.047
41.31000 242.920
41.32000 239.112
41.33000 242.262
41.34000 244.407
41.35000 244.918
41.36000 244.192
41.37000 243.544
41.38000 246.005
41.39000 250.077
41.40000 253.979
41.41000 251.804
41.42000 247.739
41.43000 244.130
41.44000 244.813
41.45000 246.554
41.46000 247.591
41.47000 244.468
41.48000 240.664
41.49000 237.573
41.50000 237.034
41.51000 236.808
41.52000 236.616
41.53000 236.517
41.54000 236.424
41.55000 237.995
41.56000 242.689
41.57000 247.456
41.58000 250.137
41.59000 250.422
41.60000 250.611
41.61000 248.969
41.62000 245.780
41.63000 242.653
41.64000 242.925
41.65000 245.146
41.66000 247.293
41.67000 250.844
41.68000 254.719
41.69000 257.973
41.70000 254.476
41.71000 249.131
41.72000 244.517
41.73000 244.779
41.74000 245.939
41.75000 246.902
41.76000 250.519
41.77000 253.768
41.78000 255.324
41.79000 251.810
41.80000 247.956
41.81000 245.452
41.82000 245.755
41.83000 246.144
41.84000 246.373
41.85000 235.419
41.86000 227.627
41.87000 224.871
41.88000 226.886
41.89000 228.939
41.90000 234.183
41.91000 241.457
41.92000 248.540
41.93000 250.285
41.94000 249.716
41.95000 248.903
41.96000 244.980
41.97000 240.114
41.98000 236.030
41.99000 237.848
42.00000 240.883
42.01000 243.454
42.02000 242.627
42.03000 241.552
42.04000 239.176
42.05000 232.483
42.06000 225.446
42.07000 223.426
42.08000 232.923
42.09000 242.875
42.10000 249.007
42.11000 243.203
42.12000 238.931
42.13000 233.741
42.14000 227.575
42.15000 221.453
42.16000 221.471
42.17000 225.830
42.18000 230.101
42.19000 235.430
42.20000 241.050
42.21000 246.208
42.22000 244.383
42.23000 240.210
42.24000 236.237
42.25000 233.988
42.26000 232.135
42.27000 230.535
42.28000 226.861
42.29000 223.477
42.30000 221.155
42.31000 222.746
42.32000 224.701
42.33000 226.922
42.34000 229.819
42.35000 232.749
42.36000 234.629
42.37000 234.012
42.38000 233.529
42.39000 233.138
42.40000 232.858
42.41000 232.581
42.42000 232.976
42.43000 233.901
42.44000 234.812
42.45000 232.603
42.46000 228.831
42.47000 225.256
42.48000 225.244
42.49000 226.557
42.50000 228.296
42.51000 234.238
42.52000 241.256
42.53000 247.419
42.54000 242.073
42.55000 235.787
42.56000 232.222
42.57000 239.786
42.58000 248.546
42.59000 253.106
42.60000 245.873
42.61000 237.934
42.62000 232.645
42.63000 228.287
42.64000 225.079
42.65000 223.678
42.66000 224.684
42.67000 225.706
42.68000 230.196
42.69000 237.738
42.70000 245.206
42.71000 244.326
42.72000 238.603
42.73000 233.130
42.74000 233.234
42.75000 235.632
42.76000 237.817
42.77000 237.545
42.78000 236.576
42.79000 235.710
42.80000 238.372
42.81000 241.278
42.82000 243.061
42.83000 239.732
42.84000 235.775
42.85000 232.915
42.86000 233.466
42.87000 234.262
42.88000 234.810
42.89000 240.306
42.90000 244.561
42.91000 245.714
42.92000 242.273
42.93000 238.790
42.94000 237.114
42.95000 237.223
42.96000 237.331
42.97000 233.212
42.98000 226.400
42.99000 219.874
43.00000 221.355
43.01000 226.478
43.02000 231.296
43.03000 232.008
43.04000 231.425
43.05000 230.898
43.06000 230.592
43.07000 230.365
43.08000 229.627
43.09000 226.296
43.10000 222.600
43.11000 221.103
43.12000 227.171
43.13000 233.876
43.14000 238.656
43.15000 234.207
43.16000 230.514
43.17000 228.705
43.18000 229.998
43.19000 231.335
43.20000 232.523
43.21000 233.546
43.22000 234.566
43.23000 236.184
43.24000 238.226
43.25000 240.230
43.26000 240.825
43.27000 240.711
43.28000 240.393
43.29000 236.779
43.30000 232.017
43.31000 227.645
43.32000 229.391
43.33000 232.252
43.34000 234.757
43.35000 235.222
43.36000 235.364
43.37000 234.876
43.38000 231.982
43.39000 228.851
43.40000 226.551
43.41000 228.061
43.42000 229.384
43.43000 230.661
43.44000 231.856
43.45000 233.049
43.46000 235.466
43.47000 239.403
43.48000 243.339
43.49000 243.384
43.50000 240.254
43.51000 237.144
43.52000 235.009
43.53000 233.418
43.54000 231.915
43.55000 232.139
43.56000 233.030
43.57000 233.859
43.58000 235.526
43.59000 237.233
43.60000 238.147
43.61000 233.967
43.62000 228.879
43.63000 224.542
43.64000 223.402
43.65000 222.623
43.66000 222.033
43.67000 222.881
43.68000 223.617
43.69000 224.675
43.70000 226.379
43.71000 228.103
43.72000 228.851
43.73000 228.250
43.74000 227.641
43.75000 224.942
43.76000 220.333
43.77000 215.790
43.78000 216.024
43.79000 219.207
43.80000 222.318
43.81000 223.697
43.82000 224.337
43.83000 224.939
43.84000 224.997
43.85000 224.903
43.86000 224.660
43.87000 223.329
43.88000 221.780
43.89000 220.556
43.90000 220.874
43.91000 221.390
43.92000 221.791
43.93000 225.335
43.94000 228.342
43.95000 228.442
43.96000 222.056
43.97000 215.429
43.98000 213.483
43.99000 218.736
44.00000 224.069
44.01000 226.774
44.02000 230.479
44.03000 232.939
44.04000 232.866
44.05000 231.056
44.06000 229.250
44.07000 227.543
44.08000 225.882
44.09000 224.305
44.10000 224.508
44.11000 225.233
44.12000 225.916
44.13000 226.245
44.14000 226.497
44.15000 226.773
44.16000 227.185
44.17000 227.617
44.18000 227.960
44.19000 226.549
44.20000 225.285
44.21000 225.775
44.22000 230.589
44.23000 235.603
44.24000 238.053
44.25000 236.129
44.26000 234.131
44.27000 233.059
44.28000 231.875
44.29000 231.074
44.30000 231.907
44.31000 233.986
44.32000 236.058
44.33000 237.833
44.34000 239.452
44.35000 241.005
44.36000 238.143
44.37000 233.980
44.38000 230.097
44.39000 228.870
44.40000 228.302
44.41000 227.782
44.42000 227.545
44.43000 227.355
44.44000 227.200
44.45000 232.939
44.46000 238.123
44.47000 241.672
44.48000 240.761
44.49000 239.597
44.50000 238.461
44.51000 237.378
44.52000 236.295
44.53000 235.684
44.54000 240.108
44.55000 243.190
44.56000 241.966
44.57000 237.076
44.58000 232.275
44.59000 232.580
44.60000 235.834
44.61000 238.981
44.62000 244.233
44.63000 249.985
44.64000 255.400
44.65000 257.120
44.66000 257.820
44.67000 258.325
44.68000 257.528
44.69000 256.489
44.70000 255.625
44.71000 265.719
44.72000 275.148
44.73000 281.788
44.74000 280.011
44.75000 277.661
44.76000 277.870
44.77000 283.433
44.78000 289.164
44.79000 292.554
44.80000 292.848
44.81000 293.039
44.82000 299.979
44.83000 313.365
44.84000 326.659
44.85000 332.235
44.86000 332.865
44.87000 333.479
44.88000 341.265
44.89000 351.712
44.90000 361.880
44.91000 368.445
44.92000 373.908
44.93000 379.602
44.94000 387.051
44.95000 394.864
44.96000 401.493
44.97000 402.229
44.98000 402.178
44.99000 404.748
45.00000 416.082
45.01000 428.120
45.02000 438.054
45.03000 443.120
45.04000 447.992
45.05000 451.002
45.06000 452.918
45.07000 454.284
45.08000 452.954
45.09000 448.728
45.10000 444.505
45.11000 440.852
45.12000 437.604
45.13000 434.419
45.14000 434.507
45.15000 436.131
45.16000 437.182
45.17000 429.476
45.18000 418.803
45.19000 409.562
45.20000 412.760
45.21000 418.842
45.22000 424.098
45.23000 408.292
45.24000 392.129
45.25000 379.376
45.26000 379.267
45.27000 380.346
45.28000 377.934
45.29000 366.597
45.30000 354.814
45.31000 347.233
45.32000 348.716
45.33000 349.926
45.34000 348.707
45.35000 344.569
45.36000 340.420
45.37000 334.433
45.38000 326.989
45.39000 319.651
45.40000 318.099
45.41000 319.632
45.42000 320.751
45.43000 314.241
45.44000 304.872
45.45000 296.215
45.46000 294.681
45.47000 294.985
45.48000 295.252
45.49000 296.939
45.50000 298.601
45.51000 299.265
45.52000 295.816
45.53000 291.921
45.54000 287.552
45.55000 281.844
45.56000 276.055
45.57000 272.189
45.58000 274.122
45.59000 275.667
45.60000 275.034
45.61000 271.479
45.62000 267.908
45.63000 264.354
45.64000 260.813
45.65000 257.307
45.66000 257.440
45.67000 259.707
45.68000 261.742
45.69000 258.565
45.70000 253.228
45.71000 248.222
45.72000 247.057
45.73000 246.991
45.74000 246.933
45.75000 249.184
45.76000 251.534
45.77000 252.913
45.78000 249.828
45.79000 246.190
45.80000 242.682
45.81000 239.587
45.82000 236.521
45.83000 234.401
45.84000 232.087
45.85000 230.342
45.86000 231.041
45.87000 235.387
45.88000 239.769
45.89000 242.200
45.90000 242.689
45.91000 243.174
45.92000 240.944
45.93000 236.962
45.94000 233.068
45.95000 231.674
45.96000 231.425
45.97000 230.968
45.98000 227.655
45.99000 223.436
46.00000 219.611
46.01000 217.677
46.02000 216.331
46.03000 214.703
46.04000 211.626
46.05000 208.345
46.06000 207.909
46.07000 217.345
46.08000 227.622
46.09000 234.964
46.10000 224.138
46.11000 215.273
46.12000 210.606
46.13000 212.895
46.14000 215.289
46.15000 216.914
46.16000 217.679
46.17000 218.442
46.18000 219.994
46.19000 222.114
46.20000 224.106
46.21000 221.313
46.22000 216.093
46.23000 211.157
46.24000 210.835
46.25000 212.132
46.26000 213.324
46.27000 210.742
46.28000 207.625
46.29000 205.016
46.30000 205.336
46.31000 206.124
46.32000 206.577
46.33000 205.742
46.34000 204.779
46.35000 204.070
46.36000 205.937
46.37000 207.489
46.38000 207.767
46.39000 205.705
46.40000 203.593
46.41000 201.945
46.42000 200.877
46.43000 199.812
46.44000 202.480
46.45000 208.211
46.46000 213.854
46.47000 215.083
46.48000 213.835
46.49000 212.469
46.50000 208.775
46.51000 204.177
46.52000 199.899
46.53000 197.707
46.54000 196.232
46.55000 195.228
46.56000 197.276
46.57000 199.872
46.58000 202.583
46.59000 205.783
46.60000 209.039
46.61000 211.505
46.62000 214.740
46.63000 217.319
46.64000 216.899
46.65000 210.390
46.66000 203.702
46.67000 201.365
46.68000 205.094
46.69000 208.862
46.70000 209.875
46.71000 208.343
46.72000 206.807
46.73000 204.991
46.74000 202.999
46.75000 201.218
46.76000 204.582
46.77000 210.156
46.78000 215.401
46.79000 213.397
46.80000 209.598
46.81000 205.422
46.82000 198.491
46.83000 191.004
46.84000 185.081
46.85000 186.629
46.86000 189.149
46.87000 191.109
46.88000 186.098
46.89000 181.684
46.90000 182.343
46.91000 194.402
46.92000 206.890
46.93000 211.394
46.94000 203.526
46.95000 195.516
46.96000 191.435
46.97000 198.802
46.98000 203.685
46.99000 201.303
47.00000 193.901
47.01000 186.776
47.02000 188.308
47.03000 193.951
47.04000 199.316
47.05000 196.691
47.06000 191.833
47.07000 187.480
47.08000 187.347
47.09000 188.163
47.10000 189.226
47.11000 191.607
47.12000 194.183
47.13000 196.235
47.14000 193.812
47.15000 191.532
47.16000 190.544
47.17000 192.768
47.18000 195.143
47.19000 196.606
47.20000 196.502
47.21000 196.371
47.22000 196.301
47.23000 189.951
47.24000 185.611
47.25000 182.846
47.26000 181.294
47.27000 179.846
47.28000 182.756
47.29000 187.955
47.30000 192.945
47.31000 194.334
47.32000 194.407
47.33000 194.088
47.34000 190.000
47.35000 184.969
47.36000 180.692
47.37000 180.938
47.38000 181.939
47.39000 182.755
47.40000 188.249
47.41000 193.139
47.42000 195.382
47.43000 190.349
47.44000 184.899
47.45000 183.054
47.46000 188.074
47.47000 193.259
47.48000 196.196
47.49000 191.565
47.50000 188.326
47.51000 188.539
47.52000 191.718
47.53000 194.827
47.54000 193.852
47.55000 190.502
47.56000 187.260
47.57000 188.692
47.58000 191.821
47.59000 194.705
47.60000 194.844
47.61000 194.221
47.62000 193.419
47.63000 191.402
47.64000 189.157
47.65000 187.288
47.66000 195.045
47.67000 202.425
47.68000 207.124
47.69000 203.670
47.70000 199.655
47.71000 196.855
47.72000 196.614
47.73000 196.455
47.74000 196.361
47.75000 200.536
47.76000 203.514
47.77000 202.929
47.78000 198.912
47.79000 194.900
47.80000 191.280
47.81000 187.914
47.82000 184.633
47.83000 188.378
47.84000 194.938
47.85000 200.799
47.86000 197.562
47.87000 191.522
47.88000 186.011
47.89000 184.573
47.90000 183.988
47.91000 183.490
47.92000 184.504
47.93000 185.528
47.94000 186.305
47.95000 186.250
47.96000 186.127
47.97000 184.562
47.98000 179.637
47.99000 174.575
48.00000 171.437
48.01000 180.111
48.02000 186.463
48.03000 189.205
48.04000 188.038
48.05000 186.871
48.06000 185.860
48.07000 184.960
48.08000 184.077
48.09000 184.165
48.10000 184.710
48.11000 185.231
48.12000 185.376
48.13000 185.393
48.14000 185.357
48.15000 184.864
48.16000 184.264
48.17000 183.745
48.18000 186.033
48.19000 188.347
48.20000 190.261
48.21000 190.677
48.22000 190.952
48.23000 190.888
48.24000 189.948
48.25000 188.964
48.26000 188.329
48.27000 185.324
48.28000 183.094
48.29000 181.766
48.30000 181.532
48.31000 181.296
48.32000 179.375
48.33000 176.107
48.34000 172.884
48.35000 174.044
48.36000 177.493
48.37000 181.103
48.38000 187.725
48.39000 195.483
48.40000 201.953
48.41000 195.390
48.42000 185.440
48.43000 176.682
48.44000 180.951
48.45000 186.577
48.46000 190.888
48.47000 189.739
48.48000 187.991
48.49000 186.781
48.50000 187.103
48.51000 187.518
48.52000 187.797
48.53000 187.508
48.54000 187.282
48.55000 185.287
48.56000 180.900
48.57000 176.504
48.58000 176.342
48.59000 179.967
48.60000 183.558
48.61000 188.447
48.62000 194.007
48.63000 199.186
48.64000 195.621
48.65000 188.407
48.66000 181.734
48.67000 181.416
48.68000 182.932
48.69000 184.287
48.70000 182.046
48.71000 179.480
48.72000 177.562
48.73000 178.638
48.74000 180.089
48.75000 183.361
48.76000 192.370
48.77000 201.800
48.78000 208.338
48.79000 190.166
48.80000 175.832
48.81000 168.356
48.82000 171.196
48.83000 174.139
48.84000 175.365
48.85000 174.867
48.86000 174.372
48.87000 174.846
48.88000 175.954
48.89000 177.040
48.90000 177.501
48.91000 177.673
48.92000 178.218
48.93000 183.924
48.94000 191.278
48.95000 197.953
48.96000 194.020
48.97000 188.507
48.98000 183.716
48.99000 182.650
49.00000 182.116
49.01000 181.307
49.02000 179.537
49.03000 177.684
49.04000 176.357
49.05000 174.941
49.06000 173.856
49.07000 173.220
49.08000 173.332
49.09000 173.455
49.10000 178.775
49.11000 189.956
49.12000 201.108
49.13000 202.923
49.14000 197.814
49.15000 192.685
49.16000 186.828
49.17000 180.600
49.18000 175.031
49.19000 180.344
49.20000 189.506
49.21000 197.932
49.22000 198.885
49.23000 198.115
49.24000 196.906
49.25000 193.140
49.26000 188.963
49.27000 185.076
49.28000 182.314
49.29000 179.664
49.30000 177.709
49.31000 183.094
49.32000 187.576
49.33000 189.395
49.34000 186.291
49.35000 183.078
49.36000 180.446
49.37000 178.547
49.38000 176.653
49.39000 177.789
49.40000 181.436
49.41000 184.991
49.42000 183.724
49.43000 179.732
49.44000 175.890
49.45000 175.069
49.46000 175.429
49.47000 175.765
49.48000 173.638
49.49000 171.113
49.50000 169.330
49.51000 172.402
49.52000 176.352
49.53000 180.221
49.54000 183.734
49.55000 187.206
49.56000 189.841
49.57000 187.404
49.58000 185.227
49.59000 183.345
49.60000 182.067
49.61000 180.807
49.62000 179.026
49.63000 176.514
49.64000 173.998
49.65000 171.560
49.66000 169.196
49.67000 166.893
49.68000 169.276
49.69000 174.594
49.70000 179.736
49.71000 180.512
49.72000 179.398
49.73000 178.349
49.74000 179.015
49.75000 180.094
49.76000 180.838
49.77000 179.098
49.78000 176.854
49.79000 174.624
49.80000 172.465
49.81000 170.314
49.82000 168.639
49.83000 179.542
49.84000 189.006
49.85000 192.949
49.86000 184.394
49.87000 175.361
49.88000 172.339
49.89000 178.702
49.90000 185.176
49.91000 188.488
49.92000 186.912
49.93000 185.848
49.94000 184.080
49.95000 181.824
49.96000 179.558
49.97000 176.949
49.98000 174.176
49.99000 171.538
50.00000 171.265
50.01000 171.739
50.02000 172.565
50.03000 176.374
50.04000 180.858
50.05000 185.128
50.06000 188.246
50.07000 191.192
50.08000 193.544
50.09000 193.571
50.10000 193.422
50.11000 190.951
50.12000 182.669
50.13000 174.110
50.14000 170.790
50.15000 176.542
50.16000 182.455
50.17000 185.651
50.18000 185.163
50.19000 184.816
50.20000 181.951
50.21000 177.137
50.22000 172.455
50.23000 173.380
50.24000 177.274
50.25000 181.012
50.26000 179.235
50.27000 175.680
50.28000 172.362
50.29000 171.337
50.30000 170.890
50.31000 171.236
50.32000 176.379
50.33000 182.329
50.34000 187.188
50.35000 187.404
50.36000 187.181
50.37000 187.098
50.38000 187.401
50.39000 187.727
50.40000 190.027
50.41000 196.114
50.42000 202.294
50.43000 205.806
50.44000 196.955
50.45000 190.761
50.46000 193.471
50.47000 203.891
50.48000 214.204
50.49000 218.191
50.50000 218.470
50.51000 218.739
50.52000 222.056
50.53000 226.359
50.54000 230.543
50.55000 233.388
50.56000 235.858
50.57000 238.463
50.58000 241.990
50.59000 245.691
50.60000 248.778
50.61000 246.949
50.62000 244.941
50.63000 244.772
50.64000 250.235
50.65000 256.092
50.66000 260.708
50.67000 262.695
50.68000 264.595
50.69000 265.727
50.70000 272.314
50.71000 277.015
50.72000 278.386
50.73000 276.525
50.74000 274.672
50.75000 273.516
50.76000 272.814
50.77000 272.129
50.78000 275.693
50.79000 280.917
50.80000 285.561
50.81000 282.576
50.82000 277.222
50.83000 272.364
50.84000 271.347
50.85000 271.142
50.86000 270.967
50.87000 263.975
50.88000 257.314
50.89000 252.682
50.90000 254.938
50.91000 257.760
50.92000 257.944
50.93000 251.939
50.94000 245.677
50.95000 241.785
50.96000 234.262
50.97000 228.809
50.98000 224.833
50.99000 222.469
51.00000 220.110
51.01000 218.300
51.02000 216.887
51.03000 215.501
51.04000 215.562
51.05000 216.312
51.06000 216.842
51.07000 213.923
51.08000 209.820
51.09000 205.928
51.10000 203.906
51.11000 202.324
51.12000 200.954
51.13000 197.196
51.14000 193.682
51.15000 191.343
51.16000 193.422
51.17000 195.924
51.18000 197.369
51.19000 196.066
51.20000 194.623
51.21000 193.689
51.22000 192.293
51.23000 191.265
51.24000 189.858
51.25000 187.989
51.26000 186.119
51.27000 184.514
51.28000 183.121
51.29000 181.747
51.30000 182.595
51.31000 184.605
51.32000 186.462
51.33000 185.400
51.34000 183.228
51.35000 181.337
51.36000 182.315
51.37000 184.045
51.38000 185.569
51.39000 186.731
51.40000 187.678
51.41000 188.492
51.42000 188.749
51.43000 188.945
51.44000 188.233
51.45000 184.917
51.46000 181.439
51.47000 179.104
51.48000 183.410
51.49000 186.743
51.50000 186.960
51.51000 182.932
51.52000 178.879
51.53000 176.253
51.54000 174.913
51.55000 173.585
51.56000 174.630
51.57000 177.070
51.58000 179.293
51.59000 176.445
51.60000 171.465
51.61000 166.733
51.62000 164.941
51.63000 164.004
51.64000 163.165
51.65000 165.403
51.66000 167.883
51.67000 169.661
51.68000 168.161
51.69000 166.245
51.70000 165.996
51.71000 171.042
51.72000 176.480
51.73000 180.259
51.74000 175.526
51.75000 171.730
51.76000 170.173
51.77000 172.009
51.78000 173.880
51.79000 174.961
51.80000 175.242
51.81000 175.522
51.82000 174.308
51.83000 172.114
51.84000 169.913
51.85000 167.524
51.86000 165.046
51.87000 162.727
51.88000 162.613
51.89000 163.209
51.90000 163.751
51.91000 165.301
51.92000 166.867
51.93000 168.410
51.94000 169.833
51.95000 171.238
51.96000 172.789
51.97000 174.856
51.98000 176.968
51.99000 178.484
52.00000 174.092
52.01000 170.531
52.02000 168.741
52.03000 169.930
52.04000 171.167
52.05000 169.137
52.06000 163.396
52.07000 157.666
52.08000 157.141
52.09000 160.502
52.10000 163.843
52.11000 166.412
52.12000 168.584
52.13000 170.569
52.14000 169.429
52.15000 167.176
52.16000 165.102
52.17000 164.149
52.18000 163.542
52.19000 163.161
52.20000 164.104
52.21000 165.263
52.22000 165.367
52.23000 161.348
52.24000 156.912
52.25000 153.633
52.26000 157.374
52.27000 160.577
52.28000 160.849
52.29000 155.662
52.30000 150.352
52.31000 150.792
52.32000 158.540
52.33000 166.306
52.34000 166.268
52.35000 159.702
52.36000 153.242
52.37000 152.454
52.38000 154.896
52.39000 157.417
52.40000 161.572
52.41000 166.371
52.42000 170.843
52.43000 165.981
52.44000 159.287
52.45000 153.927
52.46000 157.375
52.47000 162.433
52.48000 165.942
52.49000 162.715
52.50000 158.706
52.51000 155.658
52.52000 155.885
52.53000 156.235
52.54000 157.888
52.55000 162.224
52.56000 166.642
52.57000 170.268
52.58000 172.776
52.59000 175.274
52.60000 172.344
52.61000 164.318
52.62000 156.394
52.63000 156.602
52.64000 161.943
52.65000 167.074
52.66000 166.854
52.67000 164.302
52.68000 161.898
52.69000 159.796
52.70000 157.954
52.71000 156.368
52.72000 156.687
52.73000 157.395
52.74000 158.643
52.75000 162.505
52.76000 166.714
52.77000 169.998
52.78000 161.845
52.79000 154.628
52.80000 149.407
52.81000 148.741
52.82000 148.253
52.83000 149.937
52.84000 155.041
52.85000 160.186
52.86000 162.829
52.87000 163.253
52.88000 163.522
52.89000 161.729
52.90000 158.489
52.91000 155.402
52.92000 157.263
52.93000 161.509
52.94000 165.551
52.95000 168.425
52.96000 170.725
52.97000 172.665
52.98000 171.536
52.99000 169.706
53.00000 166.839
53.01000 158.334
53.02000 148.983
53.03000 141.505
53.04000 147.705
53.05000 153.732
53.06000 159.176
53.07000 163.152
53.08000 167.056
53.09000 167.146
53.10000 160.583
53.11000 153.898
53.12000 150.272
53.13000 156.465
53.14000 160.710
53.15000 161.936
53.16000 160.803
53.17000 159.686
53.18000 159.239
53.19000 159.150
53.20000 159.064
53.21000 159.733
53.22000 160.619
53.23000 161.637
53.24000 163.942
53.25000 166.575
53.26000 168.352
53.27000 164.914
53.28000 160.592
53.29000 157.057
53.30000 162.325
53.31000 167.408
53.32000 170.542
53.33000 168.248
53.34000 165.633
53.35000 162.694
53.36000 159.128
53.37000 155.546
53.38000 153.503
53.39000 167.571
53.40000 177.428
53.41000 180.178
53.42000 176.724
53.43000 173.254
53.44000 168.804
53.45000 163.775
53.46000 158.903
53.47000 156.297
53.48000 154.708
53.49000 153.452
53.50000 155.990
53.51000 159.599
53.52000 163.051
53.53000 165.430
53.54000 167.605
53.55000 169.422
53.56000 161.815
53.57000 154.548
53.58000 149.042
53.59000 148.965
53.60000 149.271
53.61000 150.618
53.62000 154.188
53.63000 157.831
53.64000 160.008
53.65000 163.080
53.66000 165.265
53.67000 166.872
53.68000 167.913
53.69000 168.947
53.70000 169.362
53.71000 169.370
53.72000 169.378
53.73000 169.426
53.74000 169.490
53.75000 169.403
53.76000 167.324
53.77000 164.622
53.78000 162.478
53.79000 164.711
53.80000 167.875
53.81000 170.570
53.82000 165.549
53.83000 160.427
53.84000 156.704
53.85000 157.762
53.86000 159.219
53.87000 160.831
53.88000 162.810
53.89000 164.804
53.90000 166.048
53.91000 162.689
53.92000 160.220
53.93000 159.326
53.94000 160.165
53.95000 160.998
53.96000 160.800
53.97000 159.851
53.98000 158.919
53.99000 158.914
54.00000 159.358
54.01000 159.784
54.02000 159.949
54.03000 160.024
54.04000 160.118
54.05000 160.395
54.06000 160.715
54.07000 160.993
54.08000 159.110
54.09000 157.217
54.10000 155.060
54.11000 151.899
54.12000 148.640
54.13000 145.877
54.14000 144.407
54.15000 143.005
54.16000 142.095
54.17000 148.944
54.18000 154.075
54.19000 156.049
54.20000 154.135
54.21000 152.218
54.22000 153.385
54.23000 157.057
54.24000 160.681
54.25000 159.094
54.26000 154.745
54.27000 150.540
54.28000 149.081
54.29000 148.674
54.30000 148.485
54.31000 150.554
54.32000 153.218
54.33000 155.568
54.34000 156.425
54.35000 156.936
54.36000 158.081
54.37000 161.896
54.38000 166.010
54.39000 167.707
54.40000 162.419
54.41000 156.691
54.42000 152.835
54.43000 154.274
54.44000 155.453
54.45000 153.951
54.46000 148.767
54.47000 143.564
54.48000 143.894
54.49000 149.254
54.50000 154.568
54.51000 157.339
54.52000 158.528
54.53000 159.748
54.54000 161.698
54.55000 163.958
54.56000 166.000
54.57000 165.414
54.58000 164.060
54.59000 162.845
54.60000 161.626
54.61000 160.561
54.62000 160.023
54.63000 161.970
54.64000 164.234
54.65000 164.845
54.66000 160.168
54.67000 155.095
54.68000 151.561
54.69000 156.235
54.70000 159.986
54.71000 162.718
54.72000 163.895
54.73000 165.055
54.74000 162.521
54.75000 156.214
54.76000 149.940
54.77000 152.477
54.78000 160.905
54.79000 169.009
54.80000 167.366
54.81000 161.159
54.82000 155.299
54.83000 154.347
54.84000 154.986
54.85000 155.568
54.86000 154.733
54.87000 153.717
54.88000 153.163
54.89000 155.032
54.90000 157.252
54.91000 159.264
54.92000 160.536
54.93000 161.742
54.94000 162.609
54.95000 161.361
54.96000 160.333
54.97000 160.189
54.98000 161.546
54.99000 162.927
55.00000 165.018
55.01000 167.922
55.02000 170.819
55.03000 170.767
55.04000 168.498
55.05000 166.195
55.06000 162.589
55.07000 158.307
55.08000 154.676
55.09000 162.062
55.10000 173.403
55.11000 183.853
55.12000 181.317
55.13000 176.182
55.14000 171.381
55.15000 168.551
55.16000 166.043
55.17000 164.273
55.18000 165.404
55.19000 166.832
55.20000 167.890
55.21000 162.548
55.22000 158.122
55.23000 155.629
55.24000 156.762
55.25000 157.980
55.26000 159.924
55.27000 162.800
55.28000 165.677
55.29000 166.550
55.30000 165.731
55.31000 164.946
55.32000 166.052
55.33000 168.242
55.34000 170.318
55.35000 170.040
55.36000 168.827
55.37000 167.697
55.38000 172.465
55.39000 178.247
55.40000 183.001
55.41000 180.917
55.42000 177.573
55.43000 175.188
55.44000 177.006
55.45000 179.316
55.46000 181.076
55.47000 188.473
55.48000 194.594
55.49000 200.336
55.50000 205.287
55.51000 210.215
55.52000 212.951
55.53000 212.563
55.54000 212.150
55.55000 213.606
55.56000 216.831
55.57000 220.054
55.58000 223.144
55.59000 226.148
55.60000 229.299
55.61000 236.206
55.62000 244.762
55.63000 252.831
55.64000 257.237
55.65000 260.253
55.66000 263.808
55.67000 271.415
55.68000 279.859
55.69000 287.789
55.70000 293.209
55.71000 298.292
55.72000 302.266
55.73000 317.294
55.74000 329.990
55.75000 344.154
55.76000 361.690
55.77000 379.360
55.78000 391.290
55.79000 394.121
55.80000 396.839
55.81000 398.240
55.82000 429.033
55.83000 449.752
55.84000 466.220
55.85000 479.685
55.86000 493.092
55.87000 504.589
55.88000 515.158
55.89000 525.228
55.90000 534.360
55.91000 542.530
55.92000 550.084
55.93000 552.323
55.94000 553.341
55.95000 554.915
55.96000 559.539
55.97000 564.626
55.98000 568.701
55.99000 560.691
56.00000 553.302
56.01000 550.297
56.02000 558.421
56.03000 567.092
56.04000 571.901
56.05000 569.920
56.06000 567.813
56.07000 566.665
56.08000 534.338
56.09000 512.158
56.10000 502.974
56.11000 504.022
56.12000 504.834
56.13000 495.138
56.14000 479.801
56.15000 465.055
56.16000 448.634
56.17000 432.666
56.18000 417.707
56.19000 412.749
56.20000 410.351
56.21000 405.723
56.22000 387.371
56.23000 366.671
56.24000 349.715
56.25000 346.551
56.26000 345.171
56.27000 339.729
56.28000 322.879
56.29000 305.345
56.30000 293.318
56.31000 292.003
56.32000 290.964
56.33000 290.370
56.34000 275.483
56.35000 265.042
56.36000 259.266
56.37000 257.597
56.38000 255.897
56.39000 252.226
56.40000 247.384
56.41000 242.691
56.42000 240.687
56.43000 239.837
56.44000 238.866
56.45000 236.514
56.46000 233.768
56.47000 230.860
56.48000 226.820
56.49000 222.564
56.50000 219.003
56.51000 208.673
56.52000 199.398
56.53000 192.055
56.54000 190.714
56.55000 189.802
56.56000 189.339
56.57000 189.839
56.58000 190.373
56.59000 190.692
56.60000 189.704
56.61000 188.993
56.62000 186.038
56.63000 180.867
56.64000 175.735
56.65000 174.391
56.66000 175.548
56.67000 176.677
56.68000 175.850
56.69000 174.208
56.70000 172.623
56.71000 171.803
56.72000 171.224
56.73000 170.987
56.74000 173.448
56.75000 176.487
56.76000 179.080
56.77000 174.449
56.78000 169.699
56.79000 165.746
56.80000 164.535
56.81000 163.554
56.82000 161.809
56.83000 158.244
56.84000 154.601
56.85000 152.322
56.86000 152.941
56.87000 153.419
56.88000 154.452
56.89000 156.101
56.90000 157.745
56.91000 158.241
56.92000 157.896
56.93000 157.557
56.94000 156.818
56.95000 155.911
56.96000 155.223
56.97000 158.072
56.98000 162.154
56.99000 165.664
57.00000 164.008
57.01000 161.116
57.02000 158.605
57.03000 153.606
57.04000 149.008
57.05000 145.893
57.06000 148.444
57.07000 151.550
57.08000 154.500
57.09000 157.037
57.10000 159.552
57.11000 161.188
57.12000 153.045
57.13000 146.924
57.14000 143.733
57.15000 144.177
57.16000 144.633
57.17000 145.640
57.18000 147.099
57.19000 148.539
57.20000 150.142
57.21000 151.791
57.22000 153.145
57.23000 148.758
57.24000 142.156
57.25000 136.296
57.26000 138.183
57.27000 142.129
57.28000 145.615
57.29000 144.942
57.30000 143.721
57.31000 142.287
57.32000 139.949
57.33000 137.510
57.34000 136.794
57.35000 141.099
57.36000 145.724
57.37000 148.845
57.38000 148.231
57.39000 147.695
57.40000 146.655
57.41000 144.916
57.42000 143.174
57.43000 141.420
57.44000 139.656
57.45000 137.907
57.46000 136.334
57.47000 134.897
57.48000 133.570
57.49000 134.889
57.50000 137.336
57.51000 140.108
57.52000 146.831
57.53000 154.719
57.54000 161.797
57.55000 154.721
57.56000 146.063
57.57000 138.992
57.58000 139.438
57.59000 140.853
57.60000 142.002
57.61000 142.290
57.62000 142.513
57.63000 142.669
57.64000 142.538
57.65000 142.431
57.66000 139.856
57.67000 133.484
57.68000 127.070
57.69000 127.235
57.70000 134.177
57.71000 141.084
57.72000 142.196
57.73000 139.368
57.74000 136.655
57.75000 137.468
57.76000 139.943
57.77000 142.237
57.78000 141.925
57.79000 140.761
57.80000 139.703
57.81000 144.686
57.82000 150.290
57.83000 154.257
57.84000 149.549
57.85000 143.570
57.86000 138.258
57.87000 135.331
57.88000 132.615
57.89000 130.658
57.90000 140.666
57.91000 148.759
57.92000 152.627
57.93000 149.283
57.94000 145.818
57.95000 143.965
57.96000 143.976
57.97000 143.990
57.98000 144.501
57.99000 145.386
58.00000 146.252
58.01000 146.372
58.02000 146.102
58.03000 145.648
58.04000 142.018
58.05000 137.241
58.06000 132.835
58.07000 139.018
58.08000 146.913
58.09000 153.242
58.10000 150.253
58.11000 145.722
58.12000 141.543
58.13000 138.757
58.14000 136.115
58.15000 134.154
58.16000 141.142
58.17000 146.967
58.18000 149.321
58.19000 145.113
58.20000 140.749
58.21000 138.948
58.22000 140.455
58.23000 141.973
58.24000 140.775
58.25000 137.269
58.26000 133.824
58.27000 133.813
58.28000 135.787
58.29000 137.754
58.30000 139.578
58.31000 141.345
58.32000 142.994
58.33000 143.369
58.34000 143.390
58.35000 143.154
58.36000 141.192
58.37000 138.910
58.38000 137.523
58.39000 140.087
58.40000 143.118
58.41000 145.432
58.42000 147.007
58.43000 148.209
58.44000 147.813
58.45000 144.075
58.46000 140.232
58.47000 138.622
58.48000 140.224
58.49000 141.851
58.50000 141.959
58.51000 140.617
58.52000 139.294
58.53000 139.651
58.54000 141.085
58.55000 142.506
58.56000 143.581
58.57000 144.502
58.58000 145.373
58.59000 142.321
58.60000 138.423
58.61000 134.780
58.62000 133.086
58.63000 131.796
58.64000 130.740
58.65000 130.833
58.66000 131.082
58.67000 131.276
58.68000 135.872
58.69000 139.827
58.70000 142.821
58.71000 143.594
58.72000 144.278
58.73000 144.815
58.74000 145.117
58.75000 145.417
58.76000 145.572
58.77000 142.403
58.78000 140.267
58.79000 138.446
58.80000 136.849
58.81000 135.275
58.82000 134.483
58.83000 134.073
58.84000 133.682
58.85000 131.539
58.86000 129.001
58.87000 127.386
58.88000 133.799
58.89000 142.073
58.90000 148.002
58.91000 140.983
58.92000 131.983
58.93000 124.763
58.94000 125.196
58.95000 126.129
58.96000 128.390
58.97000 134.047
58.98000 139.874
58.99000 142.594
59.00000 139.815
59.01000 136.930
59.02000 135.354
59.03000 138.346
59.04000 140.397
59.05000 139.006
59.06000 134.883
59.07000 130.821
59.08000 129.528
59.09000 129.734
59.10000 129.932
59.11000 130.208
59.12000 130.495
59.13000 130.765
59.14000 130.863
59.15000 130.917
59.16000 131.410
59.17000 134.638
59.18000 138.337
59.19000 141.372
59.20000 143.234
59.21000 144.657
59.22000 144.669
59.23000 140.689
59.24000 136.467
59.25000 134.074
59.26000 135.266
59.27000 136.553
59.28000 137.292
59.29000 138.939
59.30000 140.093
59.31000 140.325
59.32000 139.740
59.33000 139.143
59.34000 137.773
59.35000 135.939
59.36000 134.160
59.37000 132.908
59.38000 131.927
59.39000 131.395
59.40000 136.083
59.41000 142.264
59.42000 146.865
59.43000 140.373
59.44000 131.736
59.45000 124.500
59.46000 130.937
59.47000 137.703
59.48000 142.000
59.49000 138.568
59.50000 134.577
59.51000 131.726
59.52000 131.346
59.53000 131.052
59.54000 130.876
59.55000 129.353
59.56000 128.261
59.57000 130.508
59.58000 136.081
59.59000 141.631
59.60000 144.897
59.61000 146.643
59.62000 148.349
59.63000 142.668
59.64000 133.993
59.65000 125.941
59.66000 126.422
59.67000 129.611
59.68000 132.790
59.69000 135.898
59.70000 138.991
59.71000 141.633
59.72000 140.060
59.73000 138.234
59.74000 136.721
59.75000 136.300
59.76000 135.971
59.77000 137.000
59.78000 141.282
59.79000 145.707
59.80000 148.481
59.81000 142.439
59.82000 137.977
59.83000 136.410
59.84000 138.082
59.85000 139.746
59.86000 139.356
59.87000 137.446
59.88000 135.570
59.89000 134.099
59.90000 132.877
59.91000 131.652
59.92000 130.376
59.93000 129.081
59.94000 128.063
59.95000 129.577
59.96000 131.701
59.97000 133.548
59.98000 133.636
59.99000 133.471
60.00000 133.383
60.01000 133.591
60.02000 133.829
60.03000 133.683
60.04000 132.522
60.05000 131.306
60.06000 130.513
60.07000 136.065
60.08000 140.240
60.09000 142.314
60.10000 141.760
60.11000 141.194
60.12000 139.242
60.13000 136.145
60.14000 133.086
60.15000 134.648
60.16000 138.696
60.17000 142.368
60.18000 138.606
60.19000 131.956
60.20000 126.050
60.21000 127.984
60.22000 132.017
60.23000 135.584
60.24000 136.245
60.25000 136.364
60.26000 136.530
60.27000 136.898
60.28000 137.288
60.29000 136.310
60.30000 131.317
60.31000 126.065
60.32000 122.512
60.33000 130.246
60.34000 136.252
60.35000 137.909
60.36000 133.500
60.37000 129.052
60.38000 127.396
60.39000 128.320
60.40000 129.237
60.41000 129.480
60.42000 129.307
60.43000 129.297
60.44000 133.310
60.45000 139.051
60.46000 144.352
60.47000 144.256
60.48000 142.556
60.49000 141.030
60.50000 139.292
60.51000 137.733
60.52000 136.582
60.53000 137.373
60.54000 138.417
60.55000 139.405
60.56000 140.210
60.57000 141.001
60.58000 141.555
60.59000 136.028
60.60000 131.676
60.61000 130.595
60.62000 134.580
60.63000 138.624
60.64000 140.273
60.65000 139.435
60.66000 138.601
60.67000 138.300
60.68000 138.366
60.69000 138.388
60.70000 137.018
60.71000 134.988
60.72000 133.225
60.73000 135.358
60.74000 138.772
60.75000 141.882
60.76000 144.357
60.77000 146.422
60.78000 147.562
60.79000 143.757
60.80000 139.221
60.81000 135.721
60.82000 135.946
60.83000 136.506
60.84000 136.911
60.85000 133.816
60.86000 131.316
60.87000 130.845
60.88000 133.860
60.89000 136.936
60.90000 138.879
60.91000 139.501
60.92000 140.120
60.93000 138.097
60.94000 134.068
60.95000 130.168
60.96000 131.653
60.97000 135.968
60.98000 140.052
60.99000 140.107
61.00000 138.695
61.01000 137.391
61.02000 135.479
61.03000 133.629
61.04000 132.220
61.05000 133.460
61.06000 135.141
61.07000 137.087
61.08000 140.093
61.09000 143.209
61.10000 145.528
61.11000 144.846
61.12000 144.182
61.13000 143.829
61.14000 144.067
61.15000 144.320
61.16000 144.673
61.17000 145.157
61.18000 145.641
61.19000 142.825
61.20000 137.187
61.21000 131.625
61.22000 130.472
61.23000 131.886
61.24000 133.282
61.25000 134.295
61.26000 135.155
61.27000 135.958
61.28000 136.066
61.29000 135.989
61.30000 136.246
61.31000 138.762
61.32000 141.702
61.33000 143.860
61.34000 142.538
61.35000 140.798
61.36000 139.468
61.37000 140.044
61.38000 140.602
61.39000 141.847
61.40000 144.543
61.41000 147.285
61.42000 151.324
61.43000 157.240
61.44000 163.171
61.45000 163.934
61.46000 159.719
61.47000 155.564
61.48000 156.774
61.49000 161.446
61.50000 166.307
61.51000 176.177
61.52000 188.278
61.53000 199.708
61.54000 209.078
61.55000 217.095
61.56000 226.279
61.57000 244.432
61.58000 264.464
61.59000 283.063
61.60000 294.545
61.61000 305.056
61.62000 313.303
61.63000 329.958
61.64000 343.825
61.65000 352.988
61.66000 351.195
61.67000 348.955
61.68000 348.616
61.69000 351.336
61.70000 354.097
61.71000 355.533
61.72000 357.763
61.73000 359.204
61.74000 350.821
61.75000 335.389
61.76000 320.056
61.77000 308.178
61.78000 298.000
61.79000 288.290
61.80000 269.171
61.81000 248.446
61.82000 228.278
61.83000 213.009
61.84000 198.885
61.85000 186.633
61.86000 184.797
61.87000 184.570
61.88000 184.387
61.89000 172.971
61.90000 162.854
61.91000 155.154
61.92000 153.682
61.93000 152.525
61.94000 152.050
61.95000 152.789
61.96000 153.552
61.97000 153.971
61.98000 149.914
61.99000 147.127
62.00000 148.165
62.01000 152.261
62.02000 156.261
62.03000 155.789
62.04000 152.880
62.05000 150.080
62.06000 152.408
62.07000 156.407
62.08000 159.710
62.09000 155.959
62.10000 150.376
62.11000 145.763
62.12000 147.232
62.13000 149.758
62.14000 151.834
62.15000 148.330
62.16000 144.950
62.17000 142.931
62.18000 144.788
62.19000 146.884
62.20000 146.894
62.21000 142.784
62.22000 138.565
62.23000 136.133
62.24000 142.747
62.25000 147.408
62.26000 148.072
62.27000 145.160
62.28000 142.296
62.29000 142.653
62.30000 144.955
62.31000 147.188
62.32000 146.274
62.33000 144.163
62.34000 142.307
62.35000 143.462
62.36000 145.485
62.37000 147.192
62.38000 146.664
62.39000 145.699
62.40000 144.890
62.41000 142.873
62.42000 141.068
62.43000 140.322
62.44000 142.915
62.45000 145.752
62.46000 147.383
62.47000 146.381
62.48000 145.286
62.49000 144.626
62.50000 140.021
62.51000 136.715
62.52000 136.187
62.53000 138.450
62.54000 140.709
62.55000 142.507
62.56000 143.998
62.57000 145.454
62.58000 145.199
62.59000 144.199
62.60000 143.222
62.61000 142.573
62.62000 142.029
62.63000 141.800
62.64000 144.109
62.65000 146.971
62.66000 149.418
62.67000 148.070
62.68000 146.477
62.69000 145.143
62.70000 144.719
62.71000 144.373
62.72000 144.328
62.73000 145.014
62.74000 145.731
62.75000 146.183
62.76000 144.427
62.77000 143.132
62.78000 142.346
62.79000 142.135
62.80000 141.921
62.81000 141.185
62.82000 140.059
62.83000 138.952
62.84000 141.450
62.85000 145.644
62.86000 149.475
62.87000 147.316
62.88000 143.038
62.89000 139.563
62.90000 143.504
62.91000 149.245
62.92000 154.245
62.93000 151.830
62.94000 148.748
62.95000 146.118
62.96000 145.245
62.97000 144.547
62.98000 145.840
62.99000 152.447
63.00000 159.343
63.01000 163.853
63.02000 156.236
63.03000 150.444
63.04000 147.256
63.05000 147.353
63.06000 147.462
63.07000 148.044
63.08000 149.020
63.09000 149.984
63.10000 150.750
63.11000 151.389
63.12000 151.960
63.13000 151.162
63.14000 149.829
63.15000 148.769
63.16000 150.625
63.17000 153.268
63.18000 155.608
63.19000 156.733
63.20000 157.516
63.21000 157.579
63.22000 154.535
63.23000 151.133
63.24000 148.404
63.25000 147.659
63.26000 147.045
63.27000 146.629
63.28000 148.800
63.29000 150.477
63.30000 150.933
63.31000 149.673
63.32000 148.400
63.33000 146.842
63.34000 145.016
63.35000 143.204
63.36000 146.178
63.37000 152.046
63.38000 157.717
63.39000 158.452
63.40000 157.052
63.41000 155.612
63.42000 153.675
63.43000 151.590
63.44000 149.715
63.45000 144.073
63.46000 138.462
63.47000 135.182
63.48000 143.120
63.49000 152.533
63.50000 158.749
63.51000 154.505
63.52000 149.449
63.53000 145.902
63.54000 152.662
63.55000 158.076
63.56000 161.571
63.57000 162.070
63.58000 162.534
63.59000 161.898
63.60000 160.110
63.61000 158.329
63.62000 155.585
63.63000 152.207
63.64000 148.890
63.65000 147.494
63.66000 147.018
63.67000 146.906
63.68000 152.146
63.69000 159.160
63.70000 165.556
63.71000 161.616
63.72000 156.047
63.73000 151.160
63.74000 149.952
63.75000 149.293
63.76000 149.744
63.77000 154.223
63.78000 159.068
63.79000 162.576
63.80000 156.730
63.81000 151.898
63.82000 150.128
63.83000 153.663
63.84000 157.291
63.85000 159.508
63.86000 160.068
63.87000 160.625
63.88000 161.914
63.89000 163.760
63.90000 165.488
63.91000 162.229
63.92000 156.329
63.93000 150.533
63.94000 146.561
63.95000 143.258
63.96000 140.206
63.97000 142.643
63.98000 146.072
63.99000 149.180
64.00000 150.346
64.01000 151.186
64.02000 152.679
64.03000 156.806
64.04000 161.211
64.05000 164.494
64.06000 161.828
64.07000 159.481
64.08000 156.188
64.09000 151.078
64.10000 145.924
64.11000 145.853
64.12000 152.447
64.13000 159.065
64.14000 161.312
64.15000 159.777
64.16000 158.286
64.17000 159.495
64.18000 162.287
64.19000 164.865
64.20000 162.829
64.21000 158.921
64.22000 155.267
64.23000 157.249
64.24000 160.482
64.25000 163.266
64.26000 162.977
64.27000 162.109
64.28000 162.587
64.29000 169.101
64.30000 176.345
64.31000 181.895
64.32000 176.327
64.33000 171.319
64.34000 168.557
64.35000 170.565
64.36000 172.729
64.37000 172.653
64.38000 169.310
64.39000 165.939
64.40000 165.183
64.41000 166.966
64.42000 168.769
64.43000 172.430
64.44000 177.298
64.45000 181.799
64.46000 176.338
64.47000 166.410
64.48000 157.025
64.49000 159.044
64.50000 164.150
64.51000 168.631
64.52000 168.258
64.53000 166.860
64.54000 166.940
64.55000 174.427
64.56000 182.933
64.57000 189.618
64.58000 183.765
64.59000 178.254
64.60000 175.491
64.61000 179.177
64.62000 183.132
64.63000 184.601
64.64000 182.042
64.65000 179.427
64.66000 178.062
64.67000 183.714
64.68000 187.505
64.69000 185.711
64.70000 179.878
64.71000 174.156
64.72000 172.355
64.73000 172.498
64.74000 172.634
64.75000 175.010
64.76000 177.933
64.77000 180.761
64.78000 182.742
64.79000 184.524
64.80000 185.758
64.81000 183.915
64.82000 181.592
64.83000 179.723
64.84000 181.816
64.85000 183.822
64.86000 186.083
64.87000 189.004
64.88000 191.959
64.89000 194.575
64.90000 196.584
64.91000 198.581
64.92000 199.680
64.93000 192.270
64.94000 187.169
64.95000 187.984
64.96000 193.570
64.97000 199.000
64.98000 197.036
64.99000 191.012
65.00000 185.210
65.01000 186.840
65.02000 191.024
65.03000 195.109
65.04000 198.177
65.05000 200.979
65.06000 203.941
65.07000 207.918
65.08000 212.072
65.09000 215.492
65.10000 213.101
65.11000 210.607
65.12000 209.037
65.13000 210.120
65.14000 211.368
65.15000 214.955
65.16000 223.193
65.17000 231.558
65.18000 236.394
65.19000 229.811
65.20000 225.154
65.21000 226.770
65.22000 234.043
65.23000 241.254
65.24000 244.248
65.25000 244.675
65.26000 245.090
65.27000 246.487
65.28000 248.204
65.29000 250.292
65.30000 256.787
65.31000 264.561
65.32000 271.575
65.33000 273.153
65.34000 273.662
65.35000 274.089
65.36000 282.421
65.37000 290.195
65.38000 299.069
65.39000 311.433
65.40000 324.056
65.41000 334.934
65.42000 341.975
65.43000 348.879
65.44000 353.055
65.45000 353.165
65.46000 353.214
65.47000 358.971
65.48000 370.509
65.49000 381.995
65.50000 387.824
65.51000 389.832
65.52000 391.795
65.53000 399.782
65.54000 410.119
65.55000 420.180
65.56000 426.374
65.57000 431.323
65.58000 436.991
65.59000 448.505
65.60000 461.303
65.61000 472.264
65.62000 489.555
65.63000 504.916
65.64000 521.553
65.65000 542.680
65.66000 564.198
65.67000 590.775
65.68000 629.655
65.69000 669.089
65.70000 693.963
65.71000 783.713
65.72000 849.453
65.73000 917.051
65.74000 986.764
65.75000 1056.462
65.76000 1122.583
65.77000 1186.016
65.78000 1248.389
65.79000 1296.485
65.80000 1335.904
65.81000 1374.973
65.82000 1408.186
65.83000 1439.313
65.84000 1469.146
65.85000 1486.925
65.86000 1501.755
65.87000 1514.685
65.88000 1499.953
65.89000 1483.516
65.90000 1465.203
65.91000 1439.552
65.92000 1413.159
65.93000 1378.872
65.94000 1323.351
65.95000 1266.659
65.96000 1229.480
65.97000 1107.487
65.98000 1016.361
65.99000 930.205
66.00000 850.367
66.01000 770.580
66.02000 706.578
66.03000 655.813
66.04000 605.643
66.05000 564.129
66.06000 528.438
66.07000 492.999
66.08000 462.698
66.09000 434.421
66.10000 408.015
66.11000 401.761
66.12000 400.985
66.13000 400.297
66.14000 390.144
66.15000 379.858
66.16000 370.669
66.17000 366.256
66.18000 362.398
66.19000 359.223
66.20000 358.081
66.21000 357.073
66.22000 356.388
66.23000 374.463
66.24000 388.380
66.25000 397.443
66.26000 399.631
66.27000 401.770
66.28000 410.461
66.29000 425.307
66.30000 440.040
66.31000 463.424
66.32000 491.779
66.33000 519.327
66.34000 526.460
66.35000 524.696
66.36000 523.620
66.37000 531.207
66.38000 541.404
66.39000 550.583
66.40000 555.057
66.41000 558.135
66.42000 559.977
66.43000 555.825
66.44000 550.878
66.45000 547.836
66.46000 551.074
66.47000 554.806
66.48000 557.430
66.49000 530.354
66.50000 508.965
66.51000 490.968
66.52000 478.308
66.53000 465.714
66.54000 453.934
66.55000 443.015
66.56000 432.144
66.57000 417.971
66.58000 401.653
66.59000 385.668
66.60000 380.495
66.61000 380.531
66.62000 380.297
66.63000 376.034
66.64000 370.426
66.65000 365.307
66.66000 360.747
66.67000 356.815
66.68000 354.183
66.69000 358.614
66.70000 364.107
66.71000 368.047
66.72000 366.308
66.73000 364.048
66.74000 362.408
66.75000 359.863
66.76000 357.873
66.77000 356.094
66.78000 354.681
66.79000 353.276
66.80000 356.227
66.81000 364.335
66.82000 372.435
66.83000 375.314
66.84000 374.118
66.85000 372.951
66.86000 373.010
66.87000 373.724
66.88000 374.401
66.89000 374.424
66.90000 374.207
66.91000 374.005
66.92000 370.902
66.93000 367.453
66.94000 366.034
66.95000 377.011
66.96000 390.090
66.97000 398.838
66.98000 390.004
66.99000 379.301
67.00000 371.306
67.01000 375.334
67.02000 379.027
67.03000 384.034
67.04000 391.577
67.05000 399.185
67.06000 397.271
67.07000 382.776
67.08000 368.230
67.09000 369.273
67.10000 383.899
67.11000 398.478
67.12000 410.098
67.13000 419.972
67.14000 429.225
67.15000 424.869
67.16000 414.955
67.17000 405.677
67.18000 413.091
67.19000 424.109
67.20000 433.833
67.21000 434.641
67.22000 433.752
67.23000 431.627
67.24000 423.913
67.25000 415.518
67.26000 409.074
67.27000 414.371
67.28000 419.213
67.29000 423.916
67.30000 428.323
67.31000 432.720
67.32000 436.624
67.33000 439.805
67.34000 442.979
67.35000 447.373
67.36000 452.962
67.37000 458.488
67.38000 458.093
67.39000 453.819
67.40000 449.548
67.41000 445.389
67.42000 441.281
67.43000 437.394
67.44000 446.031
67.45000 457.571
67.46000 468.160
67.47000 471.296
67.48000 472.846
67.49000 474.798
67.50000 478.782
67.51000 483.048
67.52000 486.408
67.53000 491.143
67.54000 495.029
67.55000 497.621
67.56000 497.152
67.57000 496.555
67.58000 496.980
67.59000 499.075
67.60000 501.194
67.61000 502.304
67.62000 501.649
67.63000 501.217
67.64000 502.976
67.65000 506.330
67.66000 509.796
67.67000 517.236
67.68000 526.664
67.69000 535.669
67.70000 534.904
67.71000 531.047
67.72000 527.555
67.73000 527.316
67.74000 527.849
67.75000 528.072
67.76000 526.538
67.77000 524.729
67.78000 523.271
67.79000 539.790
67.80000 554.621
67.81000 566.663
67.82000 571.418
67.83000 575.793
67.84000 578.451
67.85000 578.005
67.86000 577.495
67.87000 577.213
67.88000 582.096
67.89000 585.469
67.90000 587.275
67.91000 587.807
67.92000 588.331
67.93000 588.454
67.94000 588.356
67.95000 588.261
67.96000 588.898
67.97000 589.760
67.98000 591.487
67.99000 602.145
68.00000 615.160
68.01000 626.156
68.02000 624.286
68.03000 620.141
68.04000 616.725
68.05000 616.964
68.06000 617.496
68.07000 617.802
68.08000 617.451
68.09000 617.059
68.10000 621.406
68.11000 635.243
68.12000 649.346
68.13000 657.527
68.14000 658.534
68.15000 659.210
68.16000 658.785
68.17000 657.359
68.18000 656.114
68.19000 667.661
68.20000 687.048
68.21000 705.877
68.22000 715.311
68.23000 720.492
68.24000 725.635
68.25000 730.335
68.26000 734.905
68.27000 739.097
68.28000 740.558
68.29000 741.479
68.30000 742.253
68.31000 742.194
68.32000 742.055
68.33000 744.108
68.34000 753.173
68.35000 762.765
68.36000 769.196
68.37000 768.627
68.38000 767.803
68.39000 767.303
68.40000 798.619
68.41000 821.204
68.42000 838.732
68.43000 851.092
68.44000 863.469
68.45000 877.840
68.46000 893.569
68.47000 908.949
68.48000 919.444
68.49000 927.314
68.50000 936.144
68.51000 958.581
68.52000 985.432
68.53000 1011.539
68.54000 1031.539
68.55000 1050.187
68.56000 1066.178
68.57000 1093.954
68.58000 1118.862
68.59000 1149.171
68.60000 1198.633
68.61000 1249.782
68.62000 1306.001
68.63000 1374.642
68.64000 1443.850
68.65000 1487.632
68.66000 1594.463
68.67000 1672.657
68.68000 1751.015
68.69000 1829.560
68.70000 1908.102
68.71000 1986.053
68.72000 2063.557
68.73000 2139.796
68.74000 2250.381
68.75000 2374.629
68.76000 2496.277
68.77000 2573.849
68.78000 2635.601
68.79000 2704.505
68.80000 2840.734
68.81000 2993.560
68.82000 3126.967
68.83000 3391.008
68.84000 3635.253
68.85000 3902.727
68.86000 4261.696
68.87000 4630.007
68.88000 5096.809
68.89000 5830.422
68.90000 6578.965
68.91000 7071.171
68.92000 9486.171
68.93000 11296.882
68.94000 13934.317
68.95000 17630.768
68.96000 21333.328
68.97000 26290.680
68.98000 32308.920
68.99000 38258.504
69.00000 44875.813
69.01000 51708.750
69.02000 58482.797
69.03000 64040.957
69.04000 69116.469
69.05000 74022.164
69.06000 77078.391
69.07000 79628.102
69.08000 81890.758
69.09000 83052.984
69.10000 83884.367
69.11000 84702.578
69.12000 85463.039
69.13000 86216.719
69.14000 87007.031
69.15000 87907.125
69.16000 88814.602
69.17000 89433.148
69.18000 89001.922
69.19000 88655.422
69.20000 87138.203
69.21000 83950.641
69.22000 80750.313
69.23000 76923.617
69.24000 72503.484
69.25000 68115.953
69.26000 64111.035
69.27000 60411.492
69.28000 56738.156
69.29000 53739.602
69.30000 51037.215
69.31000 48408.809
69.32000 46722.434
69.33000 45322.160
69.34000 44060.480
69.35000 42594.008
69.36000 41270.348
69.37000 39823.559
69.38000 37774.480
69.39000 35644.781
69.40000 33259.574
69.41000 30026.211
69.42000 26725.381
69.43000 24398.986
69.44000 20282.746
69.45000 17107.293
69.46000 14282.966
69.47000 12015.205
69.48000 9754.452
69.49000 7974.929
69.50000 6707.999
69.51000 5446.539
69.52000 4569.572
69.53000 3970.468
69.54000 3377.874
69.55000 3000.756
69.56000 2728.226
69.57000 2460.654
69.58000 2267.834
69.59000 2100.155
69.60000 1946.937
69.61000 1853.279
69.62000 1782.269
69.63000 1710.806
69.64000 1636.865
69.65000 1562.549
69.66000 1494.263
69.67000 1448.182
69.68000 1404.164
69.69000 1372.158
69.70000 1314.032
69.71000 1268.322
69.72000 1228.423
69.73000 1198.737
69.74000 1169.241
69.75000 1143.065
69.76000 1120.850
69.77000 1098.685
69.78000 1075.137
69.79000 1050.622
69.80000 1026.360
69.81000 1013.326
69.82000 1006.322
69.83000 999.268
69.84000 991.291
69.85000 982.971
69.86000 975.269
69.87000 946.273
69.88000 915.307
69.89000 887.458
69.90000 878.799
69.91000 873.422
69.92000 867.659
69.93000 860.318
69.94000 852.808
69.95000 847.187
69.96000 822.900
69.97000 803.078
69.98000 787.323
69.99000 779.482
70.00000 771.846
