20.00000 2342.627
20.01000 2331.182
20.02000 2318.101
20.03000 2313.015
20.04000 2339.885
20.05000 2370.082
20.06000 2392.547
20.07000 2355.180
20.08000 2323.438
20.09000 2306.250
20.10000 2316.768
20.11000 2327.955
20.12000 2335.822
20.13000 2339.371
20.14000 2342.899
20.15000 2351.040
20.16000 2363.117
20.17000 2375.169
20.18000 2385.790
20.19000 2395.578
20.20000 2404.883
20.21000 2403.926
20.22000 2398.838
20.23000 2394.085
20.24000 2383.788
20.25000 2373.048
20.26000 2363.266
20.27000 2359.976
20.28000 2357.900
20.29000 2357.542
20.30000 2364.824
20.31000 2373.020
20.32000 2379.287
20.33000 2370.262
20.34000 2362.312
20.35000 2355.380
20.36000 2350.593
20.37000 2345.874
20.38000 2340.190
20.39000 2333.110
20.40000 2326.019
20.41000 2329.651
20.42000 2343.608
20.43000 2357.506
20.44000 2366.264
20.45000 2371.706
20.46000 2376.629
20.47000 2367.771
20.48000 2352.780
20.49000 2338.619
20.50000 2337.584
20.51000 2340.346
20.52000 2343.367
20.53000 2348.378
20.54000 2353.806
20.55000 2359.189
20.56000 2364.349
20.57000 2369.479
20.58000 2373.504
20.59000 2359.495
20.60000 2347.119
20.61000 2336.177
20.62000 2328.573
20.63000 2321.106
20.64000 2321.297
20.65000 2333.805
20.66000 2346.477
20.67000 2353.065
20.68000 2350.267
20.69000 2348.387
20.70000 2348.438
20.71000 2349.873
20.72000 2351.187
20.73000 2348.319
20.74000 2343.392
20.75000 2338.692
20.76000 2333.407
20.77000 2328.315
20.78000 2325.445
20.79000 2342.069
20.80000 2363.247
20.81000 2380.636
20.82000 2376.937
20.83000 2369.984
20.84000 2364.397
20.85000 2366.312
20.86000 2368.440
20.87000 2374.308
20.88000 2389.809
20.89000 2405.798
20.90000 2411.788
20.91000 2399.952
20.92000 2387.766
20.93000 2381.083
20.94000 2383.215
20.95000 2384.685
20.96000 2382.831
20.97000 2378.318
20.98000 2373.881
20.99000 2372.913
21.00000 2373.837
21.01000 2374.725
21.02000 2372.242
21.03000 2368.719
21.04000 2366.324
21.05000 2375.343
21.06000 2387.327
21.07000 2396.307
21.08000 2386.480
21.09000 2373.383
21.10000 2362.623
21.11000 2341.803
21.12000 2323.797
21.13000 2318.049
21.14000 2347.215
21.15000 2378.526
21.16000 2395.060
21.17000 2382.432
21.18000 2369.021
21.19000 2361.293
21.20000 2378.192
21.21000 2390.100
21.22000 2381.634
21.23000 2354.950
21.24000 2328.713
21.25000 2332.199
21.26000 2353.629
21.27000 2374.419
21.28000 2387.975
21.29000 2397.966
21.30000 2406.274
21.31000 2394.795
21.32000 2377.610
21.33000 2364.085
21.34000 2376.468
21.35000 2393.901
21.36000 2408.526
21.37000 2405.142
21.38000 2400.446
21.39000 2398.640
21.40000 2405.944
21.41000 2413.915
21.42000 2414.294
21.43000 2398.103
21.44000 2381.330
21.45000 2371.217
21.46000 2376.750
21.47000 2380.798
21.48000 2383.979
21.49000 2386.291
21.50000 2388.599
21.51000 2390.708
21.52000 2392.684
21.53000 2394.614
21.54000 2395.827
21.55000 2396.672
21.56000 2397.390
21.57000 2396.354
21.58000 2394.756
21.59000 2393.556
21.60000 2395.554
21.61000 2398.248
21.62000 2400.553
21.63000 2403.395
21.64000 2405.855
21.65000 2405.241
21.66000 2393.881
21.67000 2381.597
21.68000 2377.996
21.69000 2395.358
21.70000 2413.647
21.71000 2425.149
21.72000 2396.690
21.73000 2375.659
21.74000 2373.805
21.75000 2393.573
21.76000 2413.254
21.77000 2412.419
21.78000 2396.290
21.79000 2380.437
21.80000 2382.912
21.81000 2394.345
21.82000 2404.761
21.83000 2398.408
21.84000 2386.124
21.85000 2374.601
21.86000 2370.097
21.87000 2367.298
21.88000 2364.860
21.89000 2364.085
21.90000 2363.651
21.91000 2365.289
21.92000 2374.963
21.93000 2385.440
21.94000 2396.963
21.95000 2411.277
21.96000 2425.744
21.97000 2435.204
21.98000 2406.507
21.99000 2384.807
22.00000 2374.006
22.01000 2376.942
22.02000 2379.901
22.03000 2372.333
22.04000 2356.007
22.05000 2339.879
22.06000 2340.462
22.07000 2350.236
22.08000 2359.788
22.09000 2364.912
22.10000 2368.303
22.11000 2373.123
22.12000 2393.172
22.13000 2417.329
22.14000 2438.715
22.15000 2430.821
22.16000 2419.405
22.17000 2406.646
22.18000 2388.099
22.19000 2368.885
22.20000 2357.720
22.21000 2370.326
22.22000 2384.490
22.23000 2394.095
22.24000 2408.575
22.25000 2419.481
22.26000 2427.670
22.27000 2432.043
22.28000 2436.390
22.29000 2439.968
22.30000 2442.830
22.31000 2445.670
22.32000 2423.854
22.33000 2387.245
22.34000 2352.300
22.35000 2358.751
22.36000 2383.107
22.37000 2405.766
22.38000 2407.308
22.39000 2402.533
22.40000 2398.241
22.41000 2408.108
22.42000 2419.265
22.43000 2425.353
22.44000 2407.041
22.45000 2385.524
22.46000 2371.157
22.47000 2380.169
22.48000 2390.997
22.49000 2398.593
22.50000 2396.948
22.51000 2395.435
22.52000 2395.909
22.53000 2399.484
22.54000 2403.095
22.55000 2405.711
22.56000 2407.287
22.57000 2408.854
22.58000 2421.833
22.59000 2442.522
22.60000 2461.953
22.61000 2441.297
22.62000 2401.470
22.63000 2363.999
22.64000 2361.151
22.65000 2369.775
22.66000 2377.640
22.67000 2382.319
22.68000 2385.828
22.69000 2389.542
22.70000 2394.367
22.71000 2399.358
22.72000 2398.020
22.73000 2373.735
22.74000 2347.364
22.75000 2328.274
22.76000 2343.477
22.77000 2356.406
22.78000 2372.238
22.79000 2393.096
22.80000 2414.043
22.81000 2423.076
22.82000 2418.123
22.83000 2413.159
22.84000 2418.260
22.85000 2431.087
22.86000 2443.488
22.87000 2437.788
22.88000 2422.511
22.89000 2407.781
22.90000 2402.706
22.91000 2401.170
22.92000 2399.752
22.93000 2397.940
22.94000 2396.225
22.95000 2396.166
22.96000 2406.131
22.97000 2417.781
22.98000 2426.676
22.99000 2424.474
23.00000 2421.104
23.01000 2418.593
23.02000 2424.520
23.03000 2429.519
23.04000 2427.567
23.05000 2412.288
23.06000 2396.681
23.07000 2406.618
23.08000 2450.036
23.09000 2493.572
23.10000 2498.828
23.11000 2470.997
23.12000 2443.300
23.13000 2423.605
23.14000 2408.599
23.15000 2394.611
23.16000 2402.576
23.17000 2419.443
23.18000 2435.214
23.19000 2427.435
23.20000 2414.385
23.21000 2403.459
23.22000 2407.031
23.23000 2413.339
23.24000 2418.552
23.25000 2418.855
23.26000 2418.565
23.27000 2418.343
23.28000 2427.303
23.29000 2434.882
23.30000 2435.971
23.31000 2423.291
23.32000 2410.161
23.33000 2403.345
23.34000 2405.741
23.35000 2408.215
23.36000 2420.904
23.37000 2443.508
23.38000 2465.837
23.39000 2463.260
23.40000 2444.487
23.41000 2426.065
23.42000 2417.154
23.43000 2412.505
23.44000 2408.111
23.45000 2423.138
23.46000 2442.475
23.47000 2457.735
23.48000 2441.368
23.49000 2418.325
23.50000 2401.081
23.51000 2412.882
23.52000 2428.677
23.53000 2441.091
23.54000 2442.332
23.55000 2442.589
23.56000 2439.557
23.57000 2428.811
23.58000 2417.744
23.59000 2416.829
23.60000 2432.362
23.61000 2448.122
23.62000 2456.348
23.63000 2465.680
23.64000 2471.874
23.65000 2459.246
23.66000 2433.012
23.67000 2407.357
23.68000 2402.009
23.69000 2406.728
23.70000 2411.234
23.71000 2411.765
23.72000 2410.990
23.73000 2411.506
23.74000 2423.477
23.75000 2438.143
23.76000 2450.853
23.77000 2452.583
23.78000 2452.603
23.79000 2452.619
23.80000 2452.954
23.81000 2453.250
23.82000 2447.581
23.83000 2426.443
23.84000 2404.510
23.85000 2392.705
23.86000 2399.089
23.87000 2405.839
23.88000 2409.555
23.89000 2426.718
23.90000 2438.537
23.91000 2441.302
23.92000 2436.771
23.93000 2432.229
23.94000 2427.202
23.95000 2421.908
23.96000 2416.809
23.97000 2428.032
23.98000 2444.396
23.99000 2458.997
24.00000 2455.598
24.01000 2447.489
24.02000 2442.036
24.03000 2453.368
24.04000 2467.641
24.05000 2479.387
24.06000 2463.042
24.07000 2447.048
24.08000 2432.869
24.09000 2423.894
24.10000 2415.242
24.11000 2411.451
24.12000 2417.321
24.13000 2423.455
24.14000 2427.001
24.15000 2440.260
24.16000 2449.584
24.17000 2448.024
24.18000 2436.651
24.19000 2425.524
24.20000 2431.259
24.21000 2447.249
24.22000 2462.771
24.23000 2467.720
24.24000 2468.201
24.25000 2468.460
24.26000 2466.096
24.27000 2462.970
24.28000 2459.805
24.29000 2456.362
24.30000 2452.864
24.31000 2449.926
24.32000 2452.519
24.33000 2455.262
24.34000 2457.324
24.35000 2457.222
24.36000 2456.959
24.37000 2449.717
24.38000 2427.129
24.39000 2403.994
24.40000 2390.000
24.41000 2395.953
24.42000 2400.342
24.43000 2407.564
24.44000 2417.657
24.45000 2427.712
24.46000 2433.575
24.47000 2436.607
24.48000 2439.572
24.49000 2436.669
24.50000 2431.276
24.51000 2426.480
24.52000 2430.060
24.53000 2436.335
24.54000 2441.968
24.55000 2442.388
24.56000 2441.664
24.57000 2441.043
24.58000 2451.302
24.59000 2461.281
24.60000 2467.983
24.61000 2463.146
24.62000 2457.304
24.63000 2456.704
24.64000 2468.846
24.65000 2481.561
24.66000 2489.580
24.67000 2453.191
24.68000 2426.331
24.69000 2428.916
24.70000 2464.971
24.71000 2500.886
24.72000 2501.522
24.73000 2475.653
24.74000 2450.216
24.75000 2442.080
24.76000 2442.812
24.77000 2443.210
24.78000 2438.036
24.79000 2430.876
24.80000 2424.626
24.81000 2426.850
24.82000 2431.145
24.83000 2434.890
24.84000 2443.774
24.85000 2452.081
24.86000 2461.508
24.87000 2475.309
24.88000 2489.551
24.89000 2498.192
24.90000 2491.772
24.91000 2484.522
24.92000 2479.767
24.93000 2491.799
24.94000 2500.926
24.95000 2500.334
24.96000 2487.396
24.97000 2474.425
24.98000 2466.369
24.99000 2462.434
25.00000 2458.546
25.01000 2455.453
25.02000 2452.877
25.03000 2450.115
25.04000 2443.575
25.05000 2435.548
25.06000 2428.797
25.07000 2435.800
25.08000 2446.540
25.09000 2456.060
25.10000 2448.646
25.11000 2439.552
25.12000 2435.923
25.13000 2456.066
25.14000 2478.969
25.15000 2491.630
25.16000 2473.824
25.17000 2453.995
25.18000 2440.515
25.19000 2470.326
25.20000 2493.558
25.21000 2505.896
25.22000 2502.812
25.23000 2499.615
25.24000 2491.819
25.25000 2479.702
25.26000 2467.678
25.27000 2462.127
25.28000 2460.687
25.29000 2459.532
25.30000 2465.600
25.31000 2474.813
25.32000 2483.927
25.33000 2491.772
25.34000 2499.235
25.35000 2505.952
25.36000 2497.535
25.37000 2487.444
25.38000 2477.096
25.39000 2465.501
25.40000 2453.741
25.41000 2447.406
25.42000 2458.944
25.43000 2471.886
25.44000 2480.986
25.45000 2484.493
25.46000 2486.986
25.47000 2484.129
25.48000 2472.856
25.49000 2461.482
25.50000 2465.402
25.51000 2485.473
25.52000 2505.458
25.53000 2504.703
25.54000 2489.566
25.55000 2474.810
25.56000 2472.443
25.57000 2476.042
25.58000 2478.755
25.59000 2468.264
25.60000 2453.367
25.61000 2439.768
25.62000 2439.503
25.63000 2441.970
25.64000 2445.474
25.65000 2454.611
25.66000 2464.595
25.67000 2472.746
25.68000 2474.201
25.69000 2475.041
25.70000 2475.649
25.71000 2488.116
25.72000 2498.140
25.73000 2502.154
25.74000 2495.689
25.75000 2489.032
25.76000 2484.577
25.77000 2482.727
25.78000 2480.884
25.79000 2482.075
25.80000 2485.615
25.81000 2489.245
25.82000 2496.708
25.83000 2506.217
25.84000 2514.714
25.85000 2505.147
25.86000 2488.908
25.87000 2473.892
25.88000 2472.141
25.89000 2473.595
25.90000 2475.356
25.91000 2478.990
25.92000 2482.942
25.93000 2487.883
25.94000 2496.843
25.95000 2506.229
25.96000 2513.240
25.97000 2510.184
25.98000 2507.338
25.99000 2499.506
26.00000 2482.042
26.01000 2464.337
26.02000 2459.082
26.03000 2470.274
26.04000 2481.537
26.05000 2479.582
26.06000 2466.114
26.07000 2452.940
26.08000 2457.735
26.09000 2473.143
26.10000 2487.935
26.11000 2489.240
26.12000 2485.037
26.13000 2481.104
26.14000 2495.116
26.15000 2512.450
26.16000 2523.975
26.17000 2495.468
26.18000 2459.344
26.19000 2431.906
26.20000 2443.722
26.21000 2460.323
26.22000 2473.064
26.23000 2492.660
26.24000 2508.529
26.25000 2518.309
26.26000 2515.078
26.27000 2511.414
26.28000 2505.195
26.29000 2495.220
26.30000 2485.211
26.31000 2476.867
26.32000 2470.154
26.33000 2463.509
26.34000 2463.350
26.35000 2467.440
26.36000 2471.329
26.37000 2469.694
26.38000 2465.564
26.39000 2461.657
26.40000 2450.622
26.41000 2438.429
26.42000 2428.807
26.43000 2439.314
26.44000 2454.105
26.45000 2463.704
26.46000 2447.098
26.47000 2426.855
26.48000 2410.918
26.49000 2440.362
26.50000 2466.979
26.51000 2483.589
26.52000 2476.555
26.53000 2468.523
26.54000 2467.967
26.55000 2479.611
26.56000 2491.429
26.57000 2497.622
26.58000 2439.691
26.59000 2400.756
26.60000 2415.400
26.61000 2469.076
26.62000 2521.116
26.63000 2514.628
26.64000 2478.910
26.65000 2444.790
26.66000 2453.050
26.67000 2474.363
26.68000 2493.997
26.69000 2498.599
26.70000 2499.635
26.71000 2499.446
26.72000 2492.329
26.73000 2484.124
26.74000 2477.509
26.75000 2463.597
26.76000 2451.725
26.77000 2446.464
26.78000 2458.473
26.79000 2471.382
26.80000 2483.943
26.81000 2495.875
26.82000 2507.794
26.83000 2514.379
26.84000 2482.205
26.85000 2459.988
26.86000 2454.575
26.87000 2462.811
26.88000 2470.901
26.89000 2471.895
26.90000 2468.966
26.91000 2466.144
26.92000 2481.386
26.93000 2502.207
26.94000 2522.244
26.95000 2534.181
26.96000 2543.981
26.97000 2549.000
26.98000 2523.555
26.99000 2492.726
27.00000 2467.318
27.01000 2467.768
27.02000 2470.516
27.03000 2473.823
27.04000 2478.746
27.05000 2483.770
27.06000 2485.926
27.07000 2482.335
27.08000 2478.583
27.09000 2476.407
27.10000 2470.340
27.11000 2466.063
27.12000 2456.477
27.13000 2442.067
27.14000 2428.013
27.15000 2439.082
27.16000 2465.544
27.17000 2491.244
27.18000 2494.514
27.19000 2488.604
27.20000 2482.101
27.21000 2468.483
27.22000 2452.783
27.23000 2441.460
27.24000 2461.696
27.25000 2488.183
27.26000 2510.466
27.27000 2497.754
27.28000 2483.426
27.29000 2472.040
27.30000 2470.066
27.31000 2468.799
27.32000 2471.051
27.33000 2481.100
27.34000 2491.432
27.35000 2497.701
27.36000 2470.724
27.37000 2451.225
27.38000 2444.369
27.39000 2450.428
27.40000 2456.524
27.41000 2466.843
27.42000 2480.034
27.43000 2492.934
27.44000 2492.276
27.45000 2485.560
27.46000 2479.734
27.47000 2486.519
27.48000 2497.393
27.49000 2507.338
27.50000 2509.658
27.51000 2510.290
27.52000 2510.832
27.53000 2488.787
27.54000 2467.396
27.55000 2450.379
27.56000 2448.869
27.57000 2448.723
27.58000 2451.893
27.59000 2463.184
27.60000 2474.845
27.61000 2482.221
27.62000 2475.685
27.63000 2470.781
27.64000 2471.845
27.65000 2479.747
27.66000 2487.669
27.67000 2498.045
27.68000 2510.279
27.69000 2522.313
27.70000 2520.609
27.71000 2512.075
27.72000 2503.870
27.73000 2501.233
27.74000 2500.594
27.75000 2498.554
27.76000 2483.328
27.77000 2464.854
27.78000 2448.727
27.79000 2472.841
27.80000 2499.115
27.81000 2518.141
27.82000 2508.632
27.83000 2496.211
27.84000 2490.366
27.85000 2502.333
27.86000 2515.296
27.87000 2523.818
27.88000 2515.458
27.89000 2509.017
27.90000 2498.650
27.91000 2483.258
27.92000 2467.869
27.93000 2465.512
27.94000 2474.171
27.95000 2482.730
27.96000 2484.306
27.97000 2481.935
27.98000 2479.770
27.99000 2481.853
28.00000 2485.622
28.01000 2489.422
28.02000 2493.554
28.03000 2497.777
28.04000 2501.525
28.05000 2502.132
28.06000 2502.156
28.07000 2501.328
28.08000 2496.767
28.09000 2491.768
28.10000 2491.941
28.11000 2507.609
28.12000 2524.319
28.13000 2535.707
28.14000 2510.979
28.15000 2491.668
28.16000 2477.945
28.17000 2472.194
28.18000 2466.504
28.19000 2464.556
28.20000 2466.150
28.21000 2467.733
28.22000 2474.834
28.23000 2485.270
28.24000 2495.079
28.25000 2488.775
28.26000 2475.400
28.27000 2463.126
28.28000 2464.866
28.29000 2470.860
28.30000 2476.260
28.31000 2493.649
28.32000 2511.073
28.33000 2525.971
28.34000 2528.514
28.35000 2529.404
28.36000 2527.728
28.37000 2517.534
28.38000 2506.663
28.39000 2499.001
28.40000 2521.929
28.41000 2540.233
28.42000 2544.019
28.43000 2524.798
28.44000 2505.287
28.45000 2495.254
28.46000 2495.313
28.47000 2495.373
28.48000 2497.985
28.49000 2502.354
28.50000 2506.513
28.51000 2503.713
28.52000 2497.535
28.53000 2492.062
28.54000 2497.199
28.55000 2505.904
28.56000 2513.858
28.57000 2498.775
28.58000 2480.673
28.59000 2466.575
28.60000 2474.399
28.61000 2485.548
28.62000 2495.503
28.63000 2501.069
28.64000 2506.228
28.65000 2509.978
28.66000 2499.156
28.67000 2490.279
28.68000 2493.734
28.69000 2518.856
28.70000 2544.382
28.71000 2553.665
28.72000 2543.572
28.73000 2533.461
28.74000 2521.224
28.75000 2507.383
28.76000 2493.635
28.77000 2484.048
28.78000 2476.695
28.79000 2470.228
28.80000 2479.842
28.81000 2495.439
28.82000 2509.874
28.83000 2493.512
28.84000 2471.719
28.85000 2456.680
28.86000 2483.209
28.87000 2516.843
28.88000 2537.707
28.89000 2506.340
28.90000 2469.367
28.91000 2441.694
28.92000 2458.565
28.93000 2473.808
28.94000 2488.828
28.95000 2503.412
28.96000 2517.985
28.97000 2520.013
28.98000 2505.339
28.99000 2490.592
29.00000 2487.276
29.01000 2494.008
29.02000 2500.549
29.03000 2495.095
29.04000 2482.505
29.05000 2470.848
29.06000 2479.964
29.07000 2497.625
29.08000 2514.166
29.09000 2529.237
29.10000 2542.564
29.11000 2552.628
29.12000 2540.004
29.13000 2523.028
29.14000 2511.183
29.15000 2522.712
29.16000 2537.117
29.17000 2548.195
29.18000 2538.453
29.19000 2529.568
29.20000 2527.735
29.21000 2541.077
29.22000 2554.933
29.23000 2558.439
29.24000 2546.614
29.25000 2534.646
29.26000 2518.381
29.27000 2497.871
29.28000 2477.562
29.29000 2476.837
29.30000 2489.038
29.31000 2501.086
29.32000 2508.830
29.33000 2514.615
29.34000 2520.092
29.35000 2519.681
29.36000 2517.597
29.37000 2514.657
29.38000 2504.957
29.39000 2493.807
29.40000 2486.912
29.41000 2501.669
29.42000 2519.458
29.43000 2533.489
29.44000 2514.296
29.45000 2496.661
29.46000 2484.985
29.47000 2487.489
29.48000 2490.601
29.49000 2494.924
29.50000 2501.239
29.51000 2507.583
29.52000 2510.920
29.53000 2514.107
29.54000 2516.206
29.55000 2507.487
29.56000 2490.827
29.57000 2474.577
29.58000 2473.352
29.59000 2479.685
29.60000 2485.738
29.61000 2489.868
29.62000 2493.088
29.63000 2495.508
29.64000 2490.709
29.65000 2484.184
29.66000 2480.061
29.67000 2489.646
29.68000 2501.401
29.69000 2510.894
29.70000 2500.845
29.71000 2491.122
29.72000 2483.949
29.73000 2483.490
29.74000 2483.385
29.75000 2486.031
29.76000 2493.687
29.77000 2501.449
29.78000 2505.753
29.79000 2505.537
29.80000 2505.388
29.81000 2509.438
29.82000 2516.925
29.83000 2524.035
29.84000 2512.400
29.85000 2490.328
29.86000 2469.044
29.87000 2467.450
29.88000 2473.092
29.89000 2479.269
29.90000 2491.034
29.91000 2504.285
29.92000 2515.168
29.93000 2510.843
29.94000 2503.806
29.95000 2497.998
29.96000 2514.820
29.97000 2530.780
29.98000 2536.538
29.99000 2512.597
30.00000 2486.760
30.01000 2472.451
30.02000 2481.397
30.03000 2491.007
30.04000 2496.599
30.05000 2491.017
30.06000 2487.046
30.07000 2483.635
30.08000 2480.738
30.09000 2478.015
30.10000 2487.890
30.11000 2505.542
30.12000 2522.694
30.13000 2512.277
30.14000 2491.210
30.15000 2471.818
30.16000 2472.791
30.17000 2479.768
30.18000 2485.768
30.19000 2484.670
30.20000 2482.155
30.21000 2480.036
30.22000 2499.699
30.23000 2518.454
30.24000 2528.315
30.25000 2509.510
30.26000 2488.530
30.27000 2474.729
30.28000 2476.945
30.29000 2479.753
30.30000 2481.462
30.31000 2502.973
30.32000 2518.493
30.33000 2515.944
30.34000 2494.783
30.35000 2473.880
30.36000 2483.197
30.37000 2513.228
30.38000 2542.608
30.39000 2545.131
30.40000 2535.401
30.41000 2525.327
30.42000 2510.323
30.43000 2493.708
30.44000 2479.486
30.45000 2485.084
30.46000 2495.101
30.47000 2503.703
30.48000 2504.208
30.49000 2503.634
30.50000 2503.380
30.51000 2504.277
30.52000 2505.275
30.53000 2507.743
30.54000 2513.839
30.55000 2520.102
30.56000 2524.076
30.57000 2528.088
30.58000 2531.000
30.59000 2528.590
30.60000 2520.030
30.61000 2511.431
30.62000 2495.619
30.63000 2474.303
30.64000 2453.328
30.65000 2454.492
30.66000 2466.803
30.67000 2479.386
30.68000 2496.631
30.69000 2515.560
30.70000 2532.479
30.71000 2530.285
30.72000 2523.345
30.73000 2517.280
30.74000 2501.259
30.75000 2486.130
30.76000 2472.678
30.77000 2465.877
30.78000 2459.761
30.79000 2460.834
30.80000 2481.512
30.81000 2503.302
30.82000 2517.667
30.83000 2522.425
30.84000 2525.765
30.85000 2518.543
30.86000 2497.692
30.87000 2476.813
30.88000 2472.838
30.89000 2483.265
30.90000 2493.576
30.91000 2494.120
30.92000 2489.143
30.93000 2485.185
30.94000 2502.575
30.95000 2528.498
30.96000 2551.015
30.97000 2536.056
30.98000 2510.760
30.99000 2488.288
31.00000 2470.708
31.01000 2456.250
31.02000 2448.780
31.03000 2472.170
31.04000 2499.216
31.05000 2517.517
31.06000 2509.424
31.07000 2499.535
31.08000 2492.779
31.09000 2492.675
31.10000 2492.754
31.11000 2495.375
31.12000 2501.647
31.13000 2507.948
31.14000 2513.750
31.15000 2519.076
31.16000 2524.364
31.17000 2526.359
31.18000 2526.245
31.19000 2525.957
31.20000 2521.083
31.21000 2514.184
31.22000 2508.466
31.23000 2517.957
31.24000 2532.098
31.25000 2544.853
31.26000 2519.364
31.27000 2490.003
31.28000 2469.321
31.29000 2491.414
31.30000 2519.284
31.31000 2541.814
31.32000 2546.498
31.33000 2549.747
31.34000 2552.042
31.35000 2531.360
31.36000 2514.958
31.37000 2500.391
31.38000 2488.753
31.39000 2477.153
31.40000 2475.714
31.41000 2485.185
31.42000 2494.621
31.43000 2493.509
31.44000 2484.971
31.45000 2477.010
31.46000 2488.499
31.47000 2509.494
31.48000 2529.150
31.49000 2528.370
31.50000 2520.668
31.51000 2513.624
31.52000 2501.525
31.53000 2489.728
31.54000 2482.715
31.55000 2502.110
31.56000 2525.545
31.57000 2541.004
31.58000 2526.892
31.59000 2510.004
31.60000 2497.699
31.61000 2500.525
31.62000 2503.283
31.63000 2503.540
31.64000 2499.370
31.65000 2495.116
31.66000 2497.148
31.67000 2506.739
31.68000 2516.328
31.69000 2525.923
31.70000 2535.479
31.71000 2544.724
31.72000 2539.922
31.73000 2527.522
31.74000 2514.424
31.75000 2488.482
31.76000 2457.727
31.77000 2429.237
31.78000 2447.764
31.79000 2475.339
31.80000 2500.373
31.81000 2509.633
31.82000 2516.174
31.83000 2522.541
31.84000 2528.195
31.85000 2533.770
31.86000 2537.952
31.87000 2535.614
31.88000 2533.479
31.89000 2527.723
31.90000 2514.869
31.91000 2501.828
31.92000 2495.922
31.93000 2499.588
31.94000 2503.302
31.95000 2503.158
31.96000 2499.597
31.97000 2496.031
31.98000 2492.113
31.99000 2487.986
32.00000 2483.745
32.01000 2476.944
32.02000 2469.083
32.03000 2461.715
32.04000 2472.520
32.05000 2487.091
32.06000 2499.432
32.07000 2496.123
32.08000 2489.787
32.09000 2483.207
32.10000 2475.504
32.11000 2467.661
32.12000 2461.619
32.13000 2502.756
32.14000 2538.037
32.15000 2552.225
32.16000 2520.691
32.17000 2487.582
32.18000 2479.183
32.19000 2507.665
32.20000 2536.500
32.21000 2548.969
32.22000 2545.140
32.23000 2541.229
32.24000 2529.068
32.25000 2511.421
32.26000 2494.266
32.27000 2491.142
32.28000 2494.446
32.29000 2497.575
32.30000 2485.479
32.31000 2469.893
32.32000 2457.921
32.33000 2474.776
32.34000 2497.862
32.35000 2519.489
32.36000 2533.632
32.37000 2546.719
32.38000 2557.058
32.39000 2543.663
32.40000 2531.288
32.41000 2520.518
32.42000 2513.595
32.43000 2506.839
32.44000 2500.377
32.45000 2494.403
32.46000 2488.436
32.47000 2485.284
32.48000 2491.041
32.49000 2494.912
32.50000 2491.069
32.51000 2481.518
32.52000 2472.383
32.53000 2478.738
32.54000 2492.942
32.55000 2506.528
32.56000 2494.564
32.57000 2475.070
32.58000 2458.221
32.59000 2465.521
32.60000 2478.637
32.61000 2489.340
32.62000 2486.155
32.63000 2480.751
32.64000 2476.381
32.65000 2485.630
32.66000 2494.251
32.67000 2497.243
32.68000 2485.312
32.69000 2472.580
32.70000 2476.237
32.71000 2509.979
32.72000 2544.370
32.73000 2563.508
32.74000 2509.941
32.75000 2472.802
32.76000 2459.854
32.77000 2466.868
32.78000 2473.804
32.79000 2476.744
32.80000 2477.444
32.81000 2478.119
32.82000 2476.944
32.83000 2475.162
32.84000 2473.868
32.85000 2477.725
32.86000 2482.960
32.87000 2489.116
32.88000 2501.240
32.89000 2514.435
32.90000 2525.344
32.91000 2524.052
32.92000 2521.840
32.93000 2524.278
32.94000 2540.345
32.95000 2557.294
32.96000 2556.778
32.97000 2520.778
32.98000 2483.745
32.99000 2462.121
33.00000 2505.417
33.01000 2536.169
33.02000 2550.471
33.03000 2549.573
33.04000 2548.468
33.05000 2531.854
33.06000 2505.596
33.07000 2480.067
33.08000 2483.521
33.09000 2498.641
33.10000 2512.871
33.11000 2516.167
33.12000 2516.215
33.13000 2516.211
33.14000 2515.820
33.15000 2515.352
33.16000 2514.957
33.17000 2487.063
33.18000 2460.771
33.19000 2441.689
33.20000 2446.018
33.21000 2452.145
33.22000 2463.596
33.23000 2487.011
33.24000 2510.875
33.25000 2525.445
33.26000 2524.192
33.27000 2523.168
33.28000 2509.237
33.29000 2481.901
33.30000 2454.760
33.31000 2451.610
33.32000 2465.031
33.33000 2478.166
33.34000 2471.098
33.35000 2455.099
33.36000 2440.149
33.37000 2440.429
33.38000 2445.719
33.39000 2451.801
33.40000 2464.496
33.41000 2478.679
33.42000 2490.873
33.43000 2511.493
33.44000 2529.997
33.45000 2540.134
33.46000 2520.156
33.47000 2497.470
33.48000 2487.352
33.49000 2508.456
33.50000 2531.029
33.51000 2545.389
33.52000 2500.358
33.53000 2466.895
33.54000 2454.849
33.55000 2467.744
33.56000 2480.646
33.57000 2486.688
33.58000 2487.455
33.59000 2488.209
33.60000 2481.975
33.61000 2472.375
33.62000 2463.878
33.63000 2474.588
33.64000 2492.290
33.65000 2506.594
33.66000 2488.265
33.67000 2461.771
33.68000 2438.588
33.69000 2448.591
33.70000 2461.906
33.71000 2474.469
33.72000 2484.024
33.73000 2493.266
33.74000 2499.663
33.75000 2498.246
33.76000 2496.379
33.77000 2495.145
33.78000 2504.704
33.79000 2511.949
33.80000 2513.296
33.81000 2506.972
33.82000 2500.618
33.83000 2495.330
33.84000 2490.958
33.85000 2486.634
33.86000 2492.777
33.87000 2504.733
33.88000 2515.879
33.89000 2509.815
33.90000 2496.823
33.91000 2483.870
33.92000 2471.349
33.93000 2458.949
33.94000 2447.920
33.95000 2457.133
33.96000 2468.419
33.97000 2477.972
33.98000 2479.815
33.99000 2480.737
34.00000 2485.908
34.01000 2504.005
34.02000 2522.992
34.03000 2535.996
34.04000 2517.017
34.05000 2502.035
34.06000 2494.735
34.07000 2498.556
34.08000 2502.468
34.09000 2504.836
34.10000 2505.717
34.11000 2506.592
34.12000 2501.139
34.13000 2491.751
34.14000 2482.283
34.15000 2470.716
34.16000 2458.213
34.17000 2447.333
34.18000 2457.576
34.19000 2474.329
34.20000 2489.454
34.21000 2495.217
34.22000 2498.558
34.23000 2497.716
34.24000 2476.090
34.25000 2451.631
34.26000 2436.749
34.27000 2454.121
34.28000 2474.115
34.29000 2488.271
34.30000 2469.607
34.31000 2454.405
34.32000 2450.062
34.33000 2463.184
34.34000 2476.540
34.35000 2483.267
34.36000 2482.819
34.37000 2482.370
34.38000 2481.950
34.39000 2481.555
34.40000 2480.777
34.41000 2466.846
34.42000 2446.440
34.43000 2428.594
34.44000 2450.326
34.45000 2485.559
34.46000 2517.814
34.47000 2513.148
34.48000 2501.323
34.49000 2490.827
34.50000 2487.728
34.51000 2485.770
34.52000 2484.513
34.53000 2485.877
34.54000 2487.490
34.55000 2488.667
34.56000 2506.096
34.57000 2520.166
34.58000 2521.396
34.59000 2499.731
34.60000 2477.617
34.61000 2466.143
34.62000 2467.563
34.63000 2469.010
34.64000 2474.198
34.65000 2482.341
34.66000 2490.393
34.67000 2494.192
34.68000 2495.675
34.69000 2496.655
34.70000 2488.275
34.71000 2476.363
34.72000 2465.318
34.73000 2483.018
34.74000 2505.679
34.75000 2525.015
34.76000 2523.529
34.77000 2518.423
34.78000 2512.117
34.79000 2500.831
34.80000 2488.998
34.81000 2480.106
34.82000 2488.471
34.83000 2495.839
34.84000 2496.512
34.85000 2483.968
34.86000 2471.069
34.87000 2462.260
34.88000 2458.979
34.89000 2455.729
34.90000 2454.031
34.91000 2453.720
34.92000 2453.528
34.93000 2461.230
34.94000 2473.698
34.95000 2485.529
34.96000 2482.701
34.97000 2473.756
34.98000 2465.365
34.99000 2453.255
35.00000 2441.245
35.01000 2431.678
35.02000 2439.406
35.03000 2450.505
35.04000 2459.910
35.05000 2461.470
35.06000 2462.046
35.07000 2462.491
35.08000 2463.101
35.09000 2463.593
35.10000 2465.216
35.11000 2469.310
35.12000 2473.490
35.13000 2470.646
35.14000 2457.240
35.15000 2443.729
35.16000 2436.959
35.17000 2454.238
35.18000 2465.795
35.19000 2480.367
35.20000 2496.959
35.21000 2513.095
35.22000 2515.975
35.23000 2512.739
35.24000 2509.671
35.25000 2506.511
35.26000 2503.573
35.27000 2500.926
35.28000 2500.633
35.29000 2500.853
35.30000 2500.871
35.31000 2499.842
35.32000 2498.664
35.33000 2497.732
35.34000 2473.736
35.35000 2452.859
35.36000 2440.670
35.37000 2449.459
35.38000 2459.177
35.39000 2471.473
35.40000 2488.073
35.41000 2504.740
35.42000 2513.577
35.43000 2505.291
35.44000 2499.692
35.45000 2503.010
35.46000 2512.976
35.47000 2522.555
35.48000 2517.425
35.49000 2504.787
35.50000 2492.691
35.51000 2480.905
35.52000 2470.024
35.53000 2458.444
35.54000 2440.412
35.55000 2420.815
35.56000 2408.659
35.57000 2439.676
35.58000 2477.649
35.59000 2508.412
35.60000 2486.141
35.61000 2463.685
35.62000 2448.355
35.63000 2452.053
35.64000 2456.786
35.65000 2462.441
35.66000 2469.803
35.67000 2477.203
35.68000 2481.336
35.69000 2490.316
35.70000 2496.515
35.71000 2488.676
35.72000 2469.159
35.73000 2449.891
35.74000 2443.594
35.75000 2444.626
35.76000 2445.622
35.77000 2459.121
35.78000 2476.441
35.79000 2491.348
35.80000 2480.532
35.81000 2462.778
35.82000 2448.743
35.83000 2459.024
35.84000 2473.712
35.85000 2485.872
35.86000 2479.708
35.87000 2472.881
35.88000 2468.445
35.89000 2471.073
35.90000 2474.164
35.91000 2478.506
35.92000 2485.412
35.93000 2492.393
35.94000 2496.483
35.95000 2507.307
35.96000 2514.958
35.97000 2508.792
35.98000 2489.753
35.99000 2470.835
36.00000 2461.263
36.01000 2457.547
36.02000 2453.932
36.03000 2461.536
36.04000 2473.390
36.05000 2484.580
36.06000 2487.521
36.07000 2487.992
36.08000 2487.436
36.09000 2479.270
36.10000 2469.559
36.11000 2461.354
36.12000 2470.741
36.13000 2480.523
36.14000 2484.701
36.15000 2470.551
36.16000 2454.977
36.17000 2446.915
36.18000 2455.855
36.19000 2465.445
36.20000 2471.317
36.21000 2473.806
36.22000 2475.560
36.23000 2467.415
36.24000 2448.902
36.25000 2430.582
36.26000 2436.924
36.27000 2460.430
36.28000 2483.447
36.29000 2500.478
36.30000 2514.091
36.31000 2525.803
36.32000 2509.575
36.33000 2484.088
36.34000 2462.071
36.35000 2469.362
36.36000 2483.291
36.37000 2495.282
36.38000 2472.298
36.39000 2448.415
36.40000 2432.466
36.41000 2445.292
36.42000 2460.733
36.43000 2469.938
36.44000 2463.539
36.45000 2456.394
36.46000 2451.835
36.47000 2443.226
36.48000 2436.912
36.49000 2439.303
36.50000 2451.915
36.51000 2464.461
36.52000 2456.268
36.53000 2432.001
36.54000 2408.104
36.55000 2426.025
36.56000 2464.862
36.57000 2501.754
36.58000 2504.340
36.59000 2494.345
36.60000 2484.761
36.61000 2479.158
36.62000 2474.559
36.63000 2470.530
36.64000 2477.211
36.65000 2484.487
36.66000 2485.178
36.67000 2459.342
36.68000 2430.713
36.69000 2419.159
36.70000 2454.856
36.71000 2493.307
36.72000 2518.789
36.73000 2531.397
36.74000 2540.474
36.75000 2529.804
36.76000 2493.245
36.77000 2456.610
36.78000 2449.437
36.79000 2467.774
36.80000 2485.920
36.81000 2488.322
36.82000 2481.646
36.83000 2474.952
36.84000 2467.854
36.85000 2460.593
36.86000 2454.471
36.87000 2461.169
36.88000 2471.456
36.89000 2480.615
36.90000 2490.160
36.91000 2498.514
36.92000 2500.966
36.93000 2476.941
36.94000 2449.719
36.95000 2426.584
36.96000 2415.970
36.97000 2406.230
36.98000 2399.542
36.99000 2419.050
37.00000 2434.315
37.01000 2448.323
37.02000 2460.496
37.03000 2472.653
37.04000 2478.719
37.05000 2478.871
37.06000 2479.022
37.07000 2468.230
37.08000 2450.590
37.09000 2433.485
37.10000 2430.853
37.11000 2434.709
37.12000 2439.763
37.13000 2460.582
37.14000 2486.294
37.15000 2509.533
37.16000 2506.167
37.17000 2498.264
37.18000 2493.180
37.19000 2502.208
37.20000 2513.176
37.21000 2520.600
37.22000 2515.997
37.23000 2510.405
37.24000 2506.437
37.25000 2458.633
37.26000 2420.882
37.27000 2406.658
37.28000 2430.555
37.29000 2454.979
37.30000 2464.953
37.31000 2459.156
37.32000 2453.374
37.33000 2453.481
37.34000 2457.809
37.35000 2462.002
37.36000 2461.447
37.37000 2458.538
37.38000 2456.325
37.39000 2465.011
37.40000 2477.443
37.41000 2488.835
37.42000 2484.192
37.43000 2476.697
37.44000 2469.815
37.45000 2466.374
37.46000 2463.469
37.47000 2461.418
37.48000 2462.579
37.49000 2464.049
37.50000 2465.125
37.51000 2442.067
37.52000 2423.316
37.53000 2417.409
37.54000 2434.571
37.55000 2452.197
37.56000 2462.844
37.57000 2464.966
37.58000 2467.064
37.59000 2468.300
37.60000 2468.837
37.61000 2469.499
37.62000 2476.039
37.63000 2485.806
37.64000 2494.873
37.65000 2490.695
37.66000 2481.482
37.67000 2472.932
37.68000 2488.073
37.69000 2507.307
37.70000 2521.331
37.71000 2502.453
37.72000 2477.806
37.73000 2457.394
37.74000 2454.696
37.75000 2453.958
37.76000 2453.402
37.77000 2453.114
37.78000 2452.901
37.79000 2455.366
37.80000 2463.153
37.81000 2471.086
37.82000 2476.440
37.83000 2478.281
37.84000 2480.101
37.85000 2468.955
37.86000 2446.142
37.87000 2423.626
37.88000 2421.503
37.89000 2431.784
37.90000 2441.945
37.91000 2449.312
37.92000 2455.505
37.93000 2461.319
37.94000 2477.406
37.95000 2494.795
37.96000 2509.388
37.97000 2504.003
37.98000 2494.692
37.99000 2487.650
38.00000 2491.197
38.01000 2496.083
38.02000 2499.862
38.03000 2486.958
38.04000 2475.738
38.05000 2462.111
38.06000 2443.190
38.07000 2424.081
38.08000 2423.461
38.09000 2450.855
38.10000 2478.538
38.11000 2492.468
38.12000 2500.433
38.13000 2505.596
38.14000 2493.634
38.15000 2470.109
38.16000 2447.283
38.17000 2445.136
38.18000 2452.599
38.19000 2459.679
38.20000 2456.492
38.21000 2450.505
38.22000 2444.657
38.23000 2439.936
38.24000 2435.462
38.25000 2431.606
38.26000 2430.975
38.27000 2430.806
38.28000 2430.673
38.29000 2442.978
38.30000 2453.747
38.31000 2460.979
38.32000 2459.613
38.33000 2457.860
38.34000 2457.489
38.35000 2459.440
38.36000 2461.428
38.37000 2462.487
38.38000 2456.708
38.39000 2452.778
38.40000 2450.745
38.41000 2450.137
38.42000 2449.473
38.43000 2446.627
38.44000 2442.659
38.45000 2438.859
38.46000 2442.889
38.47000 2449.247
38.48000 2453.867
38.49000 2442.291
38.50000 2426.753
38.51000 2414.228
38.52000 2419.336
38.53000 2427.309
38.54000 2433.779
38.55000 2414.922
38.56000 2397.464
38.57000 2388.240
38.58000 2401.156
38.59000 2415.294
38.60000 2429.547
38.61000 2444.014
38.62000 2458.486
38.63000 2466.597
38.64000 2453.009
38.65000 2443.552
38.66000 2441.873
38.67000 2446.716
38.68000 2451.494
38.69000 2452.841
38.70000 2452.233
38.71000 2451.647
38.72000 2458.437
38.73000 2467.576
38.74000 2476.307
38.75000 2480.644
38.76000 2483.786
38.77000 2486.852
38.78000 2489.412
38.79000 2491.881
38.80000 2493.928
38.81000 2476.342
38.82000 2459.931
38.83000 2448.945
38.84000 2454.097
38.85000 2460.320
38.86000 2464.631
38.87000 2465.002
38.88000 2465.253
38.89000 2465.401
38.90000 2464.649
38.91000 2464.113
38.92000 2456.197
38.93000 2441.349
38.94000 2426.573
38.95000 2417.443
38.96000 2411.879
38.97000 2406.464
38.98000 2417.998
38.99000 2436.014
39.00000 2452.132
39.01000 2444.370
39.02000 2429.409
39.03000 2417.932
39.04000 2432.501
39.05000 2452.397
39.06000 2469.230
39.07000 2457.217
39.08000 2443.961
39.09000 2437.910
39.10000 2455.598
39.11000 2475.152
39.12000 2482.421
39.13000 2461.687
39.14000 2439.864
39.15000 2426.460
39.16000 2433.058
39.17000 2437.961
39.18000 2449.240
39.19000 2467.253
39.20000 2485.116
39.21000 2482.943
39.22000 2466.719
39.23000 2450.825
39.24000 2445.791
39.25000 2445.982
39.26000 2445.786
39.27000 2439.835
39.28000 2431.963
39.29000 2425.028
39.30000 2426.089
39.31000 2428.974
39.32000 2431.461
39.33000 2414.311
39.34000 2397.267
39.35000 2386.907
39.36000 2400.966
39.37000 2417.269
39.38000 2431.650
39.39000 2441.190
39.40000 2450.495
39.41000 2456.448
39.42000 2447.323
39.43000 2440.480
39.44000 2435.939
39.45000 2434.124
39.46000 2432.321
39.47000 2432.527
39.48000 2434.303
39.49000 2436.053
39.50000 2437.059
39.51000 2437.650
39.52000 2437.960
39.53000 2433.229
39.54000 2426.637
39.55000 2421.470
39.56000 2430.277
39.57000 2442.635
39.58000 2453.474
39.59000 2469.762
39.60000 2484.542
39.61000 2496.583
39.62000 2497.503
39.63000 2497.242
39.64000 2492.041
39.65000 2473.070
39.66000 2453.286
39.67000 2440.140
39.68000 2457.579
39.69000 2471.044
39.70000 2470.925
39.71000 2452.859
39.72000 2434.730
39.73000 2434.293
39.74000 2449.300
39.75000 2464.153
39.76000 2466.596
39.77000 2461.816
39.78000 2457.317
39.79000 2458.977
39.80000 2463.152
39.81000 2467.348
39.82000 2471.780
39.83000 2476.279
39.84000 2480.289
39.85000 2485.983
39.86000 2491.213
39.87000 2492.293
39.88000 2474.614
39.89000 2454.649
39.90000 2441.056
39.91000 2447.125
39.92000 2454.582
39.93000 2459.715
39.94000 2460.505
39.95000 2460.990
39.96000 2465.034
39.97000 2474.312
39.98000 2483.636
39.99000 2483.729
40.00000 2474.780
40.01000 2465.889
40.02000 2460.444
40.03000 2457.304
40.04000 2454.373
40.05000 2457.205
40.06000 2462.641
40.07000 2465.961
40.08000 2441.072
40.09000 2407.363
40.10000 2376.866
40.11000 2395.478
40.12000 2421.065
40.13000 2442.087
40.14000 2440.056
40.15000 2434.825
40.16000 2430.500
40.17000 2429.273
40.18000 2428.304
40.19000 2427.615
40.20000 2433.342
40.21000 2437.910
40.22000 2442.797
40.23000 2448.205
40.24000 2453.619
40.25000 2450.385
40.26000 2437.633
40.27000 2424.919
40.28000 2418.170
40.29000 2415.788
40.30000 2413.648
40.31000 2420.209
40.32000 2431.115
40.33000 2442.055
40.34000 2453.541
40.35000 2465.217
40.36000 2475.925
40.37000 2486.225
40.38000 2495.318
40.39000 2498.324
40.40000 2466.883
40.41000 2430.033
40.42000 2401.093
40.43000 2402.148
40.44000 2406.111
40.45000 2409.016
40.46000 2407.733
40.47000 2406.573
40.48000 2407.158
40.49000 2410.900
40.50000 2414.708
40.51000 2422.016
40.52000 2433.634
40.53000 2445.247
40.54000 2450.348
40.55000 2450.160
40.56000 2449.645
40.57000 2433.229
40.58000 2408.022
40.59000 2384.043
40.60000 2383.631
40.61000 2392.241
40.62000 2400.239
40.63000 2398.630
40.64000 2394.894
40.65000 2395.753
40.66000 2425.886
40.67000 2461.194
40.68000 2487.396
40.69000 2475.199
40.70000 2458.712
40.71000 2446.273
40.72000 2415.625
40.73000 2390.715
40.74000 2380.874
40.75000 2401.208
40.76000 2422.387
40.77000 2432.299
40.78000 2426.740
40.79000 2421.090
40.80000 2427.236
40.81000 2444.090
40.82000 2460.607
40.83000 2453.356
40.84000 2431.540
40.85000 2410.748
40.86000 2414.219
40.87000 2427.961
40.88000 2440.874
40.89000 2437.890
40.90000 2430.921
40.91000 2425.565
40.92000 2431.828
40.93000 2440.392
40.94000 2445.430
40.95000 2433.886
40.96000 2420.223
40.97000 2409.638
40.98000 2422.682
40.99000 2434.449
41.00000 2442.197
41.01000 2441.042
41.02000 2439.563
41.03000 2433.500
41.04000 2420.438
41.05000 2407.301
41.06000 2400.663
41.07000 2443.677
41.08000 2472.233
41.09000 2475.710
41.10000 2462.125
41.11000 2448.466
41.12000 2432.589
41.13000 2415.673
41.14000 2399.613
41.15000 2417.453
41.16000 2444.065
41.17000 2467.938
41.18000 2469.327
41.19000 2465.740
41.20000 2460.442
41.21000 2446.154
41.22000 2430.561
41.23000 2418.177
41.24000 2436.991
41.25000 2454.348
41.26000 2466.735
41.27000 2466.950
41.28000 2466.610
41.29000 2462.492
41.30000 2451.977
41.31000 2441.356
41.32000 2435.682
41.33000 2439.851
41.34000 2442.711
41.35000 2447.731
41.36000 2454.385
41.37000 2461.078
41.38000 2469.279
41.39000 2478.260
41.40000 2486.868
41.41000 2483.518
41.42000 2476.386
41.43000 2469.148
41.44000 2460.902
41.45000 2452.407
41.46000 2446.681
41.47000 2457.286
41.48000 2470.568
41.49000 2481.362
41.50000 2475.415
41.51000 2469.167
41.52000 2462.801
41.53000 2456.117
41.54000 2449.415
41.55000 2449.547
41.56000 2462.502
41.57000 2475.754
41.58000 2483.208
41.59000 2450.596
41.60000 2427.896
41.61000 2426.746
41.62000 2443.812
41.63000 2460.587
41.64000 2461.373
41.65000 2452.989
41.66000 2444.887
41.67000 2439.705
41.68000 2435.911
41.69000 2432.004
41.70000 2426.861
41.71000 2421.381
41.72000 2417.445
41.73000 2423.789
41.74000 2432.026
41.75000 2438.867
41.76000 2437.378
41.77000 2435.340
41.78000 2434.454
41.79000 2437.024
41.80000 2439.826
41.81000 2436.155
41.82000 2419.046
41.83000 2401.523
41.84000 2391.190
41.85000 2420.484
41.86000 2441.374
41.87000 2450.920
41.88000 2449.720
41.89000 2448.548
41.90000 2449.711
41.91000 2452.359
41.92000 2454.938
41.93000 2455.877
41.94000 2456.087
41.95000 2456.246
41.96000 2455.768
41.97000 2455.095
41.98000 2454.288
41.99000 2452.455
42.00000 2450.412
42.01000 2448.680
42.02000 2465.538
42.03000 2481.744
42.04000 2493.926
42.05000 2492.748
42.06000 2490.509
42.07000 2483.544
42.08000 2465.730
42.09000 2447.488
42.10000 2436.249
42.11000 2479.769
42.12000 2511.493
42.13000 2526.699
42.14000 2524.316
42.15000 2521.967
42.16000 2524.792
42.17000 2531.274
42.18000 2537.626
42.19000 2525.757
42.20000 2505.828
42.21000 2487.011
42.22000 2484.956
42.23000 2488.536
42.24000 2491.576
42.25000 2489.955
42.26000 2487.262
42.27000 2484.938
42.28000 2509.039
42.29000 2532.893
42.30000 2549.413
42.31000 2538.940
42.32000 2525.960
42.33000 2510.636
42.34000 2489.365
42.35000 2467.801
42.36000 2453.966
42.37000 2470.427
42.38000 2482.839
42.39000 2496.319
42.40000 2511.073
42.41000 2525.746
42.42000 2516.786
42.43000 2489.221
42.44000 2462.054
42.45000 2461.709
42.46000 2475.357
42.47000 2488.391
42.48000 2490.264
42.49000 2487.987
42.50000 2484.462
42.51000 2468.587
42.52000 2449.551
42.53000 2432.834
42.54000 2437.452
42.55000 2444.557
42.56000 2452.457
42.57000 2463.610
42.58000 2475.112
42.59000 2481.448
42.60000 2473.281
42.61000 2464.246
42.62000 2458.227
42.63000 2467.647
42.64000 2474.915
42.65000 2481.532
42.66000 2487.284
42.67000 2493.025
42.68000 2491.306
42.69000 2483.024
42.70000 2474.823
42.71000 2479.205
42.72000 2490.822
42.73000 2501.697
42.74000 2496.072
42.75000 2483.660
42.76000 2471.814
42.77000 2466.478
42.78000 2462.991
42.79000 2459.880
42.80000 2463.853
42.81000 2468.494
42.82000 2470.191
42.83000 2458.480
42.84000 2445.118
42.85000 2436.916
42.86000 2444.752
42.87000 2453.734
42.88000 2459.931
42.89000 2456.699
42.90000 2454.032
42.91000 2458.397
42.92000 2473.183
42.93000 2488.064
42.94000 2488.187
42.95000 2473.732
42.96000 2459.366
42.97000 2463.229
42.98000 2478.901
42.99000 2493.958
43.00000 2491.750
43.01000 2481.689
43.02000 2472.637
43.03000 2477.205
43.04000 2486.063
43.05000 2494.086
43.06000 2504.406
43.07000 2513.934
43.08000 2519.376
43.09000 2504.026
43.10000 2485.764
43.11000 2472.249
43.12000 2475.077
43.13000 2479.281
43.14000 2482.277
43.15000 2469.184
43.16000 2458.677
43.17000 2458.819
43.18000 2476.476
43.19000 2494.389
43.20000 2514.808
43.21000 2538.009
43.22000 2561.134
43.23000 2556.564
43.24000 2531.861
43.25000 2507.562
43.26000 2498.001
43.27000 2495.856
43.28000 2493.066
43.29000 2479.920
43.30000 2463.163
43.31000 2447.780
43.32000 2482.173
43.33000 2523.466
43.34000 2557.125
43.35000 2547.223
43.36000 2530.422
43.37000 2515.649
43.38000 2508.629
43.39000 2502.368
43.40000 2497.768
43.41000 2516.264
43.42000 2531.511
43.43000 2546.602
43.44000 2561.407
43.45000 2576.207
43.46000 2588.441
43.47000 2597.491
43.48000 2606.520
43.49000 2615.354
43.50000 2624.000
43.51000 2632.276
43.52000 2622.130
43.53000 2601.724
43.54000 2582.563
43.55000 2587.619
43.56000 2602.016
43.57000 2615.399
43.58000 2616.345
43.59000 2614.215
43.60000 2615.585
43.61000 2639.451
43.62000 2667.327
43.63000 2694.651
43.64000 2719.629
43.65000 2744.342
43.66000 2763.024
43.67000 2740.300
43.68000 2720.407
43.69000 2722.582
43.70000 2769.275
43.71000 2817.239
43.72000 2844.750
43.73000 2843.963
43.74000 2842.996
43.75000 2857.529
43.76000 2886.246
43.77000 2915.038
43.78000 2949.223
43.79000 2986.739
43.80000 3024.256
43.81000 3061.806
43.82000 3099.370
43.83000 3134.690
43.84000 3184.257
43.85000 3233.363
43.86000 3284.059
43.87000 3346.329
43.88000 3410.910
43.89000 3474.937
43.90000 3536.337
43.91000 3597.397
43.92000 3644.790
43.93000 3778.664
43.94000 3890.316
43.95000 4001.223
43.96000 4110.467
43.97000 4219.649
43.98000 4349.226
43.99000 4510.173
44.00000 4671.466
44.01000 4753.311
44.02000 5010.771
44.03000 5183.386
44.04000 5370.283
44.05000 5566.969
44.06000 5764.283
44.07000 5980.871
44.08000 6206.547
44.09000 6420.954
44.10000 6628.881
44.11000 6818.997
44.12000 7011.928
44.13000 7228.195
44.14000 7449.666
44.15000 7669.081
44.16000 7877.601
44.17000 8084.525
44.18000 8249.140
44.19000 8408.164
44.20000 8535.921
44.21000 8642.538
44.22000 8697.002
44.23000 8749.050
44.24000 8782.401
44.25000 8783.853
44.26000 8784.767
44.27000 8785.258
44.28000 8719.651
44.29000 8674.563
44.30000 8574.440
44.31000 8432.322
44.32000 8289.836
44.33000 8132.387
44.34000 7967.133
44.35000 7808.657
44.36000 7614.332
44.37000 7420.730
44.38000 7224.656
44.39000 7005.083
44.40000 6779.672
44.41000 6558.188
44.42000 6360.068
44.43000 6165.809
44.44000 6007.679
44.45000 5723.909
44.46000 5481.553
44.47000 5257.691
44.48000 5084.286
44.49000 4913.741
44.50000 4753.031
44.51000 4610.907
44.52000 4469.223
44.53000 4389.252
44.54000 4231.502
44.55000 4121.662
44.56000 4009.728
44.57000 3896.010
44.58000 3782.443
44.59000 3677.364
44.60000 3577.189
44.61000 3480.317
44.62000 3389.702
44.63000 3306.523
44.64000 3224.771
44.65000 3158.714
44.66000 3096.987
44.67000 3039.377
44.68000 3009.405
44.69000 2984.565
44.70000 2963.908
44.71000 2937.419
44.72000 2914.925
44.73000 2892.276
44.74000 2869.164
44.75000 2846.020
44.76000 2823.756
44.77000 2803.332
44.78000 2782.967
44.79000 2770.918
44.80000 2730.448
44.81000 2701.688
44.82000 2688.898
44.83000 2691.362
44.84000 2693.510
44.85000 2668.787
44.86000 2626.846
44.87000 2585.989
44.88000 2588.554
44.89000 2609.302
44.90000 2628.259
44.91000 2624.146
44.92000 2612.976
44.93000 2601.295
44.94000 2585.718
44.95000 2569.331
44.96000 2555.429
44.97000 2551.953
44.98000 2550.219
44.99000 2547.406
45.00000 2540.990
45.01000 2534.283
45.02000 2529.746
45.03000 2530.226
45.04000 2530.907
45.05000 2531.328
45.06000 2533.615
45.07000 2535.276
45.08000 2523.971
45.09000 2498.745
45.10000 2473.679
45.11000 2472.313
45.12000 2487.823
45.13000 2503.031
45.14000 2502.415
45.15000 2494.376
45.16000 2485.815
45.17000 2469.291
45.18000 2450.069
45.19000 2431.956
45.20000 2423.485
45.21000 2417.249
45.22000 2411.859
45.23000 2415.436
45.24000 2419.639
45.25000 2424.680
45.26000 2432.827
45.27000 2441.267
45.28000 2448.348
45.29000 2451.958
45.30000 2455.395
45.31000 2457.606
45.32000 2493.787
45.33000 2520.665
45.34000 2529.754
45.35000 2517.451
45.36000 2505.109
45.37000 2494.429
45.38000 2485.069
45.39000 2475.841
45.40000 2459.529
45.41000 2439.960
45.42000 2421.602
45.43000 2425.498
45.44000 2437.734
45.45000 2450.003
45.46000 2462.606
45.47000 2475.296
45.48000 2486.453
45.49000 2456.054
45.50000 2423.739
45.51000 2399.137
45.52000 2406.321
45.53000 2416.952
45.54000 2425.969
45.55000 2430.419
45.56000 2434.593
45.57000 2437.380
45.58000 2418.227
45.59000 2403.607
45.60000 2402.826
45.61000 2420.612
45.62000 2438.477
45.63000 2435.306
45.64000 2413.475
45.65000 2391.853
45.66000 2389.031
45.67000 2397.302
45.68000 2405.542
45.69000 2413.056
45.70000 2420.270
45.71000 2426.561
45.72000 2422.118
45.73000 2414.601
45.74000 2407.887
45.75000 2404.071
45.76000 2401.235
45.77000 2396.752
45.78000 2384.707
45.79000 2371.723
45.80000 2370.295
45.81000 2405.037
45.82000 2442.398
45.83000 2468.236
45.84000 2447.743
45.85000 2431.129
45.86000 2418.040
45.87000 2410.210
45.88000 2402.431
45.89000 2401.731
45.90000 2408.082
45.91000 2414.396
45.92000 2416.199
45.93000 2415.018
45.94000 2413.785
45.95000 2411.056
45.96000 2407.642
45.97000 2404.513
45.98000 2405.289
45.99000 2407.303
46.00000 2409.129
46.01000 2416.061
46.02000 2423.147
46.03000 2428.537
46.04000 2425.219
46.05000 2420.671
46.06000 2417.024
46.07000 2416.501
46.08000 2416.244
46.09000 2416.061
46.10000 2414.772
46.11000 2413.751
46.12000 2414.562
46.13000 2418.406
46.14000 2422.296
46.15000 2417.505
46.16000 2403.002
46.17000 2388.538
46.18000 2376.675
46.19000 2366.813
46.20000 2357.548
46.21000 2370.535
46.22000 2394.799
46.23000 2418.042
46.24000 2424.659
46.25000 2425.436
46.26000 2426.151
46.27000 2418.557
46.28000 2409.991
46.29000 2402.628
46.30000 2402.186
46.31000 2402.850
46.32000 2402.722
46.33000 2399.545
46.34000 2396.066
46.35000 2393.505
46.36000 2383.348
46.37000 2375.171
46.38000 2370.929
46.39000 2373.912
46.40000 2377.050
46.41000 2376.444
46.42000 2371.153
46.43000 2365.854
46.44000 2371.767
46.45000 2386.887
46.46000 2401.621
46.47000 2396.727
46.48000 2380.820
46.49000 2365.629
46.50000 2364.568
46.51000 2368.996
46.52000 2373.116
46.53000 2360.672
46.54000 2345.422
46.55000 2334.003
46.56000 2347.415
46.57000 2365.290
46.58000 2379.886
46.59000 2380.448
46.60000 2379.410
46.61000 2378.624
46.62000 2380.913
46.63000 2382.865
46.64000 2381.551
46.65000 2373.598
46.66000 2365.451
46.67000 2372.570
46.68000 2400.974
46.69000 2429.514
46.70000 2433.035
46.71000 2413.446
46.72000 2393.969
46.73000 2382.884
46.74000 2377.017
46.75000 2371.598
46.76000 2377.157
46.77000 2387.429
46.78000 2397.096
46.79000 2396.960
46.80000 2394.174
46.81000 2389.979
46.82000 2375.449
46.83000 2358.838
46.84000 2346.692
46.85000 2355.868
46.86000 2367.819
46.87000 2377.112
46.88000 2370.728
46.89000 2364.690
46.90000 2361.752
46.91000 2365.782
46.92000 2370.075
46.93000 2369.083
46.94000 2359.903
46.95000 2350.629
46.96000 2345.903
46.97000 2372.731
46.98000 2390.631
46.99000 2396.220
47.00000 2393.306
47.01000 2390.445
47.02000 2389.249
47.03000 2388.843
47.04000 2388.458
47.05000 2383.349
47.06000 2377.189
47.07000 2371.298
47.08000 2367.644
47.09000 2364.493
47.10000 2365.271
47.11000 2387.044
47.12000 2411.918
47.13000 2431.740
47.14000 2402.865
47.15000 2376.040
47.16000 2355.583
47.17000 2350.950
47.18000 2347.062
47.19000 2354.613
47.20000 2381.829
47.21000 2409.385
47.22000 2424.221
47.23000 2413.700
47.24000 2406.460
47.25000 2393.864
47.26000 2377.148
47.27000 2361.170
47.28000 2375.791
47.29000 2406.490
47.30000 2435.948
47.31000 2418.436
47.32000 2386.083
47.33000 2356.339
47.34000 2351.661
47.35000 2353.255
47.36000 2355.850
47.37000 2364.450
47.38000 2374.052
47.39000 2381.880
47.40000 2385.920
47.41000 2388.901
47.42000 2389.021
47.43000 2381.282
47.44000 2373.091
47.45000 2366.771
47.46000 2364.014
47.47000 2361.343
47.48000 2359.830
47.49000 2386.999
47.50000 2405.954
47.51000 2401.739
47.52000 2377.622
47.53000 2353.978
47.54000 2357.744
47.55000 2377.462
47.56000 2396.541
47.57000 2400.991
47.58000 2399.631
47.59000 2398.335
47.60000 2397.756
47.61000 2397.377
47.62000 2398.229
47.63000 2407.422
47.64000 2418.177
47.65000 2427.134
47.66000 2408.744
47.67000 2390.800
47.68000 2374.756
47.69000 2364.493
47.70000 2354.628
47.71000 2353.656
47.72000 2371.415
47.73000 2389.775
47.74000 2400.671
47.75000 2370.797
47.76000 2349.421
47.77000 2338.822
47.78000 2338.603
47.79000 2338.542
47.80000 2352.340
47.81000 2375.084
47.82000 2397.252
47.83000 2397.156
47.84000 2387.606
47.85000 2379.214
47.86000 2385.919
47.87000 2397.276
47.88000 2407.798
47.89000 2411.905
47.90000 2414.668
47.91000 2417.016
47.92000 2404.265
47.93000 2391.835
47.94000 2382.525
47.95000 2383.717
47.96000 2385.763
47.97000 2387.350
47.98000 2387.866
47.99000 2388.339
48.00000 2388.632
48.01000 2379.260
48.02000 2372.427
48.03000 2370.270
48.04000 2373.176
48.05000 2376.120
48.06000 2384.405
48.07000 2396.523
48.08000 2408.409
48.09000 2415.580
48.10000 2420.252
48.11000 2424.331
48.12000 2419.233
48.13000 2411.004
48.14000 2403.218
48.15000 2399.325
48.16000 2396.342
48.17000 2393.760
48.18000 2402.967
48.19000 2412.342
48.20000 2416.140
48.21000 2399.105
48.22000 2380.093
48.23000 2371.266
48.24000 2388.670
48.25000 2407.403
48.26000 2419.489
48.27000 2391.371
48.28000 2370.252
48.29000 2361.432
48.30000 2367.519
48.31000 2373.639
48.32000 2379.464
48.33000 2385.054
48.34000 2390.566
48.35000 2376.944
48.36000 2353.567
48.37000 2332.511
48.38000 2354.739
48.39000 2393.302
48.40000 2427.217
48.41000 2414.118
48.42000 2388.803
48.43000 2366.520
48.44000 2362.961
48.45000 2362.700
48.46000 2363.439
48.47000 2368.333
48.48000 2373.681
48.49000 2377.609
48.50000 2377.490
48.51000 2377.122
48.52000 2376.875
48.53000 2371.957
48.54000 2368.215
48.55000 2370.789
48.56000 2381.903
48.57000 2393.056
48.58000 2394.359
48.59000 2386.851
48.60000 2379.414
48.61000 2374.078
48.62000 2370.094
48.63000 2365.871
48.64000 2356.158
48.65000 2344.155
48.66000 2333.114
48.67000 2333.389
48.68000 2336.927
48.69000 2340.091
48.70000 2364.783
48.71000 2389.973
48.72000 2408.745
48.73000 2397.818
48.74000 2383.167
48.75000 2373.467
48.76000 2379.376
48.77000 2386.430
48.78000 2391.319
48.79000 2373.790
48.80000 2360.001
48.81000 2346.094
48.82000 2332.011
48.83000 2317.926
48.84000 2323.030
48.85000 2347.410
48.86000 2371.651
48.87000 2376.549
48.88000 2368.588
48.89000 2360.585
48.90000 2351.341
48.91000 2341.525
48.92000 2333.076
48.93000 2343.538
48.94000 2360.044
48.95000 2375.023
48.96000 2375.881
48.97000 2373.921
48.98000 2371.210
48.99000 2364.604
49.00000 2357.444
49.01000 2356.353
49.02000 2376.469
49.03000 2398.411
49.04000 2414.122
49.05000 2404.330
49.06000 2395.989
49.07000 2389.025
49.08000 2384.361
49.09000 2379.732
49.10000 2371.980
49.11000 2360.705
49.12000 2349.460
49.13000 2346.949
49.14000 2350.923
49.15000 2354.983
49.16000 2362.338
49.17000 2371.375
49.18000 2379.295
49.19000 2368.768
49.20000 2351.715
49.21000 2336.030
49.22000 2340.125
49.23000 2348.073
49.24000 2354.022
49.25000 2348.375
49.26000 2340.859
49.27000 2335.576
49.28000 2338.956
49.29000 2343.202
49.30000 2346.335
49.31000 2350.505
49.32000 2353.779
49.33000 2359.770
49.34000 2370.786
49.35000 2381.912
49.36000 2382.221
49.37000 2368.888
49.38000 2355.526
49.39000 2354.673
49.40000 2364.198
49.41000 2373.582
49.42000 2375.550
49.43000 2373.326
49.44000 2370.438
49.45000 2354.225
49.46000 2332.800
49.47000 2312.849
49.48000 2315.451
49.49000 2323.305
49.50000 2331.444
49.51000 2341.448
49.52000 2351.790
49.53000 2360.561
49.54000 2362.551
49.55000 2363.761
49.56000 2364.679
49.57000 2387.828
49.58000 2407.161
49.59000 2406.207
49.60000 2363.729
49.61000 2320.019
49.62000 2312.863
49.63000 2357.064
49.64000 2401.615
49.65000 2419.791
49.66000 2413.394
49.67000 2407.041
49.68000 2404.100
49.69000 2403.295
49.70000 2402.191
49.71000 2393.618
49.72000 2381.815
49.73000 2370.699
49.74000 2357.719
49.75000 2345.336
49.76000 2332.970
49.77000 2320.739
49.78000 2308.534
49.79000 2301.453
49.80000 2319.033
49.81000 2339.854
49.82000 2356.073
49.83000 2358.211
49.84000 2359.043
49.85000 2359.774
49.86000 2360.280
49.87000 2360.776
49.88000 2367.590
49.89000 2384.268
49.90000 2401.062
49.91000 2409.655
49.92000 2386.472
49.93000 2370.969
49.94000 2364.795
49.95000 2365.116
49.96000 2365.375
49.97000 2363.647
49.98000 2360.967
49.99000 2358.418
50.00000 2356.325
50.01000 2354.528
50.02000 2354.065
50.03000 2364.879
50.04000 2378.247
50.05000 2386.580
50.06000 2367.796
50.07000 2344.970
50.08000 2326.749
50.09000 2333.196
50.10000 2340.213
50.11000 2343.769
50.12000 2338.664
50.13000 2333.145
50.14000 2338.631
50.15000 2363.173
50.16000 2388.052
50.17000 2401.499
50.18000 2384.688
50.19000 2373.177
50.20000 2368.765
50.21000 2369.856
50.22000 2370.815
50.23000 2366.174
50.24000 2358.571
50.25000 2351.270
50.26000 2350.231
50.27000 2351.407
50.28000 2353.519
50.29000 2364.713
50.30000 2378.197
50.31000 2389.138
50.32000 2384.684
50.33000 2377.642
50.34000 2371.891
50.35000 2382.734
50.36000 2393.036
50.37000 2404.571
50.38000 2419.521
50.39000 2434.669
50.40000 2437.469
50.41000 2416.586
50.42000 2395.119
50.43000 2382.917
50.44000 2373.245
50.45000 2366.509
50.46000 2354.458
50.47000 2337.804
50.48000 2321.603
50.49000 2332.248
50.50000 2358.634
50.51000 2384.178
50.52000 2385.805
50.53000 2378.173
50.54000 2370.686
50.55000 2364.824
50.56000 2359.417
50.57000 2353.963
50.58000 2348.196
50.59000 2342.370
50.60000 2337.510
50.61000 2336.423
50.62000 2335.899
50.63000 2336.418
50.64000 2340.130
50.65000 2344.066
50.66000 2345.135
50.67000 2340.122
50.68000 2334.911
50.69000 2331.808
50.70000 2352.956
50.71000 2368.086
50.72000 2377.440
50.73000 2381.184
50.74000 2384.820
50.75000 2378.652
50.76000 2366.107
50.77000 2353.874
50.78000 2342.829
50.79000 2332.790
50.80000 2325.150
50.81000 2349.140
50.82000 2382.948
50.83000 2410.963
50.84000 2394.032
50.85000 2367.610
50.86000 2345.133
50.87000 2348.393
50.88000 2354.105
50.89000 2357.239
50.90000 2351.625
50.91000 2345.290
50.92000 2341.184
50.93000 2342.305
50.94000 2343.643
50.95000 2344.475
50.96000 2369.021
50.97000 2386.931
50.98000 2385.371
50.99000 2362.558
51.00000 2339.786
51.01000 2325.072
51.02000 2316.184
51.03000 2307.461
51.04000 2326.007
51.05000 2356.924
51.06000 2386.293
51.07000 2391.422
51.08000 2388.219
51.09000 2384.541
51.10000 2376.639
51.11000 2367.742
51.12000 2360.033
51.13000 2358.250
51.14000 2357.518
51.15000 2355.428
51.16000 2348.233
51.17000 2340.547
51.18000 2336.686
51.19000 2342.745
51.20000 2349.315
51.21000 2353.566
51.22000 2353.809
51.23000 2353.928
51.24000 2352.552
51.25000 2349.348
51.26000 2346.137
51.27000 2341.762
51.28000 2336.448
51.29000 2331.205
51.30000 2328.009
51.31000 2325.992
51.32000 2324.056
51.33000 2323.641
51.34000 2323.804
51.35000 2324.293
51.36000 2328.114
51.37000 2332.807
51.38000 2336.943
51.39000 2338.079
51.40000 2338.605
51.41000 2339.291
51.42000 2340.646
51.43000 2342.076
51.44000 2343.359
51.45000 2344.224
51.46000 2345.063
51.47000 2345.626
51.48000 2359.247
51.49000 2369.627
51.50000 2370.401
51.51000 2358.083
51.52000 2345.695
51.53000 2340.740
51.54000 2342.486
51.55000 2344.217
51.56000 2357.006
51.57000 2376.141
51.58000 2394.177
51.59000 2386.562
51.60000 2368.165
51.61000 2351.031
51.62000 2348.912
51.63000 2351.156
51.64000 2353.164
51.65000 2363.574
51.66000 2374.100
51.67000 2381.773
51.68000 2376.140
51.69000 2368.822
51.70000 2363.484
51.71000 2364.438
51.72000 2365.857
51.73000 2366.843
51.74000 2352.354
51.75000 2341.017
51.76000 2336.743
51.77000 2343.171
51.78000 2349.709
51.79000 2348.496
51.80000 2339.430
51.81000 2330.414
51.82000 2333.808
51.83000 2345.432
51.84000 2356.475
51.85000 2350.331
51.86000 2336.199
51.87000 2323.298
51.88000 2327.623
51.89000 2337.493
51.90000 2346.459
51.91000 2324.653
51.92000 2299.417
51.93000 2278.720
51.94000 2281.694
51.95000 2288.073
51.96000 2300.128
51.97000 2332.162
51.98000 2365.936
51.99000 2390.172
52.00000 2366.388
52.01000 2346.552
52.02000 2333.298
52.03000 2331.113
52.04000 2329.104
52.05000 2325.798
52.06000 2321.016
52.07000 2316.246
52.08000 2326.596
52.09000 2348.154
52.10000 2369.180
52.11000 2369.512
52.12000 2359.203
52.13000 2348.350
52.14000 2328.383
52.15000 2305.170
52.16000 2283.799
52.17000 2301.265
52.18000 2325.379
52.19000 2345.551
52.20000 2342.651
52.21000 2336.002
52.22000 2339.164
52.23000 2380.670
52.24000 2426.051
52.25000 2459.606
52.26000 2409.909
52.27000 2367.801
52.28000 2339.829
52.29000 2338.190
52.30000 2337.147
52.31000 2337.090
52.32000 2338.287
52.33000 2339.488
52.34000 2331.553
52.35000 2316.000
52.36000 2300.783
52.37000 2303.632
52.38000 2316.765
52.39000 2329.340
52.40000 2330.545
52.41000 2327.271
52.42000 2324.220
52.43000 2320.652
52.44000 2317.296
52.45000 2315.351
52.46000 2322.712
52.47000 2331.775
52.48000 2337.634
52.49000 2329.564
52.50000 2319.875
52.51000 2312.508
52.52000 2323.252
52.53000 2332.648
52.54000 2344.474
52.55000 2361.312
52.56000 2378.301
52.57000 2381.221
52.58000 2364.224
52.59000 2347.084
52.60000 2340.163
52.61000 2342.841
52.62000 2345.372
52.63000 2336.117
52.64000 2319.422
52.65000 2303.664
52.66000 2311.604
52.67000 2329.870
52.68000 2347.085
52.69000 2349.865
52.70000 2348.426
52.71000 2346.771
52.72000 2343.503
52.73000 2339.906
52.74000 2336.308
52.75000 2332.709
52.76000 2329.110
52.77000 2326.302
52.78000 2340.664
52.79000 2353.192
52.80000 2360.421
52.81000 2355.568
52.82000 2350.245
52.83000 2343.042
52.84000 2332.881
52.85000 2322.685
52.86000 2317.447
52.87000 2314.007
52.88000 2311.736
52.89000 2315.132
52.90000 2322.503
52.91000 2330.198
52.92000 2348.392
52.93000 2371.646
52.94000 2393.785
52.95000 2388.998
52.96000 2376.241
52.97000 2365.312
52.98000 2369.965
52.99000 2378.175
53.00000 2381.967
53.01000 2361.757
53.02000 2337.939
53.03000 2318.895
53.04000 2325.434
53.05000 2332.620
53.06000 2339.376
53.07000 2345.047
53.08000 2350.665
53.09000 2351.053
53.10000 2342.316
53.11000 2333.412
53.12000 2328.583
53.13000 2331.395
53.14000 2333.373
53.15000 2346.509
53.16000 2368.361
53.17000 2389.641
53.18000 2386.159
53.19000 2369.474
53.20000 2353.443
53.21000 2353.302
53.22000 2358.666
53.23000 2363.243
53.24000 2360.114
53.25000 2355.028
53.26000 2350.183
53.27000 2346.813
53.28000 2343.692
53.29000 2341.140
53.30000 2337.325
53.31000 2334.090
53.32000 2335.274
53.33000 2348.776
53.34000 2363.006
53.35000 2366.876
53.36000 2350.735
53.37000 2334.088
53.38000 2324.594
53.39000 2325.082
53.40000 2325.464
53.41000 2334.015
53.42000 2349.699
53.43000 2365.009
53.44000 2357.494
53.45000 2336.498
53.46000 2316.160
53.47000 2317.988
53.48000 2328.284
53.49000 2337.307
53.50000 2331.852
53.51000 2322.313
53.52000 2314.501
53.53000 2318.599
53.54000 2324.962
53.55000 2330.278
53.56000 2326.906
53.57000 2323.228
53.58000 2322.736
53.59000 2332.071
53.60000 2342.100
53.61000 2346.734
53.62000 2339.840
53.63000 2332.562
53.64000 2328.215
53.65000 2332.887
53.66000 2336.258
53.67000 2334.336
53.68000 2327.232
53.69000 2320.247
53.70000 2324.485
53.71000 2336.077
53.72000 2347.386
53.73000 2341.964
53.74000 2329.560
53.75000 2318.710
53.76000 2328.600
53.77000 2344.974
53.78000 2358.650
53.79000 2351.206
53.80000 2339.267
53.81000 2329.097
53.82000 2333.720
53.83000 2339.335
53.84000 2344.927
53.85000 2350.443
53.86000 2355.953
53.87000 2356.752
53.88000 2346.419
53.89000 2335.616
53.90000 2328.881
53.91000 2324.229
53.92000 2320.897
53.93000 2325.000
53.94000 2337.283
53.95000 2349.563
53.96000 2360.459
53.97000 2370.345
53.98000 2380.051
53.99000 2376.882
54.00000 2367.620
54.01000 2358.766
54.02000 2356.377
54.03000 2356.226
54.04000 2354.852
54.05000 2342.521
54.06000 2327.589
54.07000 2314.636
54.08000 2326.852
54.09000 2340.624
54.10000 2349.133
54.11000 2337.683
54.12000 2324.299
54.13000 2321.418
54.14000 2345.985
54.15000 2371.983
54.16000 2388.848
54.17000 2393.072
54.18000 2395.974
54.19000 2379.317
54.20000 2338.572
54.21000 2297.862
54.22000 2294.780
54.23000 2322.269
54.24000 2349.399
54.25000 2360.909
54.26000 2363.705
54.27000 2366.073
54.28000 2360.228
54.29000 2351.238
54.30000 2342.424
54.31000 2335.425
54.32000 2328.904
54.33000 2323.151
54.34000 2329.500
54.35000 2336.823
54.36000 2344.625
54.37000 2354.455
54.38000 2364.510
54.39000 2367.890
54.40000 2351.970
54.41000 2334.834
54.42000 2323.299
54.43000 2320.725
54.44000 2318.998
54.45000 2321.333
54.46000 2329.246
54.47000 2337.192
54.48000 2345.367
54.49000 2353.750
54.50000 2362.059
54.51000 2358.667
54.52000 2348.305
54.53000 2338.662
54.54000 2346.047
54.55000 2360.642
54.56000 2373.729
54.57000 2368.690
54.58000 2358.344
54.59000 2349.072
54.60000 2334.722
54.61000 2321.310
54.62000 2313.839
54.63000 2334.306
54.64000 2358.342
54.65000 2370.496
54.66000 2344.630
54.67000 2315.912
54.68000 2295.907
54.69000 2307.382
54.70000 2316.902
54.71000 2324.443
54.72000 2328.961
54.73000 2333.448
54.74000 2334.341
54.75000 2331.563
54.76000 2328.800
54.77000 2338.520
54.78000 2356.510
54.79000 2373.960
54.80000 2375.114
54.81000 2368.639
54.82000 2361.825
54.83000 2350.211
54.84000 2337.041
54.85000 2325.065
54.86000 2325.051
54.87000 2327.379
54.88000 2330.829
54.89000 2340.170
54.90000 2350.367
54.91000 2356.521
54.92000 2348.330
54.93000 2338.877
54.94000 2332.078
54.95000 2336.881
54.96000 2340.963
54.97000 2338.590
54.98000 2325.282
54.99000 2311.794
55.00000 2305.811
55.01000 2308.427
55.02000 2311.046
55.03000 2329.015
55.04000 2358.411
55.05000 2387.250
55.06000 2393.965
55.07000 2389.221
55.08000 2383.649
55.09000 2364.041
55.10000 2339.397
55.11000 2316.688
55.12000 2294.441
55.13000 2274.631
55.14000 2258.761
55.15000 2266.141
55.16000 2277.332
55.17000 2292.586
55.18000 2323.843
55.19000 2356.732
55.20000 2381.102
55.21000 2336.972
55.22000 2299.736
55.23000 2282.022
55.24000 2300.941
55.25000 2320.707
55.26000 2331.998
55.27000 2332.435
55.28000 2332.831
55.29000 2328.628
55.30000 2320.557
55.31000 2312.629
55.32000 2312.546
55.33000 2316.963
55.34000 2320.980
55.35000 2316.758
55.36000 2309.265
55.37000 2302.276
55.38000 2295.627
55.39000 2289.690
55.40000 2287.785
55.41000 2312.718
55.42000 2342.594
55.43000 2363.389
55.44000 2344.385
55.45000 2320.710
55.46000 2302.674
55.47000 2318.084
55.48000 2331.986
55.49000 2342.242
55.50000 2344.927
55.51000 2347.379
55.52000 2352.777
55.53000 2362.377
55.54000 2372.009
55.55000 2379.674
55.56000 2385.477
55.57000 2391.050
55.58000 2377.723
55.59000 2352.375
55.60000 2327.606
55.61000 2317.742
55.62000 2314.418
55.63000 2311.283
55.64000 2336.686
55.65000 2367.903
55.66000 2391.740
55.67000 2359.882
55.68000 2316.539
55.69000 2283.788
55.70000 2302.836
55.71000 2328.817
55.72000 2349.129
55.73000 2348.722
55.74000 2347.083
55.75000 2340.702
55.76000 2323.436
55.77000 2305.739
55.78000 2297.582
55.79000 2304.546
55.80000 2311.701
55.81000 2315.392
55.82000 2319.573
55.83000 2322.462
55.84000 2335.469
55.85000 2355.625
55.86000 2374.952
55.87000 2366.823
55.88000 2345.368
55.89000 2324.928
55.90000 2327.505
55.91000 2337.066
55.92000 2344.818
55.93000 2336.990
55.94000 2325.579
55.95000 2318.212
55.96000 2332.997
55.97000 2351.142
55.98000 2365.675
55.99000 2362.983
56.00000 2359.512
56.01000 2356.479
56.02000 2354.559
56.03000 2352.693
56.04000 2351.139
56.05000 2350.132
56.06000 2349.135
56.07000 2348.593
56.08000 2326.293
56.09000 2311.014
56.10000 2310.601
56.11000 2321.894
56.12000 2333.109
56.13000 2340.858
56.14000 2346.747
56.15000 2352.407
56.16000 2345.901
56.17000 2335.565
56.18000 2325.959
56.19000 2323.598
56.20000 2323.092
56.21000 2322.004
56.22000 2317.336
56.23000 2312.056
56.24000 2307.731
56.25000 2305.258
56.26000 2303.394
56.27000 2305.429
56.28000 2318.413
56.29000 2332.053
56.30000 2341.425
56.31000 2342.492
56.32000 2343.345
56.33000 2343.834
56.34000 2320.138
56.35000 2303.524
56.36000 2304.050
56.37000 2319.659
56.38000 2334.983
56.39000 2332.387
56.40000 2319.129
56.41000 2306.279
56.42000 2310.160
56.43000 2320.352
56.44000 2330.201
56.45000 2336.114
56.46000 2340.907
56.47000 2345.830
56.48000 2351.652
56.49000 2357.647
56.50000 2362.662
56.51000 2348.544
56.52000 2334.859
56.53000 2322.080
56.54000 2312.112
56.55000 2302.345
56.56000 2298.440
56.57000 2307.154
56.58000 2316.295
56.59000 2321.773
56.60000 2340.125
56.61000 2353.241
56.62000 2360.153
56.63000 2360.936
56.64000 2361.605
56.65000 2351.172
56.66000 2333.409
56.67000 2316.071
56.68000 2306.845
56.69000 2301.552
56.70000 2296.607
56.71000 2296.375
56.72000 2297.627
56.73000 2298.073
56.74000 2292.158
56.75000 2284.878
56.76000 2278.668
56.77000 2302.809
56.78000 2326.705
56.79000 2344.003
56.80000 2338.581
56.81000 2331.245
56.82000 2323.857
56.83000 2316.343
56.84000 2308.823
56.85000 2304.121
56.86000 2318.634
56.87000 2329.311
56.88000 2335.405
56.89000 2336.413
56.90000 2337.421
56.91000 2338.889
56.92000 2340.695
56.93000 2342.469
56.94000 2337.104
56.95000 2328.456
56.96000 2320.029
56.97000 2315.165
56.98000 2311.543
56.99000 2308.032
57.00000 2305.526
57.01000 2303.259
57.02000 2301.290
57.03000 2307.533
57.04000 2313.964
57.05000 2321.356
57.06000 2332.422
57.07000 2343.848
57.08000 2350.132
57.09000 2342.884
57.10000 2334.919
57.11000 2329.738
57.12000 2331.115
57.13000 2332.225
57.14000 2329.021
57.15000 2320.461
57.16000 2311.911
57.17000 2314.089
57.18000 2325.052
57.19000 2335.875
57.20000 2347.163
57.21000 2358.409
57.22000 2369.163
57.23000 2370.341
57.24000 2367.825
57.25000 2364.707
57.26000 2355.308
57.27000 2344.239
57.28000 2334.462
57.29000 2325.728
57.30000 2318.348
57.31000 2311.689
57.32000 2308.097
57.33000 2304.851
57.34000 2306.984
57.35000 2324.778
57.36000 2343.572
57.37000 2356.255
57.38000 2330.856
57.39000 2311.147
57.40000 2304.929
57.41000 2317.380
57.42000 2329.946
57.43000 2334.424
57.44000 2331.487
57.45000 2328.575
57.46000 2328.029
57.47000 2328.926
57.48000 2329.736
57.49000 2328.434
57.50000 2326.230
57.51000 2323.156
57.52000 2309.482
57.53000 2292.682
57.54000 2277.609
57.55000 2302.250
57.56000 2330.727
57.57000 2353.529
57.58000 2349.437
57.59000 2341.876
57.60000 2334.284
57.61000 2326.595
57.62000 2318.899
57.63000 2313.526
57.64000 2305.068
57.65000 2298.595
57.66000 2299.665
57.67000 2312.341
57.68000 2325.144
57.69000 2321.134
57.70000 2299.800
57.71000 2278.573
57.72000 2278.906
57.73000 2293.840
57.74000 2308.675
57.75000 2320.445
57.76000 2330.768
57.77000 2341.035
57.78000 2350.489
57.79000 2359.677
57.80000 2368.039
57.81000 2351.521
57.82000 2331.989
57.83000 2314.482
57.84000 2307.713
57.85000 2302.515
57.86000 2302.111
57.87000 2318.830
57.88000 2337.073
57.89000 2350.222
57.90000 2331.356
57.91000 2315.763
57.92000 2303.315
57.93000 2296.236
57.94000 2289.247
57.95000 2284.598
57.96000 2282.654
57.97000 2280.719
57.98000 2280.556
57.99000 2281.739
58.00000 2282.965
58.01000 2285.957
58.02000 2289.870
58.03000 2295.139
58.04000 2323.678
58.05000 2360.629
58.06000 2394.709
58.07000 2380.325
58.08000 2356.657
58.09000 2335.280
58.10000 2327.531
58.11000 2322.035
58.12000 2319.174
58.13000 2326.765
58.14000 2335.435
58.15000 2341.872
58.16000 2314.672
58.17000 2292.050
58.18000 2285.479
58.19000 2309.247
58.20000 2333.733
58.21000 2346.068
58.22000 2342.717
58.23000 2339.307
58.24000 2338.206
58.25000 2339.070
58.26000 2339.867
58.27000 2336.845
58.28000 2331.616
58.29000 2325.996
58.30000 2312.187
58.31000 2295.104
58.32000 2279.156
58.33000 2298.177
58.34000 2324.167
58.35000 2345.750
58.36000 2337.752
58.37000 2324.260
58.38000 2313.255
58.39000 2313.241
58.40000 2314.528
58.41000 2315.510
58.42000 2320.036
58.43000 2323.792
58.44000 2327.036
58.45000 2329.211
58.46000 2331.351
58.47000 2334.290
58.48000 2338.375
58.49000 2342.469
58.50000 2343.040
58.51000 2340.247
58.52000 2337.375
58.53000 2327.784
58.54000 2313.888
58.55000 2300.376
58.56000 2296.936
58.57000 2297.947
58.58000 2298.902
58.59000 2306.565
58.60000 2315.474
58.61000 2324.123
58.62000 2330.798
58.63000 2337.062
58.64000 2341.338
58.65000 2335.814
58.66000 2328.966
58.67000 2323.603
58.68000 2332.305
58.69000 2340.162
58.70000 2341.016
58.71000 2325.676
58.72000 2309.684
58.73000 2305.387
58.74000 2319.765
58.75000 2334.384
58.76000 2341.956
58.77000 2321.896
58.78000 2308.430
58.79000 2305.470
58.80000 2309.991
58.81000 2314.257
58.82000 2309.914
58.83000 2301.362
58.84000 2293.209
58.85000 2296.565
58.86000 2303.293
58.87000 2309.662
58.88000 2312.911
58.89000 2315.436
58.90000 2318.051
58.91000 2321.161
58.92000 2324.347
58.93000 2326.903
58.94000 2316.581
58.95000 2307.243
58.96000 2299.999
58.97000 2298.108
58.98000 2296.484
58.99000 2299.031
59.00000 2308.963
59.01000 2319.036
59.02000 2324.541
59.03000 2333.100
59.04000 2338.939
59.05000 2330.777
59.06000 2311.504
59.07000 2292.802
59.08000 2300.013
59.09000 2321.244
59.10000 2341.667
59.11000 2340.339
59.12000 2331.453
59.13000 2322.078
59.14000 2307.817
59.15000 2292.296
59.16000 2278.490
59.17000 2275.331
59.18000 2274.007
59.19000 2272.921
59.20000 2288.476
59.21000 2302.722
59.22000 2313.837
59.23000 2316.097
59.24000 2317.820
59.25000 2315.903
59.26000 2306.852
59.27000 2297.613
59.28000 2292.308
59.29000 2319.273
59.30000 2338.234
59.31000 2343.778
59.32000 2337.419
59.33000 2331.080
59.34000 2325.977
59.35000 2321.615
59.36000 2317.385
59.37000 2327.021
59.38000 2341.595
59.39000 2354.749
59.40000 2351.390
59.41000 2343.303
59.42000 2334.733
59.43000 2322.773
59.44000 2310.158
59.45000 2299.590
59.46000 2305.165
59.47000 2311.469
59.48000 2315.902
59.49000 2314.479
59.50000 2312.633
59.51000 2312.649
59.52000 2316.707
59.53000 2320.904
59.54000 2323.427
59.55000 2325.605
59.56000 2327.151
59.57000 2331.256
59.58000 2337.910
59.59000 2344.413
59.60000 2335.634
59.61000 2316.688
59.62000 2298.186
59.63000 2290.938
59.64000 2288.937
59.65000 2288.096
59.66000 2303.100
59.67000 2323.131
59.68000 2339.616
59.69000 2327.798
59.70000 2309.861
59.71000 2294.540
59.72000 2298.119
59.73000 2303.385
59.74000 2310.255
59.75000 2322.689
59.76000 2335.597
59.77000 2346.153
59.78000 2351.070
59.79000 2355.741
59.80000 2358.671
59.81000 2347.983
59.82000 2340.114
59.83000 2337.994
59.84000 2342.308
59.85000 2346.557
59.86000 2337.954
59.87000 2319.842
59.88000 2302.047
59.89000 2295.817
59.90000 2295.462
59.91000 2294.897
59.92000 2290.912
59.93000 2285.725
59.94000 2282.288
59.95000 2294.836
59.96000 2311.235
59.97000 2325.498
59.98000 2320.816
59.99000 2314.238
60.00000 2308.065
60.01000 2303.447
60.02000 2298.983
60.03000 2297.198
60.04000 2302.514
60.05000 2308.211
60.06000 2311.927
60.07000 2304.850
60.08000 2299.487
60.09000 2293.862
60.10000 2287.911
60.11000 2281.967
60.12000 2279.688
60.13000 2280.435
60.14000 2281.172
60.15000 2284.676
60.16000 2289.603
60.17000 2294.469
60.18000 2298.146
60.19000 2301.361
60.20000 2305.032
60.21000 2313.514
60.22000 2323.285
60.23000 2331.926
60.24000 2327.927
60.25000 2322.508
60.26000 2319.209
60.27000 2324.991
60.28000 2331.808
60.29000 2333.838
60.30000 2321.829
60.31000 2308.910
60.32000 2300.171
60.33000 2301.773
60.34000 2303.191
60.35000 2304.802
60.36000 2306.684
60.37000 2308.567
60.38000 2310.275
60.39000 2311.820
60.40000 2313.353
60.41000 2305.589
60.42000 2292.287
60.43000 2279.475
60.44000 2278.657
60.45000 2282.990
60.46000 2287.268
60.47000 2290.849
60.48000 2294.223
60.49000 2297.253
60.50000 2314.199
60.51000 2331.479
60.52000 2342.352
60.53000 2322.622
60.54000 2298.908
60.55000 2285.416
60.56000 2305.117
60.57000 2327.367
60.58000 2342.940
60.59000 2348.049
60.60000 2351.614
60.61000 2350.537
60.62000 2342.265
60.63000 2333.911
60.64000 2333.279
60.65000 2340.670
60.66000 2348.025
60.67000 2340.735
60.68000 2323.526
60.69000 2306.708
60.70000 2302.141
60.71000 2303.391
60.72000 2304.617
60.73000 2305.487
60.74000 2306.239
60.75000 2306.924
60.76000 2311.654
60.77000 2316.650
60.78000 2320.653
60.79000 2319.351
60.80000 2317.264
60.81000 2315.317
60.82000 2313.872
60.83000 2312.473
60.84000 2311.462
60.85000 2307.778
60.86000 2304.855
60.87000 2298.107
60.88000 2284.780
60.89000 2271.340
60.90000 2269.716
60.91000 2281.857
60.92000 2293.990
60.93000 2292.548
60.94000 2280.736
60.95000 2269.272
60.96000 2272.218
60.97000 2282.737
60.98000 2293.133
60.99000 2301.400
61.00000 2308.892
61.01000 2315.808
61.02000 2312.326
61.03000 2306.871
61.04000 2304.441
61.05000 2320.175
61.06000 2338.936
61.07000 2349.468
61.08000 2327.093
61.09000 2301.289
61.10000 2282.091
61.11000 2292.884
61.12000 2302.621
61.13000 2304.049
61.14000 2289.656
61.15000 2274.881
61.16000 2270.518
61.17000 2279.699
61.18000 2288.930
61.19000 2300.639
61.20000 2314.448
61.21000 2328.055
61.22000 2329.941
61.23000 2325.006
61.24000 2319.700
61.25000 2306.503
61.26000 2290.129
61.27000 2274.831
61.28000 2287.305
61.29000 2305.625
61.30000 2320.134
61.31000 2308.830
61.32000 2292.692
61.33000 2281.917
61.34000 2295.018
61.35000 2310.975
61.36000 2323.178
61.37000 2319.989
61.38000 2316.636
61.39000 2316.761
61.40000 2324.211
61.41000 2331.895
61.42000 2333.622
61.43000 2326.720
61.44000 2319.747
61.45000 2313.571
61.46000 2308.163
61.47000 2302.889
61.48000 2309.463
61.49000 2323.687
61.50000 2337.491
61.51000 2340.130
61.52000 2337.798
61.53000 2335.594
61.54000 2331.796
61.55000 2327.859
61.56000 2324.424
61.57000 2324.843
61.58000 2326.069
61.59000 2327.832
61.60000 2332.260
61.61000 2337.052
61.62000 2340.812
61.63000 2333.422
61.64000 2326.786
61.65000 2324.362
61.66000 2331.749
61.67000 2339.537
61.68000 2346.527
61.69000 2352.231
61.70000 2357.918
61.71000 2360.875
61.72000 2328.311
61.73000 2306.455
61.74000 2307.264
61.75000 2324.337
61.76000 2341.018
61.77000 2344.165
61.78000 2340.647
61.79000 2337.292
61.80000 2323.721
61.81000 2307.891
61.82000 2293.990
61.83000 2297.039
61.84000 2304.049
61.85000 2309.182
61.86000 2303.868
61.87000 2296.941
61.88000 2291.375
61.89000 2306.776
61.90000 2320.874
61.91000 2325.378
61.92000 2305.173
61.93000 2283.715
61.94000 2274.866
61.95000 2288.502
61.96000 2302.581
61.97000 2310.303
61.98000 2301.732
61.99000 2295.817
62.00000 2292.315
62.01000 2290.744
62.02000 2289.210
62.03000 2289.402
62.04000 2290.535
62.05000 2291.626
62.06000 2291.543
62.07000 2291.050
62.08000 2291.081
62.09000 2296.413
62.10000 2303.122
62.11000 2307.928
62.12000 2300.813
62.13000 2291.625
62.14000 2284.075
62.15000 2299.960
62.16000 2315.117
62.17000 2328.142
62.18000 2335.092
62.19000 2341.668
62.20000 2344.287
62.21000 2339.093
62.22000 2333.689
62.23000 2330.575
62.24000 2319.419
62.25000 2311.575
62.26000 2300.651
62.27000 2286.971
62.28000 2273.559
62.29000 2277.921
62.30000 2293.017
62.31000 2307.664
62.32000 2320.213
62.33000 2331.282
62.34000 2340.644
62.35000 2329.930
62.36000 2313.426
62.37000 2301.263
62.38000 2319.852
62.39000 2344.438
62.40000 2365.064
62.41000 2336.916
62.42000 2308.396
62.43000 2285.437
62.44000 2280.013
62.45000 2275.874
62.46000 2275.996
62.47000 2285.421
62.48000 2295.172
62.49000 2301.053
62.50000 2310.167
62.51000 2316.677
62.52000 2323.010
62.53000 2329.165
62.54000 2335.241
62.55000 2333.062
62.56000 2325.349
62.57000 2317.814
62.58000 2311.355
62.59000 2305.645
62.60000 2299.620
62.61000 2289.240
62.62000 2277.469
62.63000 2267.916
62.64000 2276.229
62.65000 2288.435
62.66000 2298.874
62.67000 2302.578
62.68000 2304.892
62.69000 2302.393
62.70000 2283.076
62.71000 2262.311
62.72000 2256.463
62.73000 2286.636
62.74000 2318.405
62.75000 2338.386
62.76000 2325.885
62.77000 2316.478
62.78000 2311.900
62.79000 2312.768
62.80000 2313.674
62.81000 2321.020
62.82000 2333.169
62.83000 2345.110
62.84000 2329.128
62.85000 2299.900
62.86000 2272.345
62.87000 2272.382
62.88000 2282.181
62.89000 2291.720
62.90000 2298.860
62.91000 2305.419
62.92000 2311.130
62.93000 2289.902
62.94000 2268.064
62.95000 2254.818
62.96000 2274.906
62.97000 2298.328
62.98000 2317.938
62.99000 2327.371
63.00000 2336.250
63.01000 2342.056
63.02000 2330.454
63.03000 2321.648
63.04000 2312.572
63.05000 2303.156
63.06000 2293.774
63.07000 2301.541
63.08000 2323.577
63.09000 2345.346
63.10000 2346.033
63.11000 2335.084
63.12000 2324.438
63.13000 2319.855
63.14000 2317.643
63.15000 2315.039
63.16000 2308.237
63.17000 2300.302
63.18000 2293.277
63.19000 2303.158
63.20000 2314.354
63.21000 2322.970
63.22000 2320.445
63.23000 2316.638
63.24000 2317.223
63.25000 2330.784
63.26000 2345.195
63.27000 2354.969
63.28000 2328.945
63.29000 2308.745
63.30000 2301.992
63.31000 2314.136
63.32000 2326.408
63.33000 2330.277
63.34000 2326.316
63.35000 2322.385
63.36000 2320.517
63.37000 2319.950
63.38000 2319.273
63.39000 2315.835
63.40000 2311.203
63.41000 2306.747
63.42000 2304.478
63.43000 2302.863
63.44000 2301.410
63.45000 2311.616
63.46000 2322.627
63.47000 2331.521
63.48000 2330.225
63.49000 2327.590
63.50000 2325.426
63.51000 2324.802
63.52000 2324.297
63.53000 2323.944
63.54000 2329.066
63.55000 2333.102
63.56000 2333.181
63.57000 2327.081
63.58000 2320.908
63.59000 2323.292
63.60000 2334.639
63.61000 2345.936
63.62000 2345.435
63.63000 2336.818
63.64000 2328.682
63.65000 2335.904
63.66000 2350.472
63.67000 2363.526
63.68000 2354.315
63.69000 2337.724
63.70000 2322.593
63.71000 2319.792
63.72000 2319.785
63.73000 2319.648
63.74000 2318.807
63.75000 2317.861
63.76000 2316.701
63.77000 2314.764
63.78000 2312.757
63.79000 2311.303
63.80000 2337.859
63.81000 2359.276
63.82000 2368.606
63.83000 2357.003
63.84000 2345.028
63.85000 2338.533
63.86000 2338.471
63.87000 2338.419
63.88000 2335.818
63.89000 2331.265
63.90000 2326.975
63.91000 2333.827
63.92000 2346.576
63.93000 2359.079
63.94000 2367.215
63.95000 2373.750
63.96000 2379.787
63.97000 2371.450
63.98000 2360.716
63.99000 2353.963
64.00000 2371.315
64.01000 2392.721
64.02000 2407.612
64.03000 2396.255
64.04000 2382.135
64.05000 2371.608
64.06000 2373.194
64.07000 2374.979
64.08000 2380.434
64.09000 2392.928
64.10000 2405.596
64.11000 2418.452
64.12000 2431.553
64.13000 2444.646
64.14000 2439.677
64.15000 2419.105
64.16000 2399.077
64.17000 2411.447
64.18000 2442.814
64.19000 2472.534
64.20000 2466.687
64.21000 2446.414
64.22000 2427.457
64.23000 2445.936
64.24000 2472.233
64.25000 2494.447
64.26000 2488.754
64.27000 2477.793
64.28000 2472.443
64.29000 2492.268
64.30000 2515.135
64.31000 2532.655
64.32000 2556.859
64.33000 2576.339
64.34000 2598.053
64.35000 2624.506
64.36000 2651.115
64.37000 2656.931
64.38000 2632.403
64.39000 2607.615
64.40000 2602.184
64.41000 2615.556
64.42000 2628.983
64.43000 2647.392
64.44000 2669.042
64.45000 2690.340
64.46000 2702.086
64.47000 2709.550
64.48000 2716.606
64.49000 2718.736
64.50000 2719.289
64.51000 2719.833
64.52000 2720.316
64.53000 2720.787
64.54000 2722.821
64.55000 2732.691
64.56000 2743.640
64.57000 2752.245
64.58000 2731.867
64.59000 2713.644
64.60000 2699.417
64.61000 2694.563
64.62000 2690.098
64.63000 2683.610
64.64000 2673.842
64.65000 2664.028
64.66000 2658.905
64.67000 2643.915
64.68000 2633.753
64.69000 2620.511
64.70000 2605.043
64.71000 2590.205
64.72000 2597.497
64.73000 2615.765
64.74000 2633.204
64.75000 2632.417
64.76000 2625.867
64.77000 2620.029
64.78000 2620.502
64.79000 2622.461
64.80000 2620.099
64.81000 2593.477
64.82000 2563.077
64.83000 2538.608
64.84000 2523.875
64.85000 2512.680
64.86000 2502.843
64.87000 2496.532
64.88000 2490.402
64.89000 2484.382
64.90000 2478.559
64.91000 2472.740
64.92000 2469.537
64.93000 2439.807
64.94000 2419.327
64.95000 2414.193
64.96000 2421.431
64.97000 2428.410
64.98000 2423.062
64.99000 2410.946
65.00000 2399.276
65.01000 2398.910
65.02000 2402.603
65.03000 2405.204
65.04000 2396.656
65.05000 2385.188
65.06000 2377.110
65.07000 2390.441
65.08000 2407.526
65.09000 2421.587
65.10000 2404.347
65.11000 2387.323
65.12000 2371.022
65.13000 2356.793
65.14000 2342.694
65.15000 2335.811
65.16000 2343.280
65.17000 2351.142
65.18000 2355.688
65.19000 2350.667
65.20000 2347.110
65.21000 2344.802
65.22000 2343.620
65.23000 2342.442
65.24000 2341.531
65.25000 2340.782
65.26000 2340.054
65.27000 2339.486
65.28000 2339.010
65.29000 2338.385
65.30000 2335.980
65.31000 2333.057
65.32000 2331.504
65.33000 2339.731
65.34000 2349.881
65.35000 2358.408
65.36000 2353.808
65.37000 2348.591
65.38000 2345.365
65.39000 2348.466
65.40000 2352.036
65.41000 2353.650
65.42000 2350.958
65.43000 2348.114
65.44000 2346.393
65.45000 2319.804
65.46000 2300.672
65.47000 2296.879
65.48000 2308.625
65.49000 2320.258
65.50000 2319.515
65.51000 2310.415
65.52000 2301.519
65.53000 2295.742
65.54000 2291.595
65.55000 2288.043
65.56000 2292.813
65.57000 2300.263
65.58000 2307.615
65.59000 2314.173
65.60000 2320.556
65.61000 2326.022
65.62000 2327.882
65.63000 2329.013
65.64000 2330.133
65.65000 2331.211
65.66000 2332.285
65.67000 2334.689
65.68000 2340.329
65.69000 2346.114
65.70000 2349.762
65.71000 2373.843
65.72000 2391.517
65.73000 2391.864
65.74000 2372.510
65.75000 2353.235
65.76000 2354.127
65.77000 2370.177
65.78000 2385.958
65.79000 2378.249
65.80000 2359.108
65.81000 2341.037
65.82000 2340.869
65.83000 2347.079
65.84000 2354.138
65.85000 2369.109
65.86000 2386.015
65.87000 2400.755
65.88000 2384.277
65.89000 2365.853
65.90000 2350.814
65.91000 2349.008
65.92000 2348.538
65.93000 2345.690
65.94000 2336.442
65.95000 2326.842
65.96000 2320.546
65.97000 2321.899
65.98000 2323.021
65.99000 2332.977
66.00000 2354.157
66.01000 2375.343
66.02000 2377.799
66.03000 2364.548
66.04000 2351.452
66.05000 2345.998
66.06000 2344.922
66.07000 2343.939
66.08000 2344.853
66.09000 2346.513
66.10000 2347.069
66.11000 2335.719
66.12000 2321.132
66.13000 2308.203
66.14000 2309.240
66.15000 2312.346
66.16000 2311.809
66.17000 2295.419
66.18000 2277.187
66.19000 2271.761
66.20000 2304.442
66.21000 2339.653
66.22000 2363.594
66.23000 2329.186
66.24000 2302.179
66.25000 2287.850
66.26000 2291.471
66.27000 2295.222
66.28000 2295.650
66.29000 2292.956
66.30000 2290.283
66.31000 2284.014
66.32000 2275.621
66.33000 2267.712
66.34000 2272.091
66.35000 2281.823
66.36000 2291.680
66.37000 2303.097
66.38000 2314.985
66.39000 2325.684
66.40000 2333.890
66.41000 2340.635
66.42000 2346.248
66.43000 2346.359
66.44000 2345.741
66.45000 2344.158
66.46000 2339.395
66.47000 2334.383
66.48000 2330.858
66.49000 2338.039
66.50000 2343.796
66.51000 2340.165
66.52000 2321.764
66.53000 2303.184
66.54000 2293.530
66.55000 2293.308
66.56000 2293.088
66.57000 2304.526
66.58000 2323.936
66.59000 2342.965
66.60000 2349.613
66.61000 2350.295
66.62000 2350.474
66.63000 2343.162
66.64000 2333.349
66.65000 2324.391
66.66000 2319.503
66.67000 2315.990
66.68000 2313.672
66.69000 2317.849
66.70000 2323.002
66.71000 2327.360
66.72000 2328.806
66.73000 2329.984
66.74000 2330.839
66.75000 2327.704
66.76000 2325.145
66.77000 2320.882
66.78000 2313.643
66.79000 2306.349
66.80000 2305.173
66.81000 2311.238
66.82000 2317.302
66.83000 2321.741
66.84000 2324.893
66.85000 2327.739
66.86000 2317.324
66.87000 2299.839
66.88000 2283.558
66.89000 2288.849
66.90000 2302.109
66.91000 2314.372
66.92000 2324.291
66.93000 2332.666
66.94000 2338.419
66.95000 2328.176
66.96000 2315.219
66.97000 2306.325
66.98000 2313.929
66.99000 2323.286
67.00000 2330.277
67.01000 2343.839
67.02000 2354.713
67.03000 2355.636
67.04000 2337.333
67.05000 2318.545
67.06000 2306.259
67.07000 2302.565
67.08000 2298.915
67.09000 2304.431
67.10000 2317.928
67.11000 2331.247
67.12000 2333.607
67.13000 2329.496
67.14000 2325.510
67.15000 2324.292
67.16000 2324.205
67.17000 2324.124
67.18000 2315.844
67.19000 2306.217
67.20000 2299.994
67.21000 2317.241
67.22000 2338.956
67.23000 2355.157
67.24000 2346.427
67.25000 2334.657
67.26000 2325.622
67.27000 2321.957
67.28000 2319.359
67.29000 2317.662
67.30000 2317.889
67.31000 2318.180
67.32000 2321.636
67.33000 2329.748
67.34000 2337.901
67.35000 2342.960
67.36000 2344.988
67.37000 2347.106
67.38000 2357.661
67.39000 2373.745
67.40000 2389.075
67.41000 2383.608
67.42000 2368.747
67.43000 2354.688
67.44000 2342.666
67.45000 2332.199
67.46000 2323.184
67.47000 2325.533
67.48000 2330.301
67.49000 2330.951
67.50000 2310.807
67.51000 2287.777
67.52000 2269.643
67.53000 2287.927
67.54000 2305.007
67.55000 2315.922
67.56000 2312.266
67.57000 2307.994
67.58000 2305.118
67.59000 2304.519
67.60000 2303.953
67.61000 2303.656
67.62000 2301.650
67.63000 2300.323
67.64000 2304.260
67.65000 2312.032
67.66000 2319.532
67.67000 2317.274
67.68000 2310.141
67.69000 2303.328
67.70000 2305.394
67.71000 2310.172
67.72000 2315.043
67.73000 2320.740
67.74000 2326.633
67.75000 2330.760
67.76000 2324.897
67.77000 2317.464
67.78000 2311.472
67.79000 2319.668
67.80000 2327.441
67.81000 2327.555
67.82000 2307.652
67.83000 2286.706
67.84000 2275.337
67.85000 2281.303
67.86000 2287.626
67.87000 2291.119
67.88000 2316.853
67.89000 2334.620
67.90000 2343.718
67.91000 2345.771
67.92000 2347.772
67.93000 2347.249
67.94000 2345.330
67.95000 2343.481
67.96000 2344.945
67.97000 2347.513
67.98000 2349.948
67.99000 2351.002
68.00000 2351.691
68.01000 2351.651
68.02000 2346.964
68.03000 2341.457
68.04000 2336.917
68.05000 2332.031
68.06000 2327.979
68.07000 2322.292
68.08000 2311.880
68.09000 2301.171
68.10000 2299.539
68.11000 2316.091
68.12000 2333.151
68.13000 2343.048
68.14000 2343.584
68.15000 2343.921
68.16000 2345.157
68.17000 2347.210
68.18000 2349.110
68.19000 2340.235
68.20000 2324.756
68.21000 2309.721
68.22000 2322.729
68.23000 2346.355
68.24000 2367.257
68.25000 2355.397
68.26000 2333.947
68.27000 2314.963
68.28000 2313.769
68.29000 2316.100
68.30000 2318.061
68.31000 2331.015
68.32000 2342.988
68.33000 2354.318
68.34000 2363.592
68.35000 2372.711
68.36000 2374.333
68.37000 2359.349
68.38000 2343.760
68.39000 2334.301
68.40000 2338.859
68.41000 2342.218
68.42000 2348.295
68.43000 2357.148
68.44000 2365.994
68.45000 2373.905
68.46000 2381.181
68.47000 2388.297
68.48000 2369.690
68.49000 2340.299
68.50000 2313.682
68.51000 2326.390
68.52000 2351.854
68.53000 2375.033
68.54000 2379.463
68.55000 2379.744
68.56000 2379.984
68.57000 2375.979
68.58000 2372.075
68.59000 2367.482
68.60000 2360.439
68.61000 2353.181
68.62000 2352.043
68.63000 2365.896
68.64000 2380.434
68.65000 2389.631
68.66000 2408.101
68.67000 2421.601
68.68000 2430.454
68.69000 2433.979
68.70000 2437.494
68.71000 2440.272
68.72000 2442.491
68.73000 2444.675
68.74000 2447.861
68.75000 2451.446
68.76000 2454.164
68.77000 2442.182
68.78000 2424.924
68.79000 2411.278
68.80000 2431.634
68.81000 2460.372
68.82000 2485.458
68.83000 2516.509
68.84000 2543.915
68.85000 2582.002
68.86000 2662.164
68.87000 2746.621
68.88000 2851.683
68.89000 3012.563
68.90000 3176.567
68.91000 3284.408
68.92000 3750.754
68.93000 4100.192
68.94000 4480.030
68.95000 4898.811
68.96000 5317.715
68.97000 5724.348
68.98000 6120.607
68.99000 6512.345
69.00000 6752.935
69.01000 6903.148
69.02000 7047.667
69.03000 7074.632
69.04000 7054.933
69.05000 7036.404
69.06000 7030.621
69.07000 7028.327
69.08000 7026.292
69.09000 7049.298
69.10000 7073.231
69.11000 7096.865
69.12000 7119.188
69.13000 7141.355
69.14000 7139.877
69.15000 7067.525
69.16000 6990.408
69.17000 6937.844
69.18000 6582.181
69.19000 6309.383
69.20000 6054.787
69.21000 5826.164
69.22000 5597.741
69.23000 5395.594
69.24000 5218.342
69.25000 5042.397
69.26000 4911.587
69.27000 4811.171
69.28000 4711.657
69.29000 4635.381
69.30000 4569.305
69.31000 4502.746
69.32000 4430.039
69.33000 4355.464
69.34000 4288.271
69.35000 4121.565
69.36000 3957.300
69.37000 3782.744
69.38000 3557.853
69.39000 3326.224
69.40000 3116.512
69.41000 2979.551
69.42000 2848.378
69.43000 2755.928
69.44000 2642.469
69.45000 2555.792
69.46000 2492.262
69.47000 2465.426
69.48000 2439.052
69.49000 2423.355
69.50000 2419.031
69.51000 2414.729
69.52000 2411.130
69.53000 2408.060
69.54000 2404.821
69.55000 2396.041
69.56000 2384.572
69.57000 2374.494
69.58000 2385.407
69.59000 2403.379
69.60000 2419.802
69.61000 2402.622
69.62000 2380.497
69.63000 2361.604
69.64000 2360.411
69.65000 2361.904
69.66000 2362.242
69.67000 2358.324
69.68000 2354.012
69.69000 2350.876
69.70000 2343.913
69.71000 2338.411
69.72000 2336.185
69.73000 2339.718
69.74000 2343.357
69.75000 2345.903
69.76000 2347.143
69.77000 2348.378
69.78000 2343.588
69.79000 2334.101
69.80000 2324.767
69.81000 2322.197
69.82000 2323.260
69.83000 2324.584
69.84000 2330.631
69.85000 2338.436
69.86000 2345.659
69.87000 2332.958
69.88000 2316.956
69.89000 2304.581
69.90000 2314.539
69.91000 2328.317
69.92000 2339.003
69.93000 2337.042
69.94000 2333.723
69.95000 2331.238
69.96000 2320.499
69.97000 2311.733
69.98000 2307.548
69.99000 2312.276
70.00000 2317.234
