20.00000 564.440
20.01000 565.146
20.02000 565.952
20.03000 567.287
20.04000 570.735
20.05000 574.402
20.06000 577.130
20.07000 571.745
20.08000 567.194
20.09000 560.713
20.10000 550.560
20.11000 540.318
20.12000 539.926
20.13000 552.344
20.14000 564.805
20.15000 572.057
20.16000 574.827
20.17000 577.501
20.18000 574.534
20.19000 568.285
20.20000 562.375
20.21000 563.692
20.22000 567.916
20.23000 571.863
20.24000 572.765
20.25000 572.815
20.26000 572.870
20.27000 572.958
20.28000 573.052
20.29000 572.026
20.30000 566.009
20.31000 559.395
20.32000 554.338
20.33000 552.553
20.34000 551.322
20.35000 551.108
20.36000 553.034
20.37000 555.028
20.38000 560.195
20.39000 569.958
20.40000 579.758
20.41000 582.326
20.42000 577.930
20.43000 573.590
20.44000 574.045
20.45000 577.596
20.46000 580.965
20.47000 579.475
20.48000 575.824
20.49000 572.375
20.50000 560.839
20.51000 547.965
20.52000 536.572
20.53000 536.560
20.54000 538.931
20.55000 542.657
20.56000 553.116
20.57000 564.492
20.58000 573.418
20.59000 567.527
20.60000 561.853
20.61000 561.530
20.62000 573.669
20.63000 586.316
20.64000 585.224
20.65000 562.038
20.66000 538.555
20.67000 526.347
20.68000 547.236
20.69000 561.288
20.70000 565.233
20.71000 561.928
20.72000 558.557
20.73000 552.920
20.74000 546.167
20.75000 539.725
20.76000 542.920
20.77000 548.938
20.78000 554.330
20.79000 554.225
20.80000 552.836
20.81000 551.393
20.82000 549.643
20.83000 547.845
20.84000 546.401
20.85000 543.516
20.86000 541.068
20.87000 540.583
20.88000 545.155
20.89000 549.983
20.90000 555.925
20.91000 563.852
20.92000 571.818
20.93000 576.187
20.94000 576.799
20.95000 577.213
20.96000 576.950
20.97000 576.146
20.98000 575.260
20.99000 570.528
21.00000 563.702
21.01000 557.131
21.02000 559.439
21.03000 564.748
21.04000 568.947
21.05000 561.934
21.06000 552.008
21.07000 544.555
21.08000 552.586
21.09000 563.309
21.10000 572.119
21.11000 574.855
21.12000 576.556
21.13000 574.950
21.14000 563.927
21.15000 552.325
21.16000 546.944
21.17000 553.842
21.18000 561.068
21.19000 565.232
21.20000 570.122
21.21000 573.549
21.22000 577.334
21.23000 581.442
21.24000 585.425
21.25000 581.153
21.26000 571.897
21.27000 562.917
21.28000 559.533
21.29000 558.539
21.30000 557.745
21.31000 559.302
21.32000 561.536
21.33000 563.479
21.34000 563.354
21.35000 562.826
21.36000 562.382
21.37000 556.073
21.38000 550.209
21.39000 544.602
21.40000 539.801
21.41000 535.060
21.42000 535.622
21.43000 547.764
21.44000 560.311
21.45000 567.876
21.46000 569.695
21.47000 570.949
21.48000 570.211
21.49000 567.474
21.50000 564.742
21.51000 562.563
21.52000 560.755
21.53000 558.987
21.54000 564.256
21.55000 572.410
21.56000 579.451
21.57000 571.100
21.58000 557.831
21.59000 546.539
21.60000 551.173
21.61000 559.277
21.62000 566.207
21.63000 574.211
21.64000 581.089
21.65000 587.657
21.66000 593.146
21.67000 598.542
21.68000 602.579
21.69000 603.334
21.70000 603.944
21.71000 604.327
21.72000 596.581
21.73000 590.888
21.74000 593.577
21.75000 605.717
21.76000 617.836
21.77000 624.195
21.78000 626.259
21.79000 628.288
21.80000 640.954
21.81000 658.444
21.82000 675.089
21.83000 677.797
21.84000 675.576
21.85000 675.336
21.86000 693.375
21.87000 715.849
21.88000 735.419
21.89000 736.469
21.90000 734.818
21.91000 736.382
21.92000 750.413
21.93000 765.691
21.94000 778.647
21.95000 785.407
21.96000 791.830
21.97000 796.031
21.98000 808.930
21.99000 818.548
22.00000 826.103
22.01000 831.061
22.02000 836.006
22.03000 839.323
22.04000 841.284
22.05000 843.222
22.06000 841.955
22.07000 838.955
22.08000 835.761
22.09000 828.675
22.10000 820.066
22.11000 812.096
22.12000 810.930
22.13000 811.598
22.14000 812.190
22.15000 803.381
22.16000 794.290
22.17000 782.875
22.18000 761.438
22.19000 738.848
22.20000 722.434
22.21000 724.257
22.22000 727.275
22.23000 729.322
22.24000 720.998
22.25000 714.562
22.26000 703.979
22.27000 687.570
22.28000 671.124
22.29000 663.861
22.30000 665.154
22.31000 666.437
22.32000 659.957
22.33000 648.814
22.34000 637.889
22.35000 632.403
22.36000 629.268
22.37000 626.417
22.38000 627.094
22.39000 628.827
22.40000 630.385
22.41000 612.858
22.42000 594.117
22.43000 577.962
22.44000 574.257
22.45000 572.187
22.46000 571.115
22.47000 573.307
22.48000 575.754
22.49000 577.469
22.50000 574.132
22.51000 571.460
22.52000 568.025
22.53000 563.399
22.54000 558.760
22.55000 554.604
22.56000 550.954
22.57000 547.321
22.58000 547.549
22.59000 550.431
22.60000 553.316
22.61000 556.263
22.62000 559.241
22.63000 562.060
22.64000 562.552
22.65000 562.273
22.66000 562.018
22.67000 553.235
22.68000 543.735
22.69000 535.494
22.70000 534.032
22.71000 533.580
22.72000 533.737
22.73000 536.105
22.74000 538.674
22.75000 540.534
22.76000 532.814
22.77000 526.536
22.78000 522.666
22.79000 522.966
22.80000 523.340
22.81000 527.907
22.82000 537.398
22.83000 546.875
22.84000 545.853
22.85000 536.746
22.86000 527.752
22.87000 523.534
22.88000 521.843
22.89000 520.247
22.90000 520.320
22.91000 521.005
22.92000 521.638
22.93000 527.726
22.94000 534.423
22.95000 539.045
22.96000 531.107
22.97000 521.059
22.98000 514.361
22.99000 521.157
23.00000 529.372
23.01000 535.496
23.02000 524.550
23.03000 515.253
23.04000 511.184
23.05000 517.142
23.06000 523.348
23.07000 529.107
23.08000 534.282
23.09000 539.451
23.10000 536.155
23.11000 525.550
23.12000 515.185
23.13000 519.165
23.14000 531.553
23.15000 543.073
23.16000 535.855
23.17000 521.041
23.18000 507.188
23.19000 500.250
23.20000 495.707
23.21000 492.529
23.22000 498.668
23.23000 506.567
23.24000 512.919
23.25000 512.337
23.26000 510.918
23.27000 509.831
23.28000 513.397
23.29000 516.469
23.30000 517.905
23.31000 515.873
23.32000 513.728
23.33000 512.125
23.34000 511.312
23.35000 510.506
23.36000 507.759
23.37000 503.129
23.38000 498.609
23.39000 504.145
23.40000 516.221
23.41000 527.836
23.42000 526.985
23.43000 520.544
23.44000 514.457
23.45000 511.192
23.46000 508.997
23.47000 506.949
23.48000 506.041
23.49000 505.373
23.50000 505.226
23.51000 507.689
23.52000 510.512
23.53000 512.730
23.54000 510.689
23.55000 508.774
23.56000 508.078
23.57000 510.242
23.58000 512.524
23.59000 509.111
23.60000 496.469
23.61000 483.700
23.62000 477.035
23.63000 485.220
23.64000 490.736
23.65000 492.222
23.66000 490.795
23.67000 489.296
23.68000 485.266
23.69000 479.981
23.70000 474.936
23.71000 483.253
23.72000 495.243
23.73000 505.743
23.74000 503.038
23.75000 497.224
23.76000 493.473
23.77000 501.298
23.78000 510.923
23.79000 518.671
23.80000 514.916
23.81000 510.975
23.82000 507.627
23.83000 505.818
23.84000 504.088
23.85000 503.529
23.86000 505.071
23.87000 506.655
23.88000 507.527
23.89000 496.055
23.90000 488.160
23.91000 490.159
23.92000 500.130
23.93000 509.910
23.94000 510.599
23.95000 506.299
23.96000 502.157
23.97000 501.597
23.98000 502.348
23.99000 503.079
24.00000 503.598
24.01000 504.062
24.02000 503.924
24.03000 499.988
24.04000 495.386
24.05000 491.599
24.06000 490.892
24.07000 490.592
24.08000 488.713
24.09000 482.305
24.10000 475.616
24.11000 474.365
24.12000 483.926
24.13000 493.783
24.14000 499.481
24.15000 496.287
24.16000 494.017
24.17000 496.842
24.18000 504.260
24.19000 511.528
24.20000 508.492
24.21000 499.189
24.22000 490.159
24.23000 489.218
24.24000 491.551
24.25000 493.202
24.26000 486.755
24.27000 477.956
24.28000 470.940
24.29000 476.657
24.30000 484.876
24.31000 491.782
24.32000 487.348
24.33000 482.458
24.34000 478.553
24.35000 477.773
24.36000 477.224
24.37000 480.635
24.38000 492.752
24.39000 505.180
24.40000 512.698
24.41000 504.869
24.42000 499.178
24.43000 492.537
24.44000 484.932
24.45000 477.396
24.46000 477.232
24.47000 482.045
24.48000 486.749
24.49000 483.773
24.50000 477.500
24.51000 471.908
24.52000 475.854
24.53000 482.869
24.54000 489.039
24.55000 488.330
24.56000 486.112
24.57000 484.213
24.58000 484.940
24.59000 485.873
24.60000 486.746
24.61000 487.413
24.62000 488.062
24.63000 485.682
24.64000 475.940
24.65000 465.867
24.66000 459.514
24.67000 464.975
24.68000 469.065
24.69000 475.537
24.70000 484.716
24.71000 493.857
24.72000 494.679
24.73000 489.251
24.74000 483.913
24.75000 482.370
24.76000 482.764
24.77000 483.263
24.78000 485.508
24.79000 488.375
24.80000 490.127
24.81000 481.490
24.82000 470.313
24.83000 460.568
24.84000 459.740
24.85000 460.271
24.86000 462.060
24.87000 468.769
24.88000 475.975
24.89000 480.579
24.90000 478.190
24.91000 475.414
24.92000 473.594
24.93000 473.153
24.94000 472.852
24.95000 472.666
24.96000 472.627
24.97000 472.592
24.98000 473.794
24.99000 476.035
25.00000 478.250
25.01000 476.924
25.02000 473.664
25.03000 470.719
25.04000 474.161
25.05000 480.121
25.06000 485.951
25.07000 490.389
25.08000 494.449
25.09000 498.048
25.10000 485.936
25.11000 472.967
25.12000 463.048
25.13000 466.386
25.14000 471.265
25.15000 475.179
25.16000 476.225
25.17000 477.080
25.18000 477.662
25.19000 473.465
25.20000 470.225
25.21000 469.414
25.22000 472.041
25.23000 474.693
25.24000 474.721
25.25000 472.283
25.26000 469.864
25.27000 471.176
25.28000 474.780
25.29000 478.146
25.30000 475.510
25.31000 470.259
25.32000 465.721
25.33000 470.137
25.34000 477.253
25.35000 483.658
25.36000 476.622
25.37000 468.046
25.38000 461.135
25.39000 462.305
25.40000 464.546
25.41000 467.935
25.42000 475.105
25.43000 482.573
25.44000 487.823
25.45000 482.372
25.46000 477.927
25.47000 472.287
25.48000 464.766
25.49000 457.222
25.50000 452.935
25.51000 452.089
25.52000 451.248
25.53000 457.126
25.54000 467.605
25.55000 477.851
25.56000 480.551
25.57000 479.616
25.58000 478.675
25.59000 477.653
25.60000 476.605
25.61000 475.649
25.62000 469.304
25.63000 462.583
25.64000 457.020
25.65000 457.742
25.66000 459.410
25.67000 460.518
25.68000 459.586
25.69000 458.467
25.70000 457.655
25.71000 468.208
25.72000 476.742
25.73000 480.621
25.74000 476.381
25.75000 471.993
25.76000 469.620
25.77000 469.629
25.78000 469.642
25.79000 469.468
25.80000 469.148
25.81000 468.807
25.82000 467.561
25.83000 465.833
25.84000 464.279
25.85000 465.847
25.86000 468.569
25.87000 471.086
25.88000 475.900
25.89000 480.748
25.90000 483.934
25.91000 476.983
25.92000 468.312
25.93000 461.560
25.94000 462.593
25.95000 464.454
25.96000 465.843
25.97000 465.858
25.98000 465.806
25.99000 465.840
26.00000 466.039
26.01000 466.243
26.02000 463.366
26.03000 456.419
26.04000 449.458
26.05000 449.199
26.06000 454.779
26.07000 460.299
26.08000 462.157
26.09000 461.853
26.10000 461.550
26.11000 461.295
26.12000 461.059
26.13000 460.839
26.14000 461.795
26.15000 462.966
26.16000 463.438
26.17000 459.097
26.18000 453.839
26.19000 450.722
26.20000 457.282
26.21000 465.022
26.22000 470.962
26.23000 466.028
26.24000 461.521
26.25000 458.975
26.26000 460.621
26.27000 462.406
26.28000 464.834
26.29000 468.208
26.30000 471.591
26.31000 473.061
26.32000 472.657
26.33000 472.220
26.34000 468.657
26.35000 463.044
26.36000 457.437
26.37000 451.991
26.38000 446.619
26.39000 441.536
26.40000 444.003
26.41000 448.440
26.42000 452.204
26.43000 450.704
26.44000 448.084
26.45000 446.876
26.46000 452.799
26.47000 459.712
26.48000 465.154
26.49000 470.238
26.50000 474.288
26.51000 473.639
26.52000 461.889
26.53000 449.671
26.54000 447.143
26.55000 460.434
26.56000 473.949
26.57000 481.031
26.58000 470.323
26.59000 463.081
26.60000 458.687
26.61000 456.367
26.62000 454.155
26.63000 455.801
26.64000 459.374
26.65000 462.788
26.66000 451.382
26.67000 436.011
26.68000 422.655
26.69000 427.345
26.70000 436.315
26.71000 444.609
26.72000 449.080
26.73000 452.951
26.74000 456.071
26.75000 452.077
26.76000 448.274
26.77000 447.942
26.78000 456.678
26.79000 465.888
26.80000 468.777
26.81000 460.233
26.82000 451.454
26.83000 446.604
26.84000 453.021
26.85000 457.456
26.86000 457.770
26.87000 454.735
26.88000 451.759
26.89000 451.653
26.90000 453.134
26.91000 454.560
26.92000 457.843
26.93000 461.596
26.94000 464.156
26.95000 454.406
26.96000 441.409
26.97000 430.815
26.98000 435.528
26.99000 442.946
27.00000 449.060
27.01000 448.507
27.02000 447.439
27.03000 445.350
27.04000 440.310
27.05000 435.083
27.06000 432.571
27.07000 435.492
27.08000 438.566
27.09000 440.349
27.10000 433.135
27.11000 428.038
27.12000 428.727
27.13000 434.676
27.14000 440.576
27.15000 443.021
27.16000 443.349
27.17000 443.668
27.18000 435.922
27.19000 425.326
27.20000 416.137
27.21000 423.869
27.22000 436.553
27.23000 446.976
27.24000 441.099
27.25000 431.993
27.26000 424.332
27.27000 420.792
27.28000 418.279
27.29000 419.475
27.30000 432.536
27.31000 446.486
27.32000 457.009
27.33000 459.941
27.34000 462.598
27.35000 464.210
27.36000 448.382
27.37000 436.958
27.38000 430.004
27.39000 427.615
27.40000 425.298
27.41000 430.931
27.42000 441.973
27.43000 452.771
27.44000 455.292
27.45000 453.993
27.46000 452.465
27.47000 447.675
27.48000 441.827
27.49000 436.878
27.50000 439.301
27.51000 443.355
27.52000 446.831
27.53000 445.082
27.54000 442.964
27.55000 440.373
27.56000 436.101
27.57000 431.681
27.58000 429.512
27.59000 432.856
27.60000 436.451
27.61000 438.726
27.62000 435.312
27.63000 432.770
27.64000 432.938
27.65000 436.211
27.66000 439.475
27.67000 440.262
27.68000 439.173
27.69000 438.102
27.70000 444.627
27.71000 454.748
27.72000 464.012
27.73000 458.751
27.74000 448.278
27.75000 438.444
27.76000 434.624
27.77000 432.286
27.78000 430.245
27.79000 432.570
27.80000 435.171
27.81000 436.279
27.82000 431.511
27.83000 426.142
27.84000 421.750
27.85000 420.001
27.86000 418.400
27.87000 417.347
27.88000 426.924
27.89000 434.155
27.90000 434.654
27.91000 426.531
27.92000 418.389
27.93000 418.120
27.94000 424.505
27.95000 430.816
27.96000 428.615
27.97000 421.701
27.98000 415.555
27.99000 425.250
28.00000 441.230
28.01000 455.310
28.02000 448.715
28.03000 436.460
28.04000 425.585
28.05000 421.323
28.06000 418.686
28.07000 418.458
28.08000 428.787
28.09000 440.354
28.10000 447.812
28.11000 442.954
28.12000 437.268
28.13000 433.393
28.14000 442.926
28.15000 450.360
28.16000 453.521
28.17000 450.590
28.18000 447.612
28.19000 441.785
28.20000 433.260
28.21000 424.797
28.22000 428.250
28.23000 439.097
28.24000 449.447
28.25000 446.997
28.26000 438.931
28.27000 431.803
28.28000 436.608
28.29000 445.037
28.30000 452.631
28.31000 445.185
28.32000 435.933
28.33000 428.341
28.34000 428.865
28.35000 430.475
28.36000 433.035
28.37000 438.747
28.38000 444.710
28.39000 448.912
28.40000 434.790
28.41000 423.531
28.42000 414.667
28.43000 409.597
28.44000 404.575
28.45000 406.991
28.46000 417.327
28.47000 427.622
28.48000 431.978
28.49000 432.138
28.50000 432.311
28.51000 432.924
28.52000 433.750
28.53000 434.278
28.54000 430.323
28.55000 424.859
28.56000 419.867
28.57000 423.221
28.58000 427.905
28.59000 431.881
28.60000 431.987
28.61000 431.506
28.62000 430.898
28.63000 429.826
28.64000 428.711
28.65000 427.900
28.66000 432.386
28.67000 436.037
28.68000 435.533
28.69000 427.726
28.70000 419.784
28.71000 419.511
28.72000 428.387
28.73000 437.262
28.74000 436.243
28.75000 427.479
28.76000 418.909
28.77000 418.985
28.78000 423.703
28.79000 428.065
28.80000 425.987
28.81000 421.513
28.82000 417.372
28.83000 421.829
28.84000 427.812
28.85000 432.893
28.86000 432.416
28.87000 430.989
28.88000 429.104
28.89000 425.347
28.90000 421.389
28.91000 418.427
28.92000 421.962
28.93000 425.023
28.94000 427.362
28.95000 428.293
28.96000 429.188
28.97000 428.203
28.98000 424.715
28.99000 421.217
29.00000 416.838
29.01000 411.691
29.02000 406.664
29.03000 409.062
29.04000 415.878
29.05000 422.546
29.06000 425.895
29.07000 427.880
29.08000 429.738
29.09000 423.942
29.10000 416.691
29.11000 410.802
29.12000 414.379
29.13000 419.773
29.14000 423.512
29.15000 419.711
29.16000 414.983
29.17000 411.347
29.18000 408.498
29.19000 406.288
29.20000 404.575
29.21000 403.931
29.22000 403.323
29.23000 405.458
29.24000 411.658
29.25000 417.894
29.26000 420.746
29.27000 420.254
29.28000 419.784
29.29000 421.523
29.30000 424.719
29.31000 427.683
29.32000 424.164
29.33000 417.694
29.34000 411.570
29.35000 408.142
29.36000 405.769
29.37000 404.478
29.38000 411.742
29.39000 420.841
29.40000 426.219
29.41000 412.667
29.42000 396.464
29.43000 383.684
29.44000 391.060
29.45000 398.335
29.46000 404.813
29.47000 409.393
29.48000 413.891
29.49000 417.925
29.50000 421.198
29.51000 424.460
29.52000 426.176
29.53000 422.642
29.54000 420.264
29.55000 421.540
29.56000 425.500
29.57000 429.385
29.58000 430.572
29.59000 430.400
29.60000 430.236
29.61000 430.909
29.62000 431.808
29.63000 432.061
29.64000 426.482
29.65000 419.508
29.66000 413.328
29.67000 411.681
29.68000 410.752
29.69000 410.001
29.70000 416.442
29.71000 422.250
29.72000 426.542
29.73000 426.846
29.74000 426.938
29.75000 426.391
29.76000 424.680
29.77000 422.944
29.78000 421.982
29.79000 432.978
29.80000 440.576
29.81000 440.609
29.82000 434.448
29.83000 428.288
29.84000 422.212
29.85000 416.183
29.86000 410.370
29.87000 416.222
29.88000 425.957
29.89000 434.994
29.90000 436.759
29.91000 436.591
29.92000 437.160
29.93000 442.462
29.94000 448.607
29.95000 453.679
29.96000 463.361
29.97000 471.765
29.98000 475.321
29.99000 464.764
30.00000 453.306
30.01000 446.229
30.02000 447.989
30.03000 450.002
30.04000 451.173
30.05000 453.459
30.06000 455.071
30.07000 457.144
30.08000 459.639
30.09000 462.114
30.10000 463.142
30.11000 463.277
30.12000 463.408
30.13000 463.667
30.14000 463.965
30.15000 463.913
30.16000 459.610
30.17000 454.053
30.18000 449.001
30.19000 447.616
30.20000 446.964
30.21000 446.415
30.22000 447.078
30.23000 447.763
30.24000 449.681
30.25000 455.576
30.26000 461.773
30.27000 463.143
30.28000 453.745
30.29000 443.949
30.30000 437.987
30.31000 446.045
30.32000 451.912
30.33000 451.254
30.34000 443.876
30.35000 436.551
30.36000 435.529
30.37000 438.827
30.38000 442.053
30.39000 442.022
30.40000 440.518
30.41000 438.993
30.42000 437.167
30.43000 435.243
30.44000 434.115
30.45000 439.592
30.46000 446.540
30.47000 452.507
30.48000 452.318
30.49000 451.396
30.50000 449.669
30.51000 445.068
30.52000 440.211
30.53000 436.506
30.54000 435.645
30.55000 434.914
30.56000 434.451
30.57000 433.736
30.58000 433.214
30.59000 437.306
30.60000 446.728
30.61000 456.156
30.62000 465.184
30.63000 473.908
30.64000 482.493
30.65000 480.678
30.66000 473.666
30.67000 466.713
30.68000 460.768
30.69000 455.187
30.70000 450.177
30.71000 450.595
30.72000 452.361
30.73000 453.904
30.74000 456.375
30.75000 458.622
30.76000 462.467
30.77000 472.655
30.78000 483.496
30.79000 492.201
30.80000 495.079
30.81000 497.627
30.82000 499.306
30.83000 502.149
30.84000 504.264
30.85000 509.611
30.86000 519.129
30.87000 528.659
30.88000 535.008
30.89000 538.646
30.90000 542.244
30.91000 546.025
30.92000 549.820
30.93000 553.979
30.94000 565.761
30.95000 580.591
30.96000 595.014
30.97000 604.973
30.98000 613.699
30.99000 621.452
31.00000 642.993
31.01000 663.895
31.02000 686.285
31.03000 715.245
31.04000 744.982
31.05000 773.554
31.06000 798.605
31.07000 823.417
31.08000 840.369
31.09000 897.124
31.10000 940.519
31.11000 988.907
31.12000 1044.470
31.13000 1100.091
31.14000 1163.291
31.15000 1233.729
31.16000 1303.665
31.17000 1402.593
31.18000 1518.214
31.19000 1633.439
31.20000 1738.291
31.21000 1838.559
31.22000 1940.155
31.23000 2058.863
31.24000 2182.803
31.25000 2294.587
31.26000 2418.857
31.27000 2530.254
31.28000 2643.817
31.29000 2768.057
31.30000 2893.738
31.31000 3014.959
31.32000 3121.271
31.33000 3226.383
31.34000 3300.629
31.35000 3379.204
31.36000 3438.986
31.37000 3474.504
31.38000 3471.286
31.39000 3467.565
31.40000 3460.659
31.41000 3450.335
31.42000 3440.051
31.43000 3401.491
31.44000 3343.368
31.45000 3284.303
31.46000 3193.516
31.47000 3087.223
31.48000 2980.833
31.49000 2872.958
31.50000 2764.579
31.51000 2665.456
31.52000 2537.160
31.53000 2417.108
31.54000 2296.729
31.55000 2174.550
31.56000 2052.095
31.57000 1930.876
31.58000 1814.237
31.59000 1698.027
31.60000 1613.358
31.61000 1504.225
31.62000 1419.239
31.63000 1339.499
31.64000 1269.042
31.65000 1198.762
31.66000 1135.696
31.67000 1081.302
31.68000 1027.024
31.69000 978.685
31.70000 935.261
31.71000 892.076
31.72000 859.684
31.73000 833.131
31.74000 806.427
31.75000 776.960
31.76000 746.457
31.77000 718.200
31.78000 692.469
31.79000 669.907
31.80000 648.902
31.81000 637.564
31.82000 627.892
31.83000 616.120
31.84000 595.694
31.85000 574.328
31.86000 558.305
31.87000 543.235
31.88000 531.510
31.89000 522.762
31.90000 519.844
31.91000 517.080
31.92000 513.057
31.93000 507.344
31.94000 501.625
31.95000 494.425
31.96000 485.922
31.97000 477.420
31.98000 469.008
31.99000 460.650
32.00000 452.464
32.01000 448.193
32.02000 445.543
32.03000 443.059
32.04000 442.197
32.05000 441.834
32.06000 441.004
32.07000 436.897
32.08000 432.155
32.09000 427.876
32.10000 425.718
32.11000 423.823
32.12000 422.363
32.13000 423.399
32.14000 424.362
32.15000 424.483
32.16000 422.778
32.17000 421.010
32.18000 420.006
32.19000 420.141
32.20000 420.288
32.21000 421.081
32.22000 422.518
32.23000 423.940
32.24000 423.783
32.25000 422.574
32.26000 421.307
32.27000 418.342
32.28000 414.601
32.29000 411.056
32.30000 404.970
32.31000 398.623
32.32000 392.861
32.33000 391.751
32.34000 391.647
32.35000 392.742
32.36000 399.990
32.37000 408.107
32.38000 414.520
32.39000 407.746
32.40000 401.406
32.41000 397.238
32.42000 398.271
32.43000 399.531
32.44000 398.819
32.45000 394.838
32.46000 390.808
32.47000 388.680
32.48000 394.574
32.49000 398.560
32.50000 398.465
32.51000 395.351
32.52000 392.313
32.53000 392.059
32.54000 393.217
32.55000 394.325
32.56000 397.111
32.57000 400.253
32.58000 403.448
32.59000 407.113
32.60000 410.892
32.61000 412.765
32.62000 403.669
32.63000 392.821
32.64000 384.048
32.65000 382.244
32.66000 381.337
32.67000 382.785
32.68000 390.475
32.69000 398.500
32.70000 401.989
32.71000 397.150
32.72000 392.131
32.73000 389.339
32.74000 391.012
32.75000 392.180
32.76000 393.660
32.77000 395.397
32.78000 397.024
32.79000 393.024
32.80000 385.868
32.81000 378.964
32.82000 390.496
32.83000 408.088
32.84000 424.665
32.85000 430.544
32.86000 433.559
32.87000 436.224
32.88000 436.621
32.89000 436.611
32.90000 436.602
32.91000 430.793
32.92000 425.458
32.93000 422.089
32.94000 424.481
32.95000 427.247
32.96000 425.760
32.97000 415.633
32.98000 405.254
32.99000 399.194
33.00000 401.230
33.01000 402.701
33.02000 406.028
33.03000 411.070
33.04000 415.931
33.05000 407.189
33.06000 389.989
33.07000 373.267
33.08000 373.869
33.09000 381.515
33.10000 388.421
33.11000 386.216
33.12000 381.306
33.13000 376.260
33.14000 370.223
33.15000 363.987
33.16000 358.725
33.17000 359.175
33.18000 360.172
33.19000 361.741
33.20000 365.165
33.21000 368.732
33.22000 368.980
33.23000 361.770
33.24000 354.280
33.25000 349.708
33.26000 350.862
33.27000 351.734
33.28000 351.485
33.29000 350.072
33.30000 348.672
33.31000 348.828
33.32000 350.060
33.33000 351.265
33.34000 353.183
33.35000 355.351
33.36000 357.441
33.37000 358.408
33.38000 359.006
33.39000 359.143
33.40000 355.425
33.41000 350.839
33.42000 346.897
33.43000 349.218
33.44000 351.964
33.45000 353.514
33.46000 350.757
33.47000 347.613
33.48000 345.105
33.49000 344.177
33.50000 343.324
33.51000 342.781
33.52000 347.290
33.53000 350.629
33.54000 351.331
33.55000 348.964
33.56000 346.602
33.57000 346.750
33.58000 348.828
33.59000 350.874
33.60000 348.534
33.61000 344.034
33.62000 339.674
33.63000 337.756
33.64000 336.728
33.65000 336.170
33.66000 340.135
33.67000 345.232
33.68000 349.691
33.69000 343.740
33.70000 337.151
33.71000 332.453
33.72000 335.313
33.73000 338.960
33.74000 341.969
33.75000 343.224
33.76000 344.379
33.77000 345.142
33.78000 343.933
33.79000 343.006
33.80000 340.498
33.81000 335.934
33.82000 331.369
33.83000 332.181
33.84000 337.611
33.85000 342.982
33.86000 341.225
33.87000 335.455
33.88000 329.976
33.89000 330.706
33.90000 333.935
33.91000 337.360
33.92000 342.959
33.93000 349.162
33.94000 354.679
33.95000 348.224
33.96000 340.675
33.97000 333.996
33.98000 331.185
33.99000 328.837
34.00000 330.302
34.01000 343.360
34.02000 357.216
34.03000 366.707
34.04000 350.446
34.05000 337.650
34.06000 332.878
34.07000 339.727
34.08000 346.670
34.09000 347.385
34.10000 342.103
34.11000 336.858
34.12000 333.618
34.13000 331.703
34.14000 329.965
34.15000 332.945
34.16000 338.024
34.17000 342.561
34.18000 340.022
34.19000 335.303
34.20000 331.043
34.21000 332.715
34.22000 335.276
34.23000 337.537
34.24000 338.301
34.25000 338.861
34.26000 338.367
34.27000 334.321
34.28000 329.986
34.29000 326.917
34.30000 322.709
34.31000 319.475
34.32000 320.958
34.33000 330.026
34.34000 339.195
34.35000 341.301
34.36000 335.762
34.37000 330.242
34.38000 331.085
34.39000 336.444
34.40000 341.580
34.41000 339.014
34.42000 332.657
34.43000 326.556
34.44000 324.422
34.45000 323.640
34.46000 322.924
34.47000 325.104
34.48000 327.645
34.49000 329.790
34.50000 329.731
34.51000 329.333
34.52000 328.958
34.53000 328.674
34.54000 328.399
34.55000 328.198
34.56000 328.682
34.57000 329.083
34.58000 330.909
34.59000 335.278
34.60000 339.696
34.61000 342.942
34.62000 344.765
34.63000 346.582
34.64000 345.628
34.65000 342.472
34.66000 339.268
34.67000 333.866
34.68000 327.266
34.69000 321.179
34.70000 324.653
34.71000 331.735
34.72000 338.301
34.73000 336.600
34.74000 333.134
34.75000 330.199
34.76000 330.590
34.77000 331.558
34.78000 332.561
34.79000 333.703
34.80000 334.860
34.81000 335.729
34.82000 331.976
34.83000 328.820
34.84000 324.290
34.85000 317.048
34.86000 309.733
34.87000 307.131
34.88000 310.901
34.89000 314.704
34.90000 318.803
34.91000 323.160
34.92000 327.480
34.93000 329.296
34.94000 329.599
34.95000 329.967
34.96000 331.804
34.97000 334.255
34.98000 336.554
34.99000 332.339
35.00000 326.789
35.01000 321.926
35.02000 321.928
35.03000 322.878
35.04000 323.770
35.05000 324.390
35.06000 324.975
35.07000 325.427
35.08000 326.648
35.09000 327.660
35.10000 328.870
35.11000 330.510
35.12000 332.166
35.13000 330.004
35.14000 322.100
35.15000 314.139
35.16000 310.149
35.17000 318.266
35.18000 323.605
35.19000 320.941
35.20000 312.915
35.21000 305.194
35.22000 306.340
35.23000 311.577
35.24000 316.542
35.25000 318.427
35.26000 319.258
35.27000 319.567
35.28000 315.677
35.29000 310.873
35.30000 306.430
35.31000 303.859
35.32000 301.555
35.33000 299.731
35.34000 307.434
35.35000 314.284
35.36000 320.910
35.37000 326.999
35.38000 333.064
35.39000 334.654
35.40000 328.778
35.41000 322.786
35.42000 319.609
35.43000 320.466
35.44000 321.040
35.45000 319.385
35.46000 316.070
35.47000 312.790
35.48000 310.818
35.49000 309.514
35.50000 308.267
35.51000 309.727
35.52000 311.980
35.53000 314.273
35.54000 316.934
35.55000 319.684
35.56000 321.482
35.57000 317.758
35.58000 313.143
35.59000 309.405
35.60000 306.911
35.61000 304.981
35.62000 303.212
35.63000 301.872
35.64000 300.555
35.65000 299.401
35.66000 298.550
35.67000 297.705
35.68000 297.233
35.69000 303.490
35.70000 307.837
35.71000 311.672
35.72000 315.081
35.73000 318.402
35.74000 317.177
35.75000 313.381
35.76000 309.716
35.77000 312.844
35.78000 318.292
35.79000 322.963
35.80000 319.348
35.81000 313.497
35.82000 307.765
35.83000 302.806
35.84000 297.989
35.85000 294.000
35.86000 298.262
35.87000 302.564
35.88000 305.151
35.89000 302.676
35.90000 299.869
35.91000 297.716
35.92000 296.902
35.93000 296.128
35.94000 295.675
35.95000 303.745
35.96000 309.468
35.97000 309.614
35.98000 304.564
35.99000 299.614
36.00000 302.418
36.01000 310.079
36.02000 317.531
36.03000 314.795
36.04000 308.000
36.05000 301.465
36.06000 298.167
36.07000 295.837
36.08000 293.269
36.09000 288.930
36.10000 284.233
36.11000 280.264
36.12000 287.533
36.13000 294.845
36.14000 301.542
36.15000 306.225
36.16000 310.752
36.17000 313.397
36.18000 311.779
36.19000 309.999
36.20000 308.908
36.21000 308.583
36.22000 308.356
36.23000 307.613
36.24000 306.329
36.25000 305.065
36.26000 306.468
36.27000 309.725
36.28000 312.915
36.29000 312.883
36.30000 311.372
36.31000 309.153
36.32000 296.539
36.33000 280.480
36.34000 267.141
36.35000 276.781
36.36000 291.625
36.37000 304.405
36.38000 298.383
36.39000 290.908
36.40000 286.748
36.41000 294.607
36.42000 303.558
36.43000 309.102
36.44000 306.118
36.45000 302.728
36.46000 300.565
36.47000 298.584
36.48000 297.145
36.49000 299.770
36.50000 307.164
36.51000 314.539
36.52000 314.907
36.53000 309.847
36.54000 304.863
36.55000 300.548
36.56000 296.706
36.57000 293.018
36.58000 292.017
36.59000 292.003
36.60000 292.083
36.61000 293.082
36.62000 294.311
36.63000 295.388
36.64000 297.391
36.65000 299.242
36.66000 300.351
36.67000 298.470
36.68000 296.273
36.69000 294.909
36.70000 295.847
36.71000 296.920
36.72000 297.630
36.73000 304.691
36.74000 310.022
36.75000 309.481
36.76000 301.242
36.77000 292.976
36.78000 290.243
36.79000 292.299
36.80000 294.334
36.81000 298.435
36.82000 303.628
36.83000 308.491
36.84000 306.218
36.85000 301.051
36.86000 296.378
36.87000 297.258
36.88000 299.692
36.89000 301.860
36.90000 299.275
36.91000 296.250
36.92000 294.200
36.93000 296.520
36.94000 299.367
36.95000 301.626
36.96000 302.080
36.97000 302.409
36.98000 302.635
36.99000 299.601
37.00000 297.247
37.01000 297.636
37.02000 302.028
37.03000 306.454
37.04000 307.219
37.05000 304.431
37.06000 301.661
37.07000 299.558
37.08000 297.914
37.09000 296.324
37.10000 296.183
37.11000 296.691
37.12000 297.646
37.13000 304.484
37.14000 313.146
37.15000 320.975
37.16000 319.117
37.17000 315.683
37.18000 312.851
37.19000 313.034
37.20000 313.632
37.21000 314.101
37.22000 314.132
37.23000 314.127
37.24000 314.124
37.25000 302.035
37.26000 292.457
37.27000 288.942
37.28000 295.251
37.29000 301.696
37.30000 304.700
37.31000 303.949
37.32000 303.199
37.33000 302.960
37.34000 303.089
37.35000 303.143
37.36000 300.534
37.37000 296.606
37.38000 293.159
37.39000 297.260
37.40000 303.955
37.41000 310.090
37.42000 308.457
37.43000 305.374
37.44000 302.488
37.45000 300.706
37.46000 299.097
37.47000 297.605
37.48000 296.559
37.49000 295.556
37.50000 294.822
37.51000 295.141
37.52000 295.429
37.53000 293.668
37.54000 288.227
37.55000 282.713
37.56000 281.235
37.57000 284.688
37.58000 288.147
37.59000 292.849
37.60000 298.529
37.61000 304.017
37.62000 300.385
37.63000 291.749
37.64000 283.637
37.65000 285.451
37.66000 291.038
37.67000 296.222
37.68000 297.106
37.69000 296.888
37.70000 296.086
37.71000 291.591
37.72000 286.450
37.73000 283.054
37.74000 286.966
37.75000 291.687
37.76000 295.241
37.77000 297.000
37.78000 298.289
37.79000 294.380
37.80000 280.137
37.81000 265.612
37.82000 264.523
37.83000 281.740
37.84000 299.058
37.85000 308.308
37.86000 310.284
37.87000 312.234
37.88000 312.367
37.89000 311.394
37.90000 310.425
37.91000 309.531
37.92000 308.668
37.93000 307.858
37.94000 304.766
37.95000 301.342
37.96000 298.111
37.97000 296.253
37.98000 294.666
37.99000 293.501
38.00000 294.312
38.01000 295.372
38.02000 296.191
38.03000 302.449
38.04000 307.735
38.05000 311.018
38.06000 309.896
38.07000 308.617
38.08000 306.849
38.09000 304.341
38.10000 301.825
38.11000 300.559
38.12000 299.746
38.13000 299.245
38.14000 303.252
38.15000 310.302
38.16000 317.240
38.17000 320.830
38.18000 322.865
38.19000 324.795
38.20000 327.829
38.21000 330.955
38.22000 333.485
38.23000 331.174
38.24000 327.800
38.25000 325.453
38.26000 328.457
38.27000 332.231
38.28000 335.223
38.29000 332.847
38.30000 330.560
38.31000 333.547
38.32000 349.360
38.33000 365.750
38.34000 375.126
38.35000 372.710
38.36000 370.106
38.37000 368.720
38.38000 375.769
38.39000 380.606
38.40000 391.908
38.41000 408.066
38.42000 424.060
38.43000 433.719
38.44000 440.119
38.45000 446.249
38.46000 459.168
38.47000 473.471
38.48000 488.060
38.49000 505.315
38.50000 523.221
38.51000 541.299
38.52000 560.381
38.53000 579.626
38.54000 595.242
38.55000 630.890
38.56000 661.601
38.57000 693.750
38.58000 729.766
38.59000 765.996
38.60000 797.573
38.61000 820.485
38.62000 843.201
38.63000 855.932
38.64000 877.656
38.65000 892.751
38.66000 915.320
38.67000 944.157
38.68000 972.624
38.69000 981.239
38.70000 978.553
38.71000 975.958
38.72000 971.978
38.73000 967.711
38.74000 963.483
38.75000 959.667
38.76000 955.963
38.77000 948.781
38.78000 918.661
38.79000 884.350
38.80000 855.900
38.81000 827.777
38.82000 804.577
38.83000 780.378
38.84000 753.209
38.85000 725.844
38.86000 702.331
38.87000 686.763
38.88000 671.434
38.89000 662.424
38.90000 633.935
38.91000 613.745
38.92000 588.071
38.93000 557.246
38.94000 526.496
38.95000 501.671
38.96000 480.588
38.97000 460.069
38.98000 438.928
38.99000 418.538
39.00000 399.004
39.01000 390.245
39.02000 384.734
39.03000 379.135
39.04000 372.877
39.05000 366.484
39.06000 361.075
39.07000 351.200
39.08000 342.439
39.09000 335.432
39.10000 334.206
39.11000 333.434
39.12000 330.764
39.13000 323.770
39.14000 316.608
39.15000 312.209
39.16000 313.828
39.17000 315.041
39.18000 317.146
39.19000 320.193
39.20000 323.191
39.21000 319.651
39.22000 311.526
39.23000 303.566
39.24000 302.707
39.25000 305.169
39.26000 307.409
39.27000 306.322
39.28000 304.126
39.29000 302.014
39.30000 300.617
39.31000 299.384
39.32000 298.321
39.33000 298.151
39.34000 298.121
39.35000 296.259
39.36000 287.705
39.37000 278.536
39.38000 273.866
39.39000 280.538
39.40000 287.759
39.41000 292.379
39.42000 293.919
39.43000 294.999
39.44000 294.461
39.45000 292.008
39.46000 289.553
39.47000 287.335
39.48000 285.302
39.49000 283.299
39.50000 283.111
39.51000 283.869
39.52000 284.564
39.53000 284.142
39.54000 283.307
39.55000 282.529
39.56000 282.309
39.57000 282.231
39.58000 282.163
39.59000 278.597
39.60000 275.025
39.61000 272.767
39.62000 275.838
39.63000 279.476
39.64000 279.725
39.65000 270.530
39.66000 260.777
39.67000 254.296
39.68000 263.648
39.69000 270.857
39.70000 273.804
39.71000 271.119
39.72000 268.409
39.73000 267.754
39.74000 268.892
39.75000 270.018
39.76000 268.500
39.77000 265.489
39.78000 262.676
39.79000 264.217
39.80000 267.536
39.81000 270.623
39.82000 271.071
39.83000 270.774
39.84000 270.510
39.85000 268.716
39.86000 266.904
39.87000 266.123
39.88000 270.006
39.89000 274.457
39.90000 274.782
39.91000 262.379
39.92000 249.078
39.93000 239.923
39.94000 256.709
39.95000 269.954
39.96000 275.809
39.97000 270.798
39.98000 265.690
39.99000 264.491
40.00000 267.119
40.01000 269.730
40.02000 270.670
40.03000 270.517
40.04000 270.467
40.05000 273.283
40.06000 277.391
40.07000 281.010
40.08000 278.088
40.09000 273.122
40.10000 268.629
40.11000 266.860
40.12000 265.813
40.13000 264.331
40.14000 260.652
40.15000 256.668
40.16000 254.466
40.17000 258.357
40.18000 262.754
40.19000 265.882
40.20000 268.293
40.21000 270.106
40.22000 271.427
40.23000 271.943
40.24000 272.449
40.25000 268.942
40.26000 261.020
40.27000 253.122
40.28000 251.517
40.29000 254.470
40.30000 257.405
40.31000 259.691
40.32000 261.653
40.33000 263.440
40.34000 262.471
40.35000 260.547
40.36000 258.783
40.37000 257.334
40.38000 256.109
40.39000 255.195
40.40000 256.042
40.41000 257.166
40.42000 258.651
40.43000 261.506
40.44000 264.494
40.45000 266.685
40.46000 268.028
40.47000 269.032
40.48000 266.610
40.49000 257.991
40.50000 249.244
40.51000 243.405
40.52000 241.148
40.53000 238.903
40.54000 244.930
40.55000 257.628
40.56000 270.104
40.57000 271.809
40.58000 267.560
40.59000 263.173
40.60000 256.163
40.61000 248.149
40.62000 240.705
40.63000 243.237
40.64000 247.895
40.65000 251.482
40.66000 248.251
40.67000 243.815
40.68000 240.971
40.69000 244.840
40.70000 249.460
40.71000 252.945
40.72000 257.520
40.73000 261.158
40.74000 261.651
40.75000 255.844
40.76000 249.861
40.77000 248.387
40.78000 253.104
40.79000 257.857
40.80000 262.159
40.81000 266.050
40.82000 269.872
40.83000 268.808
40.84000 264.750
40.85000 260.853
40.86000 260.763
40.87000 262.286
40.88000 263.717
40.89000 259.238
40.90000 253.573
40.91000 248.308
40.92000 245.929
40.93000 244.123
40.94000 242.867
40.95000 244.196
40.96000 245.856
40.97000 247.142
40.98000 243.660
40.99000 240.610
41.00000 239.332
41.01000 241.980
41.02000 244.770
41.03000 248.670
41.04000 254.263
41.05000 259.874
41.06000 262.710
41.07000 256.493
41.08000 252.357
41.09000 250.842
41.10000 251.109
41.11000 251.377
41.12000 251.648
41.13000 251.920
41.14000 252.178
41.15000 249.942
41.16000 247.131
41.17000 244.685
41.18000 245.232
41.19000 246.443
41.20000 247.503
41.21000 247.779
41.22000 247.940
41.23000 248.068
41.24000 240.683
41.25000 234.205
41.26000 231.292
41.27000 237.111
41.28000 243.327
41.29000 245.990
41.30000 242.634
41.31000 239.179
41.32000 237.333
41.33000 247.349
41.34000 254.155
41.35000 254.140
41.36000 248.961
41.37000 243.860
41.38000 241.885
41.39000 241.528
41.40000 241.187
41.41000 243.216
41.42000 245.904
41.43000 248.320
41.44000 248.186
41.45000 247.424
41.46000 247.024
41.47000 248.767
41.48000 250.860
41.49000 252.562
41.50000 244.286
41.51000 236.702
41.52000 232.457
41.53000 237.254
41.54000 242.557
41.55000 245.696
41.56000 244.775
41.57000 243.760
41.58000 243.190
41.59000 246.111
41.60000 248.139
41.61000 245.112
41.62000 237.811
41.63000 230.639
41.64000 230.490
41.65000 234.369
41.66000 238.118
41.67000 242.989
41.68000 248.003
41.69000 252.773
41.70000 254.877
41.71000 256.251
41.72000 256.591
41.73000 250.052
41.74000 242.247
41.75000 235.765
41.76000 246.076
41.77000 256.230
41.78000 261.978
41.79000 254.522
41.80000 246.179
41.81000 240.845
41.82000 241.756
41.83000 242.860
41.84000 243.511
41.85000 242.034
41.86000 240.980
41.87000 240.037
41.88000 239.199
41.89000 238.344
41.90000 236.038
41.91000 232.809
41.92000 229.664
41.93000 232.820
41.94000 238.461
41.95000 243.700
41.96000 243.805
41.97000 242.352
41.98000 241.171
41.99000 242.036
42.00000 243.323
42.01000 244.414
42.02000 249.429
42.03000 254.072
42.04000 255.774
42.05000 247.721
42.06000 238.893
42.07000 231.567
42.08000 227.692
42.09000 223.954
42.10000 221.651
42.11000 220.586
42.12000 219.832
42.13000 223.311
42.14000 231.296
42.15000 239.225
42.16000 239.279
42.17000 233.770
42.18000 228.371
42.19000 228.329
42.20000 230.792
42.21000 233.134
42.22000 233.661
42.23000 233.578
42.24000 233.560
42.25000 234.105
42.26000 234.779
42.27000 235.360
42.28000 234.232
42.29000 233.054
42.30000 231.598
42.31000 229.123
42.32000 226.552
42.33000 225.616
42.34000 228.831
42.35000 232.250
42.36000 234.444
42.37000 238.233
42.38000 241.017
42.39000 241.632
42.40000 239.661
42.41000 237.686
42.42000 236.179
42.43000 235.040
42.44000 233.917
42.45000 231.160
42.46000 227.632
42.47000 224.350
42.48000 225.528
42.49000 228.367
42.50000 231.348
42.51000 235.744
42.52000 240.501
42.53000 244.679
42.54000 241.618
42.55000 237.923
42.56000 235.285
42.57000 236.963
42.58000 239.105
42.59000 239.795
42.60000 236.409
42.61000 232.779
42.62000 230.360
42.63000 229.783
42.64000 229.391
42.65000 231.599
42.66000 237.269
42.67000 242.948
42.68000 241.893
42.69000 234.911
42.70000 227.999
42.71000 225.749
42.72000 226.262
42.73000 226.875
42.74000 229.720
42.75000 233.484
42.76000 237.123
42.77000 239.323
42.78000 241.115
42.79000 242.714
42.80000 241.148
42.81000 239.257
42.82000 237.191
42.83000 234.331
42.84000 231.374
42.85000 230.265
42.86000 234.900
42.87000 239.946
42.88000 243.427
42.89000 241.516
42.90000 239.944
42.91000 237.590
42.92000 234.080
42.93000 230.560
42.94000 229.878
42.95000 232.001
42.96000 234.110
42.97000 233.765
42.98000 231.827
42.99000 229.991
43.00000 230.999
43.01000 233.301
43.02000 235.537
43.03000 236.880
43.04000 237.943
43.05000 238.905
43.06000 235.934
43.07000 232.574
43.08000 229.910
43.09000 230.795
43.10000 232.177
43.11000 232.517
43.12000 229.267
43.13000 225.715
43.14000 223.183
43.15000 225.207
43.16000 226.899
43.17000 228.901
43.18000 231.412
43.19000 233.930
43.20000 234.758
43.21000 233.710
43.22000 232.664
43.23000 232.509
43.24000 233.003
43.25000 233.500
43.26000 234.071
43.27000 234.679
43.28000 235.482
43.29000 239.415
43.30000 244.440
43.31000 249.053
43.32000 247.732
43.33000 245.288
43.34000 242.124
43.35000 234.850
43.36000 226.926
43.37000 221.042
43.38000 222.952
43.39000 225.625
43.40000 227.589
43.41000 221.636
43.42000 216.708
43.43000 213.942
43.44000 215.112
43.45000 216.365
43.46000 217.899
43.47000 219.780
43.48000 221.659
43.49000 224.388
43.50000 227.802
43.51000 231.186
43.52000 233.121
43.53000 234.250
43.54000 235.482
43.55000 238.730
43.56000 242.755
43.57000 246.497
43.58000 238.824
43.59000 229.160
43.60000 220.883
43.61000 221.522
43.62000 223.749
43.63000 226.085
43.64000 228.886
43.65000 231.739
43.66000 233.896
43.67000 236.410
43.68000 238.399
43.69000 238.010
43.70000 232.826
43.71000 227.504
43.72000 224.499
43.73000 224.699
43.74000 224.919
43.75000 225.550
43.76000 226.556
43.77000 227.536
43.78000 226.645
43.79000 224.598
43.80000 222.704
43.81000 224.476
43.82000 227.812
43.83000 230.949
43.84000 228.607
43.85000 224.994
43.86000 222.046
43.87000 223.948
43.88000 226.817
43.89000 229.298
43.90000 229.935
43.91000 230.335
43.92000 230.645
43.93000 229.487
43.94000 228.478
43.95000 228.582
43.96000 231.173
43.97000 233.856
43.98000 233.248
43.99000 227.578
44.00000 221.852
44.01000 218.946
44.02000 223.645
44.03000 226.793
44.04000 229.978
44.05000 233.189
44.06000 236.291
44.07000 236.089
44.08000 234.328
44.09000 232.656
44.10000 230.442
44.11000 228.234
44.12000 226.334
44.13000 226.979
44.14000 228.192
44.15000 229.355
44.16000 230.252
44.17000 231.111
44.18000 231.793
44.19000 230.904
44.20000 230.075
44.21000 230.449
44.22000 233.790
44.23000 237.268
44.24000 238.614
44.25000 236.323
44.26000 233.970
44.27000 232.708
44.28000 226.444
44.29000 222.189
44.30000 223.753
44.31000 229.757
44.32000 235.612
44.33000 235.398
44.34000 232.020
44.35000 228.780
44.36000 228.210
44.37000 228.580
44.38000 228.783
44.39000 227.404
44.40000 225.632
44.41000 224.531
44.42000 227.421
44.43000 230.970
44.44000 233.860
44.45000 232.494
44.46000 231.020
44.47000 230.707
44.48000 233.560
44.49000 236.593
44.50000 238.208
44.51000 237.146
44.52000 236.021
44.53000 235.386
44.54000 244.144
44.55000 250.254
44.56000 254.851
44.57000 258.157
44.58000 261.362
44.59000 258.785
44.60000 252.869
44.61000 247.148
44.62000 246.239
44.63000 247.196
44.64000 248.481
44.65000 253.374
44.66000 259.262
44.67000 264.839
44.68000 268.332
44.69000 271.437
44.70000 274.020
44.71000 283.637
44.72000 292.287
44.73000 297.338
44.74000 291.530
44.75000 284.982
44.76000 283.796
44.77000 293.822
44.78000 304.201
44.79000 310.341
44.80000 320.105
44.81000 327.026
44.82000 331.415
44.83000 333.385
44.84000 335.358
44.85000 337.550
44.86000 339.882
44.87000 342.154
44.88000 352.223
44.89000 365.110
44.90000 377.278
44.91000 380.184
44.92000 380.257
44.93000 381.452
44.94000 391.197
44.95000 402.719
44.96000 412.494
44.97000 423.796
44.98000 433.446
44.99000 440.724
45.00000 440.070
45.01000 438.779
45.02000 439.588
45.03000 445.255
45.04000 451.118
45.05000 454.741
45.06000 456.167
45.07000 457.171
45.08000 457.252
45.09000 456.340
45.10000 455.393
45.11000 449.472
45.12000 440.007
45.13000 430.728
45.14000 432.759
45.15000 440.037
45.16000 446.617
45.17000 442.525
45.18000 434.819
45.19000 427.424
45.20000 422.731
45.21000 418.666
45.22000 415.153
45.23000 412.235
45.24000 409.834
45.25000 407.368
45.26000 404.662
45.27000 401.933
45.28000 396.870
45.29000 385.843
45.30000 374.517
45.31000 367.230
45.32000 354.359
45.33000 344.889
45.34000 340.083
45.35000 340.889
45.36000 341.700
45.37000 340.538
45.38000 337.810
45.39000 335.121
45.40000 332.795
45.41000 330.726
45.42000 328.622
45.43000 325.876
45.44000 322.890
45.45000 319.799
45.46000 315.655
45.47000 311.240
45.48000 307.358
45.49000 298.664
45.50000 290.471
45.51000 282.272
45.52000 274.048
45.53000 265.821
45.54000 261.097
45.55000 266.281
45.56000 272.066
45.57000 275.930
45.58000 273.699
45.59000 271.927
45.60000 270.575
45.61000 269.787
45.62000 269.003
45.63000 268.927
45.64000 269.482
45.65000 270.031
45.66000 267.666
45.67000 263.639
45.68000 259.644
45.69000 256.361
45.70000 253.372
45.71000 250.170
45.72000 244.505
45.73000 238.134
45.74000 232.442
45.75000 236.750
45.76000 242.188
45.77000 247.474
45.78000 252.063
45.79000 256.566
45.80000 258.342
45.81000 251.579
45.82000 244.199
45.83000 239.095
45.84000 232.608
45.85000 227.693
45.86000 224.469
45.87000 223.768
45.88000 223.092
45.89000 223.339
45.90000 224.506
45.91000 225.667
45.92000 226.414
45.93000 226.880
45.94000 227.336
45.95000 227.494
45.96000 227.515
45.97000 227.421
45.98000 225.765
45.99000 223.614
46.00000 221.664
46.01000 223.983
46.02000 226.843
46.03000 229.341
46.04000 229.986
46.05000 230.370
46.06000 229.837
46.07000 226.125
46.08000 222.144
46.09000 219.299
46.10000 219.262
46.11000 219.327
46.12000 218.358
46.13000 215.677
46.14000 212.970
46.15000 211.360
46.16000 210.975
46.17000 210.592
46.18000 215.615
46.19000 224.568
46.20000 233.139
46.21000 227.459
46.22000 214.557
46.23000 202.558
46.24000 205.273
46.25000 213.155
46.26000 220.398
46.27000 212.565
46.28000 202.329
46.29000 193.724
46.30000 194.508
46.31000 196.791
46.32000 198.589
46.33000 198.517
46.34000 198.261
46.35000 198.072
46.36000 203.268
46.37000 207.513
46.38000 210.429
46.39000 210.902
46.40000 211.323
46.41000 208.565
46.42000 201.830
46.43000 195.091
46.44000 194.752
46.45000 199.681
46.46000 204.514
46.47000 204.477
46.48000 201.708
46.49000 199.198
46.50000 201.820
46.51000 206.435
46.52000 210.729
46.53000 209.845
46.54000 207.793
46.55000 206.284
46.56000 208.284
46.57000 210.915
46.58000 212.387
46.59000 208.898
46.60000 204.844
46.61000 201.773
46.62000 206.513
46.63000 210.631
46.64000 212.437
46.65000 209.546
46.66000 206.518
46.67000 203.420
46.68000 200.227
46.69000 197.033
46.70000 194.471
46.71000 192.494
46.72000 190.579
46.73000 193.279
46.74000 198.848
46.75000 204.249
46.76000 205.528
46.77000 205.036
46.78000 204.573
46.79000 204.998
46.80000 205.627
46.81000 205.639
46.82000 201.110
46.83000 195.668
46.84000 191.198
46.85000 191.372
46.86000 192.152
46.87000 192.758
46.88000 192.793
46.89000 192.786
46.90000 192.618
46.91000 192.089
46.92000 191.546
46.93000 193.107
46.94000 197.927
46.95000 202.784
46.96000 205.259
46.97000 206.645
46.98000 207.541
46.99000 204.291
47.00000 198.178
47.01000 192.249
47.02000 192.048
47.03000 194.569
47.04000 196.965
47.05000 197.851
47.06000 198.210
47.07000 198.218
47.08000 195.284
47.09000 191.689
47.10000 188.885
47.11000 190.311
47.12000 192.362
47.13000 193.996
47.14000 199.283
47.15000 203.814
47.16000 205.128
47.17000 198.450
47.18000 191.397
47.19000 187.663
47.20000 189.637
47.21000 191.710
47.22000 192.825
47.23000 192.892
47.24000 192.940
47.25000 193.933
47.26000 195.653
47.27000 197.318
47.28000 196.703
47.29000 194.889
47.30000 193.149
47.31000 191.070
47.32000 189.012
47.33000 187.239
47.34000 188.192
47.35000 189.828
47.36000 191.336
47.37000 192.069
47.38000 192.674
47.39000 193.167
47.40000 190.546
47.41000 188.139
47.42000 185.756
47.43000 183.443
47.44000 181.133
47.45000 181.493
47.46000 186.939
47.47000 192.507
47.48000 195.661
47.49000 193.479
47.50000 191.948
47.51000 192.051
47.52000 193.557
47.53000 195.030
47.54000 194.564
47.55000 192.970
47.56000 191.428
47.57000 192.200
47.58000 193.811
47.59000 195.309
47.60000 195.568
47.61000 195.482
47.62000 194.707
47.63000 189.273
47.64000 182.966
47.65000 177.712
47.66000 177.787
47.67000 178.376
47.68000 179.917
47.69000 184.347
47.70000 188.977
47.71000 192.545
47.72000 193.878
47.73000 195.139
47.74000 195.887
47.75000 188.740
47.76000 183.636
47.77000 179.580
47.78000 176.532
47.79000 173.517
47.80000 173.438
47.81000 175.254
47.82000 177.024
47.83000 178.986
47.84000 180.941
47.85000 182.787
47.86000 183.229
47.87000 183.238
47.88000 183.672
47.89000 187.364
47.90000 191.739
47.91000 195.456
47.92000 192.312
47.93000 188.889
47.94000 186.933
47.95000 189.920
47.96000 193.309
47.97000 194.048
47.98000 188.615
47.99000 182.930
48.00000 179.407
48.01000 179.251
48.02000 179.172
48.03000 179.751
48.04000 181.045
48.05000 182.321
48.06000 180.946
48.07000 177.668
48.08000 174.454
48.09000 178.452
48.10000 185.726
48.11000 192.718
48.12000 195.360
48.13000 196.518
48.14000 197.142
48.15000 193.079
48.16000 187.923
48.17000 183.460
48.18000 183.927
48.19000 184.970
48.20000 185.790
48.21000 185.772
48.22000 185.674
48.23000 185.801
48.24000 186.510
48.25000 187.249
48.26000 187.725
48.27000 189.367
48.28000 190.583
48.29000 189.505
48.30000 185.646
48.31000 181.792
48.32000 181.351
48.33000 183.639
48.34000 185.897
48.35000 188.328
48.36000 190.784
48.37000 193.102
48.38000 192.832
48.39000 191.585
48.40000 190.551
48.41000 191.657
48.42000 193.320
48.43000 194.784
48.44000 192.519
48.45000 190.011
48.46000 186.966
48.47000 181.695
48.48000 176.181
48.49000 172.417
48.50000 173.643
48.51000 175.174
48.52000 176.200
48.53000 182.251
48.54000 186.839
48.55000 190.378
48.56000 192.499
48.57000 194.610
48.58000 194.783
48.59000 193.224
48.60000 191.679
48.61000 187.681
48.62000 182.311
48.63000 177.040
48.64000 174.005
48.65000 171.903
48.66000 169.986
48.67000 170.236
48.68000 171.112
48.69000 171.895
48.70000 175.152
48.71000 178.411
48.72000 181.787
48.73000 185.703
48.74000 189.685
48.75000 192.661
48.76000 192.461
48.77000 192.028
48.78000 191.728
48.79000 194.034
48.80000 195.839
48.81000 195.816
48.82000 193.043
48.83000 190.243
48.84000 188.080
48.85000 186.557
48.86000 185.043
48.87000 180.732
48.88000 174.630
48.89000 168.764
48.90000 169.785
48.91000 173.983
48.92000 178.165
48.93000 182.111
48.94000 185.982
48.95000 189.495
48.96000 185.474
48.97000 180.475
48.98000 176.329
48.99000 176.599
49.00000 177.499
49.01000 177.634
49.02000 175.100
49.03000 172.336
49.04000 170.357
49.05000 180.614
49.06000 188.863
49.07000 191.483
49.08000 184.708
49.09000 177.788
49.10000 172.993
49.11000 170.592
49.12000 168.201
49.13000 172.553
49.14000 181.864
49.15000 190.928
49.16000 190.574
49.17000 185.413
49.18000 180.486
49.19000 179.418
49.20000 179.714
49.21000 179.987
49.22000 179.166
49.23000 178.195
49.24000 177.086
49.25000 175.168
49.26000 173.121
49.27000 172.647
49.28000 178.277
49.29000 184.518
49.30000 189.123
49.31000 186.153
49.32000 183.533
49.33000 180.425
49.34000 176.413
49.35000 172.380
49.36000 170.511
49.37000 171.369
49.38000 172.235
49.39000 173.743
49.40000 175.778
49.41000 177.761
49.42000 177.020
49.43000 174.738
49.44000 172.424
49.45000 169.454
49.46000 166.227
49.47000 163.222
49.48000 164.678
49.49000 167.082
49.50000 169.043
49.51000 168.104
49.52000 166.640
49.53000 165.744
49.54000 167.301
49.55000 169.141
49.56000 170.537
49.57000 168.333
49.58000 166.416
49.59000 167.049
49.60000 172.900
49.61000 178.907
49.62000 181.314
49.63000 178.664
49.64000 175.978
49.65000 177.714
49.66000 183.568
49.67000 189.282
49.68000 184.303
49.69000 172.623
49.70000 161.366
49.71000 160.642
49.72000 164.473
49.73000 168.080
49.74000 166.910
49.75000 164.531
49.76000 163.107
49.77000 168.765
49.78000 175.861
49.79000 181.774
49.80000 182.000
49.81000 181.478
49.82000 181.071
49.83000 181.615
49.84000 182.107
49.85000 180.357
49.86000 173.532
49.87000 166.513
49.88000 165.956
49.89000 175.486
49.90000 185.136
49.91000 190.073
49.92000 184.425
49.93000 180.647
49.94000 179.025
49.95000 178.905
49.96000 178.826
49.97000 180.094
49.98000 182.006
49.99000 183.825
50.00000 187.332
50.01000 191.094
50.02000 193.706
50.03000 186.603
50.04000 177.299
50.05000 169.562
50.06000 170.268
50.07000 172.232
50.08000 173.800
50.09000 172.013
50.10000 170.323
50.11000 170.550
50.12000 175.576
50.13000 180.831
50.14000 183.912
50.15000 183.228
50.16000 182.478
50.17000 182.073
50.18000 181.086
50.19000 180.409
50.20000 179.496
50.21000 178.398
50.22000 177.340
50.23000 177.959
50.24000 179.464
50.25000 180.909
50.26000 177.792
50.27000 173.310
50.28000 169.654
50.29000 174.010
50.30000 180.386
50.31000 185.933
50.32000 186.462
50.33000 186.148
50.34000 185.892
50.35000 186.423
50.36000 186.926
50.37000 188.625
50.38000 193.637
50.39000 198.841
50.40000 202.685
50.41000 203.920
50.42000 205.091
50.43000 205.756
50.44000 209.779
50.45000 212.593
50.46000 216.533
50.47000 221.449
50.48000 226.209
50.49000 221.697
50.50000 211.748
50.51000 202.116
50.52000 206.448
50.53000 215.896
50.54000 225.023
50.55000 230.531
50.56000 235.025
50.57000 238.885
50.58000 238.413
50.59000 237.124
50.60000 236.048
50.61000 239.663
50.62000 243.131
50.63000 246.471
50.64000 249.419
50.65000 252.340
50.66000 255.137
50.67000 257.669
50.68000 260.193
50.69000 261.696
50.70000 257.764
50.71000 254.945
50.72000 251.449
50.73000 247.294
50.74000 243.205
50.75000 245.147
50.76000 251.011
50.77000 256.729
50.78000 258.931
50.79000 259.529
50.80000 259.811
50.81000 255.938
50.82000 250.776
50.83000 245.906
50.84000 243.306
50.85000 241.186
50.86000 239.382
50.87000 239.947
50.88000 240.695
50.89000 239.823
50.90000 233.453
50.91000 226.630
50.92000 222.678
50.93000 225.463
50.94000 228.528
50.95000 230.432
50.96000 224.420
50.97000 220.012
50.98000 218.594
50.99000 220.441
51.00000 222.257
51.01000 219.136
51.02000 212.446
51.03000 205.880
51.04000 201.525
51.05000 198.382
51.06000 195.607
51.07000 198.581
51.08000 203.531
51.09000 207.801
51.10000 206.043
51.11000 202.865
51.12000 200.112
51.13000 198.588
51.14000 197.455
51.15000 196.310
51.16000 195.118
51.17000 193.922
51.18000 192.313
51.19000 189.629
51.20000 186.891
51.21000 185.119
51.22000 182.573
51.23000 180.700
51.24000 178.605
51.25000 176.240
51.26000 173.886
51.27000 175.766
51.28000 181.058
51.29000 186.280
51.30000 186.430
51.31000 183.868
51.32000 181.376
51.33000 180.198
51.34000 179.519
51.35000 178.757
51.36000 177.134
51.37000 175.285
51.38000 173.657
51.39000 173.667
51.40000 173.923
51.41000 175.182
51.42000 180.635
51.43000 186.552
51.44000 189.671
51.45000 184.761
51.46000 179.350
51.47000 175.718
51.48000 175.829
51.49000 175.988
51.50000 174.149
51.51000 169.588
51.52000 165.014
51.53000 164.844
51.54000 168.645
51.55000 172.411
51.56000 172.152
51.57000 169.497
51.58000 166.993
51.59000 168.007
51.60000 170.499
51.61000 172.653
51.62000 170.789
51.63000 167.757
51.64000 165.042
51.65000 165.039
51.66000 165.501
51.67000 166.755
51.68000 171.697
51.69000 177.106
51.70000 181.114
51.71000 180.670
51.72000 179.896
51.73000 179.358
51.74000 174.170
51.75000 170.135
51.76000 167.626
51.77000 167.431
51.78000 167.260
51.79000 166.360
51.80000 164.721
51.81000 163.091
51.82000 164.227
51.83000 167.192
51.84000 170.205
51.85000 174.596
51.86000 179.627
51.87000 184.285
51.88000 183.706
51.89000 181.442
51.90000 179.384
51.91000 172.255
51.92000 164.973
51.93000 158.643
51.94000 157.283
51.95000 156.639
51.96000 156.973
51.97000 160.755
51.98000 164.836
51.99000 167.765
52.00000 164.797
52.01000 162.326
52.02000 161.149
52.03000 162.150
52.04000 163.186
52.05000 163.411
52.06000 162.713
52.07000 162.017
52.08000 161.958
52.09000 162.376
52.10000 162.742
52.11000 161.110
52.12000 158.450
52.13000 156.075
52.14000 158.454
52.15000 162.527
52.16000 166.277
52.17000 170.335
52.18000 174.032
52.19000 176.843
52.20000 174.468
52.21000 171.250
52.22000 167.972
52.23000 164.461
52.24000 160.926
52.25000 158.313
52.26000 151.883
52.27000 146.733
52.28000 145.613
52.29000 152.002
52.30000 158.561
52.31000 163.322
52.32000 165.799
52.33000 168.265
52.34000 166.492
52.35000 161.179
52.36000 155.970
52.37000 156.339
52.38000 159.885
52.39000 163.176
52.40000 161.271
52.41000 157.319
52.42000 153.636
52.43000 156.055
52.44000 159.744
52.45000 162.900
52.46000 162.533
52.47000 161.523
52.48000 160.363
52.49000 158.552
52.50000 156.666
52.51000 155.232
52.52000 161.668
52.53000 167.141
52.54000 169.106
52.55000 163.836
52.56000 158.347
52.57000 155.571
52.58000 156.636
52.59000 157.728
52.60000 158.376
52.61000 158.606
52.62000 158.839
52.63000 159.261
52.64000 159.802
52.65000 160.347
52.66000 160.984
52.67000 161.662
52.68000 162.300
52.69000 161.235
52.70000 159.789
52.71000 158.251
52.72000 156.028
52.73000 153.663
52.74000 151.704
52.75000 151.709
52.76000 151.975
52.77000 152.182
52.78000 149.607
52.79000 147.379
52.80000 147.436
52.81000 152.698
52.82000 158.163
52.83000 163.368
52.84000 168.164
52.85000 172.955
52.86000 175.416
52.87000 162.998
52.88000 154.682
52.89000 151.800
52.90000 152.729
52.91000 153.770
52.92000 158.485
52.93000 164.969
52.94000 171.143
52.95000 165.309
52.96000 156.195
52.97000 148.323
52.98000 151.045
52.99000 156.186
53.00000 160.799
53.01000 162.549
53.02000 163.869
53.03000 164.925
53.04000 159.143
53.05000 153.963
53.06000 151.666
53.07000 156.638
53.08000 161.964
53.09000 162.599
53.10000 155.055
53.11000 147.361
53.12000 143.188
53.13000 146.980
53.14000 149.591
53.15000 152.509
53.16000 155.668
53.17000 158.744
53.18000 158.204
53.19000 155.736
53.20000 153.365
53.21000 158.209
53.22000 165.240
53.23000 171.345
53.24000 168.390
53.25000 163.133
53.26000 158.545
53.27000 158.041
53.28000 158.229
53.29000 158.383
53.30000 163.622
53.31000 168.356
53.32000 171.011
53.33000 167.869
53.34000 164.384
53.35000 161.924
53.36000 161.445
53.37000 161.015
53.38000 160.770
53.39000 161.368
53.40000 161.788
53.41000 161.618
53.42000 160.933
53.43000 160.246
53.44000 159.353
53.45000 158.339
53.46000 157.357
53.47000 157.011
53.48000 156.931
53.49000 157.006
53.50000 158.851
53.51000 161.196
53.52000 162.989
53.53000 160.977
53.54000 158.242
53.55000 155.956
53.56000 157.630
53.57000 159.419
53.58000 161.164
53.59000 162.774
53.60000 164.373
53.61000 165.722
53.62000 166.535
53.63000 167.329
53.64000 167.804
53.65000 162.428
53.66000 158.578
53.67000 157.130
53.68000 158.036
53.69000 158.967
53.70000 162.285
53.71000 167.169
53.72000 171.933
53.73000 171.322
53.74000 168.417
53.75000 165.450
53.76000 161.641
53.77000 157.569
53.78000 153.514
53.79000 149.595
53.80000 145.706
53.81000 142.392
53.82000 149.237
53.83000 156.177
53.84000 160.205
53.85000 154.278
53.86000 147.522
53.87000 144.730
53.88000 151.305
53.89000 158.277
53.90000 162.623
53.91000 163.074
53.92000 163.358
53.93000 161.928
53.94000 158.608
53.95000 155.308
53.96000 155.188
53.97000 157.386
53.98000 159.544
53.99000 159.450
54.00000 158.275
54.01000 157.022
54.02000 154.543
54.03000 151.641
54.04000 149.216
54.05000 151.074
54.06000 153.949
54.07000 156.442
54.08000 156.115
54.09000 155.458
54.10000 154.681
54.11000 153.445
54.12000 152.164
54.13000 152.045
54.14000 154.960
54.15000 158.034
54.16000 160.029
54.17000 152.184
54.18000 146.292
54.19000 144.560
54.20000 147.952
54.21000 151.350
54.22000 151.857
54.23000 150.015
54.24000 148.197
54.25000 147.391
54.26000 147.152
54.27000 147.233
54.28000 153.457
54.29000 162.034
54.30000 169.835
54.31000 169.616
54.32000 167.283
54.33000 165.223
54.34000 160.803
54.35000 156.629
54.36000 154.130
54.37000 158.688
54.38000 164.036
54.39000 166.350
54.40000 159.895
54.41000 152.886
54.42000 148.169
54.43000 153.786
54.44000 158.176
54.45000 159.587
54.46000 156.906
54.47000 154.203
54.48000 155.420
54.49000 160.201
54.50000 164.940
54.51000 166.516
54.52000 166.160
54.53000 165.754
54.54000 164.175
54.55000 162.099
54.56000 160.267
54.57000 161.371
54.58000 163.335
54.59000 165.094
54.60000 164.316
54.61000 163.197
54.62000 162.146
54.63000 161.414
54.64000 160.723
54.65000 159.668
54.66000 157.453
54.67000 155.150
54.68000 153.546
54.69000 156.308
54.70000 158.511
54.71000 160.108
54.72000 160.779
54.73000 161.440
54.74000 161.695
54.75000 161.533
54.76000 161.373
54.77000 162.221
54.78000 163.736
54.79000 165.222
54.80000 165.804
54.81000 165.963
54.82000 166.075
54.83000 165.509
54.84000 164.725
54.85000 164.011
54.86000 164.082
54.87000 164.298
54.88000 164.110
54.89000 161.796
54.90000 159.173
54.91000 157.513
54.92000 159.272
54.93000 161.332
54.94000 162.813
54.95000 158.428
54.96000 154.867
54.97000 154.172
54.98000 158.331
54.99000 162.570
55.00000 165.633
55.01000 167.348
55.02000 169.057
55.03000 167.855
55.04000 164.470
55.05000 161.163
55.06000 160.945
55.07000 162.327
55.08000 163.641
55.09000 163.823
55.10000 163.598
55.11000 163.390
55.12000 163.089
55.13000 162.799
55.14000 162.487
55.15000 162.044
55.16000 161.581
55.17000 161.164
55.18000 160.926
55.19000 160.707
55.20000 160.545
55.21000 162.426
55.22000 163.975
55.23000 167.018
55.24000 172.865
55.25000 178.777
55.26000 181.651
55.27000 180.635
55.28000 179.605
55.29000 177.449
55.30000 174.349
55.31000 171.330
55.32000 172.789
55.33000 176.816
55.34000 180.793
55.35000 183.730
55.36000 186.254
55.37000 188.609
55.38000 186.587
55.39000 183.670
55.40000 181.057
55.41000 180.475
55.42000 180.267
55.43000 180.737
55.44000 184.183
55.45000 187.978
55.46000 190.870
55.47000 195.588
55.48000 199.399
55.49000 203.063
55.50000 206.423
55.51000 209.773
55.52000 213.169
55.53000 216.630
55.54000 220.092
55.55000 221.706
55.56000 221.568
55.57000 221.493
55.58000 226.519
55.59000 234.789
55.60000 242.970
55.61000 248.890
55.62000 253.818
55.63000 258.465
55.64000 260.998
55.65000 262.730
55.66000 265.225
55.67000 273.469
55.68000 282.898
55.69000 292.895
55.70000 305.663
55.71000 318.803
55.72000 329.076
55.73000 336.474
55.74000 342.197
55.75000 353.435
55.76000 377.341
55.77000 401.748
55.78000 420.677
55.79000 430.923
55.80000 441.059
55.81000 446.288
55.82000 459.698
55.83000 468.715
55.84000 475.319
55.85000 480.219
55.86000 485.233
55.87000 494.058
55.88000 504.732
55.89000 514.901
55.90000 523.918
55.91000 531.915
55.92000 540.264
55.93000 551.644
55.94000 563.721
55.95000 574.229
55.96000 576.140
55.97000 576.748
55.98000 577.235
55.99000 566.622
56.00000 557.201
56.01000 550.389
56.02000 550.204
56.03000 550.346
56.04000 546.367
56.05000 535.149
56.06000 523.795
56.07000 517.613
56.08000 501.866
56.09000 491.049
56.10000 480.514
56.11000 470.202
56.12000 459.856
56.13000 448.018
56.14000 435.378
56.15000 423.227
56.16000 411.056
56.17000 399.647
56.18000 388.168
56.19000 375.989
56.20000 363.632
56.21000 351.486
56.22000 340.638
56.23000 330.013
56.24000 321.308
56.25000 322.910
56.26000 325.130
56.27000 323.939
56.28000 313.168
56.29000 301.823
56.30000 289.960
56.31000 277.091
56.32000 264.195
56.33000 256.815
56.34000 255.228
56.35000 254.138
56.36000 251.443
56.37000 247.335
56.38000 243.246
56.39000 240.342
56.40000 238.142
56.41000 236.011
56.42000 232.070
56.43000 227.634
56.44000 223.400
56.45000 221.492
56.46000 220.245
56.47000 218.500
56.48000 213.292
56.49000 207.419
56.50000 202.506
56.51000 193.657
56.52000 185.904
56.53000 180.385
56.54000 181.808
56.55000 183.727
56.56000 184.418
56.57000 182.461
56.58000 180.415
56.59000 179.189
56.60000 181.095
56.61000 182.468
56.62000 181.546
56.63000 178.356
56.64000 175.190
56.65000 174.328
56.66000 174.989
56.67000 175.634
56.68000 177.470
56.69000 179.744
56.70000 181.503
56.71000 176.322
56.72000 168.954
56.73000 162.731
56.74000 165.554
56.75000 170.318
56.76000 174.381
56.77000 170.080
56.78000 165.475
56.79000 162.012
56.80000 162.483
56.81000 163.285
56.82000 163.941
56.83000 164.248
56.84000 164.540
56.85000 164.722
56.86000 162.853
56.87000 161.482
56.88000 160.146
56.89000 158.848
56.90000 157.557
56.91000 157.613
56.92000 158.658
56.93000 159.684
56.94000 160.472
56.95000 161.118
56.96000 161.672
56.97000 160.741
56.98000 159.293
56.99000 157.740
57.00000 155.246
57.01000 152.527
57.02000 150.165
57.03000 152.767
57.04000 155.656
57.05000 156.981
57.06000 152.327
57.07000 147.088
57.08000 143.959
57.09000 146.384
57.10000 149.103
57.11000 150.871
57.12000 149.394
57.13000 148.261
57.14000 147.568
57.15000 147.421
57.16000 147.279
57.17000 148.862
57.18000 151.858
57.19000 154.815
57.20000 153.574
57.21000 150.088
57.22000 146.698
57.23000 145.185
57.24000 144.395
57.25000 143.648
57.26000 143.354
57.27000 143.179
57.28000 143.025
57.29000 149.554
57.30000 156.220
57.31000 160.637
57.32000 155.500
57.33000 149.285
57.34000 144.891
57.35000 145.800
57.36000 147.048
57.37000 147.890
57.38000 146.905
57.39000 146.133
57.40000 146.174
57.41000 147.342
57.42000 148.516
57.43000 148.833
57.44000 148.363
57.45000 147.897
57.46000 148.943
57.47000 150.884
57.48000 152.691
57.49000 151.270
57.50000 148.473
57.51000 145.578
57.52000 141.500
57.53000 137.075
57.54000 133.104
57.55000 136.456
57.56000 140.666
57.57000 143.911
57.58000 142.585
57.59000 140.669
57.60000 140.101
57.61000 143.881
57.62000 147.990
57.63000 150.859
57.64000 146.362
57.65000 142.759
57.66000 141.292
57.67000 143.109
57.68000 144.963
57.69000 145.698
57.70000 145.280
57.71000 144.864
57.72000 144.344
57.73000 143.759
57.74000 143.211
57.75000 143.820
57.76000 144.974
57.77000 145.964
57.78000 144.613
57.79000 142.496
57.80000 140.569
57.81000 140.855
57.82000 141.544
57.83000 142.457
57.84000 144.557
57.85000 146.832
57.86000 148.148
57.87000 146.045
57.88000 143.637
57.89000 141.901
57.90000 144.116
57.91000 145.954
57.92000 144.715
57.93000 138.226
57.94000 131.649
57.95000 131.983
57.96000 140.303
57.97000 148.612
57.98000 148.745
57.99000 142.675
58.00000 136.805
58.01000 139.024
58.02000 145.463
58.03000 151.369
58.04000 148.116
58.05000 141.552
58.06000 135.498
58.07000 137.542
58.08000 141.174
58.09000 144.175
58.10000 143.422
58.11000 142.048
58.12000 141.139
58.13000 142.080
58.14000 143.212
58.15000 144.052
58.16000 142.861
58.17000 141.847
58.18000 141.947
58.19000 144.156
58.20000 146.414
58.21000 147.410
58.22000 146.777
58.23000 146.137
58.24000 144.981
58.25000 143.389
58.26000 141.800
58.27000 140.359
58.28000 139.005
58.29000 137.560
58.30000 134.207
58.31000 130.092
58.32000 126.250
58.33000 131.913
58.34000 139.423
58.35000 145.511
58.36000 142.052
58.37000 136.820
58.38000 132.820
58.39000 134.266
58.40000 136.357
58.41000 137.953
58.42000 140.743
58.43000 143.006
58.44000 143.977
58.45000 142.248
58.46000 140.434
58.47000 140.306
58.48000 142.602
58.49000 144.917
58.50000 144.129
58.51000 140.377
58.52000 136.635
58.53000 133.765
58.54000 131.454
58.55000 129.270
58.56000 130.405
58.57000 133.007
58.58000 135.464
58.59000 134.879
58.60000 133.489
58.61000 132.008
58.62000 129.826
58.63000 127.498
58.64000 126.247
58.65000 130.298
58.66000 135.065
58.67000 138.799
58.68000 136.533
58.69000 134.338
58.70000 132.405
58.71000 131.079
58.72000 129.779
58.73000 130.492
58.74000 134.422
58.75000 138.393
58.76000 140.450
58.77000 136.204
58.78000 133.368
58.79000 134.619
58.80000 138.782
58.81000 142.835
58.82000 143.164
58.83000 141.672
58.84000 140.250
58.85000 139.549
58.86000 139.126
58.87000 138.815
58.88000 139.472
58.89000 140.353
58.90000 140.970
58.91000 140.127
58.92000 139.061
58.93000 138.205
58.94000 136.030
58.95000 134.168
58.96000 134.212
58.97000 139.130
58.98000 144.291
58.99000 146.079
59.00000 141.895
59.01000 137.596
59.02000 135.247
59.03000 139.145
59.04000 141.822
59.05000 141.341
59.06000 138.354
59.07000 135.424
59.08000 135.124
59.09000 136.245
59.10000 137.324
59.11000 137.571
59.12000 137.510
59.13000 137.326
59.14000 135.916
59.15000 134.189
59.16000 132.625
59.17000 132.067
59.18000 131.684
59.19000 131.369
59.20000 134.744
59.21000 137.841
59.22000 140.484
59.23000 141.842
59.24000 143.121
59.25000 142.569
59.26000 138.425
59.27000 134.187
59.28000 131.753
59.29000 136.298
59.30000 139.498
59.31000 138.642
59.32000 134.189
59.33000 129.783
59.34000 128.489
59.35000 129.060
59.36000 129.614
59.37000 128.081
59.38000 125.809
59.39000 123.954
59.40000 126.946
59.41000 131.326
59.42000 135.153
59.43000 135.099
59.44000 134.295
59.45000 133.621
59.46000 133.716
59.47000 133.875
59.48000 133.637
59.49000 132.153
59.50000 130.579
59.51000 128.876
59.52000 126.895
59.53000 124.903
59.54000 123.706
59.55000 131.089
59.56000 136.396
59.57000 137.725
59.58000 135.089
59.59000 132.492
59.60000 133.809
59.61000 137.729
59.62000 141.556
59.63000 138.733
59.64000 133.114
59.65000 127.938
59.66000 128.816
59.67000 131.614
59.68000 134.037
59.69000 133.462
59.70000 132.240
59.71000 131.196
59.72000 134.199
59.73000 137.211
59.74000 140.089
59.75000 142.502
59.76000 144.875
59.77000 146.335
59.78000 145.607
59.79000 144.783
59.80000 144.266
59.81000 139.232
59.82000 135.545
59.83000 134.568
59.84000 136.621
59.85000 138.663
59.86000 138.125
59.87000 135.679
59.88000 133.275
59.89000 134.012
59.90000 136.263
59.91000 138.456
59.92000 139.717
59.93000 140.651
59.94000 141.176
59.95000 137.972
59.96000 133.869
59.97000 130.300
59.98000 136.872
59.99000 143.863
60.00000 148.393
60.01000 143.447
60.02000 137.564
60.03000 135.341
60.04000 142.822
60.05000 150.823
60.06000 156.042
60.07000 148.964
60.08000 143.576
60.09000 141.655
60.10000 144.073
60.11000 146.498
60.12000 145.743
60.13000 142.364
60.14000 139.027
60.15000 137.040
60.16000 135.842
60.17000 134.637
60.18000 133.285
60.19000 131.878
60.20000 130.875
60.21000 134.140
60.22000 138.547
60.23000 142.445
60.24000 139.479
60.25000 135.849
60.26000 132.969
60.27000 133.298
60.28000 133.993
60.29000 134.402
60.30000 133.975
60.31000 133.493
60.32000 133.167
60.33000 135.381
60.34000 137.086
60.35000 138.101
60.36000 138.157
60.37000 138.205
60.38000 137.690
60.39000 136.652
60.40000 135.623
60.41000 133.959
60.42000 131.937
60.43000 129.988
60.44000 129.819
60.45000 130.415
60.46000 131.253
60.47000 135.069
60.48000 139.769
60.49000 143.991
60.50000 138.450
60.51000 131.882
60.52000 126.841
60.53000 129.098
60.54000 132.305
60.55000 134.786
60.56000 134.908
60.57000 134.849
60.58000 134.808
60.59000 134.387
60.60000 134.057
60.61000 132.693
60.62000 129.724
60.63000 126.737
60.64000 127.119
60.65000 131.002
60.66000 134.865
60.67000 136.574
60.68000 136.791
60.69000 137.012
60.70000 137.353
60.71000 137.752
60.72000 138.135
60.73000 138.296
60.74000 138.384
60.75000 138.465
60.76000 136.513
60.77000 134.380
60.78000 131.927
60.79000 127.765
60.80000 123.351
60.81000 120.519
60.82000 123.380
60.83000 126.753
60.84000 129.189
60.85000 132.500
60.86000 135.072
60.87000 135.908
60.88000 133.761
60.89000 131.562
60.90000 128.990
60.91000 125.983
60.92000 122.983
60.93000 124.328
60.94000 128.989
60.95000 133.540
60.96000 133.576
60.97000 131.238
60.98000 129.066
60.99000 129.764
61.00000 131.508
61.01000 133.118
61.02000 134.472
61.03000 135.628
61.04000 136.992
61.05000 139.603
61.06000 142.422
61.07000 143.805
61.08000 139.449
61.09000 134.495
61.10000 130.809
61.11000 131.586
61.12000 132.390
61.13000 133.024
61.14000 133.337
61.15000 133.642
61.16000 134.919
61.17000 137.462
61.18000 140.008
61.19000 138.464
61.20000 133.416
61.21000 128.464
61.22000 129.055
61.23000 132.874
61.24000 136.550
61.25000 137.199
61.26000 136.630
61.27000 136.098
61.28000 136.674
61.29000 137.477
61.30000 137.994
61.31000 136.580
61.32000 134.803
61.33000 133.493
61.34000 134.255
61.35000 135.265
61.36000 136.037
61.37000 138.931
61.38000 141.329
61.39000 143.091
61.40000 143.512
61.41000 143.889
61.42000 142.615
61.43000 138.948
61.44000 135.261
61.45000 136.927
61.46000 143.750
61.47000 150.580
61.48000 158.112
61.49000 166.096
61.50000 174.017
61.51000 180.278
61.52000 185.800
61.53000 191.016
61.54000 210.328
61.55000 232.040
61.56000 251.812
61.57000 256.673
61.58000 258.409
61.59000 263.159
61.60000 282.885
61.61000 304.653
61.62000 321.732
61.63000 323.043
61.64000 323.065
61.65000 323.759
61.66000 326.019
61.67000 328.343
61.68000 332.839
61.69000 340.829
61.70000 348.866
61.71000 353.044
61.72000 338.034
61.73000 327.907
61.74000 320.382
61.75000 314.723
61.76000 308.818
61.77000 294.446
61.78000 275.906
61.79000 258.219
61.80000 242.699
61.81000 228.981
61.82000 215.333
61.83000 202.301
61.84000 189.412
61.85000 177.657
61.86000 172.210
61.87000 167.737
61.88000 164.142
61.89000 157.747
61.90000 152.348
61.91000 149.064
61.92000 151.225
61.93000 153.663
61.94000 153.575
61.95000 148.984
61.96000 144.305
61.97000 141.738
61.98000 140.838
61.99000 140.227
62.00000 141.374
62.01000 143.927
62.02000 146.420
62.03000 146.139
62.04000 144.347
62.05000 142.622
62.06000 140.858
62.07000 139.190
62.08000 137.808
62.09000 139.319
62.10000 141.581
62.11000 143.606
62.12000 144.150
62.13000 144.435
62.14000 144.670
62.15000 141.418
62.16000 138.432
62.17000 137.188
62.18000 140.901
62.19000 144.919
62.20000 146.787
62.21000 144.407
62.22000 141.913
62.23000 140.476
62.24000 146.649
62.25000 150.998
62.26000 152.284
62.27000 150.830
62.28000 149.326
62.29000 144.507
62.30000 137.685
62.31000 131.067
62.32000 128.924
62.33000 128.664
62.34000 128.677
62.35000 131.907
62.36000 136.066
62.37000 140.210
62.38000 144.260
62.39000 148.291
62.40000 151.672
62.41000 150.120
62.42000 148.313
62.43000 147.521
62.44000 149.930
62.45000 152.572
62.46000 154.597
62.47000 155.272
62.48000 155.899
62.49000 156.277
62.50000 151.676
62.51000 148.366
62.52000 147.405
62.53000 148.806
62.54000 150.193
62.55000 150.237
62.56000 149.380
62.57000 148.542
62.58000 146.793
62.59000 144.714
62.60000 142.787
62.61000 142.969
62.62000 143.825
62.63000 144.480
62.64000 143.526
62.65000 142.222
62.66000 141.106
62.67000 136.775
62.68000 132.736
62.69000 131.000
62.70000 137.310
62.71000 144.314
62.72000 149.088
62.73000 148.481
62.74000 147.636
62.75000 147.104
62.76000 145.504
62.77000 144.334
62.78000 142.620
62.79000 140.290
62.80000 137.974
62.81000 138.339
62.82000 140.706
62.83000 143.031
62.84000 144.124
62.85000 144.570
62.86000 144.973
62.87000 144.642
62.88000 144.051
62.89000 143.094
62.90000 138.758
62.91000 133.602
62.92000 129.112
62.93000 136.054
62.94000 143.557
62.95000 149.533
62.96000 149.585
62.97000 149.045
62.98000 148.531
62.99000 148.084
63.00000 147.641
63.01000 147.351
63.02000 151.205
63.03000 154.104
63.04000 155.452
63.05000 154.846
63.06000 154.224
63.07000 149.301
63.08000 140.798
63.09000 132.398
63.10000 134.677
63.11000 142.784
63.12000 150.851
63.13000 158.115
63.14000 165.064
63.15000 171.103
63.16000 167.426
63.17000 161.128
63.18000 155.553
63.19000 156.117
63.20000 157.567
63.21000 157.930
63.22000 153.601
63.23000 148.732
63.24000 144.382
63.25000 141.568
63.26000 138.854
63.27000 137.013
63.28000 147.548
63.29000 155.678
63.30000 156.077
63.31000 145.611
63.32000 135.073
63.33000 134.822
63.34000 144.155
63.35000 153.415
63.36000 154.897
63.37000 151.564
63.38000 148.352
63.39000 148.143
63.40000 149.232
63.41000 150.075
63.42000 147.849
63.43000 144.706
63.44000 141.879
63.45000 139.805
63.46000 138.122
63.47000 137.354
63.48000 140.996
63.49000 145.217
63.50000 147.781
63.51000 144.921
63.52000 141.640
63.53000 139.339
63.54000 152.593
63.55000 163.075
63.56000 167.476
63.57000 162.383
63.58000 157.177
63.59000 153.182
63.60000 150.456
63.61000 147.742
63.62000 151.656
63.63000 160.091
63.64000 168.220
63.65000 166.622
63.66000 160.369
63.67000 154.388
63.68000 152.392
63.69000 151.716
63.70000 151.100
63.71000 152.905
63.72000 154.992
63.73000 156.231
63.74000 152.895
63.75000 148.878
63.76000 146.117
63.77000 147.912
63.78000 150.121
63.79000 151.720
63.80000 154.166
63.81000 156.074
63.82000 157.647
63.83000 158.637
63.84000 159.617
63.85000 159.909
63.86000 159.392
63.87000 158.876
63.88000 157.920
63.89000 156.630
63.90000 155.317
63.91000 152.979
63.92000 150.100
63.93000 147.597
63.94000 151.755
63.95000 158.354
63.96000 164.452
63.97000 164.308
63.98000 162.765
63.99000 161.146
64.00000 159.062
64.01000 156.900
64.02000 154.672
64.03000 152.179
64.04000 149.658
64.05000 147.779
64.06000 153.018
64.07000 157.420
64.08000 160.562
64.09000 161.287
64.10000 161.952
64.11000 161.688
64.12000 160.208
64.13000 158.723
64.14000 158.423
64.15000 159.148
64.16000 159.887
64.17000 161.416
64.18000 163.408
64.19000 165.227
64.20000 163.290
64.21000 159.830
64.22000 156.595
64.23000 158.190
64.24000 160.867
64.25000 163.610
64.26000 166.804
64.27000 170.083
64.28000 172.160
64.29000 168.843
64.30000 164.875
64.31000 161.835
64.32000 167.824
64.33000 173.050
64.34000 176.642
64.35000 176.765
64.36000 176.775
64.37000 174.354
64.38000 168.384
64.39000 162.383
64.40000 161.925
64.41000 166.850
64.42000 171.713
64.43000 170.904
64.44000 166.405
64.45000 162.076
64.46000 162.349
64.47000 164.687
64.48000 166.897
64.49000 165.939
64.50000 164.155
64.51000 163.058
64.52000 167.284
64.53000 172.634
64.54000 176.762
64.55000 174.767
64.56000 171.930
64.57000 169.700
64.58000 171.920
64.59000 173.989
64.60000 175.814
64.61000 177.065
64.62000 178.292
64.63000 178.553
64.64000 177.249
64.65000 175.923
64.66000 175.231
64.67000 180.833
64.68000 184.596
64.69000 183.836
64.70000 179.806
64.71000 175.969
64.72000 178.904
64.73000 185.196
64.74000 191.203
64.75000 190.659
64.76000 188.061
64.77000 185.541
64.78000 183.717
64.79000 182.057
64.80000 180.636
64.81000 180.559
64.82000 180.692
64.83000 180.798
64.84000 185.802
64.85000 190.243
64.86000 192.169
64.87000 187.573
64.88000 182.641
64.89000 179.879
64.90000 181.017
64.91000 182.233
64.92000 182.903
64.93000 185.690
64.94000 187.619
64.95000 191.197
64.96000 196.104
64.97000 200.910
64.98000 200.921
64.99000 198.298
65.00000 195.773
65.01000 196.402
65.02000 198.120
65.03000 200.034
65.04000 203.960
65.05000 208.412
65.06000 212.994
65.07000 218.400
65.08000 223.951
65.09000 228.518
65.10000 222.707
65.11000 216.983
65.12000 214.517
65.13000 221.395
65.14000 228.856
65.15000 234.131
65.16000 235.057
65.17000 235.865
65.18000 236.332
65.19000 235.202
65.20000 234.405
65.21000 236.519
65.22000 241.258
65.23000 245.996
65.24000 250.760
65.25000 255.540
65.26000 260.179
65.27000 268.682
65.28000 278.293
65.29000 287.669
65.30000 294.259
65.31000 300.039
65.32000 304.395
65.33000 298.574
65.34000 290.753
65.35000 284.182
65.36000 302.832
65.37000 321.030
65.38000 336.039
65.39000 340.917
65.40000 345.044
65.41000 352.258
65.42000 366.264
65.43000 380.513
65.44000 389.132
65.45000 382.207
65.46000 377.157
65.47000 380.590
65.48000 392.616
65.49000 404.578
65.50000 409.630
65.51000 410.016
65.52000 410.392
65.53000 418.445
65.54000 429.581
65.55000 440.296
65.56000 445.103
65.57000 448.009
65.58000 451.356
65.59000 458.300
65.60000 466.033
65.61000 472.656
65.62000 489.020
65.63000 504.014
65.64000 519.019
65.65000 534.060
65.66000 549.103
65.67000 570.407
65.68000 606.935
65.69000 644.148
65.70000 667.622
65.71000 755.674
65.72000 820.180
65.73000 887.879
65.74000 959.207
65.75000 1030.491
65.76000 1092.036
65.77000 1146.261
65.78000 1199.581
65.79000 1245.970
65.80000 1287.393
65.81000 1328.257
65.82000 1359.795
65.83000 1388.009
65.84000 1413.851
65.85000 1417.582
65.86000 1415.905
65.87000 1414.443
65.88000 1421.418
65.89000 1428.553
65.90000 1426.051
65.91000 1385.879
65.92000 1341.901
65.93000 1296.694
65.94000 1248.186
65.95000 1199.496
65.96000 1167.565
65.97000 1045.893
65.98000 954.921
65.99000 865.829
66.00000 779.126
66.01000 692.482
66.02000 632.696
66.03000 595.435
66.04000 558.612
66.05000 518.932
66.06000 478.636
66.07000 439.133
66.08000 415.751
66.09000 398.723
66.10000 382.182
66.11000 370.893
66.12000 361.031
66.13000 352.289
66.14000 353.213
66.15000 355.542
66.16000 356.873
66.17000 353.866
66.18000 350.354
66.19000 348.982
66.20000 353.976
66.21000 359.392
66.22000 363.075
66.23000 365.461
66.24000 367.213
66.25000 376.193
66.26000 395.406
66.27000 414.692
66.28000 426.436
66.29000 431.093
66.30000 435.714
66.31000 445.918
66.32000 459.413
66.33000 472.856
66.34000 484.975
66.35000 496.517
66.36000 508.096
66.37000 520.124
66.38000 532.289
66.39000 543.237
66.40000 546.713
66.41000 548.420
66.42000 549.381
66.43000 546.723
66.44000 543.585
66.45000 537.289
66.46000 520.592
66.47000 503.076
66.48000 490.760
66.49000 487.762
66.50000 485.765
66.51000 479.908
66.52000 467.978
66.53000 455.973
66.54000 442.782
66.55000 428.335
66.56000 413.952
66.57000 402.836
66.58000 394.104
66.59000 385.408
66.60000 377.861
66.61000 370.869
66.62000 364.382
66.63000 365.421
66.64000 368.974
66.65000 372.217
66.66000 369.476
66.67000 365.830
66.68000 362.427
66.69000 360.337
66.70000 358.445
66.71000 356.628
66.72000 355.083
66.73000 353.564
66.74000 352.462
66.75000 350.421
66.76000 348.817
66.77000 347.064
66.78000 345.053
66.79000 343.037
66.80000 343.689
66.81000 347.499
66.82000 351.307
66.83000 353.697
66.84000 354.971
66.85000 356.250
66.86000 357.665
66.87000 359.154
66.88000 360.452
66.89000 358.357
66.90000 355.008
66.91000 351.911
66.92000 360.435
66.93000 370.742
66.94000 378.664
66.95000 372.022
66.96000 362.912
66.97000 356.874
66.98000 363.311
66.99000 371.074
67.00000 376.874
67.01000 369.158
67.02000 362.520
67.03000 359.534
67.04000 363.601
67.05000 367.847
67.06000 370.861
67.07000 372.249
67.08000 373.628
67.09000 376.593
67.10000 380.934
67.11000 385.284
67.12000 390.241
67.13000 395.556
67.14000 400.642
67.15000 400.722
67.16000 398.757
67.17000 396.918
67.18000 396.514
67.19000 396.515
67.20000 397.387
67.21000 404.261
67.22000 412.279
67.23000 419.770
67.24000 424.878
67.25000 429.696
67.26000 433.395
67.27000 423.930
67.28000 415.714
67.29000 411.430
67.30000 415.552
67.31000 419.953
67.32000 425.978
67.33000 434.393
67.34000 442.828
67.35000 444.696
67.36000 440.129
67.37000 435.635
67.38000 438.005
67.39000 444.875
67.40000 451.725
67.41000 458.059
67.42000 464.159
67.43000 469.929
67.44000 468.436
67.45000 464.976
67.46000 461.755
67.47000 460.408
67.48000 459.460
67.49000 458.431
67.50000 456.988
67.51000 455.488
67.52000 454.307
67.53000 458.472
67.54000 462.166
67.55000 467.274
67.56000 475.725
67.57000 484.316
67.58000 487.535
67.59000 481.980
67.60000 476.301
67.61000 473.324
67.62000 488.097
67.63000 498.093
67.64000 505.472
67.65000 510.944
67.66000 516.347
67.67000 519.307
67.68000 521.045
67.69000 522.706
67.70000 517.958
67.71000 511.481
67.72000 505.907
67.73000 508.419
67.74000 512.849
67.75000 517.985
67.76000 527.116
67.77000 536.876
67.78000 544.744
67.79000 543.379
67.80000 541.544
67.81000 542.174
67.82000 549.246
67.83000 556.654
67.84000 558.425
67.85000 549.995
67.86000 541.356
67.87000 536.582
67.88000 554.787
67.89000 567.366
67.90000 572.339
67.91000 571.133
67.92000 569.936
67.93000 569.238
67.94000 568.815
67.95000 568.408
67.96000 572.455
67.97000 577.862
67.98000 583.576
67.99000 592.453
68.00000 602.165
68.01000 609.542
68.02000 602.043
68.03000 591.915
68.04000 583.567
68.05000 584.830
68.06000 586.754
68.07000 591.725
68.08000 605.501
68.09000 619.834
68.10000 631.877
68.11000 639.333
68.12000 646.661
68.13000 650.912
68.14000 657.059
68.15000 661.380
68.16000 664.514
68.17000 666.569
68.18000 668.557
68.19000 665.805
68.20000 660.148
68.21000 654.654
68.22000 664.349
68.23000 679.661
68.24000 694.321
68.25000 701.141
68.26000 705.665
68.27000 709.447
68.28000 707.877
68.29000 705.247
68.30000 703.033
68.31000 713.239
68.32000 723.073
68.33000 732.177
68.34000 738.948
68.35000 745.544
68.36000 751.639
68.37000 756.623
68.38000 761.566
68.39000 764.566
68.40000 792.776
68.41000 813.095
68.42000 824.294
68.43000 826.176
68.44000 828.171
68.45000 842.907
68.46000 866.314
68.47000 889.203
68.48000 899.509
68.49000 903.741
68.50000 908.419
68.51000 919.410
68.52000 932.447
68.53000 945.641
68.54000 960.120
68.55000 974.883
68.56000 987.544
68.57000 1039.885
68.58000 1088.965
68.59000 1138.734
68.60000 1190.940
68.61000 1243.361
68.62000 1293.144
68.63000 1336.466
68.64000 1379.492
68.65000 1406.712
68.66000 1529.129
68.67000 1619.005
68.68000 1698.745
68.69000 1766.866
68.70000 1834.990
68.71000 1906.790
68.72000 1981.374
68.73000 2054.741
68.74000 2136.695
68.75000 2220.320
68.76000 2304.908
68.77000 2405.832
68.78000 2512.619
68.79000 2620.948
68.80000 2743.798
68.81000 2870.228
68.82000 2980.592
68.83000 3200.603
68.84000 3404.232
68.85000 3627.384
68.86000 3927.434
68.87000 4235.336
68.88000 4644.470
68.89000 5327.839
68.90000 6026.555
68.91000 6485.997
68.92000 8882.515
68.93000 10679.862
68.94000 13298.687
68.95000 16969.807
68.96000 20646.953
68.97000 25544.854
68.98000 31474.869
68.99000 37337.230
69.00000 43573.461
69.01000 49869.902
69.02000 56107.867
69.03000 61138.453
69.04000 65689.766
69.05000 70067.625
69.06000 72556.422
69.07000 74527.859
69.08000 76277.344
69.09000 77268.641
69.10000 78006.547
69.11000 78765.094
69.12000 79614.063
69.13000 80473.648
69.14000 81303.602
69.15000 82044.750
69.16000 82779.922
69.17000 83281.023
69.18000 82830.164
69.19000 82471.258
69.20000 81045.078
69.21000 78096.148
69.22000 75135.516
69.23000 71311.773
69.24000 66670.273
69.25000 62063.008
69.26000 58133.012
69.27000 54691.504
69.28000 51281.914
69.29000 48694.145
69.30000 46467.070
69.31000 44295.703
69.32000 42833.656
69.33000 41587.027
69.34000 40463.789
69.35000 39150.121
69.36000 37963.121
69.37000 36658.594
69.38000 34779.156
69.39000 32822.766
69.40000 30619.148
69.41000 27594.865
69.42000 24505.301
69.43000 22327.805
69.44000 18232.455
69.45000 15069.004
69.46000 12371.131
69.47000 10411.233
69.48000 8460.630
69.49000 6917.302
69.50000 5807.794
69.51000 4703.073
69.52000 3949.666
69.53000 3449.661
69.54000 2954.864
69.55000 2632.412
69.56000 2393.613
69.57000 2160.367
69.58000 2010.860
69.59000 1889.516
69.60000 1778.637
69.61000 1691.310
69.62000 1618.563
69.63000 1549.554
69.64000 1501.013
69.65000 1455.578
69.66000 1411.142
69.67000 1370.386
69.68000 1329.973
69.69000 1300.588
69.70000 1238.728
69.71000 1189.904
69.72000 1153.104
69.73000 1137.436
69.74000 1122.163
69.75000 1099.052
69.76000 1066.589
69.77000 1034.172
69.78000 1006.802
69.79000 983.525
69.80000 960.562
69.81000 951.563
69.82000 950.063
69.83000 947.665
69.84000 928.958
69.85000 904.182
69.86000 881.249
69.87000 873.704
69.88000 870.463
69.89000 865.545
69.90000 850.307
69.91000 833.305
69.92000 817.560
69.93000 806.961
69.94000 796.915
69.95000 789.395
69.96000 783.044
69.97000 778.142
69.98000 773.796
69.99000 770.531
70.00000 767.293
