20.00000 562.729
20.01000 569.195
20.02000 576.584
20.03000 581.840
20.04000 578.571
20.05000 574.414
20.06000 571.322
20.07000 576.327
20.08000 580.583
20.09000 581.560
20.10000 576.296
20.11000 570.881
20.12000 566.119
20.13000 562.206
20.14000 558.299
20.15000 560.805
20.16000 568.803
20.17000 576.679
20.18000 577.485
20.19000 574.178
20.20000 571.087
20.21000 572.577
20.22000 575.911
20.23000 579.026
20.24000 575.229
20.25000 570.042
20.26000 566.021
20.27000 569.901
20.28000 575.260
20.29000 579.483
20.30000 578.648
20.31000 577.209
20.32000 576.108
20.33000 570.650
20.34000 566.108
20.35000 565.309
20.36000 572.395
20.37000 579.733
20.38000 581.775
20.39000 576.147
20.40000 570.457
20.41000 564.174
20.42000 557.323
20.43000 550.553
20.44000 551.005
20.45000 556.118
20.46000 561.093
20.47000 562.389
20.48000 562.049
20.49000 561.727
20.50000 566.982
20.51000 573.381
20.52000 579.011
20.53000 578.739
20.54000 577.230
20.55000 575.247
20.56000 570.913
20.57000 566.258
20.58000 562.607
20.59000 558.940
20.60000 556.006
20.61000 555.091
20.62000 558.878
20.63000 562.857
20.64000 561.418
20.65000 551.263
20.66000 540.992
20.67000 535.652
20.68000 536.855
20.69000 537.684
20.70000 540.635
20.71000 545.110
20.72000 549.374
20.73000 546.404
20.74000 539.872
20.75000 533.641
20.76000 530.362
20.77000 528.254
20.78000 527.457
20.79000 538.171
20.80000 551.573
20.81000 562.538
20.82000 559.946
20.83000 555.261
20.84000 551.497
20.85000 544.749
20.86000 539.050
20.87000 538.311
20.88000 550.340
20.89000 563.016
20.90000 570.455
20.91000 568.558
20.92000 566.479
20.93000 565.338
20.94000 556.301
20.95000 550.091
20.96000 550.292
20.97000 555.620
20.98000 560.927
20.99000 565.250
21.00000 569.038
21.01000 572.684
21.02000 565.540
21.03000 555.017
21.04000 545.661
21.05000 548.105
21.06000 553.614
21.07000 558.937
21.08000 563.099
21.09000 567.059
21.10000 570.313
21.11000 559.496
21.12000 549.345
21.13000 540.957
21.14000 537.589
21.15000 534.529
21.16000 536.454
21.17000 548.218
21.18000 560.246
21.19000 567.175
21.20000 557.231
21.21000 550.207
21.22000 546.680
21.23000 546.280
21.24000 545.905
21.25000 547.184
21.26000 549.462
21.27000 551.671
21.28000 547.627
21.29000 541.318
21.30000 535.544
21.31000 536.062
21.32000 538.393
21.33000 541.278
21.34000 548.079
21.35000 555.642
21.36000 561.987
21.37000 565.286
21.38000 567.713
21.39000 568.292
21.40000 563.045
21.41000 557.372
21.42000 557.036
21.43000 568.355
21.44000 580.083
21.45000 587.155
21.46000 582.805
21.47000 579.628
21.48000 575.506
21.49000 570.435
21.50000 565.452
21.51000 569.668
21.52000 580.047
21.53000 590.187
21.54000 584.560
21.55000 572.207
21.56000 560.402
21.57000 556.170
21.58000 554.359
21.59000 553.570
21.60000 561.018
21.61000 570.260
21.62000 578.165
21.63000 579.289
21.64000 579.423
21.65000 577.330
21.66000 567.456
21.67000 556.912
21.68000 552.126
21.69000 561.237
21.70000 570.962
21.71000 577.078
21.72000 579.696
21.73000 581.551
21.74000 584.978
21.75000 590.180
21.76000 595.388
21.77000 601.682
21.78000 608.786
21.79000 615.768
21.80000 625.756
21.81000 636.892
21.82000 647.253
21.83000 644.836
21.84000 637.898
21.85000 632.993
21.86000 646.832
21.87000 665.221
21.88000 681.232
21.89000 683.245
21.90000 683.039
21.91000 685.411
21.92000 697.784
21.93000 711.156
21.94000 724.362
21.95000 737.121
21.96000 749.857
21.97000 758.185
21.98000 760.181
21.99000 761.544
22.00000 763.340
22.01000 765.683
22.02000 768.034
22.03000 773.429
22.04000 781.357
22.05000 789.189
22.06000 793.723
22.07000 796.325
22.08000 798.892
22.09000 800.740
22.10000 802.307
22.11000 803.885
22.12000 805.575
22.13000 807.295
22.14000 808.817
22.15000 801.636
22.16000 794.060
22.17000 784.142
22.18000 764.115
22.19000 742.924
22.20000 724.558
22.21000 714.533
22.22000 705.054
22.23000 698.626
22.24000 695.632
22.25000 693.475
22.26000 691.117
22.27000 688.477
22.28000 685.834
22.29000 680.739
22.30000 673.359
22.31000 666.038
22.32000 661.691
22.33000 659.250
22.34000 656.745
22.35000 652.659
22.36000 647.891
22.37000 642.835
22.38000 634.220
22.39000 624.539
22.40000 615.836
22.41000 613.743
22.42000 613.086
22.43000 610.463
22.44000 598.383
22.45000 585.060
22.46000 573.816
22.47000 569.369
22.48000 565.451
22.49000 562.702
22.50000 565.195
22.51000 567.234
22.52000 569.378
22.53000 571.689
22.54000 574.001
22.55000 569.541
22.56000 557.991
22.57000 546.492
22.58000 540.957
22.59000 539.586
22.60000 538.346
22.61000 541.302
22.62000 546.264
22.63000 551.050
22.64000 553.244
22.65000 554.579
22.66000 555.797
22.67000 559.862
22.68000 564.038
22.69000 566.876
22.70000 562.508
22.71000 557.065
22.72000 552.183
22.73000 549.330
22.74000 546.661
22.75000 544.729
22.76000 542.410
22.77000 540.615
22.78000 538.451
22.79000 535.647
22.80000 532.831
22.81000 531.293
22.82000 531.256
22.83000 531.221
22.84000 534.782
22.85000 541.094
22.86000 547.167
22.87000 543.158
22.88000 533.814
22.89000 525.202
22.90000 529.516
22.91000 538.571
22.92000 546.936
22.93000 538.299
22.94000 526.702
22.95000 516.510
22.96000 514.820
22.97000 514.558
22.98000 514.161
22.99000 513.226
23.00000 512.233
23.01000 511.493
23.02000 522.806
23.03000 532.163
23.04000 533.649
23.05000 520.044
23.06000 506.067
23.07000 498.951
23.08000 500.830
23.09000 502.747
23.10000 507.775
23.11000 515.482
23.12000 523.155
23.13000 528.793
23.14000 533.239
23.15000 537.546
23.16000 538.864
23.17000 538.971
23.18000 539.071
23.19000 530.569
23.20000 520.663
23.21000 512.378
23.22000 515.169
23.23000 520.050
23.24000 523.821
23.25000 522.608
23.26000 520.793
23.27000 519.403
23.28000 518.459
23.29000 517.739
23.30000 518.825
23.31000 523.742
23.32000 528.783
23.33000 528.397
23.34000 520.090
23.35000 511.716
23.36000 504.458
23.37000 498.283
23.38000 492.171
23.39000 491.749
23.40000 495.027
23.41000 498.424
23.42000 505.019
23.43000 513.048
23.44000 520.637
23.45000 523.744
23.46000 525.321
23.47000 525.958
23.48000 519.310
23.49000 511.122
23.50000 504.607
23.51000 506.467
23.52000 509.477
23.53000 511.844
23.54000 511.734
23.55000 511.483
23.56000 511.315
23.57000 511.343
23.58000 511.378
23.59000 513.847
23.60000 520.256
23.61000 526.720
23.62000 530.094
23.63000 519.593
23.64000 512.519
23.65000 510.609
23.66000 512.432
23.67000 514.219
23.68000 514.751
23.69000 514.661
23.70000 514.575
23.71000 515.767
23.72000 517.283
23.73000 517.854
23.74000 510.053
23.75000 500.281
23.76000 494.018
23.77000 507.449
23.78000 523.945
23.79000 537.221
23.80000 526.270
23.81000 515.501
23.82000 508.185
23.83000 509.826
23.84000 511.926
23.85000 512.442
23.86000 510.110
23.87000 507.722
23.88000 506.407
23.89000 510.849
23.90000 513.901
23.91000 510.390
23.92000 501.591
23.93000 492.966
23.94000 492.550
23.95000 496.639
23.96000 500.578
23.97000 502.794
23.98000 504.261
23.99000 505.946
24.00000 509.864
24.01000 514.365
24.02000 516.718
24.03000 505.498
24.04000 491.900
24.05000 480.709
24.06000 483.196
24.07000 486.484
24.08000 489.153
24.09000 490.044
24.10000 490.825
24.11000 494.054
24.12000 502.151
24.13000 510.381
24.14000 515.138
24.15000 496.247
24.16000 482.918
24.17000 480.886
24.18000 489.039
24.19000 497.123
24.20000 500.513
24.21000 501.050
24.22000 501.570
24.23000 504.951
24.24000 509.299
24.25000 513.659
24.26000 518.157
24.27000 522.696
24.28000 526.137
24.29000 521.727
24.30000 515.776
24.31000 510.776
24.32000 500.480
24.33000 491.344
24.34000 484.632
24.35000 485.612
24.36000 487.164
24.37000 488.170
24.38000 487.978
24.39000 487.744
24.40000 487.602
24.41000 478.357
24.42000 471.702
24.43000 471.999
24.44000 479.338
24.45000 486.672
24.46000 493.497
24.47000 499.978
24.48000 506.312
24.49000 505.359
24.50000 501.199
24.51000 497.078
24.52000 493.495
24.53000 490.085
24.54000 487.141
24.55000 487.985
24.56000 489.660
24.57000 491.095
24.58000 489.470
24.59000 487.727
24.60000 485.622
24.61000 482.246
24.62000 478.760
24.63000 478.102
24.64000 484.323
24.65000 490.853
24.66000 494.972
24.67000 489.747
24.68000 485.855
24.69000 482.284
24.70000 479.078
24.71000 475.892
24.72000 476.854
24.73000 480.933
24.74000 484.943
24.75000 477.855
24.76000 465.483
24.77000 454.021
24.78000 457.781
24.79000 466.964
24.80000 475.848
24.81000 481.951
24.82000 487.374
24.83000 492.103
24.84000 494.238
24.85000 495.704
24.86000 497.003
24.87000 497.649
24.88000 498.229
24.89000 496.771
24.90000 489.833
24.91000 482.592
24.92000 477.845
24.93000 476.697
24.94000 475.914
24.95000 474.352
24.96000 471.801
24.97000 469.252
24.98000 468.940
24.99000 470.504
25.00000 472.051
25.01000 476.703
25.02000 482.965
25.03000 488.737
25.04000 484.530
25.05000 476.393
25.06000 468.831
25.07000 467.469
25.08000 467.792
25.09000 468.078
25.10000 477.045
25.11000 486.179
25.12000 492.774
25.13000 488.324
25.14000 482.590
25.15000 477.288
25.16000 473.266
25.17000 469.330
25.18000 466.654
25.19000 467.232
25.20000 467.737
25.21000 471.320
25.22000 479.258
25.23000 487.226
25.24000 488.138
25.25000 482.421
25.26000 476.749
25.27000 476.277
25.28000 479.040
25.29000 481.548
25.30000 477.615
25.31000 470.877
25.32000 464.576
25.33000 463.774
25.34000 464.629
25.35000 465.399
25.36000 466.272
25.37000 467.055
25.38000 467.767
25.39000 468.135
25.40000 468.456
25.41000 470.330
25.42000 477.317
25.43000 484.706
25.44000 489.901
25.45000 479.126
25.46000 470.492
25.47000 466.833
25.48000 470.998
25.49000 475.257
25.50000 474.075
25.51000 467.147
25.52000 460.248
25.53000 457.730
25.54000 458.279
25.55000 458.795
25.56000 458.237
25.57000 457.162
25.58000 456.479
25.59000 461.640
25.60000 468.752
25.61000 475.245
25.62000 469.804
25.63000 462.560
25.64000 456.360
25.65000 455.829
25.66000 456.149
25.67000 457.007
25.68000 459.828
25.69000 462.829
25.70000 465.005
25.71000 461.232
25.72000 458.110
25.73000 456.569
25.74000 457.782
25.75000 459.045
25.76000 460.937
25.77000 463.573
25.78000 466.205
25.79000 465.054
25.80000 460.970
25.81000 457.051
25.82000 460.262
25.83000 467.274
25.84000 473.807
25.85000 471.750
25.86000 466.521
25.87000 461.686
25.88000 456.722
25.89000 452.234
25.90000 449.375
25.91000 456.451
25.92000 465.212
25.93000 472.231
25.94000 472.183
25.95000 471.383
25.96000 470.785
25.97000 465.184
25.98000 460.588
25.99000 459.274
26.00000 464.300
26.01000 469.485
26.02000 469.904
26.03000 464.029
26.04000 458.128
26.05000 455.635
26.06000 456.116
26.07000 456.559
26.08000 454.660
26.09000 451.379
26.10000 448.371
26.11000 451.358
26.12000 456.793
26.13000 461.879
26.14000 454.560
26.15000 444.729
26.16000 437.095
26.17000 444.602
26.18000 454.991
26.19000 462.415
26.20000 456.436
26.21000 448.824
26.22000 442.981
26.23000 441.898
26.24000 441.308
26.25000 443.730
26.26000 452.589
26.27000 461.661
26.28000 467.350
26.29000 468.065
26.30000 468.736
26.31000 468.439
26.32000 467.195
26.33000 465.942
26.34000 463.947
26.35000 461.464
26.36000 459.122
26.37000 460.630
26.38000 463.877
26.39000 466.948
26.40000 466.346
26.41000 464.735
26.42000 462.981
26.43000 460.092
26.44000 456.961
26.45000 453.360
26.46000 447.378
26.47000 441.066
26.48000 436.096
26.49000 437.378
26.50000 438.821
26.51000 441.336
26.52000 446.382
26.53000 451.534
26.54000 454.660
26.55000 454.480
26.56000 454.253
26.57000 454.134
26.58000 451.344
26.59000 449.474
26.60000 450.919
26.61000 454.779
26.62000 458.451
26.63000 455.358
26.64000 448.887
26.65000 442.706
26.66000 448.087
26.67000 456.810
26.68000 464.069
26.69000 458.216
26.70000 449.253
26.71000 443.442
26.72000 455.462
26.73000 470.283
26.74000 482.230
26.75000 463.512
26.76000 445.898
26.77000 435.984
26.78000 446.187
26.79000 457.440
26.80000 464.547
26.81000 464.157
26.82000 463.612
26.83000 463.310
26.84000 463.753
26.85000 464.045
26.86000 459.047
26.87000 449.753
26.88000 440.670
26.89000 441.902
26.90000 448.836
26.91000 455.518
26.92000 450.824
26.93000 442.320
26.94000 434.842
26.95000 437.952
26.96000 443.853
26.97000 448.540
26.98000 445.491
26.99000 441.074
27.00000 437.434
27.01000 435.663
27.02000 434.377
27.03000 434.871
27.04000 440.504
27.05000 446.462
27.06000 445.375
27.07000 430.181
27.08000 414.593
27.09000 405.552
27.10000 413.846
27.11000 419.739
27.12000 425.362
27.13000 430.739
27.14000 436.133
27.15000 442.721
27.16000 450.042
27.17000 457.152
27.18000 458.840
27.19000 458.262
27.20000 457.297
27.21000 451.675
27.22000 444.689
27.23000 439.162
27.24000 444.144
27.25000 451.209
27.26000 457.152
27.27000 449.053
27.28000 440.803
27.29000 435.490
27.30000 439.572
27.31000 444.359
27.32000 446.744
27.33000 443.813
27.34000 440.688
27.35000 438.792
27.36000 438.403
27.37000 438.137
27.38000 436.303
27.39000 432.867
27.40000 429.505
27.41000 434.567
27.42000 445.361
27.43000 455.915
27.44000 455.005
27.45000 448.987
27.46000 442.999
27.47000 437.446
27.48000 432.033
27.49000 428.371
27.50000 439.085
27.51000 452.979
27.52000 464.893
27.53000 451.462
27.54000 437.009
27.55000 425.875
27.56000 426.514
27.57000 428.187
27.58000 429.072
27.59000 428.023
27.60000 426.887
27.61000 426.168
27.62000 425.782
27.63000 425.506
27.64000 426.861
27.65000 430.085
27.66000 433.325
27.67000 439.568
27.68000 448.084
27.69000 456.460
27.70000 454.136
27.71000 446.525
27.72000 439.246
27.73000 437.596
27.74000 437.966
27.75000 438.362
27.76000 438.991
27.77000 439.678
27.78000 440.278
27.79000 438.445
27.80000 436.535
27.81000 435.902
27.82000 440.294
27.83000 445.200
27.84000 448.838
27.85000 449.046
27.86000 449.062
27.87000 449.072
27.88000 441.787
27.89000 436.300
27.90000 433.376
27.91000 433.733
27.92000 434.095
27.93000 430.696
27.94000 424.118
27.95000 417.615
27.96000 414.693
27.97000 413.847
27.98000 413.240
27.99000 417.573
28.00000 423.867
28.01000 430.006
28.02000 434.447
28.03000 438.423
28.04000 441.951
28.05000 446.506
28.06000 450.617
28.07000 453.517
28.08000 451.113
28.09000 448.087
28.10000 444.384
28.11000 438.654
28.12000 432.786
28.13000 428.788
28.14000 426.788
28.15000 425.339
28.16000 424.618
28.17000 424.937
28.18000 425.263
28.19000 427.517
28.20000 431.596
28.21000 435.645
28.22000 439.672
28.23000 443.619
28.24000 447.459
28.25000 448.576
28.26000 448.496
28.27000 448.439
28.28000 448.654
28.29000 448.952
28.30000 449.220
28.31000 446.180
28.32000 442.915
28.33000 439.557
28.34000 435.747
28.35000 431.876
28.36000 429.168
28.37000 430.315
28.38000 431.769
28.39000 432.794
28.40000 429.630
28.41000 427.106
28.42000 426.364
28.43000 428.446
28.44000 430.565
28.45000 431.516
28.46000 431.225
28.47000 430.934
28.48000 428.463
28.49000 424.493
28.50000 420.739
28.51000 424.165
28.52000 431.074
28.53000 437.260
28.54000 432.525
28.55000 424.119
28.56000 416.439
28.57000 416.283
28.58000 417.681
28.59000 418.986
28.60000 419.775
28.61000 420.486
28.62000 421.484
28.63000 423.537
28.64000 425.689
28.65000 427.252
28.66000 425.287
28.67000 423.641
28.68000 424.208
28.69000 428.663
28.70000 433.190
28.71000 435.499
28.72000 435.161
28.73000 434.818
28.74000 432.036
28.75000 427.357
28.76000 422.832
28.77000 425.182
28.78000 431.223
28.79000 436.957
28.80000 437.127
28.81000 435.228
28.82000 433.469
28.83000 426.808
28.84000 419.692
28.85000 413.384
28.86000 412.051
28.87000 411.569
28.88000 412.403
28.89000 418.623
28.90000 425.421
28.91000 430.508
28.92000 423.651
28.93000 417.742
28.94000 416.118
28.95000 422.827
28.96000 429.751
28.97000 432.053
28.98000 428.202
28.99000 424.322
29.00000 417.622
29.01000 408.456
29.02000 399.441
29.03000 399.964
29.04000 406.162
29.05000 412.111
29.06000 412.523
29.07000 410.656
29.08000 408.908
29.09000 406.870
29.10000 404.941
29.11000 404.031
29.12000 410.205
29.13000 417.738
29.14000 424.812
29.15000 429.793
29.16000 434.517
29.17000 438.150
29.18000 429.507
29.19000 421.975
29.20000 417.551
29.21000 419.817
29.22000 422.309
29.23000 422.878
29.24000 420.596
29.25000 418.289
29.26000 420.985
29.27000 428.622
29.28000 436.146
29.29000 432.588
29.30000 421.715
29.31000 411.261
29.32000 412.559
29.33000 419.203
29.34000 425.491
29.35000 423.182
29.36000 418.565
29.37000 414.559
29.38000 415.367
29.39000 417.209
29.40000 418.687
29.41000 418.316
29.42000 417.686
29.43000 417.189
29.44000 412.416
29.45000 408.299
29.46000 407.787
29.47000 415.851
29.48000 424.283
29.49000 428.782
29.50000 426.813
29.51000 424.749
29.52000 423.663
29.53000 422.748
29.54000 422.136
29.55000 423.072
29.56000 425.144
29.57000 427.111
29.58000 425.222
29.59000 421.393
29.60000 417.734
29.61000 411.959
29.62000 405.900
29.63000 400.863
29.64000 405.071
29.65000 411.489
29.66000 416.970
29.67000 417.106
29.68000 416.395
29.69000 415.822
29.70000 418.435
29.71000 420.813
29.72000 423.789
29.73000 428.340
29.74000 432.974
29.75000 435.425
29.76000 433.897
29.77000 432.286
29.78000 431.392
29.79000 435.197
29.80000 437.822
29.81000 435.859
29.82000 430.140
29.83000 424.537
29.84000 424.713
29.85000 428.106
29.86000 431.378
29.87000 438.619
29.88000 446.868
29.89000 453.684
29.90000 445.545
29.91000 433.433
29.92000 424.469
29.93000 435.735
29.94000 450.606
29.95000 462.882
29.96000 454.662
29.97000 445.986
29.98000 439.901
29.99000 441.358
30.00000 443.297
30.01000 445.760
30.02000 449.277
30.03000 452.825
30.04000 454.890
30.05000 455.324
30.06000 455.622
30.07000 454.524
30.08000 452.147
30.09000 449.772
30.10000 447.593
30.11000 445.534
30.12000 443.533
30.13000 449.509
30.14000 458.419
30.15000 466.253
30.16000 461.006
30.17000 451.903
30.18000 444.165
30.19000 446.358
30.20000 450.535
30.21000 454.053
30.22000 452.937
30.23000 451.506
30.24000 451.175
30.25000 454.387
30.26000 457.867
30.27000 458.910
30.28000 454.516
30.29000 449.921
30.30000 447.124
30.31000 457.145
30.32000 464.404
30.33000 464.304
30.34000 456.626
30.35000 449.012
30.36000 449.071
30.37000 454.388
30.38000 459.590
30.39000 453.238
30.40000 441.914
30.41000 431.398
30.42000 432.447
30.43000 437.274
30.44000 441.656
30.45000 442.361
30.46000 442.245
30.47000 442.146
30.48000 439.698
30.49000 437.338
30.50000 437.298
30.51000 445.548
30.52000 454.536
30.53000 459.812
30.54000 455.933
30.55000 451.629
30.56000 448.899
30.57000 444.850
30.58000 441.895
30.59000 442.506
30.60000 447.236
30.61000 451.956
30.62000 453.239
30.63000 451.899
30.64000 450.580
30.65000 449.051
30.66000 447.463
30.67000 445.917
30.68000 445.106
30.69000 444.560
30.70000 444.988
30.71000 454.679
30.72000 466.671
30.73000 477.151
30.74000 473.303
30.75000 467.980
30.76000 463.520
30.77000 462.482
30.78000 461.796
30.79000 464.012
30.80000 474.141
30.81000 484.719
30.82000 491.692
30.83000 502.743
30.84000 510.958
30.85000 512.984
30.86000 507.022
30.87000 501.045
30.88000 505.248
30.89000 518.124
30.90000 530.858
30.91000 540.973
30.92000 549.374
30.93000 557.707
30.94000 564.631
30.95000 570.990
30.96000 577.064
30.97000 579.994
30.98000 582.058
30.99000 583.891
31.00000 603.686
31.01000 623.747
31.02000 646.545
31.03000 681.430
31.04000 717.747
31.05000 752.937
31.06000 784.724
31.07000 816.281
31.08000 837.841
31.09000 880.995
31.10000 913.787
31.11000 952.030
31.12000 998.106
31.13000 1044.246
31.14000 1103.174
31.15000 1174.316
31.16000 1244.951
31.17000 1328.226
31.18000 1418.137
31.19000 1508.839
31.20000 1620.255
31.21000 1740.824
31.22000 1860.786
31.23000 1972.932
31.24000 2082.687
31.25000 2181.678
31.26000 2312.914
31.27000 2434.035
31.28000 2555.927
31.29000 2681.618
31.30000 2807.823
31.31000 2926.108
31.32000 3017.923
31.33000 3107.608
31.34000 3170.956
31.35000 3268.103
31.36000 3342.883
31.37000 3393.554
31.38000 3405.738
31.39000 3417.422
31.40000 3421.138
31.41000 3416.298
31.42000 3411.474
31.43000 3379.261
31.44000 3328.048
31.45000 3276.129
31.46000 3200.423
31.47000 3113.090
31.48000 3024.126
31.49000 2910.259
31.50000 2787.957
31.51000 2676.100
31.52000 2548.309
31.53000 2431.433
31.54000 2315.377
31.55000 2203.842
31.56000 2092.999
31.57000 1979.987
31.58000 1858.935
31.59000 1737.129
31.60000 1648.381
31.61000 1529.719
31.62000 1437.186
31.63000 1348.685
31.64000 1267.321
31.65000 1186.093
31.66000 1118.293
31.67000 1066.639
31.68000 1015.111
31.69000 971.982
31.70000 935.685
31.71000 899.333
31.72000 860.450
31.73000 820.196
31.74000 780.424
31.75000 749.516
31.76000 721.927
31.77000 696.370
31.78000 684.115
31.79000 676.176
31.80000 666.437
31.81000 645.514
31.82000 622.663
31.83000 602.289
31.84000 592.117
31.85000 583.052
31.86000 576.254
31.87000 550.923
31.88000 530.262
31.89000 515.225
31.90000 511.211
31.91000 507.487
31.92000 502.611
31.93000 496.190
31.94000 489.765
31.95000 481.168
31.96000 470.659
31.97000 460.173
31.98000 451.131
31.99000 442.954
32.00000 435.055
32.01000 433.417
32.02000 434.374
32.03000 435.271
32.04000 433.992
32.05000 432.262
32.06000 431.006
32.07000 433.083
32.08000 435.806
32.09000 437.639
32.10000 435.395
32.11000 432.645
32.12000 430.526
32.13000 439.718
32.14000 447.645
32.15000 447.842
32.16000 431.282
32.17000 414.145
32.18000 403.620
32.19000 402.963
32.20000 402.400
32.21000 406.516
32.22000 415.291
32.23000 423.930
32.24000 418.818
32.25000 404.562
32.26000 390.923
32.27000 394.909
32.28000 406.970
32.29000 418.396
32.30000 415.634
32.31000 408.945
32.32000 403.263
32.33000 405.598
32.34000 409.667
32.35000 412.979
32.36000 412.411
32.37000 411.294
32.38000 410.412
32.39000 398.643
32.40000 388.451
32.41000 382.651
32.42000 387.376
32.43000 392.560
32.44000 396.966
32.45000 400.086
32.46000 403.186
32.47000 404.823
32.48000 392.057
32.49000 383.417
32.50000 381.388
32.51000 384.250
32.52000 387.113
32.53000 390.043
32.54000 393.006
32.55000 395.840
32.56000 398.186
32.57000 400.212
32.58000 401.681
32.59000 398.062
32.60000 393.217
32.61000 388.621
32.62000 385.454
32.63000 382.515
32.64000 380.138
32.65000 383.982
32.66000 387.610
32.67000 388.838
32.68000 383.702
32.69000 378.226
32.70000 377.619
32.71000 385.952
32.72000 394.478
32.73000 399.223
32.74000 396.549
32.75000 394.684
32.76000 392.178
32.77000 389.142
32.78000 386.158
32.79000 385.842
32.80000 387.021
32.81000 388.158
32.82000 391.432
32.83000 395.294
32.84000 399.613
32.85000 408.740
32.86000 419.154
32.87000 427.590
32.88000 423.209
32.89000 416.524
32.90000 410.998
32.91000 410.631
32.92000 410.812
32.93000 410.066
32.94000 406.597
32.95000 402.951
32.96000 399.630
32.97000 396.966
32.98000 394.322
32.99000 392.778
33.00000 399.549
33.01000 404.348
33.02000 403.423
33.03000 397.207
33.04000 391.038
33.05000 388.281
33.06000 387.648
33.07000 387.032
33.08000 382.757
33.09000 377.198
33.10000 371.773
33.11000 368.007
33.12000 364.734
33.13000 362.050
33.14000 363.690
33.15000 366.202
33.16000 368.320
33.17000 363.403
33.18000 358.531
33.19000 354.564
33.20000 353.536
33.21000 352.734
33.22000 351.852
33.23000 350.792
33.24000 349.726
33.25000 349.075
33.26000 355.837
33.27000 360.733
33.28000 362.786
33.29000 361.886
33.30000 360.977
33.31000 358.953
33.32000 356.158
33.33000 353.422
33.34000 356.813
33.35000 362.862
33.36000 368.534
33.37000 368.718
33.38000 367.097
33.39000 365.237
33.40000 361.376
33.41000 357.064
33.42000 353.358
33.43000 351.454
33.44000 350.069
33.45000 348.850
33.46000 348.229
33.47000 347.661
33.48000 346.107
33.49000 342.102
33.50000 337.982
33.51000 335.361
33.52000 343.785
33.53000 350.044
33.54000 353.207
33.55000 352.764
33.56000 352.323
33.57000 353.485
33.58000 355.879
33.59000 358.236
33.60000 358.928
33.61000 358.753
33.62000 358.329
33.63000 353.592
33.64000 347.284
33.65000 341.449
33.66000 340.152
33.67000 339.990
33.68000 339.848
33.69000 335.910
33.70000 331.992
33.71000 328.621
33.72000 327.437
33.73000 326.480
33.74000 327.235
33.75000 332.691
33.76000 338.418
33.77000 342.203
33.78000 335.975
33.79000 331.201
33.80000 333.137
33.81000 343.798
33.82000 354.486
33.83000 357.753
33.84000 354.644
33.85000 351.570
33.86000 348.841
33.87000 346.372
33.88000 343.880
33.89000 340.907
33.90000 337.742
33.91000 335.686
33.92000 345.982
33.93000 359.709
33.94000 371.919
33.95000 368.030
33.96000 362.038
33.97000 356.941
33.98000 355.827
33.99000 355.189
34.00000 353.742
34.01000 349.834
34.02000 345.756
34.03000 342.963
34.04000 343.486
34.05000 343.957
34.06000 344.762
34.07000 346.050
34.08000 347.342
34.09000 348.043
34.10000 348.174
34.11000 348.304
34.12000 345.913
34.13000 341.958
34.14000 338.050
34.15000 335.371
34.16000 333.241
34.17000 331.754
34.18000 338.657
34.19000 348.145
34.20000 356.711
34.21000 355.025
34.22000 351.656
34.23000 347.935
34.24000 342.468
34.25000 336.763
34.26000 333.087
34.27000 336.243
34.28000 339.954
34.29000 342.582
34.30000 335.444
34.31000 329.716
34.32000 327.762
34.33000 331.878
34.34000 336.075
34.35000 338.430
34.36000 338.791
34.37000 339.149
34.38000 334.304
34.39000 325.806
34.40000 317.656
34.41000 321.460
34.42000 331.150
34.43000 340.205
34.44000 339.436
34.45000 335.317
34.46000 331.547
34.47000 332.471
34.48000 334.270
34.49000 336.419
34.50000 340.519
34.51000 344.920
34.52000 347.422
34.53000 342.831
34.54000 337.567
34.55000 333.724
34.56000 329.118
34.57000 325.537
34.58000 324.660
34.59000 328.602
34.60000 332.638
34.61000 335.215
34.62000 336.024
34.63000 336.828
34.64000 337.445
34.65000 337.911
34.66000 338.286
34.67000 334.397
34.68000 328.184
34.69000 322.226
34.70000 320.998
34.71000 321.556
34.72000 322.073
34.73000 320.347
34.74000 318.269
34.75000 316.761
34.76000 318.831
34.77000 321.522
34.78000 323.820
34.79000 324.482
34.80000 324.965
34.81000 325.328
34.82000 334.814
34.83000 342.668
34.84000 344.593
34.85000 334.813
34.86000 324.719
34.87000 321.872
34.88000 328.825
34.89000 335.828
34.90000 333.087
34.91000 321.646
34.92000 310.350
34.93000 308.634
34.94000 312.703
34.95000 316.565
34.96000 315.693
34.97000 312.844
34.98000 310.172
34.99000 319.272
35.00000 330.655
35.01000 340.563
35.02000 340.031
35.03000 337.463
35.04000 334.293
35.05000 328.336
35.06000 322.030
35.07000 317.162
35.08000 320.418
35.09000 323.470
35.10000 324.256
35.11000 320.094
35.12000 315.758
35.13000 312.757
35.14000 311.762
35.15000 310.787
35.16000 310.298
35.17000 313.415
35.18000 315.504
35.19000 318.661
35.20000 322.534
35.21000 326.274
35.22000 326.168
35.23000 324.288
35.24000 322.505
35.25000 323.225
35.26000 324.626
35.27000 325.160
35.28000 318.714
35.29000 310.747
35.30000 304.605
35.31000 307.908
35.32000 312.557
35.33000 316.236
35.34000 314.924
35.35000 313.524
35.36000 312.703
35.37000 313.281
35.38000 313.920
35.39000 312.758
35.40000 308.589
35.41000 304.374
35.42000 302.139
35.43000 310.189
35.44000 315.640
35.45000 315.450
35.46000 311.055
35.47000 306.868
35.48000 310.593
35.49000 318.356
35.50000 325.786
35.51000 324.774
35.52000 321.048
35.53000 317.412
35.54000 314.596
35.55000 311.980
35.56000 309.532
35.57000 308.056
35.58000 306.736
35.59000 305.668
35.60000 311.219
35.61000 316.280
35.62000 317.703
35.63000 309.414
35.64000 300.596
35.65000 295.744
35.66000 298.226
35.67000 300.870
35.68000 302.346
35.69000 296.528
35.70000 292.501
35.71000 296.558
35.72000 307.340
35.73000 317.925
35.74000 318.141
35.75000 312.498
35.76000 307.051
35.77000 301.786
35.78000 296.895
35.79000 292.642
35.80000 295.185
35.81000 299.563
35.82000 303.913
35.83000 308.091
35.84000 312.238
35.85000 315.671
35.86000 313.434
35.87000 311.050
35.88000 308.783
35.89000 306.863
35.90000 304.966
35.91000 303.844
35.92000 304.306
35.93000 304.815
35.94000 305.113
35.95000 304.415
35.96000 303.919
35.97000 305.964
35.98000 310.376
35.99000 314.724
36.00000 314.145
36.01000 310.479
36.02000 306.913
36.03000 304.778
36.04000 303.335
36.05000 302.015
36.06000 302.220
36.07000 302.881
36.08000 303.469
36.09000 303.516
36.10000 303.453
36.11000 303.400
36.12000 298.930
36.13000 294.706
36.14000 292.831
36.15000 298.634
36.16000 305.034
36.17000 309.311
36.18000 308.788
36.19000 308.081
36.20000 307.648
36.21000 301.664
36.22000 297.333
36.23000 299.147
36.24000 307.397
36.25000 315.591
36.26000 316.421
36.27000 312.126
36.28000 307.920
36.29000 303.609
36.30000 299.418
36.31000 295.568
36.32000 296.736
36.33000 299.568
36.34000 302.039
36.35000 301.467
36.36000 300.206
36.37000 299.120
36.38000 303.573
36.39000 308.043
36.40000 310.008
36.41000 302.889
36.42000 294.944
36.43000 291.566
36.44000 299.616
36.45000 308.212
36.46000 313.696
36.47000 317.889
36.48000 320.922
36.49000 319.657
36.50000 313.347
36.51000 307.030
36.52000 301.212
36.53000 295.780
36.54000 290.431
36.55000 291.921
36.56000 296.875
36.57000 301.364
36.58000 297.640
36.59000 290.904
36.60000 284.492
36.61000 281.228
36.62000 278.757
36.63000 276.593
36.64000 281.048
36.65000 285.826
36.66000 290.965
36.67000 297.566
36.68000 304.321
36.69000 307.557
36.70000 301.055
36.71000 293.985
36.72000 289.300
36.73000 293.960
36.74000 297.572
36.75000 299.934
36.76000 300.658
36.77000 301.373
36.78000 301.427
36.79000 300.908
36.80000 300.395
36.81000 300.989
36.82000 302.205
36.83000 303.379
36.84000 303.644
36.85000 303.539
36.86000 303.479
36.87000 303.910
36.88000 304.479
36.89000 304.985
36.90000 304.404
36.91000 303.720
36.92000 302.662
36.93000 299.922
36.94000 296.980
36.95000 294.286
36.96000 292.354
36.97000 290.476
36.98000 289.186
36.99000 292.931
37.00000 295.863
37.01000 299.255
37.02000 303.322
37.03000 307.394
37.04000 305.770
37.05000 298.615
37.06000 291.507
37.07000 290.800
37.08000 294.204
37.09000 297.479
37.10000 297.248
37.11000 295.446
37.12000 293.837
37.13000 294.771
37.14000 296.495
37.15000 298.052
37.16000 297.762
37.17000 297.164
37.18000 295.617
37.19000 289.317
37.20000 282.364
37.21000 280.754
37.22000 297.270
37.23000 315.277
37.24000 328.055
37.25000 321.281
37.26000 315.510
37.27000 311.308
37.28000 309.649
37.29000 308.025
37.30000 305.064
37.31000 300.643
37.32000 296.238
37.33000 293.731
37.34000 292.606
37.35000 291.660
37.36000 296.933
37.37000 305.292
37.38000 312.976
37.39000 310.101
37.40000 303.598
37.41000 297.638
37.42000 296.399
37.43000 296.286
37.44000 296.599
37.45000 299.308
37.46000 302.389
37.47000 303.279
37.48000 295.915
37.49000 287.760
37.50000 281.793
37.51000 292.719
37.52000 301.820
37.53000 304.985
37.54000 297.488
37.55000 289.777
37.56000 287.256
37.57000 291.078
37.58000 294.909
37.59000 294.523
37.60000 290.752
37.61000 287.083
37.62000 288.187
37.63000 291.911
37.64000 295.692
37.65000 300.536
37.66000 305.784
37.67000 310.654
37.68000 304.739
37.69000 296.864
37.70000 289.925
37.71000 288.902
37.72000 288.915
37.73000 289.844
37.74000 294.605
37.75000 299.791
37.76000 303.695
37.77000 296.803
37.78000 290.883
37.79000 287.065
37.80000 287.425
37.81000 287.899
37.82000 289.151
37.83000 291.462
37.84000 293.778
37.85000 293.021
37.86000 289.497
37.87000 286.042
37.88000 287.349
37.89000 291.552
37.90000 295.598
37.91000 295.982
37.92000 294.827
37.93000 293.742
37.94000 298.054
37.95000 303.415
37.96000 308.097
37.97000 307.931
37.98000 306.811
37.99000 305.066
38.00000 300.400
38.01000 295.365
38.02000 291.471
38.03000 290.481
38.04000 289.867
38.05000 290.116
38.06000 292.262
38.07000 294.477
38.08000 296.422
38.09000 297.959
38.10000 299.491
38.11000 300.262
38.12000 308.968
38.13000 314.724
38.14000 314.025
38.15000 308.968
38.16000 304.206
38.17000 308.198
38.18000 316.257
38.19000 323.904
38.20000 323.209
38.21000 320.093
38.22000 317.191
38.23000 316.042
38.24000 315.277
38.25000 314.831
38.26000 316.042
38.27000 317.493
38.28000 318.642
38.29000 335.861
38.30000 350.835
38.31000 361.169
38.32000 360.223
38.33000 358.770
38.34000 357.236
38.35000 355.564
38.36000 353.891
38.37000 353.001
38.38000 365.498
38.39000 374.012
38.40000 381.370
38.41000 387.861
38.42000 394.552
38.43000 408.988
38.44000 427.407
38.45000 445.047
38.46000 456.462
38.47000 465.038
38.48000 474.128
38.49000 488.009
38.50000 503.061
38.51000 518.915
38.52000 539.464
38.53000 560.775
38.54000 578.068
38.55000 616.657
38.56000 649.869
38.57000 683.764
38.58000 719.496
38.59000 755.328
38.60000 785.502
38.61000 805.133
38.62000 824.526
38.63000 835.396
38.64000 891.036
38.65000 929.676
38.66000 948.547
38.67000 950.841
38.68000 953.410
38.69000 970.737
38.70000 996.467
38.71000 1021.320
38.72000 1029.527
38.73000 1031.081
38.74000 1031.818
38.75000 1023.752
38.76000 1013.294
38.77000 1002.178
38.78000 986.726
38.79000 970.481
38.80000 957.012
38.81000 927.372
38.82000 901.334
38.83000 872.230
38.84000 833.999
38.85000 795.162
38.86000 762.345
38.87000 741.933
38.88000 721.896
38.89000 710.120
38.90000 669.190
38.91000 640.181
38.92000 612.867
38.93000 587.144
38.94000 561.467
38.95000 539.461
38.96000 519.772
38.97000 500.610
38.98000 475.562
38.99000 449.267
39.00000 424.285
39.01000 415.814
39.02000 412.320
39.03000 407.461
39.04000 392.405
39.05000 375.263
39.06000 360.761
39.07000 356.538
39.08000 354.145
39.09000 351.911
39.10000 350.201
39.11000 348.532
39.12000 344.299
39.13000 334.219
39.14000 323.911
39.15000 317.580
39.16000 316.701
39.17000 316.118
39.18000 313.250
39.19000 307.969
39.20000 302.719
39.21000 301.595
39.22000 303.364
39.23000 305.098
39.24000 302.338
39.25000 297.603
39.26000 293.227
39.27000 294.219
39.28000 297.001
39.29000 299.574
39.30000 300.360
39.31000 300.738
39.32000 301.064
39.33000 299.893
39.34000 298.710
39.35000 297.667
39.36000 297.139
39.37000 296.658
39.38000 296.005
39.39000 294.920
39.40000 293.814
39.41000 293.107
39.42000 286.221
39.43000 281.125
39.44000 279.570
39.45000 282.207
39.46000 284.844
39.47000 285.646
39.48000 285.014
39.49000 284.391
39.50000 282.003
39.51000 278.774
39.52000 275.720
39.53000 275.819
39.54000 277.081
39.55000 278.153
39.56000 277.351
39.57000 276.073
39.58000 274.953
39.59000 275.383
39.60000 275.979
39.61000 275.830
39.62000 272.658
39.63000 269.164
39.64000 266.864
39.65000 267.893
39.66000 269.118
39.67000 269.932
39.68000 272.498
39.69000 274.427
39.70000 274.323
39.71000 271.533
39.72000 268.734
39.73000 269.981
39.74000 274.759
39.75000 279.489
39.76000 280.658
39.77000 279.745
39.78000 278.753
39.79000 276.036
39.80000 272.613
39.81000 269.408
39.82000 268.686
39.83000 268.663
39.84000 268.643
39.85000 274.827
39.86000 281.232
39.87000 285.145
39.88000 277.796
39.89000 269.074
39.90000 262.830
39.91000 264.230
39.92000 266.170
39.93000 267.506
39.94000 262.858
39.95000 259.220
39.96000 260.321
39.97000 268.389
39.98000 276.519
39.99000 280.959
40.00000 281.784
40.01000 282.604
40.02000 278.236
40.03000 270.583
40.04000 263.178
40.05000 262.635
40.06000 265.190
40.07000 267.435
40.08000 265.542
40.09000 262.355
40.10000 259.471
40.11000 258.957
40.12000 258.948
40.13000 259.326
40.14000 261.656
40.15000 264.258
40.16000 266.989
40.17000 270.159
40.18000 273.365
40.19000 275.646
40.20000 273.205
40.21000 271.194
40.22000 268.234
40.23000 263.725
40.24000 259.193
40.25000 258.451
40.26000 261.879
40.27000 265.298
40.28000 265.427
40.29000 263.179
40.30000 261.069
40.31000 263.874
40.32000 269.133
40.33000 273.888
40.34000 270.630
40.35000 264.599
40.36000 259.067
40.37000 259.155
40.38000 260.421
40.39000 261.867
40.40000 264.332
40.41000 266.956
40.42000 268.654
40.43000 266.837
40.44000 264.680
40.45000 263.098
40.46000 263.742
40.47000 264.330
40.48000 264.116
40.49000 262.452
40.50000 260.758
40.51000 260.690
40.52000 262.622
40.53000 264.556
40.54000 263.387
40.55000 259.712
40.56000 256.117
40.57000 256.477
40.58000 259.022
40.59000 261.483
40.60000 262.334
40.61000 262.569
40.62000 262.786
40.63000 261.633
40.64000 260.268
40.65000 258.579
40.66000 254.831
40.67000 250.720
40.68000 248.574
40.69000 254.716
40.70000 261.785
40.71000 267.118
40.72000 262.051
40.73000 257.568
40.74000 254.745
40.75000 255.245
40.76000 255.838
40.77000 254.792
40.78000 251.495
40.79000 248.186
40.80000 246.693
40.81000 246.851
40.82000 247.021
40.83000 248.056
40.84000 249.623
40.85000 251.228
40.86000 253.762
40.87000 256.688
40.88000 259.438
40.89000 255.350
40.90000 249.794
40.91000 244.896
40.92000 244.738
40.93000 245.519
40.94000 246.782
40.95000 250.312
40.96000 254.131
40.97000 257.090
40.98000 251.799
40.99000 247.105
41.00000 244.355
41.01000 245.911
41.02000 247.623
41.03000 251.358
41.04000 258.181
41.05000 265.036
41.06000 268.501
41.07000 259.143
41.08000 252.908
41.09000 249.634
41.10000 248.375
41.11000 247.081
41.12000 244.754
41.13000 241.943
41.14000 239.275
41.15000 243.977
41.16000 250.523
41.17000 256.043
41.18000 253.144
41.19000 248.382
41.20000 244.692
41.21000 246.631
41.22000 249.388
41.23000 251.577
41.24000 248.462
41.25000 245.578
41.26000 243.616
41.27000 243.909
41.28000 244.305
41.29000 245.851
41.30000 249.344
41.31000 252.868
41.32000 254.752
41.33000 250.288
41.34000 247.244
41.35000 245.372
41.36000 244.386
41.37000 243.525
41.38000 247.587
41.39000 254.198
41.40000 260.535
41.41000 259.495
41.42000 256.055
41.43000 252.757
41.44000 250.795
41.45000 249.161
41.46000 247.090
41.47000 242.438
41.48000 237.363
41.49000 233.238
41.50000 239.500
41.51000 245.475
41.52000 249.827
41.53000 249.781
41.54000 249.488
41.55000 250.874
41.56000 255.409
41.57000 260.016
41.58000 262.608
41.59000 250.699
41.60000 242.407
41.61000 239.961
41.62000 242.457
41.63000 244.897
41.64000 244.279
41.65000 241.906
41.66000 239.613
41.67000 236.565
41.68000 233.408
41.69000 230.843
41.70000 234.739
41.71000 240.403
41.72000 245.060
41.73000 243.013
41.74000 239.730
41.75000 237.004
41.76000 239.689
41.77000 242.435
41.78000 244.871
41.79000 246.380
41.80000 247.827
41.81000 248.111
41.82000 245.981
41.83000 243.776
41.84000 242.475
41.85000 240.445
41.86000 239.008
41.87000 238.052
41.88000 237.552
41.89000 237.043
41.90000 235.841
41.91000 234.197
41.92000 232.597
41.93000 235.694
41.94000 240.610
41.95000 245.331
41.96000 247.565
41.97000 249.045
41.98000 249.809
41.99000 245.173
42.00000 239.422
42.01000 234.551
42.02000 236.162
42.03000 238.239
42.04000 240.520
42.05000 243.484
42.06000 246.502
42.07000 246.748
42.08000 240.631
42.09000 234.263
42.10000 230.340
42.11000 242.070
42.12000 250.628
42.13000 252.522
42.14000 247.318
42.15000 242.123
42.16000 238.333
42.17000 235.536
42.18000 232.795
42.19000 233.992
42.20000 236.982
42.21000 240.017
42.22000 243.728
42.23000 247.666
42.24000 250.626
42.25000 245.172
42.26000 237.783
42.27000 231.404
42.28000 234.190
42.29000 237.734
42.30000 240.469
42.31000 240.230
42.32000 239.716
42.33000 237.942
42.34000 232.973
42.35000 227.847
42.36000 224.558
42.37000 226.002
42.38000 227.119
42.39000 230.823
42.40000 237.611
42.41000 244.390
42.42000 246.640
42.43000 245.325
42.44000 244.030
42.45000 242.806
42.46000 241.654
42.47000 240.411
42.48000 237.493
42.49000 233.952
42.50000 231.289
42.51000 237.312
42.52000 245.557
42.53000 252.799
42.54000 250.115
42.55000 246.350
42.56000 243.617
42.57000 245.107
42.58000 247.051
42.59000 246.749
42.60000 240.139
42.61000 233.153
42.62000 228.498
42.63000 227.970
42.64000 227.657
42.65000 230.854
42.66000 238.722
42.67000 246.609
42.68000 250.632
42.69000 251.254
42.70000 251.871
42.71000 252.915
42.72000 254.185
42.73000 255.275
42.74000 252.331
42.75000 247.727
42.76000 242.908
42.77000 235.618
42.78000 227.625
42.79000 220.493
42.80000 224.914
42.81000 230.690
42.82000 235.395
42.83000 235.216
42.84000 234.437
42.85000 233.856
42.86000 233.895
42.87000 233.978
42.88000 234.035
42.89000 235.112
42.90000 235.947
42.91000 236.330
42.92000 236.044
42.93000 235.752
42.94000 236.986
42.95000 239.728
42.96000 242.453
42.97000 242.204
42.98000 240.022
42.99000 238.009
43.00000 240.761
43.01000 245.679
43.02000 249.818
43.03000 243.445
43.04000 233.761
43.05000 224.991
43.06000 230.342
43.07000 237.726
43.08000 244.402
43.09000 247.473
43.10000 250.039
43.11000 250.090
43.12000 241.481
43.13000 232.144
43.14000 225.488
43.15000 229.093
43.16000 232.176
43.17000 234.029
43.18000 233.858
43.19000 233.658
43.20000 232.047
43.21000 228.872
43.22000 225.706
43.23000 225.346
43.24000 227.032
43.25000 228.781
43.26000 232.807
43.27000 237.980
43.28000 242.826
43.29000 242.429
43.30000 240.204
43.31000 238.162
43.32000 241.312
43.33000 245.228
43.34000 247.866
43.35000 243.210
43.36000 237.398
43.37000 230.871
43.38000 221.614
43.39000 212.089
43.40000 205.090
43.41000 217.713
43.42000 228.276
43.43000 232.326
43.44000 224.504
43.45000 216.432
43.46000 213.933
43.47000 218.350
43.48000 222.781
43.49000 224.561
43.50000 224.173
43.51000 223.706
43.52000 219.277
43.53000 212.642
43.54000 206.463
43.55000 209.172
43.56000 215.309
43.57000 221.013
43.58000 219.447
43.59000 216.289
43.60000 214.111
43.61000 218.231
43.62000 223.474
43.63000 227.359
43.64000 225.472
43.65000 222.934
43.66000 221.015
43.67000 224.078
43.68000 226.730
43.69000 228.136
43.70000 227.028
43.71000 225.848
43.72000 226.308
43.73000 229.037
43.74000 231.780
43.75000 233.506
43.76000 234.298
43.77000 235.081
43.78000 235.232
43.79000 234.992
43.80000 234.494
43.81000 227.769
43.82000 218.389
43.83000 209.569
43.84000 212.556
43.85000 218.462
43.86000 223.688
43.87000 223.966
43.88000 223.254
43.89000 222.737
43.90000 223.135
43.91000 223.652
43.92000 224.053
43.93000 228.942
43.94000 233.099
43.95000 234.767
43.96000 230.881
43.97000 226.790
43.98000 224.487
43.99000 224.936
44.00000 225.415
44.01000 225.658
44.02000 223.321
44.03000 221.795
44.04000 224.812
44.05000 230.944
44.06000 236.811
44.07000 234.542
44.08000 228.435
44.09000 222.634
44.10000 222.699
44.11000 224.528
44.12000 226.731
44.13000 232.022
44.14000 238.001
44.15000 242.046
44.16000 235.839
44.17000 228.131
44.18000 221.999
44.19000 216.204
44.20000 211.559
44.21000 210.440
44.22000 218.019
44.23000 226.002
44.24000 228.112
44.25000 220.201
44.26000 212.121
44.27000 207.788
44.28000 219.000
44.29000 226.646
44.30000 229.185
44.31000 227.827
44.32000 226.561
44.33000 229.004
44.34000 233.381
44.35000 237.580
44.36000 237.395
44.37000 235.744
44.38000 234.148
44.39000 233.087
44.40000 232.158
44.41000 231.247
44.42000 230.439
44.43000 229.648
44.44000 229.004
44.45000 229.685
44.46000 230.353
44.47000 230.054
44.48000 227.120
44.49000 224.036
44.50000 224.044
44.51000 229.895
44.52000 235.885
44.53000 239.265
44.54000 242.578
44.55000 244.882
44.56000 248.376
44.57000 252.884
44.58000 257.306
44.59000 256.882
44.60000 253.659
44.61000 250.542
44.62000 248.531
44.63000 247.050
44.64000 245.479
44.65000 242.924
44.66000 240.097
44.67000 238.774
44.68000 247.545
44.69000 258.191
44.70000 267.044
44.71000 267.908
44.72000 267.840
44.73000 268.911
44.74000 273.424
44.75000 278.171
44.76000 279.603
44.77000 274.100
44.78000 268.380
44.79000 264.996
44.80000 278.467
44.81000 288.083
44.82000 298.139
44.83000 308.614
44.84000 319.045
44.85000 325.664
44.86000 329.842
44.87000 333.911
44.88000 338.857
44.89000 343.942
44.90000 348.719
44.91000 349.535
44.92000 349.138
44.93000 350.339
44.94000 363.699
44.95000 379.586
44.96000 393.064
44.97000 394.624
44.98000 394.583
44.99000 394.082
45.00000 392.047
45.01000 389.888
45.02000 391.502
45.03000 401.837
45.04000 412.524
45.05000 419.128
45.06000 420.283
45.07000 421.061
45.08000 417.889
45.09000 410.473
45.10000 403.113
45.11000 404.070
45.12000 410.949
45.13000 417.694
45.14000 419.657
45.15000 419.298
45.16000 418.624
45.17000 413.160
45.18000 406.073
45.19000 399.386
45.20000 396.171
45.21000 393.761
45.22000 391.678
45.23000 384.740
45.24000 378.217
45.25000 373.390
45.26000 374.855
45.27000 376.912
45.28000 376.432
45.29000 369.464
45.30000 362.172
45.31000 357.480
45.32000 347.016
45.33000 339.299
45.34000 336.283
45.35000 338.919
45.36000 341.539
45.37000 335.667
45.38000 323.057
45.39000 310.625
45.40000 307.749
45.41000 309.978
45.42000 312.160
45.43000 313.489
45.44000 314.498
45.45000 314.914
45.46000 309.393
45.47000 302.340
45.48000 296.140
45.49000 296.224
45.50000 297.229
45.51000 298.366
45.52000 300.049
45.53000 301.792
45.54000 301.564
45.55000 295.765
45.56000 289.628
45.57000 285.529
45.58000 274.072
45.59000 265.438
45.60000 262.320
45.61000 266.602
45.62000 270.918
45.63000 269.789
45.64000 263.828
45.65000 257.925
45.66000 256.335
45.67000 257.310
45.68000 258.209
45.69000 257.390
45.70000 255.859
45.71000 254.599
45.72000 256.494
45.73000 259.292
45.74000 261.791
45.75000 254.556
45.76000 246.614
45.77000 239.455
45.78000 235.898
45.79000 232.788
45.80000 231.001
45.81000 233.360
45.82000 236.018
45.83000 237.857
45.84000 237.793
45.85000 237.697
45.86000 238.033
45.87000 239.016
45.88000 240.005
45.89000 241.248
45.90000 242.743
45.91000 244.230
45.92000 238.542
45.93000 228.223
45.94000 218.260
45.95000 218.439
45.96000 223.264
45.97000 227.556
45.98000 224.571
45.99000 219.277
46.00000 214.478
46.01000 212.576
46.02000 211.450
46.03000 210.832
46.04000 212.815
46.05000 215.165
46.06000 217.232
46.07000 218.313
46.08000 219.311
46.09000 220.024
46.10000 219.627
46.11000 219.288
46.12000 218.356
46.13000 216.441
46.14000 214.511
46.15000 213.890
46.16000 214.731
46.17000 215.571
46.18000 214.191
46.19000 211.192
46.20000 208.236
46.21000 206.841
46.22000 206.239
46.23000 205.681
46.24000 205.841
46.25000 206.252
46.26000 206.631
46.27000 205.751
46.28000 204.695
46.29000 203.883
46.30000 204.478
46.31000 205.298
46.32000 205.740
46.33000 204.730
46.34000 203.576
46.35000 202.726
46.36000 203.154
46.37000 203.538
46.38000 204.083
46.39000 204.924
46.40000 205.772
46.41000 206.143
46.42000 205.915
46.43000 205.686
46.44000 206.847
46.45000 209.148
46.46000 211.376
46.47000 209.877
46.48000 206.287
46.49000 203.034
46.50000 206.442
46.51000 212.437
46.52000 218.015
46.53000 210.826
46.54000 201.242
46.55000 192.917
46.56000 192.747
46.57000 194.044
46.58000 195.853
46.59000 199.863
46.60000 204.123
46.61000 207.350
46.62000 205.564
46.63000 203.907
46.64000 201.088
46.65000 195.904
46.66000 190.651
46.67000 188.991
46.68000 192.341
46.69000 195.723
46.70000 196.371
46.71000 194.495
46.72000 192.632
46.73000 191.707
46.74000 191.365
46.75000 191.082
46.76000 192.233
46.77000 194.001
46.78000 195.665
46.79000 202.583
46.80000 210.333
46.81000 216.336
46.82000 209.511
46.83000 200.103
46.84000 192.926
46.85000 196.401
46.86000 201.263
46.87000 205.044
46.88000 204.096
46.89000 203.053
46.90000 200.145
46.91000 193.046
46.92000 185.790
46.93000 183.426
46.94000 188.644
46.95000 193.950
46.96000 196.653
46.97000 198.110
46.98000 199.078
46.99000 198.915
47.00000 197.970
47.01000 197.166
47.02000 200.772
47.03000 206.471
47.04000 211.890
47.05000 206.171
47.06000 197.497
47.07000 190.148
47.08000 193.885
47.09000 200.115
47.10000 204.433
47.11000 198.541
47.12000 191.140
47.13000 185.242
47.14000 189.661
47.15000 193.974
47.16000 196.927
47.17000 196.500
47.18000 195.914
47.19000 194.062
47.20000 190.035
47.21000 185.970
47.22000 183.781
47.23000 187.890
47.24000 190.702
47.25000 192.970
47.26000 194.821
47.27000 196.641
47.28000 197.198
47.29000 197.091
47.30000 196.988
47.31000 196.290
47.32000 195.435
47.33000 194.347
47.34000 191.025
47.35000 187.145
47.36000 183.769
47.37000 183.420
47.38000 183.576
47.39000 183.703
47.40000 188.412
47.41000 192.653
47.42000 194.383
47.43000 189.218
47.44000 183.656
47.45000 179.204
47.46000 176.863
47.47000 174.574
47.48000 173.277
47.49000 182.314
47.50000 188.628
47.51000 191.818
47.52000 192.324
47.53000 192.772
47.54000 189.813
47.55000 184.872
47.56000 180.092
47.57000 177.711
47.58000 176.374
47.59000 176.073
47.60000 187.292
47.61000 201.713
47.62000 213.020
47.63000 203.233
47.64000 189.496
47.65000 178.055
47.66000 180.634
47.67000 184.160
47.68000 186.954
47.69000 187.522
47.70000 187.936
47.71000 187.297
47.72000 184.440
47.73000 181.512
47.74000 179.774
47.75000 184.067
47.76000 187.140
47.77000 186.232
47.78000 181.488
47.79000 176.789
47.80000 176.057
47.81000 177.887
47.82000 179.671
47.83000 183.516
47.84000 188.062
47.85000 192.539
47.86000 196.115
47.87000 199.414
47.88000 202.084
47.89000 199.927
47.90000 196.757
47.91000 194.065
47.92000 195.066
47.93000 196.328
47.94000 196.424
47.95000 192.591
47.96000 188.437
47.97000 186.155
47.98000 188.230
47.99000 190.483
48.00000 191.880
48.01000 179.513
48.02000 170.486
48.03000 169.749
48.04000 177.985
48.05000 186.176
48.06000 186.897
48.07000 182.259
48.08000 177.709
48.09000 176.503
48.10000 176.926
48.11000 177.436
48.12000 179.271
48.13000 181.558
48.14000 183.869
48.15000 186.398
48.16000 188.978
48.17000 191.210
48.18000 190.453
48.19000 189.417
48.20000 188.385
48.21000 187.363
48.22000 186.343
48.23000 184.941
48.24000 182.554
48.25000 180.118
48.26000 178.546
48.27000 185.738
48.28000 191.118
48.29000 193.148
48.30000 191.117
48.31000 189.080
48.32000 187.981
48.33000 187.632
48.34000 187.287
48.35000 188.714
48.36000 191.040
48.37000 193.017
48.38000 188.507
48.39000 181.548
48.40000 175.484
48.41000 178.478
48.42000 183.825
48.43000 188.531
48.44000 182.450
48.45000 175.598
48.46000 170.888
48.47000 175.072
48.48000 180.230
48.49000 184.286
48.50000 185.202
48.51000 185.924
48.52000 186.407
48.53000 188.735
48.54000 190.498
48.55000 189.718
48.56000 185.500
48.57000 181.264
48.58000 179.362
48.59000 179.547
48.60000 179.730
48.61000 179.860
48.62000 179.955
48.63000 179.960
48.64000 177.895
48.65000 174.966
48.66000 172.374
48.67000 173.731
48.68000 176.227
48.69000 178.459
48.70000 178.672
48.71000 178.514
48.72000 178.825
48.73000 181.308
48.74000 184.063
48.75000 185.771
48.76000 184.178
48.77000 182.343
48.78000 181.070
48.79000 182.007
48.80000 182.770
48.81000 183.542
48.82000 184.325
48.83000 185.108
48.84000 183.338
48.85000 179.003
48.86000 174.693
48.87000 175.369
48.88000 179.333
48.89000 183.093
48.90000 180.910
48.91000 175.984
48.92000 171.395
48.93000 171.457
48.94000 173.005
48.95000 174.409
48.96000 175.574
48.97000 176.557
48.98000 176.969
48.99000 174.433
49.00000 171.476
49.01000 170.060
49.02000 174.025
49.03000 178.454
49.04000 181.625
49.05000 187.321
49.06000 191.757
49.07000 191.764
49.08000 184.377
49.09000 176.876
49.10000 173.186
49.11000 173.794
49.12000 174.404
49.13000 174.666
49.14000 174.669
49.15000 174.705
49.16000 175.989
49.17000 177.911
49.18000 179.700
49.19000 179.297
49.20000 178.119
49.21000 177.035
49.22000 175.363
49.23000 173.741
49.24000 172.924
49.25000 176.779
49.26000 181.387
49.27000 184.634
49.28000 182.607
49.29000 180.052
49.30000 178.167
49.31000 178.881
49.32000 179.544
49.33000 180.692
49.34000 182.734
49.35000 184.797
49.36000 183.237
49.37000 177.108
49.38000 170.971
49.39000 172.926
49.40000 181.587
49.41000 190.100
49.42000 190.878
49.43000 187.286
49.44000 183.592
49.45000 177.887
49.46000 171.395
49.47000 165.349
49.48000 168.532
49.49000 173.661
49.50000 178.244
49.51000 179.257
49.52000 179.624
49.53000 179.494
49.54000 177.225
49.55000 174.709
49.56000 172.800
49.57000 172.837
49.58000 172.967
49.59000 173.557
49.60000 175.089
49.61000 176.649
49.62000 178.766
49.63000 181.664
49.64000 184.567
49.65000 186.333
49.66000 187.037
49.67000 187.710
49.68000 185.893
49.69000 182.516
49.70000 179.176
49.71000 176.762
49.72000 174.748
49.73000 172.852
49.74000 174.879
49.75000 177.807
49.76000 180.506
49.77000 181.502
49.78000 182.153
49.79000 182.835
49.80000 183.668
49.81000 184.522
49.82000 185.188
49.83000 175.277
49.84000 166.728
49.85000 163.066
49.86000 170.467
49.87000 178.291
49.88000 185.271
49.89000 190.936
49.90000 196.585
49.91000 199.475
49.92000 183.481
49.93000 172.800
49.94000 170.337
49.95000 173.594
49.96000 176.776
49.97000 177.550
49.98000 177.172
49.99000 176.812
50.00000 174.818
50.01000 172.471
50.02000 170.529
50.03000 172.005
50.04000 174.254
50.05000 176.028
50.06000 175.239
50.07000 174.069
50.08000 173.134
50.09000 179.363
50.10000 184.919
50.11000 187.185
50.12000 181.217
50.13000 174.857
50.14000 171.221
50.15000 172.304
50.16000 173.470
50.17000 174.100
50.18000 177.060
50.19000 179.096
50.20000 183.186
50.21000 188.870
50.22000 194.253
50.23000 186.905
50.24000 172.819
50.25000 159.294
50.26000 162.041
50.27000 170.192
50.28000 177.998
50.29000 182.463
50.30000 186.085
50.31000 188.951
50.32000 187.239
50.33000 184.758
50.34000 182.732
50.35000 186.360
50.36000 189.816
50.37000 193.314
50.38000 196.927
50.39000 200.546
50.40000 201.099
50.41000 195.769
50.42000 190.294
50.43000 187.182
50.44000 198.042
50.45000 205.646
50.46000 209.167
50.47000 209.154
50.48000 209.173
50.49000 211.135
50.50000 214.237
50.51000 217.240
50.52000 217.915
50.53000 217.660
50.54000 217.855
50.55000 223.106
50.56000 229.774
50.57000 235.302
50.58000 233.047
50.59000 229.322
50.60000 226.215
50.61000 235.371
50.62000 244.191
50.63000 251.778
50.64000 255.589
50.65000 259.137
50.66000 259.893
50.67000 254.727
50.68000 249.367
50.69000 246.176
50.70000 256.515
50.71000 263.921
50.72000 269.322
50.73000 272.774
50.74000 276.173
50.75000 274.724
50.76000 270.122
50.77000 265.635
50.78000 263.343
50.79000 262.093
50.80000 261.172
50.81000 264.573
50.82000 269.317
50.83000 273.007
50.84000 268.529
50.85000 262.326
50.86000 257.049
50.87000 247.051
50.88000 238.107
50.89000 230.398
50.90000 226.878
50.91000 223.703
50.92000 221.818
50.93000 222.957
50.94000 224.222
50.95000 225.009
50.96000 220.535
50.97000 217.262
50.98000 212.312
50.99000 205.533
51.00000 198.784
51.01000 196.881
51.02000 198.481
51.03000 200.052
51.04000 198.350
51.05000 195.144
51.06000 192.287
51.07000 194.889
51.08000 199.366
51.09000 202.982
51.10000 198.963
51.11000 193.147
51.12000 188.107
51.13000 191.037
51.14000 194.586
51.15000 196.783
51.16000 193.894
51.17000 190.517
51.18000 188.397
51.19000 189.535
51.20000 190.842
51.21000 191.687
51.22000 185.851
51.23000 181.485
51.24000 181.717
51.25000 187.566
51.26000 193.402
51.27000 189.852
51.28000 178.734
51.29000 167.766
51.30000 167.749
51.31000 173.580
51.32000 179.116
51.33000 179.052
51.34000 176.859
51.35000 174.811
51.36000 174.237
51.37000 174.050
51.38000 173.885
51.39000 172.194
51.40000 170.506
51.41000 169.162
51.42000 169.261
51.43000 169.519
51.44000 169.845
51.45000 170.368
51.46000 170.904
51.47000 171.264
51.48000 175.251
51.49000 178.286
51.50000 177.867
51.51000 172.741
51.52000 167.592
51.53000 167.231
51.54000 171.187
51.55000 175.108
51.56000 173.649
51.57000 169.010
51.58000 164.679
51.59000 167.518
51.60000 173.370
51.61000 178.721
51.62000 178.102
51.63000 175.748
51.64000 173.641
51.65000 171.376
51.66000 169.372
51.67000 167.561
51.68000 166.647
51.69000 165.847
51.70000 164.641
51.71000 162.142
51.72000 159.547
51.73000 157.744
51.74000 167.323
51.75000 174.849
51.76000 177.197
51.77000 171.698
51.78000 166.119
51.79000 164.064
51.80000 165.580
51.81000 167.088
51.82000 167.922
51.83000 168.297
51.84000 168.590
51.85000 166.453
51.86000 163.187
51.87000 160.036
51.88000 158.495
51.89000 157.473
51.90000 156.544
51.91000 158.285
51.92000 160.341
51.93000 162.784
51.94000 167.246
51.95000 171.999
51.96000 174.265
51.97000 167.778
51.98000 160.529
51.99000 155.327
52.00000 156.087
52.01000 156.873
52.02000 157.387
52.03000 157.446
52.04000 157.497
52.05000 158.449
52.06000 160.425
52.07000 162.397
52.08000 164.911
52.09000 167.812
52.10000 170.697
52.11000 172.994
52.12000 174.988
52.13000 176.603
52.14000 171.904
52.15000 164.954
52.16000 158.555
52.17000 156.251
52.18000 155.087
52.19000 154.370
52.20000 156.274
52.21000 158.604
52.22000 160.530
52.23000 160.881
52.24000 161.073
52.25000 161.214
52.26000 163.215
52.27000 164.847
52.28000 164.479
52.29000 160.389
52.30000 156.214
52.31000 152.645
52.32000 149.845
52.33000 147.050
52.34000 147.505
52.35000 150.675
52.36000 153.858
52.37000 157.740
52.38000 162.020
52.39000 166.028
52.40000 164.509
52.41000 160.811
52.42000 157.366
52.43000 159.422
52.44000 162.636
52.45000 164.775
52.46000 159.825
52.47000 153.581
52.48000 149.501
52.49000 154.838
52.50000 161.268
52.51000 166.158
52.52000 166.550
52.53000 166.624
52.54000 165.992
52.55000 163.906
52.56000 161.776
52.57000 161.102
52.58000 162.489
52.59000 163.891
52.60000 164.359
52.61000 163.948
52.62000 163.488
52.63000 159.068
52.64000 152.148
52.65000 145.533
52.66000 146.648
52.67000 151.132
52.68000 155.358
52.69000 157.485
52.70000 158.853
52.71000 160.298
52.72000 162.328
52.73000 164.478
52.74000 165.612
52.75000 161.815
52.76000 157.365
52.77000 153.892
52.78000 156.217
52.79000 158.434
52.80000 160.167
52.81000 160.794
52.82000 161.379
52.83000 161.658
52.84000 161.456
52.85000 161.247
52.86000 161.140
52.87000 152.608
52.88000 146.910
52.89000 146.942
52.90000 150.992
52.91000 154.969
52.92000 156.587
52.93000 157.069
52.94000 157.528
52.95000 157.594
52.96000 157.533
52.97000 157.502
52.98000 157.722
52.99000 157.998
53.00000 158.790
53.01000 162.383
53.02000 166.397
53.03000 169.606
53.04000 164.003
53.05000 158.819
53.06000 155.968
53.07000 158.997
53.08000 162.312
53.09000 165.326
53.10000 167.817
53.11000 170.298
53.12000 171.644
53.13000 157.967
53.14000 148.609
53.15000 148.410
53.16000 155.367
53.17000 162.110
53.18000 159.625
53.19000 152.219
53.20000 145.103
53.21000 146.970
53.22000 151.823
53.23000 156.094
53.24000 154.660
53.25000 151.777
53.26000 149.948
53.27000 154.556
53.28000 160.255
53.29000 164.916
53.30000 159.740
53.31000 154.643
53.32000 151.772
53.33000 155.108
53.34000 158.810
53.35000 160.795
53.36000 159.461
53.37000 158.044
53.38000 157.236
53.39000 159.808
53.40000 161.612
53.41000 162.102
53.42000 161.445
53.43000 160.812
53.44000 161.606
53.45000 163.243
53.46000 164.829
53.47000 164.640
53.48000 163.777
53.49000 162.856
53.50000 161.283
53.51000 159.527
53.52000 157.950
53.53000 157.607
53.54000 157.500
53.55000 157.410
53.56000 157.583
53.57000 157.753
53.58000 157.823
53.59000 157.587
53.60000 157.329
53.61000 157.390
53.62000 158.133
53.63000 158.898
53.64000 159.355
53.65000 154.988
53.66000 151.860
53.67000 151.578
53.68000 154.084
53.69000 156.565
53.70000 156.731
53.71000 155.380
53.72000 154.062
53.73000 155.648
53.74000 158.416
53.75000 160.976
53.76000 160.745
53.77000 159.642
53.78000 159.181
53.79000 163.753
53.80000 169.397
53.81000 174.204
53.82000 165.734
53.83000 157.063
53.84000 150.272
53.85000 149.910
53.86000 150.084
53.87000 151.051
53.88000 153.894
53.89000 156.816
53.90000 158.638
53.91000 163.124
53.92000 166.386
53.93000 165.359
53.94000 159.611
53.95000 153.882
53.96000 151.752
53.97000 152.243
53.98000 152.725
53.99000 154.584
54.00000 157.040
54.01000 159.360
54.02000 159.512
54.03000 158.913
54.04000 158.458
54.05000 159.291
54.06000 160.429
54.07000 161.416
54.08000 163.598
54.09000 165.616
54.10000 166.769
54.11000 164.642
54.12000 162.196
54.13000 159.930
54.14000 158.133
54.15000 156.361
54.16000 155.211
54.17000 151.530
54.18000 148.797
54.19000 147.403
54.20000 147.658
54.21000 147.926
54.22000 151.771
54.23000 158.521
54.24000 165.182
54.25000 167.197
54.26000 166.657
54.27000 165.947
54.28000 161.977
54.29000 156.758
54.30000 152.020
54.31000 152.252
54.32000 153.794
54.33000 155.155
54.34000 150.688
54.35000 145.946
54.36000 142.558
54.37000 144.884
54.38000 147.848
54.39000 150.606
54.40000 152.766
54.41000 154.888
54.42000 156.317
54.43000 151.303
54.44000 147.441
54.45000 147.091
54.46000 151.561
54.47000 156.059
54.48000 156.551
54.49000 153.402
54.50000 150.281
54.51000 153.255
54.52000 159.837
54.53000 166.156
54.54000 166.222
54.55000 163.642
54.56000 161.055
54.57000 158.391
54.58000 155.704
54.59000 153.295
54.60000 153.790
54.61000 154.724
54.62000 156.255
54.63000 160.590
54.64000 165.284
54.65000 168.128
54.66000 165.051
54.67000 161.529
54.68000 159.076
54.69000 154.214
54.70000 150.480
54.71000 149.206
54.72000 151.689
54.73000 154.212
54.74000 155.230
54.75000 154.710
54.76000 154.194
54.77000 157.089
54.78000 162.241
54.79000 167.087
54.80000 162.689
54.81000 153.964
54.82000 146.214
54.83000 152.288
54.84000 162.844
54.85000 172.443
54.86000 169.913
54.87000 165.302
54.88000 160.783
54.89000 156.748
54.90000 152.783
54.91000 149.914
54.92000 150.936
54.93000 152.300
54.94000 153.280
54.95000 158.948
54.96000 163.451
54.97000 165.978
54.98000 165.161
54.99000 164.288
55.00000 163.256
55.01000 162.040
55.02000 160.827
55.03000 159.075
55.04000 156.930
55.05000 154.808
55.06000 153.662
55.07000 153.022
55.08000 152.707
55.09000 157.925
55.10000 165.129
55.11000 171.767
55.12000 172.712
55.13000 172.303
55.14000 171.724
55.15000 170.143
55.16000 168.399
55.17000 167.626
55.18000 170.681
55.19000 174.127
55.20000 176.680
55.21000 170.818
55.22000 165.902
55.23000 162.808
55.24000 163.134
55.25000 163.540
55.26000 163.977
55.27000 164.456
55.28000 164.935
55.29000 166.282
55.30000 168.357
55.31000 170.416
55.32000 171.580
55.33000 172.229
55.34000 173.034
55.35000 177.043
55.36000 182.323
55.37000 187.248
55.38000 184.075
55.39000 179.193
55.40000 175.378
55.41000 178.663
55.42000 183.257
55.43000 187.303
55.44000 188.945
55.45000 190.306
55.46000 191.343
55.47000 187.017
55.48000 183.327
55.49000 183.282
55.50000 190.804
55.51000 198.559
55.52000 204.965
55.53000 209.447
55.54000 213.914
55.55000 216.091
55.56000 216.099
55.57000 216.155
55.58000 220.171
55.59000 226.706
55.60000 233.104
55.61000 236.010
55.62000 237.384
55.63000 238.679
55.64000 249.185
55.65000 261.374
55.66000 272.693
55.67000 277.440
55.68000 280.832
55.69000 284.022
55.70000 286.224
55.71000 288.293
55.72000 289.910
55.73000 307.416
55.74000 322.397
55.75000 336.241
55.76000 347.475
55.77000 358.606
55.78000 369.901
55.79000 381.455
55.80000 393.013
55.81000 398.975
55.82000 420.462
55.83000 434.959
55.84000 452.114
55.85000 471.146
55.86000 489.819
55.87000 496.620
55.88000 497.660
55.89000 498.650
55.90000 502.956
55.91000 507.979
55.92000 513.628
55.93000 524.662
55.94000 536.936
55.95000 547.770
55.96000 550.726
55.97000 552.487
55.98000 553.897
55.99000 553.920
56.00000 553.834
56.01000 551.997
56.02000 545.715
56.03000 539.214
56.04000 532.894
56.05000 526.894
56.06000 520.900
56.07000 517.636
56.08000 498.767
56.09000 485.795
56.10000 471.706
56.11000 456.738
56.12000 441.905
56.13000 433.078
56.14000 427.475
56.15000 422.089
56.16000 416.320
56.17000 410.781
56.18000 404.351
56.19000 389.092
56.20000 371.573
56.21000 355.212
56.22000 345.979
56.23000 337.965
56.24000 331.400
56.25000 316.847
56.26000 304.212
56.27000 292.688
56.28000 284.284
56.29000 276.067
56.30000 270.745
56.31000 271.057
56.32000 271.514
56.33000 271.776
56.34000 270.890
56.35000 270.262
56.36000 263.920
56.37000 252.550
56.38000 241.264
56.39000 235.285
56.40000 232.464
56.41000 229.729
56.42000 228.131
56.43000 227.060
56.44000 225.674
56.45000 220.661
56.46000 214.617
56.47000 208.974
56.48000 206.119
56.49000 203.799
56.50000 201.858
56.51000 195.696
56.52000 190.145
56.53000 185.503
56.54000 183.685
56.55000 182.069
56.56000 182.331
56.57000 186.634
56.58000 191.074
56.59000 193.734
56.60000 182.880
56.61000 175.083
56.62000 171.775
56.63000 172.900
56.64000 174.010
56.65000 173.678
56.66000 172.394
56.67000 171.140
56.68000 172.311
56.69000 174.485
56.70000 176.463
56.71000 175.780
56.72000 174.259
56.73000 172.478
56.74000 168.637
56.75000 164.354
56.76000 160.701
56.77000 160.037
56.78000 159.831
56.79000 159.551
56.80000 159.015
56.81000 158.457
56.82000 158.591
56.83000 160.369
56.84000 162.218
56.85000 163.375
56.86000 164.087
56.87000 164.596
56.88000 164.935
56.89000 165.086
56.90000 165.220
56.91000 162.432
56.92000 157.498
56.93000 152.653
56.94000 149.686
56.95000 147.735
56.96000 145.916
56.97000 146.218
56.98000 147.261
56.99000 148.012
57.00000 146.133
57.01000 143.625
57.02000 141.446
57.03000 146.462
57.04000 151.710
57.05000 157.099
57.06000 163.028
57.07000 169.010
57.08000 171.697
57.09000 165.713
57.10000 159.270
57.11000 155.079
57.12000 158.042
57.13000 160.324
57.14000 160.439
57.15000 157.862
57.16000 155.272
57.17000 150.223
57.18000 143.161
57.19000 136.188
57.20000 136.539
57.21000 140.853
57.22000 144.891
57.23000 143.554
57.24000 140.142
57.25000 137.244
57.26000 139.698
57.27000 143.573
57.28000 146.997
57.29000 148.168
57.30000 148.832
57.31000 150.167
57.32000 154.354
57.33000 158.864
57.34000 161.341
57.35000 157.901
57.36000 154.082
57.37000 151.506
57.38000 146.861
57.39000 143.360
57.40000 141.156
57.41000 140.747
57.42000 140.350
57.43000 141.000
57.44000 142.609
57.45000 144.206
57.46000 145.917
57.47000 147.666
57.48000 149.300
57.49000 148.151
57.50000 145.815
57.51000 143.673
57.52000 143.883
57.53000 144.788
57.54000 145.599
57.55000 145.519
57.56000 145.294
57.57000 144.699
57.58000 142.354
57.59000 139.784
57.60000 138.180
57.61000 139.693
57.62000 141.443
57.63000 142.665
57.64000 148.502
57.65000 153.039
57.66000 156.170
57.67000 157.136
57.68000 158.077
57.69000 155.613
57.70000 149.639
57.71000 143.695
57.72000 141.117
57.73000 140.848
57.74000 140.610
57.75000 141.276
57.76000 142.369
57.77000 143.531
57.78000 145.694
57.79000 148.184
57.80000 150.450
57.81000 145.434
57.82000 139.557
57.83000 134.606
57.84000 134.564
57.85000 135.241
57.86000 136.251
57.87000 138.447
57.88000 140.750
57.89000 142.410
57.90000 144.245
57.91000 145.658
57.92000 145.726
57.93000 143.497
57.94000 141.229
57.95000 140.623
57.96000 141.937
57.97000 143.250
57.98000 144.365
57.99000 145.322
58.00000 146.218
58.01000 144.624
58.02000 141.731
58.03000 139.091
58.04000 140.800
58.05000 144.082
58.06000 147.109
58.07000 147.207
58.08000 146.644
58.09000 146.147
58.10000 146.043
58.11000 146.005
58.12000 144.756
58.13000 138.706
58.14000 132.159
58.15000 127.299
58.16000 132.777
58.17000 137.491
58.18000 141.020
58.19000 142.313
58.20000 143.552
58.21000 143.644
58.22000 142.256
58.23000 140.863
58.24000 140.201
58.25000 140.163
58.26000 140.124
58.27000 139.972
58.28000 139.757
58.29000 139.649
58.30000 141.788
58.31000 144.825
58.32000 147.660
58.33000 145.541
58.34000 142.380
58.35000 139.456
58.36000 138.123
58.37000 137.084
58.38000 136.257
58.39000 136.364
58.40000 136.582
58.41000 136.748
58.42000 139.043
58.43000 140.966
58.44000 141.204
58.45000 137.920
58.46000 134.524
58.47000 133.134
58.48000 134.624
58.49000 136.138
58.50000 134.918
58.51000 131.087
58.52000 127.321
58.53000 128.950
58.54000 134.037
58.55000 138.910
58.56000 138.207
58.57000 135.039
58.58000 132.049
58.59000 130.843
58.60000 130.238
58.61000 130.042
58.62000 132.951
58.63000 136.507
58.64000 139.049
58.65000 136.596
58.66000 133.468
58.67000 131.018
58.68000 129.676
58.69000 128.676
58.70000 128.134
58.71000 128.652
58.72000 129.212
58.73000 128.351
58.74000 125.221
58.75000 122.061
58.76000 120.424
58.77000 127.202
58.78000 131.764
58.79000 134.523
58.80000 135.997
58.81000 137.361
58.82000 134.962
58.83000 130.723
58.84000 126.682
58.85000 125.748
58.86000 125.858
58.87000 126.080
58.88000 127.266
58.89000 128.675
58.90000 130.075
58.91000 131.417
58.92000 132.750
58.93000 133.819
58.94000 137.485
58.95000 140.650
58.96000 143.560
58.97000 145.816
58.98000 148.038
58.99000 146.711
59.00000 139.100
59.01000 131.369
59.02000 127.144
59.03000 126.070
59.04000 125.344
59.05000 126.962
59.06000 130.439
59.07000 133.887
59.08000 135.984
59.09000 137.349
59.10000 138.663
59.11000 139.183
59.12000 139.392
59.13000 139.299
59.14000 136.180
59.15000 132.282
59.16000 129.623
59.17000 134.665
59.18000 141.034
59.19000 146.259
59.20000 142.711
59.21000 139.018
59.22000 135.788
59.23000 133.868
59.24000 132.028
59.25000 130.814
59.26000 130.830
59.27000 130.877
59.28000 130.905
59.29000 131.547
59.30000 131.997
59.31000 132.053
59.32000 131.757
59.33000 131.492
59.34000 133.157
59.35000 135.980
59.36000 138.717
59.37000 139.580
59.38000 139.661
59.39000 139.836
59.40000 141.099
59.41000 142.673
59.42000 143.384
59.43000 138.031
59.44000 131.506
59.45000 126.040
59.46000 129.530
59.47000 133.358
59.48000 135.505
59.49000 132.388
59.50000 128.891
59.51000 128.161
59.52000 133.434
59.53000 138.913
59.54000 142.207
59.55000 132.224
59.56000 125.035
59.57000 122.824
59.58000 125.571
59.59000 128.328
59.60000 132.203
59.61000 136.821
59.62000 141.331
59.63000 140.407
59.64000 137.139
59.65000 134.074
59.66000 133.765
59.67000 134.331
59.68000 135.102
59.69000 137.509
59.70000 140.270
59.71000 142.628
59.72000 137.795
59.73000 132.868
59.74000 129.296
59.75000 130.428
59.76000 131.960
59.77000 134.096
59.78000 137.683
59.79000 141.332
59.80000 143.621
59.81000 137.525
59.82000 133.030
59.83000 131.870
59.84000 134.443
59.85000 137.013
59.86000 138.508
59.87000 139.209
59.88000 139.897
59.89000 140.034
59.90000 139.897
59.91000 139.671
59.92000 137.994
59.93000 135.809
59.94000 133.667
59.95000 131.931
59.96000 130.293
59.97000 128.868
59.98000 133.215
59.99000 137.711
60.00000 140.733
60.01000 138.076
60.02000 134.857
60.03000 132.806
60.04000 133.849
60.05000 135.058
60.06000 135.846
60.07000 132.076
60.08000 129.237
60.09000 127.795
60.10000 128.098
60.11000 128.410
60.12000 129.669
60.13000 131.712
60.14000 133.730
60.15000 132.984
60.16000 130.745
60.17000 128.733
60.18000 131.186
60.19000 135.373
60.20000 138.905
60.21000 135.518
60.22000 130.279
60.23000 125.646
60.24000 125.763
60.25000 126.602
60.26000 127.558
60.27000 129.014
60.28000 130.528
60.29000 131.834
60.30000 132.535
60.31000 133.197
60.32000 133.644
60.33000 136.677
60.34000 138.992
60.35000 139.876
60.36000 138.765
60.37000 137.641
60.38000 134.903
60.39000 130.675
60.40000 126.481
60.41000 127.274
60.42000 131.097
60.43000 134.783
60.44000 135.105
60.45000 133.981
60.46000 132.684
60.47000 129.251
60.48000 125.183
60.49000 121.530
60.50000 123.576
60.51000 126.371
60.52000 130.163
60.53000 138.716
60.54000 147.889
60.55000 153.978
60.56000 150.051
60.57000 145.355
60.58000 142.068
60.59000 140.410
60.60000 139.202
60.61000 137.573
60.62000 135.292
60.63000 133.003
60.64000 133.203
60.65000 135.988
60.66000 138.760
60.67000 139.438
60.68000 138.680
60.69000 137.880
60.70000 135.791
60.71000 133.090
60.72000 130.717
60.73000 133.111
60.74000 137.073
60.75000 140.684
60.76000 139.469
60.77000 137.432
60.78000 135.944
60.79000 137.386
60.80000 139.261
60.81000 140.440
60.82000 139.112
60.83000 137.560
60.84000 136.438
60.85000 136.125
60.86000 135.914
60.87000 136.402
60.88000 138.090
60.89000 139.798
60.90000 139.483
60.91000 136.812
60.92000 134.143
60.93000 133.191
60.94000 133.557
60.95000 133.893
60.96000 133.009
60.97000 131.484
60.98000 129.975
60.99000 128.741
61.00000 127.608
61.01000 126.563
61.02000 126.923
61.03000 127.562
61.04000 128.784
61.05000 133.499
61.06000 138.797
61.07000 143.642
61.08000 146.674
61.09000 149.517
61.10000 151.632
61.11000 148.964
61.12000 146.674
61.13000 143.547
61.14000 138.826
61.15000 134.067
61.16000 132.621
61.17000 135.485
61.18000 138.365
61.19000 138.737
61.20000 136.958
61.21000 135.201
61.22000 134.707
61.23000 134.948
61.24000 135.134
61.25000 134.141
61.26000 132.674
61.27000 131.303
61.28000 136.794
61.29000 143.505
61.30000 149.071
61.31000 146.873
61.32000 143.221
61.33000 140.079
61.34000 139.208
61.35000 138.608
61.36000 138.149
61.37000 138.926
61.38000 139.606
61.39000 141.233
61.40000 144.856
61.41000 148.544
61.42000 148.741
61.43000 143.884
61.44000 138.985
61.45000 138.314
61.46000 141.715
61.47000 145.103
61.48000 147.461
61.49000 149.153
61.50000 151.075
61.51000 159.156
61.52000 169.978
61.53000 180.201
61.54000 199.303
61.55000 219.347
61.56000 237.770
61.57000 243.742
61.58000 247.105
61.59000 252.416
61.60000 267.413
61.61000 283.731
61.62000 296.533
61.63000 299.243
61.64000 300.754
61.65000 303.660
61.66000 309.817
61.67000 316.107
61.68000 318.190
61.69000 313.505
61.70000 308.729
61.71000 306.246
61.72000 305.169
61.73000 304.430
61.74000 302.011
61.75000 298.384
61.76000 294.620
61.77000 286.134
61.78000 275.323
61.79000 265.008
61.80000 250.411
61.81000 235.507
61.82000 220.644
61.83000 206.150
61.84000 191.743
61.85000 178.557
61.86000 172.162
61.87000 166.817
61.88000 162.521
61.89000 160.618
61.90000 159.260
61.91000 157.326
61.92000 153.912
61.93000 150.422
61.94000 147.262
61.95000 144.691
61.96000 142.131
61.97000 140.727
61.98000 146.202
61.99000 149.970
62.00000 150.680
62.01000 148.945
62.02000 147.251
62.03000 147.494
62.04000 148.791
62.05000 150.041
62.06000 146.106
62.07000 140.579
62.08000 135.837
62.09000 139.044
62.10000 144.316
62.11000 148.663
62.12000 147.213
62.13000 144.755
62.14000 142.736
62.15000 142.513
62.16000 142.491
62.17000 141.978
62.18000 140.065
62.19000 138.066
62.20000 137.967
62.21000 141.618
62.22000 145.370
62.23000 147.532
62.24000 143.864
62.25000 141.274
62.26000 139.851
62.27000 139.471
62.28000 139.085
62.29000 138.262
62.30000 137.175
62.31000 136.121
62.32000 137.856
62.33000 140.605
62.34000 143.248
62.35000 144.640
62.36000 145.672
62.37000 146.229
62.38000 143.421
62.39000 139.957
62.40000 137.050
62.41000 141.332
62.42000 145.645
62.43000 149.871
62.44000 153.822
62.45000 157.753
62.46000 158.783
62.47000 153.478
62.48000 147.951
62.49000 144.618
62.50000 138.912
62.51000 134.833
62.52000 134.597
62.53000 138.220
62.54000 141.833
62.55000 144.316
62.56000 146.041
62.57000 147.726
62.58000 147.501
62.59000 146.441
62.60000 145.498
62.61000 146.162
62.62000 147.339
62.63000 148.156
62.64000 146.060
62.65000 143.330
62.66000 140.995
62.67000 141.187
62.68000 141.653
62.69000 142.266
62.70000 143.391
62.71000 144.561
62.72000 145.511
62.73000 145.930
62.74000 146.325
62.75000 146.574
62.76000 141.655
62.77000 138.039
62.78000 137.855
62.79000 141.543
62.80000 145.210
62.81000 144.342
62.82000 140.092
62.83000 135.914
62.84000 136.380
62.85000 139.123
62.86000 141.862
62.87000 144.561
62.88000 147.246
62.89000 149.520
62.90000 148.006
62.91000 145.573
62.92000 143.454
62.93000 143.346
62.94000 143.530
62.95000 143.664
62.96000 143.604
62.97000 143.524
62.98000 142.344
62.99000 138.225
63.00000 133.946
63.01000 131.148
63.02000 132.234
63.03000 133.095
63.04000 137.602
63.05000 146.707
63.06000 155.815
63.07000 159.346
63.08000 158.235
63.09000 157.138
63.10000 154.782
63.11000 151.790
63.12000 148.897
63.13000 147.993
63.14000 147.867
63.15000 147.794
63.16000 148.295
63.17000 148.950
63.18000 149.530
63.19000 152.887
63.20000 156.226
63.21000 157.523
63.22000 150.007
63.23000 141.477
63.24000 135.572
63.25000 137.422
63.26000 139.781
63.27000 141.380
63.28000 145.909
63.29000 149.351
63.30000 150.211
63.31000 147.444
63.32000 144.653
63.33000 145.101
63.34000 148.569
63.35000 152.009
63.36000 150.932
63.37000 147.092
63.38000 143.378
63.39000 142.775
63.40000 143.519
63.41000 144.302
63.42000 145.574
63.43000 146.992
63.44000 148.267
63.45000 149.237
63.46000 150.031
63.47000 150.317
63.48000 148.153
63.49000 145.667
63.50000 144.639
63.51000 148.378
63.52000 152.487
63.53000 155.370
63.54000 154.322
63.55000 153.415
63.56000 151.559
63.57000 148.222
63.58000 144.868
63.59000 147.759
63.60000 157.192
63.61000 166.583
63.62000 166.160
63.63000 158.984
63.64000 151.915
63.65000 148.219
63.66000 146.138
63.67000 144.244
63.68000 145.106
63.69000 146.882
63.70000 148.502
63.71000 153.689
63.72000 159.004
63.73000 163.032
63.74000 160.122
63.75000 156.178
63.76000 153.251
63.77000 154.013
63.78000 155.110
63.79000 155.904
63.80000 156.781
63.81000 157.457
63.82000 158.275
63.83000 159.336
63.84000 160.402
63.85000 160.561
63.86000 159.654
63.87000 158.748
63.88000 156.713
63.89000 153.819
63.90000 150.956
63.91000 149.389
63.92000 148.508
63.93000 147.658
63.94000 147.356
63.95000 147.254
63.96000 147.160
63.97000 147.781
63.98000 148.501
63.99000 149.138
64.00000 149.279
64.01000 149.336
64.02000 149.481
64.03000 149.978
64.04000 150.513
64.05000 150.911
64.06000 150.086
64.07000 149.388
64.08000 150.000
64.09000 153.126
64.10000 156.313
64.11000 159.580
64.12000 162.950
64.13000 166.318
64.14000 163.855
64.15000 156.356
64.16000 149.011
64.17000 150.877
64.18000 158.145
64.19000 165.119
64.20000 165.768
64.21000 163.853
64.22000 162.062
64.23000 158.418
64.24000 154.639
64.25000 151.669
64.26000 154.232
64.27000 157.838
64.28000 161.670
64.29000 166.512
64.30000 171.477
64.31000 175.280
64.32000 174.822
64.33000 174.226
64.34000 173.731
64.35000 173.451
64.36000 173.177
64.37000 169.954
64.38000 162.424
64.39000 154.858
64.40000 153.395
64.41000 157.860
64.42000 162.326
64.43000 166.780
64.44000 171.228
64.45000 175.517
64.46000 175.511
64.47000 173.580
64.48000 171.754
64.49000 168.759
64.50000 165.675
64.51000 163.043
64.52000 163.919
64.53000 165.535
64.54000 167.862
64.55000 173.750
64.56000 180.128
64.57000 185.141
64.58000 185.703
64.59000 185.859
64.60000 183.317
64.61000 174.442
64.62000 165.304
64.63000 163.161
64.64000 172.352
64.65000 181.700
64.66000 186.580
64.67000 185.701
64.68000 185.104
64.69000 184.492
64.70000 183.869
64.71000 183.243
64.72000 182.542
64.73000 181.804
64.74000 181.099
64.75000 182.616
64.76000 184.734
64.77000 186.639
64.78000 186.645
64.79000 186.204
64.80000 185.480
64.81000 183.170
64.82000 180.613
64.83000 178.555
64.84000 178.687
64.85000 178.965
64.86000 178.740
64.87000 177.211
64.88000 175.616
64.89000 175.166
64.90000 176.775
64.91000 178.425
64.92000 179.333
64.93000 182.188
64.94000 184.166
64.95000 189.211
64.96000 196.728
64.97000 204.074
64.98000 203.268
64.99000 197.986
65.00000 192.899
65.01000 196.295
65.02000 202.512
65.03000 208.178
65.04000 208.207
65.05000 206.760
65.06000 205.107
65.07000 202.146
65.08000 198.957
65.09000 196.332
65.10000 200.469
65.11000 204.485
65.12000 207.974
65.13000 209.952
65.14000 211.836
65.15000 214.731
65.16000 219.639
65.17000 224.602
65.18000 227.471
65.19000 228.824
65.20000 229.769
65.21000 233.582
65.22000 239.981
65.23000 246.337
65.24000 249.676
65.25000 251.179
65.26000 252.638
65.27000 255.461
65.28000 258.685
65.29000 261.737
65.30000 262.746
65.31000 263.161
65.32000 264.614
65.33000 273.485
65.34000 283.814
65.35000 292.492
65.36000 299.396
65.37000 304.961
65.38000 311.052
65.39000 318.815
65.40000 326.702
65.41000 332.281
65.42000 332.784
65.43000 333.106
65.44000 333.300
65.45000 345.854
65.46000 354.891
65.47000 361.929
65.48000 366.941
65.49000 371.969
65.50000 378.762
65.51000 386.748
65.52000 394.553
65.53000 406.376
65.54000 419.495
65.55000 432.470
65.56000 443.431
65.57000 453.743
65.58000 462.850
65.59000 462.154
65.60000 459.306
65.61000 456.867
65.62000 467.079
65.63000 477.234
65.64000 489.199
65.65000 507.535
65.66000 526.426
65.67000 549.435
65.68000 582.461
65.69000 615.938
65.70000 637.055
65.71000 696.150
65.72000 739.380
65.73000 792.777
65.74000 857.736
65.75000 922.697
65.76000 985.788
65.77000 1047.474
65.78000 1108.130
65.79000 1154.691
65.80000 1192.716
65.81000 1229.886
65.82000 1252.751
65.83000 1270.519
65.84000 1288.061
65.85000 1303.501
65.86000 1318.427
65.87000 1331.439
65.88000 1317.347
65.89000 1301.533
65.90000 1282.200
65.91000 1249.106
65.92000 1214.622
65.93000 1181.507
65.94000 1152.077
65.95000 1122.849
65.96000 1103.682
65.97000 997.097
65.98000 917.258
65.99000 839.009
66.00000 762.781
66.01000 686.584
66.02000 622.972
66.03000 569.917
66.04000 517.484
66.05000 476.590
66.06000 443.105
66.07000 410.788
66.08000 402.216
66.09000 403.003
66.10000 402.631
66.11000 389.775
66.12000 373.525
66.13000 359.121
66.14000 352.004
66.15000 346.994
66.16000 341.175
66.17000 331.830
66.18000 322.076
66.19000 317.175
66.20000 326.713
66.21000 337.210
66.22000 344.347
66.23000 351.880
66.24000 357.513
66.25000 363.049
66.26000 368.447
66.27000 373.845
66.28000 385.577
66.29000 403.260
66.30000 420.808
66.31000 437.900
66.32000 454.420
66.33000 470.606
66.34000 478.351
66.35000 482.418
66.36000 486.148
66.37000 485.623
66.38000 483.816
66.39000 482.190
66.40000 491.623
66.41000 501.875
66.42000 509.146
66.43000 501.954
66.44000 492.843
66.45000 487.245
66.46000 493.218
66.47000 500.100
66.48000 504.940
66.49000 490.784
66.50000 479.499
66.51000 466.045
66.52000 449.177
66.53000 432.268
66.54000 417.501
66.55000 404.996
66.56000 392.547
66.57000 381.948
66.58000 372.744
66.59000 363.659
66.60000 358.449
66.61000 355.106
66.62000 351.606
66.63000 345.758
66.64000 339.125
66.65000 333.071
66.66000 330.062
66.67000 328.009
66.68000 327.326
66.69000 334.090
66.70000 341.974
66.71000 348.308
66.72000 348.984
66.73000 349.140
66.74000 349.253
66.75000 344.146
66.76000 340.026
66.77000 337.156
66.78000 336.468
66.79000 335.819
66.80000 338.490
66.81000 345.089
66.82000 351.682
66.83000 350.740
66.84000 343.948
66.85000 337.353
66.86000 339.300
66.87000 345.802
66.88000 351.831
66.89000 349.405
66.90000 343.855
66.91000 338.723
66.92000 347.103
66.93000 357.713
66.94000 366.451
66.95000 363.761
66.96000 359.133
66.97000 355.589
66.98000 356.445
66.99000 357.769
67.00000 358.758
67.01000 352.186
67.02000 346.715
67.03000 345.299
67.04000 351.717
67.05000 358.332
67.06000 366.735
67.07000 377.501
67.08000 388.271
67.09000 388.342
67.10000 379.087
67.11000 369.981
67.12000 370.037
67.13000 375.505
67.14000 380.826
67.15000 382.931
67.16000 383.721
67.17000 384.460
67.18000 386.106
67.19000 387.834
67.20000 389.626
67.21000 391.858
67.22000 394.174
67.23000 396.901
67.24000 401.488
67.25000 406.301
67.26000 409.996
67.27000 403.598
67.28000 397.978
67.29000 395.105
67.30000 398.106
67.31000 401.302
67.32000 406.189
67.33000 413.563
67.34000 420.960
67.35000 419.959
67.36000 410.731
67.37000 401.655
67.38000 406.795
67.39000 421.250
67.40000 435.219
67.41000 435.753
67.42000 430.220
67.43000 424.986
67.44000 420.023
67.45000 415.538
67.46000 412.259
67.47000 418.424
67.48000 426.600
67.49000 434.444
67.50000 440.617
67.51000 446.559
67.52000 451.237
67.53000 457.447
67.54000 462.525
67.55000 467.061
67.56000 470.319
67.57000 473.523
67.58000 473.288
67.59000 467.441
67.60000 461.513
67.61000 458.406
67.62000 467.411
67.63000 473.478
67.64000 473.413
67.65000 468.879
67.66000 464.673
67.67000 472.241
67.68000 485.691
67.69000 498.539
67.70000 498.504
67.71000 494.325
67.72000 490.830
67.73000 493.467
67.74000 497.560
67.75000 501.672
67.76000 505.893
67.77000 510.132
67.78000 513.550
67.79000 511.123
67.80000 508.692
67.81000 509.561
67.82000 519.053
67.83000 528.995
67.84000 539.144
67.85000 549.667
67.86000 560.197
67.87000 566.016
67.88000 568.228
67.89000 569.730
67.90000 564.444
67.91000 553.641
67.92000 543.115
67.93000 546.002
67.94000 556.307
67.95000 566.238
67.96000 569.819
67.97000 570.900
67.98000 571.958
67.99000 572.778
68.00000 573.535
68.01000 574.451
68.02000 576.389
68.03000 578.507
68.04000 580.253
68.05000 588.300
68.06000 595.503
68.07000 604.021
68.08000 616.337
68.09000 628.893
68.10000 632.467
68.11000 618.047
68.12000 603.124
68.13000 594.466
68.14000 605.778
68.15000 613.802
68.16000 622.490
68.17000 631.782
68.18000 641.094
68.19000 651.787
68.20000 663.326
68.21000 674.534
68.22000 671.343
68.23000 662.523
68.24000 655.094
68.25000 664.401
68.26000 678.606
68.27000 691.424
68.28000 694.235
68.29000 695.063
68.30000 695.760
68.31000 706.284
68.32000 716.107
68.33000 722.878
68.34000 719.882
68.35000 716.153
68.36000 717.708
68.37000 730.972
68.38000 744.661
68.39000 752.968
68.40000 751.251
68.41000 749.949
68.42000 762.453
68.43000 789.062
68.44000 815.531
68.45000 826.146
68.46000 825.974
68.47000 825.806
68.48000 833.949
68.49000 845.490
68.50000 857.218
68.51000 871.594
68.52000 886.829
68.53000 903.407
68.54000 931.009
68.55000 961.052
68.56000 986.817
68.57000 1003.773
68.58000 1017.018
68.59000 1040.019
68.60000 1097.631
68.61000 1158.289
68.62000 1212.437
68.63000 1250.637
68.64000 1288.108
68.65000 1311.813
68.66000 1412.655
68.67000 1486.676
68.68000 1553.831
68.69000 1613.116
68.70000 1672.404
68.71000 1734.518
68.72000 1798.772
68.73000 1861.978
68.74000 1931.060
68.75000 2000.869
68.76000 2071.759
68.77000 2160.980
68.78000 2256.781
68.79000 2352.933
68.80000 2452.389
68.81000 2552.660
68.82000 2640.190
68.83000 2795.637
68.84000 2938.168
68.85000 3102.031
68.86000 3349.911
68.87000 3606.369
68.88000 3939.127
68.89000 4478.581
68.90000 5029.601
68.91000 5391.924
68.92000 7301.845
68.93000 8734.319
68.94000 10997.500
68.95000 14324.801
68.96000 17657.885
68.97000 22047.072
68.98000 27329.164
68.99000 32550.994
69.00000 38282.074
69.01000 44161.238
69.02000 49994.211
69.03000 54873.371
69.04000 59373.914
69.05000 63703.797
69.06000 66174.984
69.07000 68137.141
69.08000 69878.383
69.09000 70754.039
69.10000 71374.602
69.11000 72011.180
69.12000 72717.930
69.13000 73432.906
69.14000 74170.906
69.15000 74977.875
69.16000 75789.477
69.17000 76342.680
69.18000 76172.398
69.19000 76028.453
69.20000 74922.234
69.21000 72443.070
69.22000 69953.336
69.23000 66543.602
69.24000 62262.207
69.25000 58012.395
69.26000 54175.863
69.27000 50661.117
69.28000 47185.418
69.29000 44714.965
69.30000 42685.715
69.31000 40706.129
69.32000 39358.871
69.33000 38203.652
69.34000 37162.773
69.35000 36107.113
69.36000 35178.262
69.37000 34130.527
69.38000 32501.293
69.39000 30794.221
69.40000 28835.914
69.41000 26043.645
69.42000 23185.035
69.43000 21170.314
69.44000 17313.719
69.45000 14333.616
69.46000 11768.740
69.47000 9862.030
69.48000 7963.609
69.49000 6475.587
69.50000 5424.710
69.51000 4378.375
69.52000 3663.726
69.53000 3188.357
69.54000 2718.954
69.55000 2446.980
69.56000 2270.835
69.57000 2097.588
69.58000 1968.045
69.59000 1853.200
69.60000 1748.260
69.61000 1663.974
69.62000 1593.336
69.63000 1523.165
69.64000 1455.548
69.65000 1388.318
69.66000 1326.694
69.67000 1285.708
69.68000 1246.638
69.69000 1218.231
69.70000 1178.009
69.71000 1146.617
69.72000 1116.968
69.73000 1090.384
69.74000 1063.856
69.75000 1035.665
69.76000 1005.490
69.77000 975.369
69.78000 965.360
69.79000 971.157
69.80000 976.413
69.81000 957.669
69.82000 926.032
69.83000 894.994
69.84000 874.824
69.85000 858.697
69.86000 843.770
69.87000 844.184
69.88000 848.086
69.89000 848.137
69.90000 824.471
69.91000 796.750
69.92000 773.674
69.93000 769.601
69.94000 767.569
69.95000 766.048
69.96000 756.393
69.97000 748.480
69.98000 743.199
69.99000 743.042
70.00000 743.016
