20.00000 570.324
20.01000 573.510
20.02000 577.151
20.03000 579.422
20.04000 576.217
20.05000 572.442
20.06000 569.634
20.07000 554.614
20.08000 542.384
20.09000 540.349
20.10000 557.720
20.11000 575.560
20.12000 585.107
20.13000 583.871
20.14000 582.589
20.15000 580.522
20.16000 577.786
20.17000 575.092
20.18000 574.866
20.19000 576.075
20.20000 577.190
20.21000 576.288
20.22000 574.575
20.23000 572.974
20.24000 566.492
20.25000 559.381
20.26000 553.883
20.27000 559.306
20.28000 566.774
20.29000 572.310
20.30000 569.248
20.31000 565.159
20.32000 562.032
20.33000 566.878
20.34000 571.135
20.35000 576.420
20.36000 583.870
20.37000 591.390
20.38000 588.319
20.39000 569.913
20.40000 551.381
20.41000 546.433
20.42000 554.566
20.43000 562.613
20.44000 563.148
20.45000 558.834
20.46000 554.751
20.47000 556.835
20.48000 561.662
20.49000 566.222
20.50000 567.227
20.51000 567.143
20.52000 566.812
20.53000 564.574
20.54000 561.937
20.55000 558.999
20.56000 554.561
20.57000 549.918
20.58000 546.276
20.59000 553.507
20.60000 559.996
20.61000 563.247
20.62000 558.956
20.63000 554.357
20.64000 549.816
20.65000 545.369
20.66000 540.923
20.67000 538.612
20.68000 553.812
20.69000 564.082
20.70000 574.130
20.71000 584.019
20.72000 593.463
20.73000 587.621
20.74000 574.254
20.75000 561.502
20.76000 553.285
20.77000 547.095
20.78000 541.538
20.79000 541.541
20.80000 542.842
20.81000 545.438
20.82000 555.237
20.83000 566.148
20.84000 574.916
20.85000 574.387
20.86000 573.243
20.87000 570.880
20.88000 565.377
20.89000 559.715
20.90000 557.880
20.91000 562.870
20.92000 567.993
20.93000 570.803
20.94000 571.865
20.95000 572.587
20.96000 571.022
20.97000 567.630
20.98000 564.338
20.99000 565.710
21.00000 569.622
21.01000 573.387
21.02000 569.325
21.03000 562.743
21.04000 556.721
21.05000 556.372
21.06000 557.497
21.07000 558.787
21.08000 561.109
21.09000 563.610
21.10000 565.666
21.11000 549.666
21.12000 534.899
21.13000 526.439
21.14000 535.943
21.15000 546.551
21.16000 550.847
21.17000 542.686
21.18000 534.191
21.19000 529.297
21.20000 538.699
21.21000 545.333
21.22000 548.041
21.23000 547.238
21.24000 546.437
21.25000 545.751
21.26000 545.135
21.27000 544.537
21.28000 548.280
21.29000 553.546
21.30000 558.351
21.31000 557.729
21.32000 555.542
21.33000 552.828
21.34000 546.381
21.35000 539.207
21.36000 533.189
21.37000 535.685
21.38000 538.651
21.39000 542.026
21.40000 546.688
21.41000 551.445
21.42000 552.165
21.43000 544.072
21.44000 535.671
21.45000 530.605
21.46000 554.641
21.47000 571.955
21.48000 575.121
21.49000 564.078
21.50000 553.164
21.51000 555.762
21.52000 567.413
21.53000 578.796
21.54000 576.477
21.55000 568.202
21.56000 560.378
21.57000 558.792
21.58000 559.200
21.59000 560.104
21.60000 565.009
21.61000 570.785
21.62000 575.725
21.63000 583.783
21.64000 590.951
21.65000 596.085
21.66000 594.108
21.67000 591.519
21.68000 590.058
21.69000 591.320
21.70000 592.702
21.71000 593.571
21.72000 598.874
21.73000 602.760
21.74000 604.362
21.75000 603.391
21.76000 602.440
21.77000 605.828
21.78000 612.451
21.79000 618.960
21.80000 614.799
21.81000 605.513
21.82000 597.470
21.83000 609.912
21.84000 629.598
21.85000 647.958
21.86000 654.082
21.87000 657.236
21.88000 659.982
21.89000 672.187
21.90000 683.912
21.91000 695.874
21.92000 708.755
21.93000 721.727
21.94000 733.906
21.95000 743.969
21.96000 753.916
21.97000 760.421
21.98000 766.023
21.99000 770.124
22.00000 773.357
22.01000 775.498
22.02000 777.632
22.03000 778.654
22.04000 778.750
22.05000 778.844
22.06000 779.185
22.07000 779.653
22.08000 780.182
22.09000 781.934
22.10000 784.165
22.11000 786.563
22.12000 790.738
22.13000 795.393
22.14000 799.513
22.15000 809.566
22.16000 819.190
22.17000 821.770
22.18000 793.957
22.19000 762.647
22.20000 737.072
22.21000 728.435
22.22000 720.908
22.23000 715.803
22.24000 700.338
22.25000 688.575
22.26000 681.276
22.27000 680.247
22.28000 679.261
22.29000 677.402
22.30000 674.731
22.31000 672.080
22.32000 663.143
22.33000 650.492
22.34000 638.116
22.35000 632.553
22.36000 629.937
22.37000 626.802
22.38000 617.204
22.39000 605.672
22.40000 595.305
22.41000 589.722
22.42000 585.684
22.43000 581.966
22.44000 579.790
22.45000 577.817
22.46000 575.983
22.47000 574.600
22.48000 573.253
22.49000 572.307
22.50000 571.431
22.51000 570.770
22.52000 566.460
22.53000 556.455
22.54000 546.382
22.55000 546.463
22.56000 557.176
22.57000 567.841
22.58000 568.475
22.59000 562.199
22.60000 556.024
22.61000 553.043
22.62000 551.590
22.63000 550.051
22.64000 547.238
22.65000 544.003
22.66000 541.052
22.67000 543.352
22.68000 546.444
22.69000 549.173
22.70000 549.944
22.71000 550.423
22.72000 548.249
22.73000 536.460
22.74000 523.796
22.75000 514.629
22.76000 526.193
22.77000 535.831
22.78000 540.161
22.79000 535.300
22.80000 530.276
22.81000 529.112
22.82000 532.479
22.83000 535.845
22.84000 537.457
22.85000 537.707
22.86000 537.852
22.87000 533.503
22.88000 526.777
22.89000 520.042
22.90000 513.164
22.91000 506.232
22.92000 499.828
22.93000 509.473
22.94000 521.758
22.95000 531.549
22.96000 526.250
22.97000 518.415
22.98000 513.533
22.99000 520.549
23.00000 528.817
23.01000 534.981
23.02000 528.357
23.03000 522.620
23.04000 516.387
23.05000 509.204
23.06000 501.998
23.07000 500.696
23.08000 507.134
23.09000 513.601
23.10000 519.255
23.11000 524.197
23.12000 529.044
23.13000 528.195
23.14000 524.009
23.15000 519.863
23.16000 516.603
23.17000 513.702
23.18000 510.989
23.19000 516.084
23.20000 522.696
23.21000 528.361
23.22000 527.560
23.23000 525.537
23.24000 522.353
23.25000 513.957
23.26000 504.932
23.27000 498.018
23.28000 509.448
23.29000 519.483
23.30000 525.018
23.31000 521.009
23.32000 516.688
23.33000 515.497
23.34000 518.874
23.35000 522.290
23.36000 523.806
23.37000 523.476
23.38000 523.129
23.39000 521.262
23.40000 518.408
23.41000 515.496
23.42000 511.052
23.43000 505.921
23.44000 501.070
23.45000 503.867
23.46000 508.616
23.47000 511.993
23.48000 504.730
23.49000 495.221
23.50000 488.292
23.51000 494.290
23.52000 502.065
23.53000 508.176
23.54000 506.962
23.55000 505.508
23.56000 504.878
23.57000 506.180
23.58000 507.562
23.59000 510.205
23.60000 514.889
23.61000 519.602
23.62000 522.061
23.63000 515.072
23.64000 510.345
23.65000 506.210
23.66000 502.505
23.67000 498.923
23.68000 499.682
23.69000 502.594
23.70000 505.374
23.71000 507.474
23.72000 509.208
23.73000 510.683
23.74000 509.867
23.75000 508.510
23.76000 507.743
23.77000 510.279
23.78000 513.328
23.79000 515.783
23.80000 519.363
23.81000 522.356
23.82000 521.320
23.83000 509.836
23.84000 497.816
23.85000 489.855
23.86000 489.186
23.87000 488.663
23.88000 488.375
23.89000 500.568
23.90000 508.962
23.91000 508.345
23.92000 500.466
23.93000 492.757
23.94000 493.139
23.95000 497.962
23.96000 502.607
23.97000 505.913
23.98000 508.538
23.99000 510.905
24.00000 510.630
24.01000 509.663
24.02000 509.376
24.03000 513.385
24.04000 518.148
24.05000 522.067
24.06000 520.682
24.07000 519.061
24.08000 517.904
24.09000 518.078
24.10000 518.334
24.11000 516.086
24.12000 508.857
24.13000 501.492
24.14000 497.234
24.15000 497.471
24.16000 497.659
24.17000 502.310
24.18000 510.985
24.19000 519.516
24.20000 518.168
24.21000 510.813
24.22000 503.674
24.23000 498.985
24.24000 495.513
24.25000 492.523
24.26000 495.250
24.27000 499.638
24.28000 503.011
24.29000 499.132
24.30000 493.828
24.31000 489.372
24.32000 495.944
24.33000 502.582
24.34000 505.412
24.35000 496.149
24.36000 485.991
24.37000 481.388
24.38000 489.005
24.39000 497.058
24.40000 501.929
24.41000 493.348
24.42000 487.135
24.43000 484.401
24.44000 485.189
24.45000 485.999
24.46000 489.137
24.47000 493.847
24.48000 498.450
24.49000 497.863
24.50000 494.988
24.51000 492.267
24.52000 491.694
24.53000 491.813
24.54000 490.988
24.55000 482.486
24.56000 472.298
24.57000 463.573
24.58000 477.001
24.59000 491.022
24.60000 501.240
24.61000 498.071
24.62000 493.736
24.63000 487.920
24.64000 478.503
24.65000 468.923
24.66000 462.881
24.67000 477.033
24.68000 487.514
24.69000 490.084
24.70000 483.663
24.71000 477.254
24.72000 475.208
24.73000 476.437
24.74000 477.647
24.75000 482.405
24.76000 488.771
24.77000 494.882
24.78000 496.708
24.79000 497.008
24.80000 496.645
24.81000 490.101
24.82000 482.045
24.83000 475.021
24.84000 475.046
24.85000 476.046
24.86000 475.930
24.87000 471.451
24.88000 466.532
24.89000 462.601
24.90000 461.329
24.91000 460.204
24.92000 459.466
24.93000 458.423
24.94000 457.650
24.95000 462.896
24.96000 475.789
24.97000 488.688
24.98000 490.646
24.99000 483.430
25.00000 476.299
25.01000 474.875
25.02000 476.653
25.03000 478.685
25.04000 485.870
25.05000 495.084
25.06000 503.089
25.07000 498.066
25.08000 489.503
25.09000 481.913
25.10000 480.616
25.11000 480.490
25.12000 478.383
25.13000 467.669
25.14000 455.955
25.15000 447.731
25.16000 449.890
25.17000 452.737
25.18000 454.673
25.19000 451.883
25.20000 449.694
25.21000 449.209
25.22000 451.137
25.23000 453.083
25.24000 455.996
25.25000 459.819
25.26000 463.612
25.27000 467.921
25.28000 472.478
25.29000 476.978
25.30000 480.062
25.31000 482.530
25.32000 484.516
25.33000 480.459
25.34000 474.580
25.35000 469.289
25.36000 471.271
25.37000 474.312
25.38000 476.068
25.39000 471.593
25.40000 466.291
25.41000 462.619
25.42000 464.316
25.43000 466.435
25.44000 467.925
25.45000 467.970
25.46000 467.961
25.47000 467.891
25.48000 467.724
25.49000 467.556
25.50000 467.066
25.51000 466.237
25.52000 465.411
25.53000 460.923
25.54000 453.942
25.55000 447.178
25.56000 447.446
25.57000 451.102
25.58000 454.588
25.59000 455.552
25.60000 455.675
25.61000 455.787
25.62000 462.453
25.63000 469.695
25.64000 474.770
25.65000 468.071
25.66000 459.602
25.67000 454.244
25.68000 460.248
25.69000 467.296
25.70000 472.409
25.71000 470.719
25.72000 469.167
25.73000 472.089
25.74000 482.814
25.75000 493.680
25.76000 497.288
25.77000 492.308
25.78000 487.323
25.79000 483.438
25.80000 480.428
25.81000 477.464
25.82000 476.489
25.83000 476.575
25.84000 476.549
25.85000 474.545
25.86000 471.810
25.87000 469.280
25.88000 472.380
25.89000 476.449
25.90000 479.436
25.91000 475.819
25.92000 471.082
25.93000 466.010
25.94000 459.572
25.95000 452.989
25.96000 448.072
25.97000 452.970
25.98000 457.239
25.99000 460.239
26.00000 460.787
26.01000 461.273
26.02000 458.731
26.03000 452.190
26.04000 445.634
26.05000 443.259
26.06000 444.533
26.07000 445.781
26.08000 445.500
26.09000 444.317
26.10000 443.546
26.11000 451.811
26.12000 463.766
26.13000 474.954
26.14000 474.838
26.15000 471.836
26.16000 468.320
26.17000 461.258
26.18000 453.522
26.19000 447.942
26.20000 452.107
26.21000 457.459
26.22000 461.568
26.23000 465.765
26.24000 469.087
26.25000 467.795
26.26000 456.646
26.27000 445.169
26.28000 441.523
26.29000 449.389
26.30000 457.357
26.31000 461.225
26.32000 461.077
26.33000 460.907
26.34000 458.692
26.35000 455.135
26.36000 451.794
26.37000 454.375
26.38000 459.631
26.39000 464.602
26.40000 462.591
26.41000 458.734
26.42000 455.498
26.43000 457.115
26.44000 459.765
26.45000 462.639
26.46000 466.645
26.47000 470.809
26.48000 474.087
26.49000 463.161
26.50000 453.460
26.51000 447.419
26.52000 450.029
26.53000 453.003
26.54000 454.128
26.55000 452.236
26.56000 450.301
26.57000 449.287
26.58000 458.908
26.59000 465.421
26.60000 470.837
26.61000 475.454
26.62000 480.016
26.63000 482.600
26.64000 484.196
26.65000 485.721
26.66000 473.179
26.67000 456.993
26.68000 442.351
26.69000 441.523
26.70000 443.972
26.71000 447.464
26.72000 456.858
26.73000 467.177
26.74000 475.497
26.75000 464.132
26.76000 453.354
26.77000 446.161
26.78000 448.334
26.79000 450.995
26.80000 452.628
26.81000 452.398
26.82000 452.131
26.83000 451.983
26.84000 462.538
26.85000 469.820
26.86000 470.245
26.87000 465.100
26.88000 460.019
26.89000 457.984
26.90000 457.635
26.91000 457.298
26.92000 457.988
26.93000 459.006
26.94000 459.659
26.95000 456.547
26.96000 452.442
26.97000 448.430
26.98000 445.012
26.99000 441.700
27.00000 438.969
27.01000 434.523
27.02000 430.705
27.03000 427.609
27.04000 426.595
27.05000 425.713
27.06000 428.997
27.07000 440.623
27.08000 452.482
27.09000 459.361
27.10000 456.422
27.11000 454.320
27.12000 456.400
27.13000 462.282
27.14000 468.030
27.15000 464.326
27.16000 454.830
27.17000 445.608
27.18000 441.987
27.19000 440.800
27.20000 439.649
27.21000 438.924
27.22000 438.324
27.23000 438.342
27.24000 442.815
27.25000 448.170
27.26000 452.675
27.27000 447.497
27.28000 442.148
27.29000 437.738
27.30000 436.334
27.31000 435.154
27.32000 435.502
27.33000 439.231
27.34000 443.083
27.35000 445.420
27.36000 437.348
27.37000 431.510
27.38000 429.957
27.39000 432.781
27.40000 435.611
27.41000 439.206
27.42000 443.320
27.43000 447.343
27.44000 446.312
27.45000 443.055
27.46000 439.645
27.47000 434.064
27.48000 427.779
27.49000 422.133
27.50000 421.731
27.51000 422.488
27.52000 423.138
27.53000 425.334
27.54000 427.379
27.55000 429.648
27.56000 432.708
27.57000 435.837
27.58000 438.616
27.59000 440.533
27.60000 442.411
27.61000 443.599
27.62000 440.030
27.63000 437.386
27.64000 435.008
27.65000 432.936
27.66000 430.849
27.67000 425.719
27.68000 418.283
27.69000 410.969
27.70000 414.028
27.71000 422.188
27.72000 430.040
27.73000 432.694
27.74000 433.483
27.75000 434.353
27.76000 435.985
27.77000 437.804
27.78000 439.393
27.79000 433.088
27.80000 426.587
27.81000 422.430
27.82000 427.502
27.83000 433.515
27.84000 436.992
27.85000 433.600
27.86000 429.823
27.87000 427.341
27.88000 416.146
27.89000 407.756
27.90000 409.875
27.91000 425.449
27.92000 441.051
27.93000 443.789
27.94000 435.655
27.95000 427.614
27.96000 423.827
27.97000 422.512
27.98000 421.419
27.99000 424.893
28.00000 430.179
28.01000 435.083
28.02000 435.827
28.03000 435.433
28.04000 435.082
28.05000 428.553
28.06000 421.910
28.07000 417.974
28.08000 425.898
28.09000 435.212
28.10000 439.491
28.11000 428.681
28.12000 416.856
28.13000 408.797
28.14000 417.524
28.15000 424.432
28.16000 427.866
28.17000 426.343
28.18000 424.784
28.19000 424.229
28.20000 424.627
28.21000 425.022
28.22000 427.563
28.23000 431.406
28.24000 435.108
28.25000 435.220
28.26000 433.756
28.27000 432.471
28.28000 433.477
28.29000 435.177
28.30000 436.709
28.31000 431.103
28.32000 424.895
28.33000 420.849
28.34000 427.385
28.35000 435.337
28.36000 440.540
28.37000 436.620
28.38000 431.975
28.39000 428.701
28.40000 426.866
28.41000 425.518
28.42000 425.780
28.43000 428.595
28.44000 431.443
28.45000 434.607
28.46000 438.107
28.47000 441.593
28.48000 433.256
28.49000 416.733
28.50000 400.740
28.51000 402.271
28.52000 412.305
28.53000 421.644
28.54000 420.509
28.55000 415.852
28.56000 411.598
28.57000 417.677
28.58000 425.188
28.59000 431.947
28.60000 434.592
28.61000 436.614
28.62000 437.543
28.63000 434.455
28.64000 430.994
28.65000 428.478
28.66000 429.107
28.67000 429.710
28.68000 428.389
28.69000 423.689
28.70000 418.926
28.71000 416.158
28.72000 415.771
28.73000 415.389
28.74000 421.564
28.75000 432.846
28.76000 443.794
28.77000 439.999
28.78000 428.288
28.79000 417.084
28.80000 415.088
28.81000 416.517
28.82000 417.840
28.83000 415.700
28.84000 412.979
28.85000 409.942
28.86000 404.960
28.87000 399.644
28.88000 396.298
28.89000 401.008
28.90000 406.582
28.91000 410.755
28.92000 409.170
28.93000 407.664
28.94000 407.496
28.95000 409.931
28.96000 412.433
28.97000 414.276
28.98000 415.242
28.99000 416.203
29.00000 418.094
29.01000 420.800
29.02000 423.471
29.03000 423.945
29.04000 423.113
29.05000 422.258
29.06000 420.892
29.07000 419.316
29.08000 417.840
29.09000 412.817
29.10000 407.332
29.11000 403.193
29.12000 408.414
29.13000 415.431
29.14000 420.769
29.15000 418.463
29.16000 415.216
29.17000 412.720
29.18000 416.887
29.19000 420.561
29.20000 423.115
29.21000 423.260
29.22000 423.323
29.23000 421.065
29.24000 415.371
29.25000 409.645
29.26000 410.135
29.27000 416.764
29.28000 423.359
29.29000 426.604
29.30000 427.637
29.31000 428.667
29.32000 429.609
29.33000 430.510
29.34000 431.364
29.35000 426.552
29.36000 420.483
29.37000 415.415
29.38000 418.257
29.39000 422.794
29.40000 426.379
29.41000 425.113
29.42000 423.169
29.43000 421.635
29.44000 432.449
29.45000 441.955
29.46000 445.924
29.47000 436.717
29.48000 426.945
29.49000 419.767
29.50000 416.853
29.51000 414.001
29.52000 412.501
29.53000 414.447
29.54000 415.751
29.55000 414.245
29.56000 410.674
29.57000 407.221
29.58000 408.055
29.59000 411.045
29.60000 413.903
29.61000 415.133
29.62000 415.751
29.63000 416.332
29.64000 416.594
29.65000 416.779
29.66000 417.922
29.67000 424.528
29.68000 431.999
29.69000 438.032
29.70000 433.093
29.71000 428.204
29.72000 424.084
29.73000 421.985
29.74000 419.993
29.75000 422.024
29.76000 431.386
29.77000 440.902
29.78000 446.179
29.79000 432.847
29.80000 423.618
29.81000 420.388
29.82000 422.069
29.83000 423.797
29.84000 427.917
29.85000 433.368
29.86000 438.625
29.87000 436.734
29.88000 432.364
29.89000 427.936
29.90000 422.909
29.91000 417.723
29.92000 414.257
29.93000 421.854
29.94000 431.422
29.95000 439.319
29.96000 448.828
29.97000 456.810
29.98000 462.711
29.99000 462.554
30.00000 462.011
30.01000 458.182
30.02000 447.727
30.03000 437.083
30.04000 430.889
30.05000 439.446
30.06000 445.523
30.07000 450.067
30.08000 453.206
30.09000 456.270
30.10000 453.862
30.11000 448.076
30.12000 442.454
30.13000 442.623
30.14000 445.129
30.15000 447.750
30.16000 451.778
30.17000 456.221
30.18000 459.126
30.19000 450.844
30.20000 440.328
30.21000 431.468
30.22000 429.909
30.23000 429.394
30.24000 431.764
30.25000 443.436
30.26000 455.813
30.27000 466.010
30.28000 471.342
30.29000 476.494
30.30000 479.630
30.31000 464.253
30.32000 453.123
30.33000 450.338
30.34000 456.146
30.35000 461.904
30.36000 461.593
30.37000 457.124
30.38000 452.752
30.39000 447.766
30.40000 442.703
30.41000 438.034
30.42000 439.004
30.43000 441.816
30.44000 443.887
30.45000 439.821
30.46000 434.386
30.47000 429.720
30.48000 433.577
30.49000 437.894
30.50000 440.418
30.51000 436.538
30.52000 432.089
30.53000 429.028
30.54000 429.391
30.55000 429.912
30.56000 430.243
30.57000 445.268
30.58000 456.351
30.59000 458.561
30.60000 450.520
30.61000 442.491
30.62000 440.096
30.63000 442.001
30.64000 443.875
30.65000 446.975
30.66000 450.597
30.67000 454.337
30.68000 460.124
30.69000 466.651
30.70000 472.400
30.71000 470.770
30.72000 467.306
30.73000 464.279
30.74000 474.726
30.75000 485.581
30.76000 491.217
30.77000 476.152
30.78000 458.952
30.79000 451.847
30.80000 472.280
30.81000 494.273
30.82000 508.772
30.83000 505.082
30.84000 502.045
30.85000 497.825
30.86000 492.078
30.87000 486.338
30.88000 489.356
30.89000 499.833
30.90000 510.194
30.91000 516.947
30.92000 521.508
30.93000 526.579
30.94000 542.340
30.95000 562.374
30.96000 582.657
30.97000 605.673
30.98000 629.444
30.99000 650.560
31.00000 662.022
31.01000 670.406
31.02000 678.132
31.03000 682.949
31.04000 687.422
31.05000 697.990
31.06000 726.955
31.07000 757.171
31.08000 777.816
31.09000 818.645
31.10000 849.664
31.11000 893.354
31.12000 955.255
31.13000 1017.301
31.14000 1084.567
31.15000 1156.819
31.16000 1228.556
31.17000 1309.687
31.18000 1395.441
31.19000 1481.496
31.20000 1575.420
31.21000 1672.822
31.22000 1771.895
31.23000 1892.488
31.24000 2019.664
31.25000 2134.367
31.26000 2273.055
31.27000 2399.213
31.28000 2523.551
31.29000 2638.926
31.30000 2753.090
31.31000 2860.586
31.32000 2945.791
31.33000 3029.203
31.34000 3088.120
31.35000 3211.479
31.36000 3307.094
31.37000 3378.075
31.38000 3409.731
31.39000 3440.877
31.40000 3448.593
31.41000 3431.152
31.42000 3413.773
31.43000 3360.833
31.44000 3283.329
31.45000 3206.360
31.46000 3147.389
31.47000 3097.216
31.48000 3043.806
31.49000 2940.987
31.50000 2821.434
31.51000 2712.092
31.52000 2584.988
31.53000 2468.346
31.54000 2352.577
31.55000 2241.623
31.56000 2131.405
31.57000 2018.503
31.58000 1895.647
31.59000 1771.856
31.60000 1681.663
31.61000 1553.634
31.62000 1453.583
31.63000 1363.325
31.64000 1290.401
31.65000 1217.809
31.66000 1160.551
31.67000 1121.731
31.68000 1083.019
31.69000 1032.448
31.70000 972.750
31.71000 913.326
31.72000 866.336
31.73000 826.072
31.74000 786.896
31.75000 767.759
31.76000 756.128
31.77000 745.354
31.78000 719.974
31.79000 693.754
31.80000 668.944
31.81000 652.892
31.82000 638.349
31.83000 622.514
31.84000 601.355
31.85000 579.618
31.86000 563.316
31.87000 541.495
31.88000 524.191
31.89000 511.815
31.90000 509.095
31.91000 506.629
31.92000 504.941
31.93000 504.297
31.94000 503.658
31.95000 499.266
31.96000 491.554
31.97000 483.799
31.98000 473.220
31.99000 460.948
32.00000 449.148
32.01000 448.000
32.02000 451.267
32.03000 454.328
32.04000 447.950
32.05000 439.685
32.06000 431.316
32.07000 422.221
32.08000 412.985
32.09000 406.947
32.10000 415.586
32.11000 426.049
32.12000 434.110
32.13000 443.362
32.14000 450.758
32.15000 453.426
32.16000 445.846
32.17000 437.914
32.18000 430.725
32.19000 424.646
32.20000 418.578
32.21000 414.833
32.22000 413.401
32.23000 411.976
32.24000 411.281
32.25000 411.071
32.26000 410.834
32.27000 409.821
32.28000 408.452
32.29000 407.155
32.30000 412.339
32.31000 419.007
32.32000 424.039
32.33000 416.030
32.34000 405.203
32.35000 396.184
32.36000 396.441
32.37000 398.010
32.38000 399.249
32.39000 401.406
32.40000 403.201
32.41000 402.902
32.42000 397.586
32.43000 392.051
32.44000 388.473
32.45000 388.137
32.46000 387.849
32.47000 387.698
32.48000 397.004
32.49000 403.305
32.50000 405.258
32.51000 403.995
32.52000 402.802
32.53000 404.207
32.54000 406.927
32.55000 409.530
32.56000 405.450
32.57000 399.467
32.58000 394.269
32.59000 396.242
32.60000 399.941
32.61000 402.425
32.62000 397.909
32.63000 392.275
32.64000 387.718
32.65000 385.660
32.66000 384.187
32.67000 385.294
32.68000 393.238
32.69000 401.549
32.70000 405.238
32.71000 400.440
32.72000 395.459
32.73000 392.687
32.74000 395.198
32.75000 396.939
32.76000 396.261
32.77000 393.586
32.78000 390.971
32.79000 391.348
32.80000 393.405
32.81000 395.389
32.82000 395.510
32.83000 394.941
32.84000 394.398
32.85000 394.123
32.86000 393.919
32.87000 394.725
32.88000 402.069
32.89000 410.588
32.90000 417.631
32.91000 409.105
32.92000 400.613
32.93000 395.069
32.94000 398.169
32.95000 401.828
32.96000 403.450
32.97000 400.935
32.98000 398.299
32.99000 396.760
33.00000 397.861
33.01000 398.648
33.02000 397.009
33.03000 393.131
33.04000 389.269
33.05000 386.659
33.06000 384.829
33.07000 383.049
33.08000 378.483
33.09000 373.003
33.10000 368.078
33.11000 369.977
33.12000 373.904
33.13000 376.735
33.14000 371.525
33.15000 364.696
33.16000 358.934
33.17000 358.671
33.18000 359.048
33.19000 360.307
33.20000 364.427
33.21000 368.767
33.22000 369.423
33.23000 361.801
33.24000 353.868
33.25000 349.025
33.26000 348.294
33.27000 347.806
33.28000 348.678
33.29000 350.965
33.30000 353.215
33.31000 350.852
33.32000 345.305
33.33000 339.876
33.34000 341.669
33.35000 346.683
33.36000 351.440
33.37000 352.455
33.38000 352.241
33.39000 351.954
33.40000 351.067
33.41000 350.046
33.42000 349.168
33.43000 345.596
33.44000 342.237
33.45000 341.957
33.46000 352.756
33.47000 364.551
33.48000 372.209
33.49000 369.586
33.50000 366.479
33.51000 364.502
33.52000 357.717
33.53000 352.727
33.54000 349.237
33.55000 347.493
33.56000 345.763
33.57000 346.868
33.58000 350.153
33.59000 353.387
33.60000 356.337
33.61000 359.053
33.62000 361.585
33.63000 360.930
33.64000 359.115
33.65000 357.595
33.66000 358.900
33.67000 360.912
33.68000 362.672
33.69000 349.499
33.70000 336.074
33.71000 326.043
33.72000 329.580
33.73000 334.532
33.74000 338.752
33.75000 340.965
33.76000 343.063
33.77000 344.450
33.78000 346.949
33.79000 348.813
33.80000 346.524
33.81000 338.832
33.82000 331.125
33.83000 329.025
33.84000 331.741
33.85000 334.427
33.86000 336.885
33.87000 339.156
33.88000 341.158
33.89000 337.417
33.90000 331.364
33.91000 326.533
33.92000 335.295
33.93000 347.835
33.94000 358.987
33.95000 348.439
33.96000 335.756
33.97000 326.553
33.98000 332.841
33.99000 340.981
34.00000 347.250
34.01000 347.832
34.02000 348.023
34.03000 348.153
34.04000 340.272
34.05000 334.177
34.06000 332.429
34.07000 336.975
34.08000 341.573
34.09000 341.371
34.10000 336.548
34.11000 331.758
34.12000 333.556
34.13000 339.512
34.14000 345.310
34.15000 346.907
34.16000 346.635
34.17000 345.930
34.18000 339.607
34.19000 331.552
34.20000 324.280
34.21000 328.411
34.22000 334.141
34.23000 339.845
34.24000 345.423
34.25000 350.984
34.26000 354.163
34.27000 349.321
34.28000 343.826
34.29000 339.936
34.30000 342.664
34.31000 344.943
34.32000 344.606
34.33000 340.062
34.34000 335.463
34.35000 331.487
34.36000 328.188
34.37000 324.902
34.38000 328.202
34.39000 336.153
34.40000 343.882
34.41000 344.024
34.42000 340.431
34.43000 337.198
34.44000 339.547
34.45000 343.799
34.46000 347.692
34.47000 339.951
34.48000 330.645
34.49000 323.453
34.50000 328.022
34.51000 334.405
34.52000 337.350
34.53000 327.448
34.54000 316.327
34.55000 308.208
34.56000 318.620
34.57000 327.371
34.58000 332.952
34.59000 332.883
34.60000 332.704
34.61000 332.129
34.62000 331.076
34.63000 330.024
34.64000 329.818
34.65000 330.286
34.66000 330.767
34.67000 331.841
34.68000 333.238
34.69000 334.503
34.70000 333.301
34.71000 331.169
34.72000 329.192
34.73000 334.554
34.74000 341.098
34.75000 346.170
34.76000 342.028
34.77000 336.283
34.78000 330.884
34.79000 326.917
34.80000 323.108
34.81000 320.246
34.82000 330.746
34.83000 339.598
34.84000 342.848
34.85000 335.040
34.86000 326.935
34.87000 324.286
34.88000 329.014
34.89000 333.780
34.90000 334.904
34.91000 332.772
34.92000 330.539
34.93000 321.530
34.94000 308.432
34.95000 296.018
34.96000 299.337
34.97000 309.219
34.98000 318.490
34.99000 321.501
35.00000 322.600
35.01000 323.966
35.02000 327.223
35.03000 330.849
35.04000 332.758
35.05000 326.725
35.06000 319.696
35.07000 314.270
35.08000 314.228
35.09000 314.508
35.10000 316.488
35.11000 322.181
35.12000 328.004
35.13000 330.816
35.14000 329.100
35.15000 327.338
35.16000 326.455
35.17000 315.802
35.18000 308.731
35.19000 305.483
35.20000 304.796
35.21000 304.202
35.22000 306.288
35.23000 309.610
35.24000 312.760
35.25000 313.249
35.26000 312.915
35.27000 313.499
35.28000 321.472
35.29000 331.054
35.30000 337.825
35.31000 330.055
35.32000 320.212
35.33000 312.422
35.34000 318.667
35.35000 324.656
35.36000 329.885
35.37000 333.279
35.38000 336.593
35.39000 336.051
35.40000 329.075
35.41000 322.000
35.42000 318.248
35.43000 313.275
35.44000 309.904
35.45000 308.658
35.46000 308.999
35.47000 309.368
35.48000 310.848
35.49000 312.894
35.50000 314.853
35.51000 308.873
35.52000 300.684
35.53000 294.023
35.54000 301.446
35.55000 312.287
35.56000 320.545
35.57000 313.809
35.58000 304.658
35.59000 297.244
35.60000 297.998
35.61000 299.277
35.62000 300.531
35.63000 301.722
35.64000 302.910
35.65000 304.102
35.66000 305.305
35.67000 306.507
35.68000 307.179
35.69000 306.996
35.70000 306.864
35.71000 304.775
35.72000 301.058
35.73000 297.572
35.74000 306.086
35.75000 321.382
35.76000 336.149
35.77000 332.384
35.78000 322.010
35.79000 311.983
35.80000 305.656
35.81000 300.327
35.82000 295.821
35.83000 296.692
35.84000 298.538
35.85000 300.067
35.86000 304.097
35.87000 307.660
35.88000 309.438
35.89000 305.942
35.90000 302.100
35.91000 298.792
35.92000 296.574
35.93000 294.389
35.94000 293.109
35.95000 301.705
35.96000 307.806
35.97000 311.335
35.98000 312.467
35.99000 313.506
36.00000 307.354
36.01000 296.697
36.02000 286.331
36.03000 289.629
36.04000 298.391
36.05000 306.686
36.06000 309.164
36.07000 309.902
36.08000 309.631
36.09000 301.886
36.10000 292.625
36.11000 284.801
36.12000 293.080
36.13000 301.772
36.14000 307.998
36.15000 306.162
36.16000 303.700
36.17000 300.669
36.18000 296.351
36.19000 291.985
36.20000 289.311
36.21000 298.154
36.22000 304.583
36.23000 306.745
36.24000 304.437
36.25000 302.124
36.26000 299.090
36.27000 295.555
36.28000 292.094
36.29000 299.236
36.30000 310.973
36.31000 321.798
36.32000 319.215
36.33000 312.189
36.34000 306.067
36.35000 307.577
36.36000 310.816
36.37000 313.605
36.38000 308.147
36.39000 302.484
36.40000 298.473
36.41000 300.459
36.42000 302.989
36.43000 305.046
36.44000 305.917
36.45000 306.731
36.46000 307.250
36.47000 305.257
36.48000 303.775
36.49000 301.478
36.50000 298.223
36.51000 294.973
36.52000 293.169
36.53000 292.487
36.54000 291.815
36.55000 295.508
36.56000 301.329
36.57000 306.729
36.58000 304.709
36.59000 299.967
36.60000 295.553
36.61000 294.313
36.62000 293.873
36.63000 293.488
36.64000 298.037
36.65000 302.651
36.66000 306.414
36.67000 306.745
36.68000 306.716
36.69000 306.667
36.70000 306.563
36.71000 306.456
36.72000 306.385
36.73000 295.217
36.74000 286.766
36.75000 284.408
36.76000 290.036
36.77000 295.699
36.78000 301.195
36.79000 306.547
36.80000 311.843
36.81000 309.896
36.82000 303.840
36.83000 298.364
36.84000 305.405
36.85000 317.521
36.86000 328.197
36.87000 322.674
36.88000 312.614
36.89000 303.658
36.90000 301.889
36.91000 301.531
36.92000 301.458
36.93000 302.662
36.94000 304.019
36.95000 305.168
36.96000 305.678
36.97000 306.144
36.98000 306.463
36.99000 303.733
37.00000 301.612
37.01000 298.027
37.02000 292.307
37.03000 286.570
37.04000 288.385
37.05000 297.534
37.06000 306.623
37.07000 310.135
37.08000 310.021
37.09000 309.906
37.10000 309.739
37.11000 309.548
37.12000 309.055
37.13000 304.581
37.14000 298.873
37.15000 293.713
37.16000 298.704
37.17000 304.979
37.18000 309.796
37.19000 307.305
37.20000 303.809
37.21000 300.324
37.22000 296.878
37.23000 293.434
37.24000 290.990
37.25000 286.775
37.26000 283.513
37.27000 283.913
37.28000 290.248
37.29000 296.665
37.30000 302.112
37.31000 306.498
37.32000 310.868
37.33000 309.952
37.34000 305.256
37.35000 300.510
37.36000 293.963
37.37000 286.523
37.38000 279.647
37.39000 281.602
37.40000 286.591
37.41000 291.163
37.42000 289.578
37.43000 286.876
37.44000 284.751
37.45000 285.861
37.46000 287.474
37.47000 289.582
37.48000 293.558
37.49000 297.713
37.50000 300.753
37.51000 296.362
37.52000 292.679
37.53000 290.286
37.54000 290.212
37.55000 290.185
37.56000 289.183
37.57000 286.990
37.58000 284.797
37.59000 286.196
37.60000 290.472
37.61000 294.710
37.62000 297.156
37.63000 298.617
37.64000 299.890
37.65000 297.580
37.66000 293.908
37.67000 290.500
37.68000 294.401
37.69000 299.640
37.70000 303.778
37.71000 300.967
37.72000 296.937
37.73000 294.714
37.74000 300.052
37.75000 306.226
37.76000 310.875
37.77000 300.919
37.78000 292.417
37.79000 287.285
37.80000 288.856
37.81000 290.611
37.82000 290.769
37.83000 288.750
37.84000 286.719
37.85000 288.040
37.86000 292.378
37.87000 296.692
37.88000 299.261
37.89000 300.769
37.90000 302.067
37.91000 298.466
37.92000 292.806
37.93000 287.493
37.94000 289.261
37.95000 292.750
37.96000 295.857
37.97000 296.244
37.98000 296.096
37.99000 296.212
38.00000 297.561
38.01000 299.066
38.02000 300.230
38.03000 303.085
38.04000 305.450
38.05000 304.903
38.06000 297.952
38.07000 290.773
38.08000 289.327
38.09000 296.568
38.10000 303.899
38.11000 307.588
38.12000 318.128
38.13000 325.080
38.14000 322.318
38.15000 312.997
38.16000 303.832
38.17000 299.289
38.18000 296.894
38.19000 294.623
38.20000 295.316
38.21000 296.836
38.22000 298.708
38.23000 303.444
38.24000 308.808
38.25000 314.504
38.26000 321.932
38.27000 329.609
38.28000 335.695
38.29000 332.605
38.30000 329.478
38.31000 328.040
38.32000 330.710
38.33000 333.564
38.34000 340.968
38.35000 356.022
38.36000 371.198
38.37000 379.275
38.38000 384.297
38.39000 387.701
38.40000 388.393
38.41000 387.048
38.42000 385.930
38.43000 393.674
38.44000 405.973
38.45000 417.753
38.46000 432.685
38.47000 447.658
38.48000 463.002
38.49000 481.804
38.50000 501.453
38.51000 521.962
38.52000 547.504
38.53000 573.864
38.54000 595.253
38.55000 615.621
38.56000 632.140
38.57000 651.726
38.58000 679.556
38.59000 707.841
38.60000 739.931
38.61000 779.110
38.62000 818.450
38.63000 840.498
38.64000 870.220
38.65000 890.839
38.66000 910.422
38.67000 929.134
38.68000 947.772
38.69000 962.414
38.70000 974.782
38.71000 986.728
38.72000 989.036
38.73000 987.633
38.74000 986.825
38.75000 992.432
38.76000 999.781
38.77000 1003.100
38.78000 979.834
38.79000 951.711
38.80000 928.392
38.81000 900.911
38.82000 877.809
38.83000 856.499
38.84000 840.515
38.85000 824.884
38.86000 805.654
38.87000 779.004
38.88000 752.130
38.89000 736.333
38.90000 680.663
38.91000 641.206
38.92000 607.212
38.93000 578.351
38.94000 549.534
38.95000 524.340
38.96000 501.432
38.97000 479.138
38.98000 462.873
38.99000 449.884
39.00000 436.956
39.01000 424.776
39.02000 412.822
39.03000 401.150
39.04000 391.585
39.05000 382.450
39.06000 374.722
39.07000 357.783
39.08000 342.583
39.09000 332.175
39.10000 337.554
39.11000 344.173
39.12000 344.836
39.13000 331.917
39.14000 318.471
39.15000 310.212
39.16000 313.028
39.17000 315.142
39.18000 314.143
39.19000 309.854
39.20000 305.590
39.21000 304.664
39.22000 306.080
39.23000 307.468
39.24000 309.169
39.25000 310.951
39.26000 312.174
39.27000 305.098
39.28000 295.251
39.29000 286.649
39.30000 288.666
39.31000 293.108
39.32000 296.936
39.33000 290.166
39.34000 283.075
39.35000 277.440
39.36000 277.127
39.37000 277.302
39.38000 276.992
39.39000 275.458
39.40000 273.865
39.41000 272.846
39.42000 275.225
39.43000 277.002
39.44000 280.078
39.45000 284.690
39.46000 289.276
39.47000 286.089
39.48000 276.831
39.49000 267.709
39.50000 266.378
39.51000 269.115
39.52000 271.704
39.53000 271.645
39.54000 270.609
39.55000 269.741
39.56000 270.536
39.57000 271.752
39.58000 272.819
39.59000 277.152
39.60000 281.349
39.61000 283.593
39.62000 277.909
39.63000 271.382
39.64000 268.520
39.65000 275.877
39.66000 283.838
39.67000 289.127
39.68000 283.755
39.69000 279.584
39.70000 277.785
39.71000 279.120
39.72000 280.465
39.73000 277.924
39.74000 271.991
39.75000 266.119
39.76000 265.199
39.77000 267.161
39.78000 268.946
39.79000 266.871
39.80000 263.220
39.81000 260.390
39.82000 266.894
39.83000 276.030
39.84000 284.175
39.85000 285.696
39.86000 285.923
39.87000 285.588
39.88000 282.713
39.89000 279.528
39.90000 276.756
39.91000 275.256
39.92000 273.845
39.93000 272.875
39.94000 284.330
39.95000 293.237
39.96000 294.749
39.97000 285.386
39.98000 275.928
39.99000 272.086
40.00000 273.746
40.01000 275.395
40.02000 273.552
40.03000 269.480
40.04000 265.568
40.05000 266.046
40.06000 268.507
40.07000 271.015
40.08000 274.165
40.09000 277.516
40.10000 280.548
40.11000 280.552
40.12000 279.988
40.13000 279.069
40.14000 276.357
40.15000 273.397
40.16000 271.070
40.17000 270.912
40.18000 270.934
40.19000 270.950
40.20000 271.839
40.21000 272.543
40.22000 272.000
40.23000 269.421
40.24000 266.812
40.25000 263.469
40.26000 259.318
40.27000 255.181
40.28000 251.510
40.29000 248.209
40.30000 245.089
40.31000 248.464
40.32000 255.084
40.33000 261.117
40.34000 257.849
40.35000 251.361
40.36000 245.409
40.37000 253.374
40.38000 263.413
40.39000 270.698
40.40000 262.394
40.41000 251.641
40.42000 244.366
40.43000 250.280
40.44000 257.472
40.45000 262.746
40.46000 261.271
40.47000 259.861
40.48000 258.113
40.49000 255.754
40.50000 253.383
40.51000 252.558
40.52000 253.637
40.53000 254.720
40.54000 254.052
40.55000 251.971
40.56000 249.930
40.57000 249.888
40.58000 250.949
40.59000 252.050
40.60000 253.894
40.61000 256.022
40.62000 257.999
40.63000 255.260
40.64000 251.669
40.65000 248.869
40.66000 251.120
40.67000 254.262
40.68000 257.295
40.69000 259.866
40.70000 262.385
40.71000 264.285
40.72000 261.486
40.73000 259.060
40.74000 254.611
40.75000 246.107
40.76000 237.490
40.77000 236.027
40.78000 244.385
40.79000 252.801
40.80000 258.874
40.81000 262.816
40.82000 266.668
40.83000 264.125
40.84000 257.665
40.85000 251.444
40.86000 250.885
40.87000 252.724
40.88000 254.451
40.89000 258.944
40.90000 263.784
40.91000 267.771
40.92000 265.618
40.93000 262.249
40.94000 259.187
40.95000 257.575
40.96000 256.147
40.97000 255.041
40.98000 255.143
40.99000 255.296
41.00000 255.592
41.01000 256.203
41.02000 256.826
41.03000 254.859
41.04000 248.939
41.05000 242.976
41.06000 239.963
41.07000 242.088
41.08000 243.525
41.09000 246.749
41.10000 251.189
41.11000 255.417
41.12000 253.269
41.13000 248.137
41.14000 243.264
41.15000 247.536
41.16000 254.214
41.17000 259.689
41.18000 255.283
41.19000 248.691
41.20000 243.552
41.21000 246.059
41.22000 249.676
41.23000 252.548
41.24000 253.306
41.25000 253.767
41.26000 254.552
41.27000 256.129
41.28000 257.743
41.29000 258.298
41.30000 257.058
41.31000 255.790
41.32000 255.112
41.33000 252.157
41.34000 250.142
41.35000 248.316
41.36000 246.632
41.37000 244.996
41.38000 245.219
41.39000 246.406
41.40000 247.543
41.41000 248.176
41.42000 248.599
41.43000 248.804
41.44000 246.966
41.45000 244.624
41.46000 242.640
41.47000 242.777
41.48000 243.261
41.49000 243.654
41.50000 246.182
41.51000 248.422
41.52000 249.673
41.53000 248.243
41.54000 246.664
41.55000 246.349
41.56000 248.409
41.57000 250.523
41.58000 251.713
41.59000 245.299
41.60000 240.831
41.61000 238.717
41.62000 238.593
41.63000 238.509
41.64000 240.672
41.65000 244.124
41.66000 247.460
41.67000 245.512
41.68000 241.696
41.69000 238.357
41.70000 240.224
41.71000 243.516
41.72000 246.173
41.73000 244.602
41.74000 242.252
41.75000 240.300
41.76000 244.625
41.77000 248.810
41.78000 252.053
41.79000 252.472
41.80000 252.701
41.81000 253.971
41.82000 257.402
41.83000 260.899
41.84000 262.962
41.85000 251.655
41.86000 243.603
41.87000 240.641
41.88000 242.501
41.89000 244.327
41.90000 243.335
41.91000 240.553
41.92000 237.843
41.93000 241.228
41.94000 247.002
41.95000 251.956
41.96000 246.480
41.97000 237.836
41.98000 231.032
41.99000 238.112
42.00000 248.054
42.01000 256.477
42.02000 249.539
42.03000 242.004
42.04000 237.302
42.05000 242.001
42.06000 247.448
42.07000 248.181
42.08000 238.088
42.09000 227.567
42.10000 221.086
42.11000 236.621
42.12000 247.967
42.13000 249.263
42.14000 239.858
42.15000 230.494
42.16000 227.167
42.17000 228.105
42.18000 229.024
42.19000 231.643
42.20000 234.956
42.21000 238.201
42.22000 240.421
42.23000 242.296
42.24000 243.692
42.25000 240.958
42.26000 237.274
42.27000 234.095
42.28000 229.326
42.29000 225.074
42.30000 222.502
42.31000 226.117
42.32000 230.306
42.33000 234.619
42.34000 239.243
42.35000 243.884
42.36000 246.861
42.37000 243.488
42.38000 240.942
42.39000 237.664
42.40000 233.511
42.41000 229.367
42.42000 228.388
42.43000 229.901
42.44000 231.392
42.45000 230.383
42.46000 228.100
42.47000 226.159
42.48000 230.421
42.49000 236.990
42.50000 243.532
42.51000 249.802
42.52000 256.003
42.53000 261.449
42.54000 248.597
42.55000 234.862
42.56000 224.279
42.57000 226.589
42.58000 230.284
42.59000 233.816
42.60000 236.893
42.61000 239.942
42.62000 241.974
42.63000 235.024
42.64000 229.708
42.65000 229.134
42.66000 234.872
42.67000 240.638
42.68000 243.254
42.69000 243.099
42.70000 242.946
42.71000 242.408
42.72000 241.658
42.73000 240.918
42.74000 240.388
42.75000 239.946
42.76000 239.386
42.77000 237.463
42.78000 235.154
42.79000 233.094
42.80000 231.741
42.81000 230.682
42.82000 230.884
42.83000 236.834
42.84000 243.491
42.85000 247.014
42.86000 240.795
42.87000 233.880
42.88000 229.110
42.89000 236.113
42.90000 241.674
42.91000 244.427
42.92000 243.019
42.93000 241.574
42.94000 236.973
42.95000 229.256
42.96000 221.587
42.97000 221.879
42.98000 227.350
42.99000 232.893
43.00000 240.457
43.01000 248.940
43.02000 256.318
43.03000 248.767
43.04000 236.514
43.05000 225.417
43.06000 229.192
43.07000 235.330
43.08000 240.356
43.09000 239.723
43.10000 238.297
43.11000 235.657
43.12000 228.841
43.13000 221.672
43.14000 216.563
43.15000 223.745
43.16000 229.622
43.17000 230.578
43.18000 223.440
43.19000 216.185
43.20000 217.908
43.21000 229.594
43.22000 241.248
43.23000 242.405
43.24000 235.907
43.25000 229.468
43.26000 225.185
43.27000 221.988
43.28000 219.169
43.29000 222.433
43.30000 227.818
43.31000 232.762
43.32000 234.001
43.33000 234.316
43.34000 234.109
43.35000 230.921
43.36000 227.261
43.37000 224.225
43.38000 223.569
43.39000 223.147
43.40000 222.837
43.41000 221.686
43.42000 220.761
43.43000 220.930
43.44000 223.091
43.45000 225.294
43.46000 225.974
43.47000 224.762
43.48000 223.547
43.49000 225.571
43.50000 230.232
43.51000 234.807
43.52000 235.177
43.53000 233.203
43.54000 230.993
43.55000 224.161
43.56000 215.546
43.57000 207.539
43.58000 213.523
43.59000 222.283
43.60000 229.291
43.61000 225.048
43.62000 218.800
43.63000 213.551
43.64000 212.544
43.65000 212.016
43.66000 211.617
43.67000 222.190
43.68000 231.031
43.69000 235.732
43.70000 232.083
43.71000 228.195
43.72000 228.135
43.73000 233.372
43.74000 238.642
43.75000 237.762
43.76000 231.250
43.77000 224.769
43.78000 220.478
43.79000 217.538
43.80000 214.946
43.81000 220.730
43.82000 230.085
43.83000 238.882
43.84000 238.114
43.85000 234.838
43.86000 231.953
43.87000 231.915
43.88000 232.445
43.89000 232.823
43.90000 232.479
43.91000 232.041
43.92000 231.701
43.93000 230.476
43.94000 229.448
43.95000 227.409
43.96000 223.114
43.97000 218.736
43.98000 216.306
43.99000 216.872
44.00000 217.471
44.01000 217.775
44.02000 215.480
44.03000 213.968
44.04000 215.363
44.05000 218.751
44.06000 222.122
44.07000 224.961
44.08000 227.549
44.09000 230.007
44.10000 228.127
44.11000 225.081
44.12000 222.268
44.13000 221.388
44.14000 220.939
44.15000 220.832
44.16000 222.542
44.17000 224.518
44.18000 226.090
44.19000 221.854
44.20000 218.023
44.21000 216.557
44.22000 220.922
44.23000 225.557
44.24000 230.656
44.25000 236.547
44.26000 242.451
44.27000 245.618
44.28000 239.236
44.29000 234.880
44.30000 232.521
44.31000 231.687
44.32000 230.883
44.33000 231.307
44.34000 232.371
44.35000 233.391
44.36000 235.856
44.37000 238.644
44.38000 241.600
44.39000 246.148
44.40000 251.090
44.41000 254.985
44.42000 252.652
44.43000 249.290
44.44000 246.552
44.45000 245.832
44.46000 245.414
44.47000 244.709
44.48000 243.222
44.49000 241.691
44.50000 242.720
44.51000 248.588
44.52000 254.570
44.53000 257.946
44.54000 257.912
44.55000 257.877
44.56000 257.342
44.57000 256.380
44.58000 255.409
44.59000 253.985
44.60000 252.299
44.61000 250.669
44.62000 249.764
44.63000 249.183
44.64000 248.888
44.65000 251.728
44.66000 255.434
44.67000 258.794
44.68000 259.839
44.69000 260.453
44.70000 260.964
44.71000 257.070
44.72000 253.415
44.73000 251.169
44.74000 253.179
44.75000 255.477
44.76000 259.700
44.77000 267.948
44.78000 276.322
44.79000 281.276
44.80000 297.667
44.81000 309.314
44.82000 313.039
44.83000 309.195
44.84000 305.413
44.85000 306.929
44.86000 311.838
44.87000 316.621
44.88000 327.313
44.89000 339.999
44.90000 352.411
44.91000 361.281
44.92000 369.068
44.93000 376.812
44.94000 384.228
44.95000 391.575
44.96000 397.809
44.97000 392.651
44.98000 387.037
44.99000 383.764
45.00000 388.318
45.01000 393.502
45.02000 397.542
45.03000 398.936
45.04000 400.223
45.05000 401.018
45.06000 421.920
45.07000 437.123
45.08000 440.028
45.09000 429.729
45.10000 419.488
45.11000 418.131
45.12000 423.101
45.13000 427.974
45.14000 426.861
45.15000 422.972
45.16000 419.185
45.17000 416.940
45.18000 415.217
45.19000 413.829
45.20000 415.346
45.21000 417.538
45.22000 419.432
45.23000 418.670
45.24000 417.677
45.25000 413.917
45.26000 399.895
45.27000 384.909
45.28000 372.760
45.29000 367.863
45.30000 363.329
45.31000 360.412
45.32000 361.442
45.33000 362.248
45.34000 359.932
45.35000 353.859
45.36000 347.769
45.37000 338.785
45.38000 327.505
45.39000 316.385
45.40000 309.711
45.41000 305.565
45.42000 301.660
45.43000 302.178
45.44000 304.355
45.45000 306.194
45.46000 304.664
45.47000 302.264
45.48000 300.153
45.49000 296.911
45.50000 293.955
45.51000 291.106
45.52000 288.703
45.53000 286.348
45.54000 284.271
45.55000 282.978
45.56000 281.732
45.57000 280.901
45.58000 278.674
45.59000 276.997
45.60000 274.268
45.61000 270.125
45.62000 265.977
45.63000 264.745
45.64000 266.099
45.65000 267.441
45.66000 268.052
45.67000 268.222
45.68000 268.255
45.69000 265.178
45.70000 260.814
45.71000 256.800
45.72000 256.872
45.73000 258.114
45.74000 259.223
45.75000 251.109
45.76000 242.487
45.77000 235.565
45.78000 236.447
45.79000 238.298
45.80000 238.979
45.81000 235.996
45.82000 232.749
45.83000 230.503
45.84000 230.768
45.85000 231.033
45.86000 233.188
45.87000 238.165
45.88000 243.169
45.89000 243.817
45.90000 240.125
45.91000 236.455
45.92000 232.093
45.93000 227.335
45.94000 222.701
45.95000 221.592
45.96000 222.098
45.97000 222.893
45.98000 227.632
45.99000 233.621
46.00000 239.051
46.01000 231.551
46.02000 222.472
46.03000 215.179
46.04000 217.060
46.05000 220.236
46.06000 221.870
46.07000 218.154
46.08000 213.984
46.09000 211.004
46.10000 215.522
46.11000 219.219
46.12000 219.523
46.13000 214.205
46.14000 208.803
46.15000 206.282
46.16000 206.983
46.17000 207.684
46.18000 209.873
46.19000 213.137
46.20000 216.284
46.21000 215.063
46.22000 211.627
46.23000 208.291
46.24000 206.574
46.25000 205.425
46.26000 204.369
46.27000 202.502
46.28000 200.661
46.29000 199.522
46.30000 202.428
46.31000 205.979
46.32000 208.523
46.33000 207.184
46.34000 205.460
46.35000 204.191
46.36000 206.230
46.37000 207.946
46.38000 206.959
46.39000 201.010
46.40000 194.954
46.41000 192.899
46.42000 195.847
46.43000 198.808
46.44000 199.037
46.45000 197.018
46.46000 195.046
46.47000 195.502
46.48000 197.319
46.49000 199.270
46.50000 203.875
46.51000 209.511
46.52000 214.755
46.53000 215.777
46.54000 215.680
46.55000 215.547
46.56000 215.188
46.57000 214.788
46.58000 214.237
46.59000 213.039
46.60000 211.767
46.61000 210.804
46.62000 207.598
46.63000 204.968
46.64000 202.698
46.65000 201.160
46.66000 199.644
46.67000 198.475
46.68000 197.791
46.69000 197.110
46.70000 195.498
46.71000 193.027
46.72000 190.592
46.73000 190.895
46.74000 192.899
46.75000 194.818
46.76000 194.633
46.77000 193.546
46.78000 192.522
46.79000 192.615
46.80000 193.004
46.81000 193.302
46.82000 192.936
46.83000 192.436
46.84000 192.762
46.85000 197.027
46.86000 201.805
46.87000 205.520
46.88000 198.597
46.89000 192.438
46.90000 189.300
46.91000 192.954
46.92000 196.862
46.93000 199.799
46.94000 201.228
46.95000 202.640
46.96000 203.359
46.97000 197.793
46.98000 194.096
46.99000 195.051
47.00000 199.220
47.01000 203.215
47.02000 201.750
47.03000 197.693
47.04000 193.836
47.05000 194.432
47.06000 196.337
47.07000 198.158
47.08000 199.268
47.09000 200.218
47.10000 200.961
47.11000 200.601
47.12000 200.078
47.13000 199.661
47.14000 196.393
47.15000 193.550
47.16000 191.530
47.17000 191.554
47.18000 191.675
47.19000 192.446
47.20000 194.335
47.21000 196.243
47.22000 197.270
47.23000 188.987
47.24000 183.336
47.25000 182.651
47.26000 185.786
47.27000 188.850
47.28000 189.037
47.29000 187.711
47.30000 186.438
47.31000 187.368
47.32000 188.987
47.33000 190.933
47.34000 196.025
47.35000 201.904
47.36000 206.057
47.37000 199.845
47.38000 191.906
47.39000 185.433
47.40000 188.643
47.41000 192.092
47.42000 194.776
47.43000 195.358
47.44000 195.819
47.45000 194.970
47.46000 191.627
47.47000 188.223
47.48000 186.295
47.49000 185.712
47.50000 185.313
47.51000 186.420
47.52000 188.820
47.53000 191.162
47.54000 190.131
47.55000 187.136
47.56000 184.239
47.57000 185.710
47.58000 188.763
47.59000 191.582
47.60000 191.810
47.61000 191.319
47.62000 190.416
47.63000 186.729
47.64000 182.521
47.65000 179.016
47.66000 183.018
47.67000 187.077
47.68000 189.220
47.69000 185.534
47.70000 181.446
47.71000 180.219
47.72000 185.016
47.73000 190.007
47.74000 192.969
47.75000 192.954
47.76000 192.926
47.77000 193.749
47.78000 195.392
47.79000 197.002
47.80000 195.730
47.81000 192.597
47.82000 189.543
47.83000 188.373
47.84000 188.055
47.85000 187.532
47.86000 184.317
47.87000 180.273
47.88000 176.890
47.89000 178.590
47.90000 181.354
47.91000 183.703
47.92000 190.397
47.93000 196.512
47.94000 199.889
47.95000 194.040
47.96000 187.441
47.97000 183.447
47.98000 185.525
47.99000 187.850
48.00000 189.291
48.01000 185.186
48.02000 182.181
48.03000 181.080
48.04000 182.043
48.05000 183.016
48.06000 185.473
48.07000 188.994
48.08000 192.448
48.09000 191.021
48.10000 187.332
48.11000 183.828
48.12000 183.173
48.13000 183.490
48.14000 184.062
48.15000 186.873
48.16000 190.208
48.17000 193.093
48.18000 190.188
48.19000 186.959
48.20000 183.958
48.21000 181.809
48.22000 179.740
48.23000 178.998
48.24000 181.669
48.25000 184.514
48.26000 186.349
48.27000 186.793
48.28000 187.097
48.29000 186.323
48.30000 184.241
48.31000 182.171
48.32000 184.816
48.33000 191.232
48.34000 197.559
48.35000 196.353
48.36000 191.191
48.37000 186.068
48.38000 181.682
48.39000 177.575
48.40000 174.173
48.41000 177.906
48.42000 183.494
48.43000 188.412
48.44000 185.778
48.45000 182.380
48.46000 179.484
48.47000 178.674
48.48000 178.092
48.49000 179.265
48.50000 185.436
48.51000 191.914
48.52000 196.252
48.53000 195.887
48.54000 195.523
48.55000 194.499
48.56000 192.582
48.57000 190.659
48.58000 187.024
48.59000 181.859
48.60000 176.742
48.61000 176.333
48.62000 178.719
48.63000 181.064
48.64000 182.486
48.65000 183.522
48.66000 184.311
48.67000 182.193
48.68000 179.238
48.69000 176.595
48.70000 178.010
48.71000 179.934
48.72000 181.418
48.73000 180.870
48.74000 180.066
48.75000 179.713
48.76000 180.783
48.77000 181.957
48.78000 182.771
48.79000 185.107
48.80000 186.905
48.81000 187.359
48.82000 185.792
48.83000 184.204
48.84000 186.621
48.85000 193.059
48.86000 199.461
48.87000 196.058
48.88000 186.214
48.89000 176.718
48.90000 177.318
48.91000 182.577
48.92000 187.435
48.93000 186.753
48.94000 184.301
48.95000 182.076
48.96000 178.865
48.97000 175.841
48.98000 173.856
48.99000 177.238
49.00000 181.386
49.01000 184.018
49.02000 181.353
49.03000 178.231
49.04000 175.996
49.05000 172.280
49.06000 169.391
49.07000 169.244
49.08000 173.671
49.09000 178.170
49.10000 181.189
49.11000 182.540
49.12000 183.886
49.13000 186.206
49.14000 189.230
49.15000 192.053
49.16000 187.210
49.17000 178.454
49.18000 170.058
49.19000 167.605
49.20000 167.255
49.21000 166.933
49.22000 167.495
49.23000 168.189
49.24000 169.150
49.25000 171.661
49.26000 174.421
49.27000 176.765
49.28000 177.495
49.29000 178.064
49.30000 178.484
49.31000 180.541
49.32000 182.205
49.33000 183.605
49.34000 184.518
49.35000 185.420
49.36000 183.947
49.37000 179.478
49.38000 175.004
49.39000 174.564
49.40000 177.470
49.41000 180.322
49.42000 180.324
49.43000 178.717
49.44000 177.053
49.45000 174.273
49.46000 171.056
49.47000 168.061
49.48000 171.013
49.49000 175.133
49.50000 178.685
49.51000 178.515
49.52000 177.671
49.53000 177.015
49.54000 177.164
49.55000 177.406
49.56000 177.590
49.57000 180.025
49.58000 182.054
49.59000 183.872
49.60000 185.259
49.61000 186.633
49.62000 186.569
49.63000 184.485
49.64000 182.387
49.65000 182.154
49.66000 183.656
49.67000 185.138
49.68000 184.985
49.69000 183.808
49.70000 182.590
49.71000 180.355
49.72000 177.680
49.73000 175.160
49.74000 174.604
49.75000 174.632
49.76000 174.821
49.77000 176.202
49.78000 177.826
49.79000 179.230
49.80000 179.580
49.81000 179.791
49.82000 179.955
49.83000 180.239
49.84000 180.473
49.85000 180.587
49.86000 180.427
49.87000 180.257
49.88000 178.946
49.89000 175.854
49.90000 172.740
49.91000 171.148
49.92000 171.635
49.93000 171.989
49.94000 175.574
49.95000 181.409
49.96000 187.147
49.97000 189.800
49.98000 190.977
49.99000 192.096
50.00000 189.372
50.01000 185.671
50.02000 182.094
50.03000 179.550
50.04000 177.240
50.05000 175.124
50.06000 174.056
50.07000 173.143
50.08000 172.415
50.09000 173.901
50.10000 175.264
50.11000 176.984
50.12000 179.599
50.13000 182.257
50.14000 184.776
50.15000 187.054
50.16000 189.328
50.17000 190.556
50.18000 190.313
50.19000 190.145
50.20000 189.957
50.21000 189.753
50.22000 189.496
50.23000 186.995
50.24000 183.308
50.25000 179.767
50.26000 179.051
50.27000 179.351
50.28000 180.255
50.29000 187.023
50.30000 195.270
50.31000 202.039
50.32000 199.862
50.33000 196.180
50.34000 193.173
50.35000 190.276
50.36000 187.914
50.37000 185.969
50.38000 185.176
50.39000 184.451
50.40000 184.806
50.41000 187.234
50.42000 189.713
50.43000 191.123
50.44000 197.891
50.45000 202.620
50.46000 204.626
50.47000 204.276
50.48000 203.904
50.49000 202.200
50.50000 199.715
50.51000 197.309
50.52000 205.293
50.53000 216.824
50.54000 227.188
50.55000 224.418
50.56000 217.970
50.57000 213.254
50.58000 220.369
50.59000 229.719
50.60000 237.517
50.61000 241.219
50.62000 243.879
50.63000 245.765
50.64000 245.280
50.65000 244.630
50.66000 245.962
50.67000 251.500
50.68000 257.175
50.69000 260.554
50.70000 259.095
50.71000 258.032
50.72000 256.726
50.73000 255.184
50.74000 253.661
50.75000 253.884
50.76000 255.242
50.77000 256.565
50.78000 255.811
50.79000 254.201
50.80000 252.864
50.81000 255.119
50.82000 258.488
50.83000 261.499
50.84000 261.727
50.85000 261.366
50.86000 261.059
50.87000 259.501
50.88000 258.047
50.89000 255.465
50.90000 249.052
50.91000 242.324
50.92000 237.847
50.93000 238.653
50.94000 239.679
50.95000 240.316
50.96000 227.489
50.97000 218.118
50.98000 212.488
50.99000 210.940
51.00000 209.389
51.01000 206.986
51.02000 203.969
51.03000 201.008
51.04000 199.255
51.05000 198.142
51.06000 197.100
51.07000 197.169
51.08000 197.620
51.09000 197.706
51.10000 194.553
51.11000 190.637
51.12000 187.244
51.13000 191.939
51.14000 197.005
51.15000 199.367
51.16000 191.547
51.17000 182.750
51.18000 177.273
51.19000 180.408
51.20000 183.986
51.21000 186.301
51.22000 187.978
51.23000 189.196
51.24000 187.301
51.25000 181.604
51.26000 175.904
51.27000 172.205
51.28000 170.119
51.29000 168.061
51.30000 169.579
51.31000 172.964
51.32000 176.156
51.33000 175.693
51.34000 173.840
51.35000 172.460
51.36000 175.912
51.37000 180.631
51.38000 184.789
51.39000 188.416
51.40000 191.462
51.41000 193.335
51.42000 190.298
51.43000 186.719
51.44000 184.557
51.45000 186.464
51.46000 188.623
51.47000 190.073
51.48000 183.948
51.49000 179.246
51.50000 176.223
51.51000 175.490
51.52000 174.769
51.53000 173.657
51.54000 172.190
51.55000 170.737
51.56000 169.048
51.57000 167.252
51.58000 165.544
51.59000 165.867
51.60000 167.044
51.61000 168.176
51.62000 168.773
51.63000 169.214
51.64000 169.609
51.65000 170.452
51.66000 171.264
51.67000 172.113
51.68000 173.134
51.69000 174.177
51.70000 175.383
51.71000 177.108
51.72000 178.871
51.73000 180.097
51.74000 171.228
51.75000 164.272
51.76000 159.955
51.77000 159.638
51.78000 159.362
51.79000 161.455
51.80000 165.947
51.81000 170.415
51.82000 168.519
51.83000 162.404
51.84000 156.584
51.85000 159.497
51.86000 166.469
51.87000 172.791
51.88000 170.012
51.89000 164.302
51.90000 159.116
51.91000 157.045
51.92000 155.818
51.93000 154.942
51.94000 155.887
51.95000 157.095
51.96000 158.085
51.97000 158.309
51.98000 158.466
51.99000 158.579
52.00000 161.376
52.01000 163.607
52.02000 163.693
52.03000 160.169
52.04000 156.588
52.05000 155.842
52.06000 158.320
52.07000 160.793
52.08000 159.517
52.09000 155.450
52.10000 151.493
52.11000 151.754
52.12000 154.186
52.13000 156.593
52.14000 158.603
52.15000 160.471
52.16000 162.192
52.17000 166.525
52.18000 170.972
52.19000 174.012
52.20000 168.816
52.21000 162.282
52.22000 157.683
52.23000 160.647
52.24000 164.375
52.25000 167.131
52.26000 166.963
52.27000 166.708
52.28000 165.901
52.29000 164.067
52.30000 162.209
52.31000 159.895
52.32000 156.999
52.33000 154.105
52.34000 152.019
52.35000 150.617
52.36000 149.309
52.37000 153.089
52.38000 159.765
52.39000 166.077
52.40000 164.983
52.41000 160.970
52.42000 157.230
52.43000 156.698
52.44000 157.006
52.45000 157.108
52.46000 155.848
52.47000 154.341
52.48000 153.079
52.49000 152.888
52.50000 152.821
52.51000 152.770
52.52000 159.998
52.53000 166.063
52.54000 169.902
52.55000 169.153
52.56000 168.264
52.57000 166.650
52.58000 164.010
52.59000 161.362
52.60000 160.033
52.61000 159.943
52.62000 159.877
52.63000 161.712
52.64000 164.748
52.65000 167.534
52.66000 164.031
52.67000 157.786
52.68000 151.900
52.69000 154.169
52.70000 158.497
52.71000 162.399
52.72000 163.115
52.73000 163.179
52.74000 162.524
52.75000 158.377
52.76000 153.766
52.77000 150.169
52.78000 151.966
52.79000 153.737
52.80000 155.088
52.81000 155.479
52.82000 155.834
52.83000 158.336
52.84000 164.217
52.85000 170.139
52.86000 173.181
52.87000 164.746
52.88000 159.093
52.89000 156.542
52.90000 156.166
52.91000 155.849
52.92000 157.455
52.93000 159.988
52.94000 162.399
52.95000 165.084
52.96000 167.655
52.97000 169.511
52.98000 165.278
52.99000 159.654
53.00000 154.384
53.01000 151.033
53.02000 147.971
53.03000 145.522
53.04000 155.508
53.05000 164.503
53.06000 168.105
53.07000 158.115
53.08000 147.465
53.09000 143.575
53.10000 151.478
53.11000 159.595
53.12000 163.998
53.13000 166.679
53.14000 168.503
53.15000 167.144
53.16000 163.298
53.17000 159.572
53.18000 161.033
53.19000 165.259
53.20000 169.320
53.21000 167.433
53.22000 163.609
53.23000 160.002
53.24000 158.518
53.25000 157.573
53.26000 156.944
53.27000 158.249
53.28000 159.882
53.29000 161.217
53.30000 157.182
53.31000 153.410
53.32000 151.322
53.33000 153.930
53.34000 156.815
53.35000 158.853
53.36000 159.255
53.37000 159.616
53.38000 159.822
53.39000 163.086
53.40000 165.373
53.41000 166.661
53.42000 167.078
53.43000 167.482
53.44000 167.072
53.45000 166.181
53.46000 165.318
53.47000 165.553
53.48000 166.200
53.49000 166.693
53.50000 165.444
53.51000 163.704
53.52000 162.039
53.53000 160.900
53.54000 159.860
53.55000 158.992
53.56000 163.038
53.57000 166.893
53.58000 168.910
53.59000 165.258
53.60000 161.205
53.61000 159.221
53.62000 161.660
53.63000 164.246
53.64000 165.791
53.65000 163.051
53.66000 161.082
53.67000 158.928
53.68000 156.595
53.69000 154.311
53.70000 156.686
53.71000 162.114
53.72000 167.410
53.73000 165.891
53.74000 161.496
53.75000 157.457
53.76000 158.151
53.77000 160.325
53.78000 161.971
53.79000 159.475
53.80000 156.098
53.81000 153.221
53.82000 154.289
53.83000 155.648
53.84000 157.374
53.85000 160.352
53.86000 163.435
53.87000 165.667
53.88000 165.888
53.89000 166.024
53.90000 166.109
53.91000 163.746
53.92000 162.018
53.93000 160.752
53.94000 159.996
53.95000 159.241
53.96000 158.750
53.97000 158.451
53.98000 158.158
53.99000 156.858
54.00000 155.119
54.01000 153.417
54.02000 152.286
54.03000 151.354
54.04000 150.955
54.05000 155.326
54.06000 160.829
54.07000 165.603
54.08000 163.531
54.09000 160.851
54.10000 159.176
54.11000 161.310
54.12000 163.813
54.13000 165.020
54.14000 162.839
54.15000 160.481
54.16000 158.951
54.17000 156.469
54.18000 154.638
54.19000 154.795
54.20000 157.402
54.21000 160.005
54.22000 158.712
54.23000 154.255
54.24000 149.855
54.25000 148.713
54.26000 149.354
54.27000 149.923
54.28000 149.105
54.29000 147.756
54.30000 146.482
54.31000 145.983
54.32000 145.689
54.33000 145.429
54.34000 146.203
54.35000 147.029
54.36000 147.881
54.37000 148.848
54.38000 149.826
54.39000 151.097
54.40000 153.213
54.41000 155.381
54.42000 156.841
54.43000 155.786
54.44000 154.950
54.45000 153.869
54.46000 152.451
54.47000 151.031
54.48000 150.928
54.49000 152.020
54.50000 153.103
54.51000 156.281
54.52000 160.658
54.53000 164.886
54.54000 165.596
54.55000 164.815
54.56000 163.956
54.57000 162.144
54.58000 160.054
54.59000 158.181
54.60000 158.240
54.61000 158.626
54.62000 158.648
54.63000 156.962
54.64000 155.057
54.65000 154.139
54.66000 156.375
54.67000 158.847
54.68000 160.570
54.69000 161.167
54.70000 161.588
54.71000 160.929
54.72000 158.623
54.73000 156.300
54.74000 154.543
54.75000 153.364
54.76000 152.191
54.77000 152.232
54.78000 153.087
54.79000 154.025
54.80000 157.484
54.81000 162.122
54.82000 166.266
54.83000 163.406
54.84000 158.273
54.85000 153.607
54.86000 154.194
54.87000 155.742
54.88000 157.536
54.89000 160.622
54.90000 163.896
54.91000 166.437
54.92000 166.380
54.93000 166.094
54.94000 165.888
54.95000 169.525
54.96000 172.444
54.97000 172.377
54.98000 167.253
54.99000 162.047
55.00000 158.490
55.01000 156.824
55.02000 155.165
55.03000 157.086
55.04000 161.687
55.05000 166.184
55.06000 166.544
55.07000 164.761
55.08000 162.980
55.09000 161.225
55.10000 159.480
55.11000 157.871
55.12000 159.605
55.13000 161.894
55.14000 163.679
55.15000 162.489
55.16000 160.811
55.17000 160.578
55.18000 166.032
55.19000 172.067
55.20000 176.539
55.21000 175.136
55.22000 173.791
55.23000 173.082
55.24000 173.564
55.25000 174.073
55.26000 173.469
55.27000 171.439
55.28000 169.406
55.29000 169.758
55.30000 172.120
55.31000 174.395
55.32000 171.807
55.33000 166.432
55.34000 161.521
55.35000 166.202
55.36000 174.690
55.37000 182.607
55.38000 184.147
55.39000 183.961
55.40000 183.706
55.41000 182.997
55.42000 182.204
55.43000 181.990
55.44000 184.318
55.45000 186.943
55.46000 188.944
55.47000 189.301
55.48000 189.495
55.49000 190.973
55.50000 195.117
55.51000 199.343
55.52000 202.555
55.53000 204.320
55.54000 206.075
55.55000 209.545
55.56000 214.639
55.57000 219.714
55.58000 223.204
55.59000 225.687
55.60000 228.199
55.61000 231.478
55.62000 235.093
55.63000 238.503
55.64000 247.716
55.65000 257.772
55.66000 266.358
55.67000 263.850
55.68000 259.054
55.69000 257.977
55.70000 275.088
55.71000 294.632
55.72000 309.912
55.73000 324.032
55.74000 335.228
55.75000 345.207
55.76000 352.390
55.77000 359.463
55.78000 369.300
55.79000 383.518
55.80000 397.792
55.81000 405.154
55.82000 422.616
55.83000 434.357
55.84000 442.817
55.85000 448.956
55.86000 455.190
55.87000 464.571
55.88000 475.478
55.89000 485.869
55.90000 491.552
55.91000 495.351
55.92000 501.010
55.93000 522.687
55.94000 548.048
55.95000 568.720
55.96000 563.711
55.97000 554.805
55.98000 547.673
55.99000 545.672
56.00000 544.439
56.01000 545.052
56.02000 550.355
56.03000 555.889
56.04000 555.917
56.05000 546.270
56.06000 536.443
56.07000 531.092
56.08000 510.750
56.09000 496.781
56.10000 485.790
56.11000 477.142
56.12000 468.490
56.13000 459.623
56.14000 450.641
56.15000 442.006
56.16000 426.762
56.17000 410.175
56.18000 394.413
56.19000 386.812
56.20000 381.300
56.21000 375.048
56.22000 364.241
56.23000 352.655
56.24000 343.164
56.25000 327.161
56.26000 313.467
56.27000 302.164
56.28000 297.576
56.29000 293.389
56.30000 288.062
56.31000 280.516
56.32000 272.913
56.33000 268.562
56.34000 260.745
56.35000 255.277
56.36000 251.844
56.37000 250.202
56.38000 248.510
56.39000 243.667
56.40000 236.950
56.41000 230.439
56.42000 222.454
56.43000 214.318
56.44000 206.562
56.45000 203.178
56.46000 201.037
56.47000 198.841
56.48000 196.267
56.49000 193.621
56.50000 191.408
56.51000 199.150
56.52000 206.600
56.53000 211.353
56.54000 207.726
56.55000 203.500
56.56000 198.495
56.57000 191.814
56.58000 185.076
56.59000 181.038
56.60000 187.846
56.61000 192.751
56.62000 194.614
56.63000 193.472
56.64000 192.311
56.65000 189.388
56.66000 185.301
56.67000 181.312
56.68000 178.310
56.69000 175.868
56.70000 173.560
56.71000 173.061
56.72000 173.131
56.73000 173.181
56.74000 173.071
56.75000 172.926
56.76000 172.803
56.77000 165.297
56.78000 158.109
56.79000 153.075
56.80000 155.460
56.81000 158.470
56.82000 160.551
56.83000 160.423
56.84000 160.200
56.85000 160.061
56.86000 157.516
56.87000 155.654
56.88000 157.460
56.89000 163.337
56.90000 169.186
56.91000 169.630
56.92000 166.107
56.93000 162.646
56.94000 159.449
56.95000 156.491
56.96000 153.763
56.97000 154.738
56.98000 157.003
56.99000 158.823
57.00000 156.614
57.01000 153.441
57.02000 150.685
57.03000 149.348
57.04000 148.400
57.05000 148.145
57.06000 150.540
57.07000 153.194
57.08000 152.897
57.09000 144.830
57.10000 136.352
57.11000 130.837
57.12000 136.462
57.13000 140.757
57.14000 143.292
57.15000 143.640
57.16000 143.984
57.17000 145.188
57.18000 147.095
57.19000 148.979
57.20000 148.144
57.21000 145.856
57.22000 143.724
57.23000 144.614
57.24000 146.671
57.25000 148.620
57.26000 149.443
57.27000 149.968
57.28000 150.431
57.29000 150.152
57.30000 149.797
57.31000 149.091
57.32000 146.898
57.33000 144.538
57.34000 142.114
57.35000 139.508
57.36000 136.891
57.37000 135.125
57.38000 134.913
57.39000 134.788
57.40000 136.388
57.41000 140.373
57.42000 144.374
57.43000 147.789
57.44000 150.668
57.45000 153.522
57.46000 155.425
57.47000 156.717
57.48000 157.885
57.49000 156.076
57.50000 152.997
57.51000 149.951
57.52000 147.294
57.53000 144.752
57.54000 142.472
57.55000 140.940
57.56000 139.731
57.57000 139.327
57.58000 142.739
57.59000 146.644
57.60000 149.291
57.61000 147.887
57.62000 146.175
57.63000 144.980
57.64000 146.616
57.65000 147.930
57.66000 148.411
57.67000 147.609
57.68000 146.794
57.69000 145.862
57.70000 144.810
57.71000 143.763
57.72000 143.994
57.73000 145.086
57.74000 146.200
57.75000 147.977
57.76000 150.067
57.77000 151.826
57.78000 148.830
57.79000 144.281
57.80000 140.140
57.81000 142.433
57.82000 145.732
57.83000 147.892
57.84000 144.015
57.85000 139.253
57.86000 136.041
57.87000 138.363
57.88000 141.177
57.89000 143.206
57.90000 143.916
57.91000 144.413
57.92000 144.801
57.93000 145.001
57.94000 145.198
57.95000 145.178
57.96000 144.906
57.97000 144.635
57.98000 145.349
57.99000 146.807
58.00000 148.203
58.01000 147.128
58.02000 144.764
58.03000 142.651
58.04000 144.863
58.05000 148.637
58.06000 152.119
58.07000 151.224
58.08000 149.448
58.09000 147.710
58.10000 146.193
58.11000 144.713
58.12000 142.137
58.13000 135.210
58.14000 127.834
58.15000 122.358
58.16000 129.469
58.17000 135.550
58.18000 138.176
58.19000 134.270
58.20000 130.209
58.21000 130.281
58.22000 135.685
58.23000 141.105
58.24000 143.422
58.25000 143.094
58.26000 142.702
58.27000 138.676
58.28000 132.550
58.29000 126.772
58.30000 128.270
58.31000 132.677
58.32000 136.791
58.33000 138.577
58.34000 139.613
58.35000 140.856
58.36000 143.481
58.37000 146.362
58.38000 147.747
58.39000 142.517
58.40000 136.504
58.41000 131.914
58.42000 133.846
58.43000 135.719
58.44000 136.857
58.45000 136.455
58.46000 136.006
58.47000 135.881
58.48000 136.223
58.49000 136.568
58.50000 135.769
58.51000 133.878
58.52000 132.031
58.53000 133.999
58.54000 138.411
58.55000 142.634
58.56000 141.872
58.57000 138.906
58.58000 136.107
58.59000 135.463
58.60000 135.477
58.61000 135.082
58.62000 131.568
58.63000 127.407
58.64000 124.129
58.65000 125.213
58.66000 126.885
58.67000 128.195
58.68000 134.051
58.69000 139.022
58.70000 142.225
58.71000 141.339
58.72000 140.288
58.73000 140.613
58.74000 143.133
58.75000 145.681
58.76000 147.001
58.77000 144.679
58.78000 143.103
58.79000 140.276
58.80000 136.558
58.81000 132.853
58.82000 129.590
58.83000 126.542
58.84000 123.637
58.85000 124.780
58.86000 127.110
58.87000 129.235
58.88000 129.574
58.89000 129.499
58.90000 129.650
58.91000 131.053
58.92000 132.647
58.93000 133.926
58.94000 129.174
58.95000 124.867
58.96000 123.557
58.97000 129.913
58.98000 136.651
58.99000 141.199
59.00000 141.868
59.01000 142.462
59.02000 142.787
59.03000 140.260
59.04000 138.520
59.05000 136.920
59.06000 135.431
59.07000 134.005
59.08000 135.455
59.09000 138.461
59.10000 141.352
59.11000 140.279
59.12000 137.880
59.13000 135.570
59.14000 134.147
59.15000 132.953
59.16000 132.436
59.17000 136.128
59.18000 140.544
59.19000 144.168
59.20000 138.919
59.21000 133.822
59.22000 130.593
59.23000 132.649
59.24000 135.025
59.25000 137.439
59.26000 139.924
59.27000 142.412
59.28000 143.841
59.29000 140.733
59.30000 138.545
59.31000 137.401
59.32000 137.185
59.33000 136.954
59.34000 135.782
59.35000 134.046
59.36000 132.363
59.37000 132.547
59.38000 133.454
59.39000 134.538
59.40000 137.676
59.41000 141.402
59.42000 144.831
59.43000 146.181
59.44000 147.128
59.45000 147.921
59.46000 140.088
59.47000 132.682
59.48000 127.886
59.49000 131.259
59.50000 135.223
59.51000 137.858
59.52000 137.612
59.53000 137.268
59.54000 137.060
59.55000 136.275
59.56000 135.713
59.57000 135.319
59.58000 135.092
59.59000 134.879
59.60000 135.950
59.61000 137.877
59.62000 139.758
59.63000 138.943
59.64000 136.982
59.65000 135.056
59.66000 133.610
59.67000 132.316
59.68000 131.390
59.69000 133.397
59.70000 136.038
59.71000 138.295
59.72000 136.712
59.73000 134.921
59.74000 134.596
59.75000 139.353
59.76000 144.544
59.77000 146.045
59.78000 138.701
59.79000 130.971
59.80000 126.124
59.81000 130.966
59.82000 134.569
59.83000 136.548
59.84000 136.709
59.85000 136.873
59.86000 137.769
59.87000 139.207
59.88000 140.619
59.89000 138.398
59.90000 134.474
59.91000 130.744
59.92000 130.180
59.93000 130.729
59.94000 131.335
59.95000 132.458
59.96000 133.705
59.97000 134.790
59.98000 137.963
59.99000 140.955
60.00000 142.414
60.01000 137.966
60.02000 132.933
60.03000 130.221
60.04000 133.661
60.05000 137.431
60.06000 139.890
60.07000 135.606
60.08000 132.355
60.09000 131.046
60.10000 132.166
60.11000 133.289
60.12000 132.346
60.13000 129.699
60.14000 127.084
60.15000 126.111
60.16000 126.062
60.17000 125.995
60.18000 125.582
60.19000 125.036
60.20000 124.363
60.21000 122.362
60.22000 120.004
60.23000 117.920
60.24000 126.042
60.25000 134.646
60.26000 141.959
60.27000 143.743
60.28000 144.897
60.29000 143.690
60.30000 135.560
60.31000 126.983
60.32000 121.180
60.33000 122.900
60.34000 124.344
60.35000 126.777
60.36000 130.587
60.37000 134.405
60.38000 135.864
60.39000 135.142
60.40000 134.427
60.41000 134.868
60.42000 136.008
60.43000 137.105
60.44000 137.135
60.45000 136.707
60.46000 136.082
60.47000 133.028
60.48000 129.254
60.49000 125.863
60.50000 128.682
60.51000 132.243
60.52000 134.459
60.53000 130.256
60.54000 125.217
60.55000 121.906
60.56000 124.203
60.57000 126.932
60.58000 128.842
60.59000 130.961
60.60000 132.570
60.61000 132.894
60.62000 131.227
60.63000 129.538
60.64000 128.594
60.65000 128.425
60.66000 128.257
60.67000 127.686
60.68000 126.847
60.69000 126.086
60.70000 127.748
60.71000 130.562
60.72000 133.382
60.73000 136.304
60.74000 139.258
60.75000 141.950
60.76000 140.903
60.77000 139.231
60.78000 137.224
60.79000 133.429
60.80000 129.371
60.81000 126.732
60.82000 129.204
60.83000 132.137
60.84000 134.255
60.85000 134.996
60.86000 135.514
60.87000 137.689
60.88000 142.711
60.89000 147.782
60.90000 147.828
60.91000 142.021
60.92000 136.219
60.93000 133.213
60.94000 132.361
60.95000 131.561
60.96000 132.918
60.97000 135.408
60.98000 137.892
60.99000 140.275
61.00000 142.621
61.01000 144.787
61.02000 138.913
61.03000 131.843
61.04000 126.217
61.05000 129.266
61.06000 133.761
61.07000 137.508
61.08000 138.266
61.09000 138.713
61.10000 139.045
61.11000 138.294
61.12000 137.661
61.13000 137.608
61.14000 138.659
61.15000 139.737
61.16000 140.616
61.17000 141.237
61.18000 141.856
61.19000 141.273
61.20000 139.661
61.21000 138.081
61.22000 138.355
61.23000 139.709
61.24000 141.041
61.25000 141.906
61.26000 142.584
61.27000 143.217
61.28000 140.423
61.29000 137.024
61.30000 134.114
61.31000 134.520
61.32000 135.545
61.33000 136.401
61.34000 136.497
61.35000 136.503
61.36000 136.508
61.37000 138.588
61.38000 140.342
61.39000 143.170
61.40000 148.263
61.41000 153.428
61.42000 152.718
61.43000 143.499
61.44000 134.210
61.45000 135.655
61.46000 147.436
61.47000 159.143
61.48000 164.323
61.49000 165.290
61.50000 166.481
61.51000 173.643
61.52000 183.462
61.53000 192.737
61.54000 202.553
61.55000 211.715
61.56000 221.005
61.57000 231.272
61.58000 241.745
61.59000 252.386
61.60000 263.865
61.61000 275.457
61.62000 284.553
61.63000 291.031
61.64000 296.041
61.65000 300.184
61.66000 302.306
61.67000 304.344
61.68000 307.380
61.69000 312.020
61.70000 316.682
61.71000 319.106
61.72000 318.692
61.73000 318.377
61.74000 313.005
61.75000 304.004
61.76000 294.973
61.77000 284.959
61.78000 274.460
61.79000 264.444
61.80000 248.537
61.81000 231.906
61.82000 215.702
61.83000 203.249
61.84000 191.674
61.85000 181.330
61.86000 177.850
61.87000 175.429
61.88000 173.484
61.89000 164.486
61.90000 156.651
61.91000 150.724
61.92000 149.716
61.93000 148.956
61.94000 150.198
61.95000 155.010
61.96000 159.892
61.97000 162.570
61.98000 152.613
61.99000 145.757
62.00000 143.394
62.01000 144.626
62.02000 145.813
62.03000 144.944
62.04000 142.955
62.05000 141.040
62.06000 143.462
62.07000 147.271
62.08000 150.680
62.09000 150.056
62.10000 148.384
62.11000 146.428
62.12000 142.689
62.13000 138.639
62.14000 135.312
62.15000 137.712
62.16000 140.199
62.17000 141.520
62.18000 139.519
62.19000 137.314
62.20000 135.746
62.21000 135.436
62.22000 135.159
62.23000 135.000
62.24000 139.415
62.25000 142.522
62.26000 143.487
62.27000 142.537
62.28000 141.589
62.29000 140.835
62.30000 140.197
62.31000 139.579
62.32000 141.722
62.33000 144.847
62.34000 147.717
62.35000 147.594
62.36000 146.608
62.37000 145.870
62.38000 146.886
62.39000 148.244
62.40000 149.383
62.41000 147.776
62.42000 146.151
62.43000 144.989
62.44000 145.287
62.45000 145.691
62.46000 145.817
62.47000 145.334
62.48000 144.830
62.49000 144.526
62.50000 143.929
62.51000 143.501
62.52000 142.821
62.53000 141.887
62.54000 140.942
62.55000 138.832
62.56000 135.940
62.57000 133.115
62.58000 134.105
62.59000 136.741
62.60000 139.206
62.61000 139.310
62.62000 138.660
62.63000 138.637
62.64000 143.674
62.65000 149.813
62.66000 155.064
62.67000 153.397
62.68000 151.159
62.69000 149.290
62.70000 148.710
62.71000 148.241
62.72000 146.977
62.73000 143.797
62.74000 140.532
62.75000 138.478
62.76000 143.142
62.77000 146.590
62.78000 146.513
62.79000 142.461
62.80000 138.433
62.81000 139.859
62.82000 145.353
62.83000 150.752
62.84000 151.678
62.85000 150.366
62.86000 149.129
62.87000 149.137
62.88000 149.584
62.89000 149.785
62.90000 147.709
62.91000 145.081
62.92000 142.792
62.93000 145.033
62.94000 147.569
62.95000 149.008
62.96000 146.187
62.97000 142.940
62.98000 141.493
62.99000 144.852
63.00000 148.472
63.01000 150.840
63.02000 150.271
63.03000 149.806
63.04000 149.120
63.05000 148.156
63.06000 147.192
63.07000 146.356
63.08000 145.627
63.09000 144.906
63.10000 146.180
63.11000 148.521
63.12000 150.655
63.13000 148.658
63.14000 145.044
63.15000 141.712
63.16000 141.379
63.17000 141.856
63.18000 142.278
63.19000 145.584
63.20000 148.896
63.21000 150.720
63.22000 146.122
63.23000 140.784
63.24000 137.168
63.25000 138.638
63.26000 140.442
63.27000 141.665
63.28000 146.948
63.29000 150.978
63.30000 151.931
63.31000 148.562
63.32000 145.164
63.33000 145.388
63.34000 148.989
63.35000 152.561
63.36000 153.053
63.37000 151.639
63.38000 150.294
63.39000 150.670
63.40000 151.789
63.41000 152.968
63.42000 154.896
63.43000 157.048
63.44000 158.983
63.45000 156.007
63.46000 152.528
63.47000 150.328
63.48000 154.291
63.49000 159.064
63.50000 162.008
63.51000 158.971
63.52000 155.469
63.53000 153.012
63.54000 151.044
63.55000 149.569
63.56000 148.554
63.57000 148.256
63.58000 147.966
63.59000 147.889
63.60000 148.034
63.61000 148.179
63.62000 149.916
63.63000 152.731
63.64000 155.526
63.65000 157.680
63.66000 159.528
63.67000 161.134
63.68000 159.171
63.69000 156.026
63.70000 153.158
63.71000 153.923
63.72000 155.332
63.73000 156.550
63.74000 156.746
63.75000 156.789
63.76000 155.976
63.77000 152.059
63.78000 147.859
63.79000 144.819
63.80000 149.500
63.81000 153.377
63.82000 155.547
63.83000 154.762
63.84000 153.924
63.85000 153.389
63.86000 153.211
63.87000 153.033
63.88000 154.647
63.89000 157.634
63.90000 160.554
63.91000 160.667
63.92000 159.294
63.93000 157.923
63.94000 156.586
63.95000 155.262
63.96000 154.038
63.97000 154.094
63.98000 154.433
63.99000 154.620
64.00000 153.886
64.01000 152.997
64.02000 152.112
64.03000 151.245
64.04000 150.381
64.05000 149.736
64.06000 156.203
64.07000 161.561
64.08000 164.044
64.09000 161.013
64.10000 157.846
64.11000 156.628
64.12000 157.967
64.13000 159.316
64.14000 162.051
64.15000 165.978
64.16000 169.818
64.17000 168.427
64.18000 163.969
64.19000 159.709
64.20000 159.746
64.21000 161.524
64.22000 163.187
64.23000 168.885
64.24000 175.085
64.25000 180.154
64.26000 177.495
64.27000 173.376
64.28000 170.243
64.29000 171.534
64.30000 173.360
64.31000 174.758
64.32000 172.743
64.33000 170.964
64.34000 169.529
64.35000 168.825
64.36000 168.145
64.37000 167.601
64.38000 167.256
64.39000 166.912
64.40000 165.364
64.41000 162.646
64.42000 159.956
64.43000 159.788
64.44000 161.261
64.45000 162.721
64.46000 163.812
64.47000 164.738
64.48000 165.614
64.49000 170.163
64.50000 175.390
64.51000 179.981
64.52000 179.638
64.53000 178.251
64.54000 176.937
64.55000 175.979
64.56000 175.071
64.57000 174.357
64.58000 173.444
64.59000 172.700
64.60000 171.883
64.61000 170.891
64.62000 169.893
64.63000 169.986
64.64000 171.847
64.65000 173.732
64.66000 174.717
64.67000 176.422
64.68000 177.553
64.69000 175.215
64.70000 170.366
64.71000 165.715
64.72000 168.008
64.73000 173.746
64.74000 179.223
64.75000 178.657
64.76000 176.203
64.77000 174.056
64.78000 174.638
64.79000 175.862
64.80000 177.697
64.81000 182.956
64.82000 188.749
64.83000 193.411
64.84000 189.191
64.85000 185.075
64.86000 181.897
64.87000 181.153
64.88000 180.533
64.89000 182.312
64.90000 188.398
64.91000 194.570
64.92000 197.969
64.93000 196.277
64.94000 195.103
64.95000 193.827
64.96000 192.470
64.97000 191.112
64.98000 189.775
64.99000 188.449
65.00000 187.172
65.01000 188.534
65.02000 190.755
65.03000 193.482
65.04000 201.372
65.05000 210.614
65.06000 218.332
65.07000 216.421
65.08000 212.821
65.09000 209.859
65.10000 209.188
65.11000 208.844
65.12000 209.205
65.13000 211.588
65.14000 214.097
65.15000 217.345
65.16000 222.059
65.17000 226.815
65.18000 229.564
65.19000 234.529
65.20000 238.018
65.21000 240.117
65.22000 240.962
65.23000 241.873
65.24000 247.217
65.25000 255.259
65.26000 263.065
65.27000 265.430
65.28000 265.504
65.29000 265.802
65.30000 268.766
65.31000 272.505
65.32000 276.610
65.33000 283.338
65.34000 290.581
65.35000 296.667
65.36000 307.211
65.37000 316.466
65.38000 324.634
65.39000 329.352
65.40000 333.813
65.41000 337.783
65.42000 340.672
65.43000 343.522
65.44000 345.246
65.45000 354.233
65.46000 360.692
65.47000 366.549
65.48000 371.798
65.49000 377.042
65.50000 381.793
65.51000 386.212
65.52000 390.530
65.53000 400.163
65.54000 411.762
65.55000 423.199
65.56000 432.369
65.57000 440.808
65.58000 449.170
65.59000 456.899
65.60000 464.489
65.61000 470.989
65.62000 481.779
65.63000 491.406
65.64000 500.875
65.65000 509.790
65.66000 518.655
65.67000 536.420
65.68000 575.829
65.69000 616.211
65.70000 641.683
65.71000 714.698
65.72000 768.119
65.73000 825.233
65.74000 886.545
65.75000 947.850
65.76000 1006.845
65.77000 1064.105
65.78000 1120.408
65.79000 1164.962
65.80000 1202.212
65.81000 1238.810
65.82000 1264.495
65.83000 1286.291
65.84000 1306.291
65.85000 1309.549
65.86000 1308.712
65.87000 1307.982
65.88000 1321.204
65.89000 1334.446
65.90000 1339.083
65.91000 1310.083
65.92000 1277.684
65.93000 1238.343
65.94000 1180.330
65.95000 1121.287
65.96000 1082.567
65.97000 988.582
65.98000 918.546
65.99000 842.832
66.00000 759.904
66.01000 676.999
66.02000 619.469
66.03000 583.223
66.04000 547.401
66.05000 512.125
66.06000 478.014
66.07000 444.430
66.08000 421.544
66.09000 402.875
66.10000 384.471
66.11000 368.920
66.12000 354.145
66.13000 341.048
66.14000 331.276
66.15000 323.343
66.16000 318.414
66.17000 326.553
66.18000 336.211
66.19000 344.770
66.20000 350.061
66.21000 355.136
66.22000 358.586
66.23000 359.539
66.24000 360.194
66.25000 361.183
66.26000 362.644
66.27000 364.111
66.28000 371.960
66.29000 385.807
66.30000 399.548
66.31000 417.493
66.32000 437.743
66.33000 457.541
66.34000 465.929
66.35000 469.344
66.36000 472.790
66.37000 476.621
66.38000 480.569
66.39000 484.122
66.40000 495.706
66.41000 507.301
66.42000 516.148
66.43000 511.660
66.44000 505.402
66.45000 500.183
66.46000 498.382
66.47000 496.849
66.48000 495.772
66.49000 482.390
66.50000 471.890
66.51000 461.211
66.52000 450.250
66.53000 439.287
66.54000 426.993
66.55000 413.293
66.56000 399.654
66.57000 387.749
66.58000 377.171
66.59000 366.694
66.60000 359.505
66.61000 353.899
66.62000 348.354
66.63000 343.706
66.64000 339.357
66.65000 335.387
66.66000 336.858
66.67000 339.266
66.68000 340.312
66.69000 333.959
66.70000 326.493
66.71000 321.298
66.72000 324.403
66.73000 328.270
66.74000 331.076
66.75000 329.714
66.76000 328.511
66.77000 328.398
66.78000 330.187
66.79000 332.010
66.80000 336.135
66.81000 342.986
66.82000 349.827
66.83000 351.097
66.84000 348.030
66.85000 345.131
66.86000 349.490
66.87000 357.717
66.88000 365.477
66.89000 364.853
66.90000 361.133
66.91000 357.693
66.92000 355.962
66.93000 354.797
66.94000 354.253
66.95000 357.492
66.96000 361.373
66.97000 363.876
66.98000 360.785
66.99000 357.098
67.00000 354.344
67.01000 357.108
67.02000 359.517
67.03000 362.164
67.04000 365.272
67.05000 368.392
67.06000 374.219
67.07000 383.623
67.08000 393.038
67.09000 391.627
67.10000 380.781
67.11000 370.124
67.12000 371.000
67.13000 378.688
67.14000 386.286
67.15000 391.920
67.16000 396.752
67.17000 401.273
67.18000 397.132
67.19000 391.148
67.20000 386.516
67.21000 391.203
67.22000 397.664
67.23000 403.217
67.24000 404.668
67.25000 405.619
67.26000 406.348
67.27000 410.763
67.28000 414.458
67.29000 418.544
67.30000 423.464
67.31000 428.412
67.32000 428.149
67.33000 420.221
67.34000 412.226
67.35000 411.538
67.36000 418.007
67.37000 424.447
67.38000 428.179
67.39000 430.135
67.40000 432.226
67.41000 438.006
67.42000 445.453
67.43000 452.498
67.44000 455.935
67.45000 458.058
67.46000 459.479
67.47000 455.406
67.48000 450.164
67.49000 446.475
67.50000 450.637
67.51000 455.889
67.52000 460.024
67.53000 467.221
67.54000 473.192
67.55000 477.648
67.56000 478.521
67.57000 479.242
67.58000 478.376
67.59000 474.917
67.60000 471.422
67.61000 469.589
67.62000 470.970
67.63000 471.950
67.64000 480.225
67.65000 493.816
67.66000 506.981
67.67000 504.898
67.68000 495.196
67.69000 485.928
67.70000 488.511
67.71000 494.727
67.72000 500.107
67.73000 497.998
67.74000 494.112
67.75000 491.985
67.76000 499.817
67.77000 509.213
67.78000 516.789
67.79000 523.963
67.80000 529.758
67.81000 534.880
67.82000 538.246
67.83000 541.520
67.84000 538.683
67.85000 524.785
67.86000 510.660
67.87000 502.855
67.88000 525.092
67.89000 540.453
67.90000 543.642
67.91000 536.940
67.92000 530.493
67.93000 536.434
67.94000 549.225
67.95000 561.552
67.96000 567.200
67.97000 570.104
67.98000 573.071
67.99000 576.678
68.00000 580.455
68.01000 583.607
68.02000 582.777
68.03000 581.243
68.04000 579.979
68.05000 581.326
68.06000 582.674
68.07000 585.711
68.08000 593.630
68.09000 601.856
68.10000 607.534
68.11000 608.103
68.12000 608.530
68.13000 608.778
68.14000 617.525
68.15000 623.700
68.16000 631.246
68.17000 640.039
68.18000 648.722
68.19000 649.708
68.20000 645.975
68.21000 642.349
68.22000 644.301
68.23000 648.397
68.24000 652.793
68.25000 660.796
68.26000 669.856
68.27000 679.399
68.28000 692.429
68.29000 706.150
68.30000 717.694
68.31000 716.536
68.32000 714.217
68.33000 710.608
68.34000 702.871
68.35000 694.825
68.36000 699.190
68.37000 731.055
68.38000 763.919
68.39000 783.862
68.40000 772.874
68.41000 764.800
68.42000 767.944
68.43000 782.552
68.44000 797.189
68.45000 815.102
68.46000 835.243
68.47000 854.939
68.48000 855.094
68.49000 846.468
68.50000 839.780
68.51000 860.556
68.52000 890.239
68.53000 919.207
68.54000 942.298
68.55000 964.089
68.56000 982.776
68.57000 1011.668
68.58000 1037.326
68.59000 1063.833
68.60000 1093.349
68.61000 1123.129
68.62000 1161.221
68.63000 1219.673
68.64000 1279.055
68.65000 1316.621
68.66000 1433.569
68.67000 1519.293
68.68000 1598.463
68.69000 1670.121
68.70000 1741.689
68.71000 1795.956
68.72000 1837.120
68.73000 1877.611
68.74000 1962.728
68.75000 2067.479
68.76000 2171.281
68.77000 2258.985
68.78000 2340.911
68.79000 2423.074
68.80000 2507.464
68.81000 2592.402
68.82000 2666.547
68.83000 2810.308
68.84000 2943.080
68.85000 3107.599
68.86000 3397.163
68.87000 3699.494
68.88000 4070.483
68.89000 4627.467
68.90000 5194.860
68.91000 5567.950
68.92000 7571.549
68.93000 9074.402
68.94000 11366.065
68.95000 14668.176
68.96000 17975.957
68.97000 22390.525
68.98000 27740.846
68.99000 33030.129
69.00000 38961.379
69.01000 45110.238
69.02000 51200.809
69.03000 56087.820
69.04000 60497.074
69.05000 64754.027
69.06000 67352.289
69.07000 69496.273
69.08000 71398.883
69.09000 72240.148
69.10000 72799.664
69.11000 73369.391
69.12000 73983.906
69.13000 74603.672
69.14000 75292.563
69.15000 76188.656
69.16000 77098.680
69.17000 77718.961
69.18000 77584.430
69.19000 77466.484
69.20000 76322.219
69.21000 73713.641
69.22000 71093.805
69.23000 67575.688
69.24000 63206.508
69.25000 58869.551
69.26000 55073.848
69.27000 51679.324
69.28000 48315.527
69.29000 45743.000
69.30000 43517.754
69.31000 41359.754
69.32000 40057.965
69.33000 39016.211
69.34000 38077.566
69.35000 36952.270
69.36000 35931.219
69.37000 34787.750
69.38000 33045.496
69.39000 31223.090
69.40000 29167.389
69.41000 26337.275
69.42000 23445.561
69.43000 21407.508
69.44000 17563.443
69.45000 14593.923
69.46000 12012.736
69.47000 10047.087
69.48000 8089.189
69.49000 6552.265
69.50000 5463.748
69.51000 4379.934
69.52000 3669.014
69.53000 3226.169
69.54000 2788.005
69.55000 2504.803
69.56000 2296.816
69.57000 2093.430
69.58000 1959.416
69.59000 1848.733
69.60000 1747.596
69.61000 1657.467
69.62000 1579.669
69.63000 1505.420
69.64000 1450.611
69.65000 1398.752
69.66000 1352.222
69.67000 1325.314
69.68000 1300.230
69.69000 1281.991
69.70000 1227.361
69.71000 1183.953
69.72000 1145.977
69.73000 1117.548
69.74000 1089.298
69.75000 1062.636
69.76000 1037.871
69.77000 1013.157
69.78000 990.735
69.79000 970.220
69.80000 949.801
69.81000 933.638
69.82000 919.762
69.83000 905.736
69.84000 888.991
69.85000 871.235
69.86000 854.799
69.87000 837.249
69.88000 821.217
69.89000 807.705
69.90000 809.703
69.91000 814.354
69.92000 815.217
69.93000 800.580
69.94000 784.279
69.95000 772.078
69.96000 753.300
69.97000 738.340
69.98000 728.442
69.99000 728.394
70.00000 728.600
