20.00000 1194.571
20.01000 1193.469
20.02000 1192.209
20.03000 1190.145
20.04000 1184.870
20.05000 1179.260
20.06000 1175.086
20.07000 1189.845
20.08000 1202.172
20.09000 1207.565
20.10000 1199.757
20.11000 1191.630
20.12000 1183.440
20.13000 1175.170
20.14000 1166.906
20.15000 1161.948
20.16000 1159.834
20.17000 1157.741
20.18000 1156.901
20.19000 1156.790
20.20000 1157.302
20.21000 1171.066
20.22000 1190.164
20.23000 1208.006
20.24000 1203.969
20.25000 1194.789
20.26000 1186.315
20.27000 1182.611
20.28000 1179.800
20.29000 1176.461
20.30000 1170.770
20.31000 1164.797
20.32000 1160.230
20.33000 1149.337
20.34000 1140.401
20.35000 1136.886
20.36000 1144.788
20.37000 1153.055
20.38000 1158.065
20.39000 1158.361
20.40000 1158.619
20.41000 1158.354
20.42000 1157.586
20.43000 1156.794
20.44000 1153.776
20.45000 1149.323
20.46000 1145.048
20.47000 1145.502
20.48000 1148.061
20.49000 1150.478
20.50000 1152.171
20.51000 1153.519
20.52000 1154.380
20.53000 1151.499
20.54000 1147.834
20.55000 1142.951
20.56000 1132.014
20.57000 1120.253
20.58000 1111.025
20.59000 1122.814
20.60000 1133.608
20.61000 1139.873
20.62000 1135.589
20.63000 1130.875
20.64000 1129.101
20.65000 1132.056
20.66000 1135.074
20.67000 1136.644
20.68000 1138.126
20.69000 1139.122
20.70000 1139.397
20.71000 1139.154
20.72000 1139.099
20.73000 1145.524
20.74000 1155.138
20.75000 1164.310
20.76000 1156.081
20.77000 1142.934
20.78000 1131.229
20.79000 1132.177
20.80000 1136.080
20.81000 1140.183
20.82000 1145.400
20.83000 1150.788
20.84000 1155.118
20.85000 1153.199
20.86000 1151.162
20.87000 1147.138
20.88000 1137.996
20.89000 1128.595
20.90000 1121.794
20.91000 1119.631
20.92000 1117.559
20.93000 1116.422
20.94000 1131.373
20.95000 1141.668
20.96000 1146.972
20.97000 1148.285
20.98000 1149.506
20.99000 1146.491
21.00000 1141.168
21.01000 1136.044
21.02000 1126.481
21.03000 1115.936
21.04000 1105.297
21.05000 1093.707
21.06000 1081.870
21.07000 1073.337
21.08000 1085.489
21.09000 1101.236
21.10000 1114.174
21.11000 1098.973
21.12000 1083.955
21.13000 1075.616
21.14000 1086.300
21.15000 1098.152
21.16000 1103.782
21.17000 1097.133
21.18000 1090.154
21.19000 1086.133
21.20000 1101.477
21.21000 1112.286
21.22000 1114.934
21.23000 1110.285
21.24000 1105.620
21.25000 1099.944
21.26000 1093.657
21.27000 1087.558
21.28000 1086.044
21.29000 1086.421
21.30000 1086.841
21.31000 1087.759
21.32000 1088.820
21.33000 1090.110
21.34000 1093.019
21.35000 1096.242
21.36000 1098.947
21.37000 1087.812
21.38000 1077.101
21.39000 1070.380
21.40000 1076.241
21.41000 1083.024
21.42000 1086.159
21.43000 1081.332
21.44000 1076.225
21.45000 1073.146
21.46000 1079.372
21.47000 1083.869
21.48000 1082.188
21.49000 1074.303
21.50000 1066.405
21.51000 1057.179
21.52000 1047.061
21.53000 1037.177
21.54000 1042.852
21.55000 1055.160
21.56000 1066.885
21.57000 1070.539
21.58000 1071.613
21.59000 1072.165
21.60000 1068.510
21.61000 1063.939
21.62000 1060.030
21.63000 1073.586
21.64000 1087.116
21.65000 1094.490
21.66000 1080.362
21.67000 1064.383
21.68000 1052.095
21.69000 1048.715
21.70000 1045.730
21.71000 1043.853
21.72000 1054.474
21.73000 1062.296
21.74000 1068.975
21.75000 1074.368
21.76000 1079.702
21.77000 1074.137
21.78000 1060.447
21.79000 1046.991
21.80000 1039.261
21.81000 1034.614
21.82000 1030.387
21.83000 1033.088
21.84000 1038.240
21.85000 1043.762
21.86000 1052.688
21.87000 1062.442
21.88000 1070.935
21.89000 1051.305
21.90000 1030.671
21.91000 1015.950
21.92000 1024.161
21.93000 1034.666
21.94000 1045.449
21.95000 1056.978
21.96000 1068.547
21.97000 1076.113
21.98000 1046.204
21.99000 1023.626
22.00000 1008.349
22.01000 1002.276
22.02000 996.255
22.03000 1000.739
22.04000 1013.962
22.05000 1027.025
22.06000 1031.554
22.07000 1031.270
22.08000 1030.918
22.09000 1029.221
22.10000 1026.999
22.11000 1025.519
22.12000 1031.936
22.13000 1040.484
22.14000 1048.052
22.15000 1054.470
22.16000 1059.841
22.17000 1062.051
22.18000 1050.622
22.19000 1037.623
22.20000 1026.597
22.21000 1021.395
22.22000 1016.576
22.23000 1013.307
22.24000 1018.128
22.25000 1021.902
22.26000 1019.978
22.27000 1010.050
22.28000 1000.070
22.29000 998.856
22.30000 1005.808
22.31000 1012.705
22.32000 1015.026
22.33000 1014.488
22.34000 1014.053
22.35000 1016.146
22.36000 1019.333
22.37000 1022.179
22.38000 1020.782
22.39000 1018.116
22.40000 1015.719
22.41000 1014.267
22.42000 1013.162
22.43000 1011.234
22.44000 1005.339
22.45000 998.922
22.46000 996.304
22.47000 1006.107
22.48000 1016.874
22.49000 1024.427
22.50000 1012.889
22.51000 1003.604
22.52000 995.693
22.53000 989.926
22.54000 984.184
22.55000 984.986
22.56000 992.640
22.57000 1000.260
22.58000 1006.969
22.59000 1012.978
22.60000 1018.593
22.61000 1011.671
22.62000 998.753
22.63000 986.548
22.64000 984.833
22.65000 986.593
22.66000 988.199
22.67000 994.455
22.68000 1000.935
22.69000 1006.174
22.70000 1004.731
22.71000 1002.292
22.72000 999.394
22.73000 994.830
22.74000 990.115
22.75000 986.702
22.76000 987.873
22.77000 988.940
22.78000 992.147
22.79000 999.059
22.80000 1006.037
22.81000 1003.752
22.82000 990.594
22.83000 977.448
22.84000 973.659
22.85000 977.103
22.86000 980.508
22.87000 982.283
22.88000 983.195
22.89000 984.219
22.90000 987.216
22.91000 990.936
22.92000 994.373
22.93000 988.649
22.94000 981.440
22.95000 975.364
22.96000 976.137
22.97000 978.062
22.98000 981.276
22.99000 989.689
23.00000 998.648
23.01000 1005.326
23.02000 993.147
23.03000 982.808
23.04000 975.999
23.05000 975.958
23.06000 976.084
23.07000 973.889
23.08000 968.650
23.09000 963.402
23.10000 965.419
23.11000 973.710
23.12000 981.938
23.13000 986.350
23.14000 988.525
23.15000 990.013
23.16000 976.667
23.17000 957.308
23.18000 939.207
23.19000 948.562
23.20000 964.036
23.21000 977.270
23.22000 975.194
23.23000 970.228
23.24000 965.518
23.25000 961.954
23.26000 958.529
23.27000 955.904
23.28000 949.763
23.29000 944.720
23.30000 941.883
23.31000 943.724
23.32000 945.717
23.33000 950.539
23.34000 959.490
23.35000 968.475
23.36000 967.246
23.37000 956.098
23.38000 945.017
23.39000 939.920
23.40000 938.713
23.41000 937.493
23.42000 935.899
23.43000 934.138
23.44000 932.473
23.45000 933.439
23.46000 935.077
23.47000 935.525
23.48000 926.746
23.49000 916.019
23.50000 907.933
23.51000 913.075
23.52000 920.035
23.53000 925.505
23.54000 949.880
23.55000 970.637
23.56000 982.323
23.57000 972.732
23.58000 962.258
23.59000 957.926
23.60000 963.545
23.61000 969.302
23.62000 972.306
23.63000 961.634
23.64000 954.408
23.65000 946.658
23.66000 938.527
23.67000 930.694
23.68000 933.250
23.69000 940.959
23.70000 948.318
23.71000 943.236
23.72000 934.545
23.73000 926.615
23.74000 925.435
23.75000 925.843
23.76000 926.009
23.77000 924.814
23.78000 923.406
23.79000 922.273
23.80000 917.409
23.81000 913.172
23.82000 910.353
23.83000 911.215
23.84000 912.265
23.85000 916.179
23.86000 925.237
23.87000 934.398
23.88000 939.441
23.89000 935.084
23.90000 932.054
23.91000 924.728
23.92000 913.938
23.93000 903.455
23.94000 907.555
23.95000 919.658
23.96000 931.315
23.97000 925.924
23.98000 914.778
23.99000 904.766
24.00000 906.338
24.01000 910.943
24.02000 914.703
24.03000 913.127
24.04000 910.617
24.05000 908.551
24.06000 913.058
24.07000 917.362
24.08000 921.143
24.09000 923.423
24.10000 925.609
24.11000 925.664
24.12000 921.479
24.13000 917.178
24.14000 914.691
24.15000 911.033
24.16000 908.465
24.17000 907.059
24.18000 906.701
24.19000 906.324
24.20000 904.727
24.21000 902.387
24.22000 900.116
24.23000 902.109
24.24000 905.700
24.25000 909.012
24.26000 908.998
24.27000 908.018
24.28000 906.882
24.29000 904.626
24.30000 902.149
24.31000 900.069
24.32000 900.717
24.33000 901.544
24.34000 901.682
24.35000 899.632
24.36000 897.419
24.37000 893.795
24.38000 887.067
24.39000 880.228
24.40000 876.091
24.41000 889.872
24.42000 899.824
24.43000 899.775
24.44000 889.598
24.45000 879.529
24.46000 881.149
24.47000 890.660
24.48000 899.957
24.49000 895.947
24.50000 886.179
24.51000 877.548
24.52000 884.824
24.53000 897.220
24.54000 908.807
24.55000 913.822
24.56000 917.394
24.57000 920.453
24.58000 912.585
24.59000 904.619
24.60000 897.055
24.61000 890.909
24.62000 884.886
24.63000 880.093
24.64000 878.293
24.65000 876.628
24.66000 875.577
24.67000 868.435
24.68000 863.192
24.69000 859.935
24.70000 858.933
24.71000 857.941
24.72000 858.523
24.73000 860.287
24.74000 862.022
24.75000 866.303
24.76000 871.709
24.77000 876.938
24.78000 879.185
24.79000 880.369
24.80000 881.743
24.81000 884.879
24.82000 888.445
24.83000 891.553
24.84000 882.273
24.85000 872.618
24.86000 866.776
24.87000 875.833
24.88000 886.395
24.89000 892.763
24.90000 887.860
24.91000 882.335
24.92000 878.712
24.93000 877.654
24.94000 876.918
24.95000 876.123
24.96000 875.252
24.97000 874.382
24.98000 874.092
24.99000 874.286
25.00000 874.479
25.01000 880.642
25.02000 889.970
25.03000 898.877
25.04000 899.210
25.05000 896.165
25.06000 892.661
25.07000 884.211
25.08000 874.418
25.09000 865.737
25.10000 858.814
25.11000 853.098
25.12000 849.462
25.13000 854.864
25.14000 861.317
25.15000 864.914
25.16000 860.019
25.17000 854.561
25.18000 850.850
25.19000 847.064
25.20000 844.236
25.21000 843.933
25.22000 847.203
25.23000 850.500
25.24000 854.440
25.25000 858.985
25.26000 863.495
25.27000 865.511
25.28000 865.947
25.29000 866.081
25.30000 858.563
25.31000 847.712
25.32000 837.929
25.33000 841.588
25.34000 849.298
25.35000 856.237
25.36000 847.735
25.37000 837.513
25.38000 830.000
25.39000 835.628
25.40000 842.997
25.41000 848.986
25.42000 850.431
25.43000 851.518
25.44000 852.283
25.45000 836.104
25.46000 823.349
25.47000 820.083
25.48000 831.742
25.49000 843.583
25.50000 846.437
25.51000 839.800
25.52000 833.191
25.53000 826.952
25.54000 821.036
25.55000 815.310
25.56000 815.760
25.57000 819.186
25.58000 822.740
25.59000 828.184
25.60000 834.259
25.61000 839.805
25.62000 845.785
25.63000 851.179
25.64000 853.746
25.65000 840.963
25.66000 825.872
25.67000 813.913
25.68000 813.392
25.69000 813.923
25.70000 814.308
25.71000 812.367
25.72000 810.789
25.73000 813.410
25.74000 823.355
25.75000 833.433
25.76000 838.683
25.77000 838.219
25.78000 837.747
25.79000 829.552
25.80000 815.401
25.81000 801.668
25.82000 806.057
25.83000 820.108
25.84000 833.539
25.85000 835.896
25.86000 834.163
25.87000 832.561
25.88000 826.285
25.89000 819.583
25.90000 812.643
25.91000 804.247
25.92000 795.605
25.93000 790.179
25.94000 797.807
25.95000 806.822
25.96000 813.556
25.97000 812.082
25.98000 810.554
25.99000 814.358
26.00000 828.458
26.01000 842.818
26.02000 842.180
26.03000 821.732
26.04000 801.203
26.05000 793.698
26.06000 797.552
26.07000 801.371
26.08000 803.018
26.09000 803.382
26.10000 803.390
26.11000 795.605
26.12000 784.639
26.13000 774.377
26.14000 781.399
26.15000 792.210
26.16000 800.979
26.17000 795.678
26.18000 787.698
26.19000 783.149
26.20000 794.105
26.21000 806.951
26.22000 816.811
26.23000 814.664
26.24000 812.297
26.25000 808.424
26.26000 801.337
26.27000 794.142
26.28000 791.562
26.29000 795.766
26.30000 800.031
26.31000 799.329
26.32000 793.764
26.33000 788.229
26.34000 785.540
26.35000 784.714
26.36000 784.072
26.37000 788.477
26.38000 795.163
26.39000 801.487
26.40000 791.046
26.41000 776.630
26.42000 764.456
26.43000 769.828
26.44000 778.934
26.45000 786.887
26.46000 789.026
26.47000 790.357
26.48000 791.405
26.49000 787.914
26.50000 784.815
26.51000 781.442
26.52000 777.422
26.53000 773.374
26.54000 771.152
26.55000 771.907
26.56000 772.705
26.57000 773.122
26.58000 796.826
26.59000 812.778
26.60000 810.316
26.61000 794.441
26.62000 778.911
26.63000 775.698
26.64000 778.638
26.65000 781.446
26.66000 780.099
26.67000 777.510
26.68000 775.187
26.69000 775.258
26.70000 775.897
26.71000 775.670
26.72000 770.539
26.73000 764.638
26.74000 759.881
26.75000 777.495
26.76000 793.560
26.77000 802.453
26.78000 792.612
26.79000 781.793
26.80000 771.646
26.81000 762.711
26.82000 753.801
26.83000 748.878
26.84000 756.822
26.85000 762.313
26.86000 763.453
26.87000 761.058
26.88000 758.651
26.89000 755.648
26.90000 752.315
26.91000 749.102
26.92000 749.464
26.93000 751.091
26.94000 753.515
26.95000 764.182
26.96000 777.022
26.97000 787.011
26.98000 778.839
26.99000 767.458
27.00000 758.077
27.01000 763.878
27.02000 770.048
27.03000 774.739
27.04000 775.157
27.05000 775.305
27.06000 772.957
27.07000 765.611
27.08000 758.125
27.09000 753.783
27.10000 762.448
27.11000 768.583
27.12000 772.581
27.13000 774.639
27.14000 776.599
27.15000 771.695
27.16000 762.587
27.17000 753.741
27.18000 740.059
27.19000 725.125
27.20000 711.663
27.21000 715.893
27.22000 725.301
27.23000 733.778
27.24000 735.539
27.25000 735.971
27.26000 736.334
27.27000 741.907
27.28000 747.109
27.29000 750.703
27.30000 749.151
27.31000 747.214
27.32000 743.631
27.33000 736.402
27.34000 729.040
27.35000 724.574
27.36000 729.791
27.37000 733.587
27.38000 731.247
27.39000 722.640
27.40000 714.130
27.41000 716.461
27.42000 726.168
27.43000 735.660
27.44000 744.449
27.45000 752.560
27.46000 759.859
27.47000 755.651
27.48000 747.713
27.49000 739.704
27.50000 731.114
27.51000 722.395
27.52000 714.919
27.53000 709.636
27.54000 705.442
27.55000 703.150
27.56000 707.602
27.57000 712.647
27.58000 718.732
27.59000 727.366
27.60000 736.116
27.61000 741.651
27.62000 744.908
27.63000 747.242
27.64000 748.865
27.65000 749.671
27.66000 750.451
27.67000 745.950
27.68000 737.450
27.69000 729.089
27.70000 726.080
27.71000 725.851
27.72000 725.934
27.73000 731.290
27.74000 738.539
27.75000 744.710
27.76000 740.746
27.77000 734.285
27.78000 728.645
27.79000 731.397
27.80000 734.928
27.81000 737.987
27.82000 739.189
27.83000 740.201
27.84000 738.220
27.85000 728.134
27.86000 717.595
27.87000 710.665
27.88000 713.385
27.89000 715.551
27.90000 714.840
27.91000 710.445
27.92000 706.052
27.93000 710.597
27.94000 722.699
27.95000 734.661
27.96000 726.866
27.97000 708.199
27.98000 690.478
27.99000 692.275
28.00000 701.816
28.01000 710.828
28.02000 714.074
28.03000 715.741
28.04000 717.221
28.05000 719.623
28.06000 721.852
28.07000 723.838
28.08000 724.757
28.09000 725.551
28.10000 723.815
28.11000 714.498
28.12000 704.671
28.13000 697.974
28.14000 706.302
28.15000 712.872
28.16000 713.317
28.17000 705.027
28.18000 696.673
28.19000 698.681
28.20000 710.504
28.21000 722.240
28.22000 722.928
28.23000 716.695
28.24000 710.811
28.25000 713.915
28.26000 720.964
28.27000 727.063
28.28000 721.088
28.29000 711.448
28.30000 702.762
28.31000 703.344
28.32000 705.531
28.33000 706.878
28.34000 704.121
28.35000 700.815
28.36000 698.037
28.37000 697.013
28.38000 696.128
28.39000 695.505
28.40000 694.587
28.41000 693.882
28.42000 695.624
28.43000 701.246
28.44000 706.917
28.45000 705.128
28.46000 695.397
28.47000 685.706
28.48000 678.970
28.49000 674.371
28.50000 670.276
28.51000 682.841
28.52000 703.491
28.53000 722.527
28.54000 717.247
28.55000 703.792
28.56000 691.497
28.57000 693.469
28.58000 698.135
28.59000 702.687
28.60000 706.619
28.61000 710.456
28.62000 713.267
28.63000 712.297
28.64000 710.976
28.65000 710.016
28.66000 702.763
28.67000 696.945
28.68000 696.875
28.69000 706.904
28.70000 717.121
28.71000 716.594
28.72000 703.252
28.73000 689.912
28.74000 686.717
28.75000 691.485
28.76000 696.179
28.77000 697.603
28.78000 697.271
28.79000 696.713
28.80000 692.057
28.81000 685.877
28.82000 680.157
28.83000 672.675
28.84000 665.544
28.85000 660.083
28.86000 664.902
28.87000 671.479
28.88000 677.278
28.89000 679.894
28.90000 682.168
28.91000 683.871
28.92000 688.038
28.93000 691.405
28.94000 693.801
28.95000 694.307
28.96000 694.765
28.97000 695.010
28.98000 694.973
28.99000 694.935
29.00000 687.677
29.01000 674.089
29.02000 660.737
29.03000 662.287
29.04000 672.702
29.05000 682.566
29.06000 680.196
29.07000 672.793
29.08000 665.859
29.09000 672.908
29.10000 682.933
29.11000 691.363
29.12000 688.703
29.13000 683.916
29.14000 679.864
29.15000 679.157
29.16000 678.862
29.17000 678.635
29.18000 671.758
29.19000 665.941
29.20000 661.985
29.21000 662.035
29.22000 662.220
29.23000 668.510
29.24000 683.841
29.25000 699.256
29.26000 698.195
29.27000 680.863
29.28000 663.685
29.29000 661.492
29.30000 669.191
29.31000 676.517
29.32000 673.347
29.33000 665.405
29.34000 657.887
29.35000 665.915
29.36000 677.805
29.37000 687.674
29.38000 681.568
29.39000 672.036
29.40000 663.937
29.41000 663.134
29.42000 663.352
29.43000 663.524
29.44000 674.008
29.45000 683.111
29.46000 688.057
29.47000 683.107
29.48000 677.734
29.49000 671.459
29.50000 663.703
29.51000 655.926
29.52000 651.834
29.53000 651.853
29.54000 651.876
29.55000 653.333
29.56000 655.843
29.57000 658.190
29.58000 654.601
29.59000 648.025
29.60000 641.739
29.61000 641.919
29.62000 644.183
29.63000 646.085
29.64000 644.714
29.65000 642.561
29.66000 641.377
29.67000 645.724
29.68000 650.946
29.69000 655.163
29.70000 652.724
29.71000 650.212
29.72000 650.144
29.73000 656.507
29.74000 663.209
29.75000 664.411
29.76000 655.587
29.77000 646.552
29.78000 641.542
29.79000 659.145
29.80000 671.312
29.81000 670.014
29.82000 657.692
29.83000 645.581
29.84000 644.014
29.85000 648.319
29.86000 652.470
29.87000 654.671
29.88000 656.034
29.89000 657.233
29.90000 656.724
29.91000 655.762
29.92000 655.061
29.93000 656.035
29.94000 657.308
29.95000 658.359
29.96000 641.291
29.97000 625.547
29.98000 615.177
29.99000 620.449
30.00000 626.720
30.01000 631.146
30.02000 631.851
30.03000 632.451
30.04000 632.799
30.05000 629.030
30.06000 626.367
30.07000 630.681
30.08000 641.389
30.09000 651.918
30.10000 649.413
30.11000 638.862
30.12000 628.610
30.13000 631.260
30.14000 639.003
30.15000 646.519
30.16000 651.262
30.17000 655.186
30.18000 658.087
30.19000 653.541
30.20000 647.507
30.21000 642.424
30.22000 634.298
30.23000 627.188
30.24000 620.616
30.25000 615.780
30.26000 611.076
30.27000 611.174
30.28000 621.983
30.29000 633.188
30.30000 640.007
30.31000 633.070
30.32000 628.006
30.33000 628.393
30.34000 634.393
30.35000 640.351
30.36000 641.414
30.37000 639.121
30.38000 636.878
30.39000 629.463
30.40000 620.008
30.41000 611.356
30.42000 614.227
30.43000 620.860
30.44000 626.618
30.45000 625.112
30.46000 621.987
30.47000 619.304
30.48000 616.917
30.49000 614.935
30.50000 613.749
30.51000 615.404
30.52000 617.312
30.53000 619.596
30.54000 622.805
30.55000 626.056
30.56000 628.119
30.57000 626.084
30.58000 624.557
30.59000 625.447
30.60000 629.128
30.61000 632.795
30.62000 632.259
30.63000 628.516
30.64000 624.833
30.65000 624.304
30.66000 625.386
30.67000 626.045
30.68000 619.462
30.69000 610.260
30.70000 601.642
30.71000 598.568
30.72000 596.870
30.73000 595.387
30.74000 603.869
30.75000 612.543
30.76000 619.382
30.77000 618.938
30.78000 617.744
30.79000 614.712
30.80000 606.667
30.81000 598.337
30.82000 592.845
30.83000 597.961
30.84000 601.916
30.85000 604.007
30.86000 603.693
30.87000 603.375
30.88000 606.689
30.89000 613.098
30.90000 619.435
30.91000 616.985
30.92000 609.634
30.93000 602.575
30.94000 601.639
30.95000 603.149
30.96000 605.120
30.97000 612.154
30.98000 620.585
30.99000 628.075
31.00000 619.860
31.01000 610.207
31.02000 602.304
31.03000 602.127
31.04000 602.866
31.05000 602.068
31.06000 596.632
31.07000 590.881
31.08000 586.951
31.09000 580.706
31.10000 575.979
31.11000 576.515
31.12000 584.613
31.13000 592.771
31.14000 598.582
31.15000 602.152
31.16000 605.697
31.17000 604.321
31.18000 599.865
31.19000 595.436
31.20000 591.707
31.21000 588.286
31.22000 585.921
31.23000 597.144
31.24000 612.521
31.25000 626.391
31.26000 615.627
31.27000 601.681
31.28000 590.622
31.29000 593.800
31.30000 598.899
31.31000 601.751
31.32000 597.091
31.33000 591.826
31.34000 588.107
31.35000 597.861
31.36000 605.677
31.37000 607.561
31.38000 599.975
31.39000 592.266
31.40000 584.151
31.41000 575.599
31.42000 567.083
31.43000 570.374
31.44000 581.960
31.45000 593.155
31.46000 591.212
31.47000 582.846
31.48000 575.635
31.49000 586.055
31.50000 602.444
31.51000 617.435
31.52000 607.048
31.53000 592.586
31.54000 581.293
31.55000 587.491
31.56000 596.364
31.57000 603.211
31.58000 602.546
31.59000 601.175
31.60000 600.177
31.61000 594.276
31.62000 589.543
31.63000 584.842
31.64000 580.198
31.65000 575.555
31.66000 573.525
31.67000 574.634
31.68000 575.749
31.69000 572.669
31.70000 566.293
31.71000 560.102
31.72000 562.333
31.73000 569.120
31.74000 575.956
31.75000 583.691
31.76000 591.764
31.77000 599.242
31.78000 594.885
31.79000 588.220
31.80000 581.243
31.81000 572.331
31.82000 563.085
31.83000 557.117
31.84000 564.651
31.85000 573.649
31.86000 580.398
31.87000 578.512
31.88000 576.630
31.89000 574.311
31.90000 571.137
31.91000 567.941
31.92000 565.868
31.93000 565.305
31.94000 564.749
31.95000 567.707
31.96000 573.774
31.97000 579.713
31.98000 577.357
31.99000 570.032
32.00000 562.775
32.01000 557.076
32.02000 552.022
32.03000 547.285
32.04000 551.389
32.05000 557.428
32.06000 563.013
32.07000 565.417
32.08000 567.206
32.09000 568.772
32.10000 569.319
32.11000 569.740
32.12000 570.064
32.13000 568.903
32.14000 567.898
32.15000 567.686
32.16000 569.194
32.17000 570.761
32.18000 571.409
32.19000 570.685
32.20000 569.949
32.21000 569.872
32.22000 570.454
32.23000 571.031
32.24000 571.097
32.25000 570.824
32.26000 570.546
32.27000 570.150
32.28000 569.700
32.29000 569.274
32.30000 562.179
32.31000 553.699
32.32000 547.242
32.33000 556.921
32.34000 570.087
32.35000 581.810
32.36000 586.124
32.37000 589.392
32.38000 591.974
32.39000 588.533
32.40000 585.360
32.41000 580.213
32.42000 570.338
32.43000 560.257
32.44000 553.487
32.45000 552.202
32.46000 550.999
32.47000 550.364
32.48000 558.857
32.49000 564.594
32.50000 564.015
32.51000 558.762
32.52000 553.572
32.53000 550.710
32.54000 549.029
32.55000 547.420
32.56000 548.744
32.57000 550.937
32.58000 553.147
32.59000 555.524
32.60000 557.940
32.61000 559.842
32.62000 558.790
32.63000 557.266
32.64000 556.033
32.65000 554.888
32.66000 553.963
32.67000 553.735
32.68000 555.354
32.69000 557.073
32.70000 557.133
32.71000 554.150
32.72000 551.100
32.73000 549.403
32.74000 539.150
32.75000 532.064
32.76000 534.555
32.77000 544.949
32.78000 555.269
32.79000 561.758
32.80000 566.098
32.81000 570.285
32.82000 568.514
32.83000 564.671
32.84000 561.259
32.85000 562.402
32.86000 564.765
32.87000 567.329
32.88000 571.201
32.89000 575.309
32.90000 578.704
32.91000 564.601
32.92000 551.328
32.93000 544.074
32.94000 554.466
32.95000 565.999
32.96000 568.641
32.97000 553.218
32.98000 537.270
32.99000 527.957
33.00000 546.327
33.01000 559.375
33.02000 562.237
33.03000 555.688
33.04000 549.219
33.05000 548.745
33.06000 551.998
33.07000 555.161
33.08000 556.538
33.09000 557.116
33.10000 557.301
33.11000 552.642
33.12000 546.544
33.13000 540.520
33.14000 535.041
33.15000 529.671
33.16000 525.142
33.17000 529.249
33.18000 533.620
33.19000 535.380
33.20000 528.666
33.21000 521.301
33.22000 519.241
33.23000 529.104
33.24000 539.414
33.25000 545.709
33.26000 534.735
33.27000 526.746
33.28000 524.340
33.29000 527.732
33.30000 531.125
33.31000 534.683
33.32000 538.354
33.33000 541.947
33.34000 538.138
33.35000 531.105
33.36000 524.692
33.37000 527.268
33.38000 532.802
33.39000 537.488
33.40000 535.078
33.41000 531.073
33.42000 527.630
33.43000 532.232
33.44000 537.133
33.45000 539.741
33.46000 534.097
33.47000 527.711
33.48000 522.230
33.49000 519.000
33.50000 515.875
33.51000 513.887
33.52000 505.237
33.53000 498.869
33.54000 497.784
33.55000 502.854
33.56000 507.937
33.57000 514.087
33.58000 521.059
33.59000 527.922
33.60000 534.272
33.61000 540.164
33.62000 545.634
33.63000 543.774
33.64000 539.244
33.65000 534.393
33.66000 526.445
33.67000 517.722
33.68000 510.090
33.69000 511.719
33.70000 514.439
33.71000 516.528
33.72000 516.091
33.73000 515.392
33.74000 515.363
33.75000 517.176
33.76000 519.094
33.77000 520.363
33.78000 519.696
33.79000 519.170
33.80000 518.520
33.81000 517.708
33.82000 516.894
33.83000 515.387
33.84000 513.284
33.85000 511.205
33.86000 508.965
33.87000 506.684
33.88000 504.441
33.89000 502.978
33.90000 501.830
33.91000 501.347
33.92000 508.266
33.93000 517.243
33.94000 525.226
33.95000 519.876
33.96000 513.066
33.97000 507.507
33.98000 507.517
33.99000 508.192
34.00000 508.770
34.01000 509.047
34.02000 509.303
34.03000 509.479
34.04000 510.886
34.05000 511.968
34.06000 514.401
34.07000 518.789
34.08000 523.192
34.09000 522.362
34.10000 516.493
34.11000 510.665
34.12000 510.256
34.13000 513.297
34.14000 516.064
34.15000 511.514
34.16000 503.708
34.17000 496.804
34.18000 501.663
34.19000 510.146
34.20000 517.804
34.21000 518.619
34.22000 518.075
34.23000 516.973
34.24000 513.098
34.25000 508.845
34.26000 505.743
34.27000 506.517
34.28000 507.606
34.29000 508.378
34.30000 506.238
34.31000 504.522
34.32000 504.353
34.33000 506.671
34.34000 509.023
34.35000 508.158
34.36000 503.811
34.37000 499.479
34.38000 498.275
34.39000 499.306
34.40000 500.257
34.41000 498.438
34.42000 495.255
34.43000 492.327
34.44000 493.329
34.45000 495.673
34.46000 497.818
34.47000 494.473
34.48000 490.357
34.49000 486.850
34.50000 486.733
34.51000 487.139
34.52000 488.076
34.53000 490.996
34.54000 494.104
34.55000 496.373
34.56000 499.614
34.57000 502.151
34.58000 504.854
34.59000 507.853
34.60000 510.859
34.61000 507.867
34.62000 497.606
34.63000 487.347
34.64000 485.965
34.65000 491.658
34.66000 497.256
34.67000 498.461
34.68000 497.272
34.69000 496.160
34.70000 496.485
34.71000 497.352
34.72000 498.156
34.73000 489.702
34.74000 479.925
34.75000 473.205
34.76000 485.626
34.77000 501.374
34.78000 515.060
34.79000 520.182
34.80000 524.367
34.81000 527.511
34.82000 503.727
34.83000 483.838
34.84000 471.667
34.85000 474.732
34.86000 478.205
34.87000 481.196
34.88000 483.535
34.89000 485.869
34.90000 490.231
34.91000 496.399
34.92000 502.495
34.93000 503.811
34.94000 502.242
34.95000 500.802
34.96000 502.341
34.97000 505.124
34.98000 507.734
34.99000 496.711
35.00000 483.088
35.01000 470.631
35.02000 466.432
35.03000 463.842
35.04000 463.617
35.05000 474.329
35.06000 486.413
35.07000 495.740
35.08000 487.341
35.09000 479.654
35.10000 476.431
35.11000 482.956
35.12000 489.821
35.13000 491.412
35.14000 485.069
35.15000 478.647
35.16000 475.429
35.17000 472.148
35.18000 469.990
35.19000 471.056
35.20000 474.281
35.21000 477.433
35.22000 478.456
35.23000 478.495
35.24000 478.532
35.25000 479.353
35.26000 480.339
35.27000 480.499
35.28000 473.998
35.29000 466.045
35.30000 461.344
35.31000 473.452
35.32000 487.957
35.33000 499.436
35.34000 492.326
35.35000 485.327
35.36000 479.456
35.37000 476.311
35.38000 473.286
35.39000 472.530
35.40000 475.560
35.41000 478.648
35.42000 480.285
35.43000 480.916
35.44000 481.331
35.45000 479.224
35.46000 475.235
35.47000 471.224
35.48000 466.334
35.49000 460.996
35.50000 455.887
35.51000 455.963
35.52000 457.743
35.53000 459.833
35.54000 464.770
35.55000 470.399
35.56000 474.805
35.57000 472.118
35.58000 468.289
35.59000 465.186
35.60000 461.761
35.61000 458.945
35.62000 459.384
35.63000 468.515
35.64000 478.117
35.65000 481.285
35.66000 472.553
35.67000 463.558
35.68000 458.534
35.69000 463.944
35.70000 467.714
35.71000 471.886
35.72000 476.394
35.73000 480.908
35.74000 485.776
35.75000 490.843
35.76000 495.734
35.77000 488.684
35.78000 477.644
35.79000 467.558
35.80000 467.637
35.81000 470.458
35.82000 472.057
35.83000 465.662
35.84000 457.818
35.85000 451.324
35.86000 447.433
35.87000 444.470
35.88000 444.734
35.89000 454.532
35.90000 464.955
35.91000 469.347
35.92000 461.395
35.93000 453.076
35.94000 448.203
35.95000 465.979
35.96000 478.605
35.97000 479.463
35.98000 469.359
35.99000 459.310
36.00000 453.555
36.01000 450.491
36.02000 447.510
36.03000 448.250
36.04000 450.486
36.05000 452.550
36.06000 452.473
36.07000 451.755
36.08000 451.917
36.09000 458.589
36.10000 466.582
36.11000 473.336
36.12000 468.101
36.13000 462.406
36.14000 455.894
36.15000 446.710
36.16000 437.318
36.17000 432.985
36.18000 440.101
36.19000 447.655
36.20000 452.281
36.21000 453.105
36.22000 453.663
36.23000 456.859
36.24000 462.817
36.25000 468.711
36.26000 466.477
36.27000 458.586
36.28000 450.858
36.29000 450.440
36.30000 453.396
36.31000 456.681
36.32000 464.789
36.33000 474.496
36.34000 482.612
36.35000 477.293
36.36000 468.930
36.37000 461.730
36.38000 458.815
36.39000 456.887
36.40000 455.362
36.41000 455.296
36.42000 455.364
36.43000 454.781
36.44000 452.569
36.45000 450.279
36.46000 448.818
36.47000 452.909
36.48000 455.956
36.49000 457.185
36.50000 456.281
36.51000 455.369
36.52000 453.473
36.53000 450.815
36.54000 448.198
36.55000 450.896
36.56000 456.239
36.57000 461.017
36.58000 455.802
36.59000 446.923
36.60000 438.797
36.61000 437.967
36.62000 438.977
36.63000 439.862
36.64000 442.397
36.65000 444.809
36.66000 446.053
36.67000 442.589
36.68000 438.629
36.69000 436.951
36.70000 441.588
36.71000 446.592
36.72000 449.909
36.73000 447.059
36.74000 444.841
36.75000 446.136
36.76000 452.035
36.77000 457.946
36.78000 456.457
36.79000 448.560
36.80000 440.746
36.81000 441.827
36.82000 447.981
36.83000 453.654
36.84000 448.939
36.85000 440.012
36.86000 432.076
36.87000 435.284
36.88000 441.612
36.89000 447.246
36.90000 453.324
36.91000 458.677
36.92000 462.265
36.93000 457.937
36.94000 452.654
36.95000 448.289
36.96000 446.738
36.97000 445.382
36.98000 444.451
36.99000 446.802
37.00000 448.644
37.01000 448.632
37.02000 445.916
37.03000 443.176
37.04000 436.381
37.05000 425.650
37.06000 414.989
37.07000 415.749
37.08000 423.811
37.09000 431.563
37.10000 430.886
37.11000 426.430
37.12000 422.425
37.13000 424.369
37.14000 428.158
37.15000 431.583
37.16000 429.983
37.17000 427.642
37.18000 425.989
37.19000 427.788
37.20000 430.061
37.21000 432.339
37.22000 434.632
37.23000 436.926
37.24000 438.553
37.25000 428.287
37.26000 420.101
37.27000 416.317
37.28000 419.666
37.29000 423.113
37.30000 425.645
37.31000 427.176
37.32000 428.701
37.33000 428.704
37.34000 427.615
37.35000 426.458
37.36000 422.891
37.37000 418.130
37.38000 413.789
37.39000 416.013
37.40000 420.493
37.41000 424.598
37.42000 425.878
37.43000 426.426
37.44000 426.587
37.45000 424.582
37.46000 422.240
37.47000 418.942
37.48000 412.049
37.49000 404.812
37.50000 399.516
37.51000 405.086
37.52000 409.814
37.53000 417.345
37.54000 429.910
37.55000 442.576
37.56000 441.826
37.57000 424.686
37.58000 407.533
37.59000 404.044
37.60000 411.537
37.61000 418.891
37.62000 419.623
37.63000 416.719
37.64000 413.951
37.65000 413.737
37.66000 414.495
37.67000 415.197
37.68000 423.251
37.69000 432.242
37.70000 438.194
37.71000 424.949
37.72000 408.338
37.73000 396.238
37.74000 403.012
37.75000 411.873
37.76000 418.545
37.77000 422.053
37.78000 424.645
37.79000 425.074
37.80000 421.204
37.81000 417.216
37.82000 416.720
37.83000 420.981
37.84000 425.268
37.85000 423.830
37.86000 417.237
37.87000 410.683
37.88000 406.784
37.89000 404.501
37.90000 402.650
37.91000 410.896
37.92000 423.387
37.93000 435.113
37.94000 432.867
37.95000 427.116
37.96000 420.998
37.97000 412.245
37.98000 402.975
37.99000 397.331
38.00000 408.593
38.01000 421.995
38.02000 432.360
38.03000 432.787
38.04000 432.542
38.05000 429.336
38.06000 419.616
38.07000 409.663
38.08000 405.830
38.09000 411.268
38.10000 416.801
38.11000 419.586
38.12000 407.304
38.13000 399.164
38.14000 398.187
38.15000 402.047
38.16000 405.840
38.17000 407.682
38.18000 408.617
38.19000 409.504
38.20000 412.264
38.21000 415.365
38.22000 418.276
38.23000 419.643
38.24000 420.672
38.25000 420.146
38.26000 411.514
38.27000 401.717
38.28000 393.949
38.29000 403.298
38.30000 412.016
38.31000 416.752
38.32000 411.806
38.33000 406.424
38.34000 402.386
38.35000 400.607
38.36000 398.863
38.37000 397.935
38.38000 402.586
38.39000 405.753
38.40000 408.220
38.41000 410.160
38.42000 412.107
38.43000 414.302
38.44000 416.625
38.45000 418.850
38.46000 417.171
38.47000 414.309
38.48000 411.589
38.49000 410.194
38.50000 409.124
38.51000 408.210
38.52000 408.207
38.53000 408.352
38.54000 408.469
38.55000 409.606
38.56000 410.616
38.57000 411.450
38.58000 411.807
38.59000 412.138
38.60000 411.912
38.61000 410.649
38.62000 409.361
38.63000 408.640
38.64000 410.246
38.65000 411.357
38.66000 408.334
38.67000 401.844
38.68000 395.497
38.69000 396.825
38.70000 402.522
38.71000 408.024
38.72000 411.481
38.73000 413.980
38.74000 415.393
38.75000 405.114
38.76000 391.656
38.77000 380.223
38.78000 382.140
38.79000 386.496
38.80000 390.108
38.81000 394.640
38.82000 398.472
38.83000 401.493
38.84000 402.101
38.85000 402.549
38.86000 402.644
38.87000 402.011
38.88000 401.357
38.89000 400.972
38.90000 400.620
38.91000 400.372
38.92000 400.674
38.93000 401.493
38.94000 402.288
38.95000 401.268
38.96000 399.102
38.97000 396.994
38.98000 396.976
38.99000 397.827
39.00000 398.152
39.01000 391.855
39.02000 383.563
39.03000 376.462
39.04000 378.271
39.05000 381.902
39.06000 384.973
39.07000 387.862
39.08000 390.259
39.09000 392.338
39.10000 393.370
39.11000 394.319
39.12000 395.733
39.13000 398.204
39.14000 400.717
39.15000 402.261
39.16000 393.489
39.17000 387.112
39.18000 385.095
39.19000 387.683
39.20000 390.292
39.21000 395.412
39.22000 402.294
39.23000 409.036
39.24000 408.893
39.25000 405.565
39.26000 402.260
39.27000 399.301
39.28000 396.456
39.29000 393.428
39.30000 388.828
39.31000 383.869
39.32000 379.594
39.33000 380.115
39.34000 381.168
39.35000 383.555
39.36000 390.821
39.37000 398.535
39.38000 402.501
39.39000 397.023
39.40000 391.086
39.41000 387.289
39.42000 384.943
39.43000 383.254
39.44000 386.809
39.45000 396.570
39.46000 406.308
39.47000 407.063
39.48000 400.800
39.49000 394.630
39.50000 390.322
39.51000 387.106
39.52000 384.077
39.53000 384.402
39.54000 385.967
39.55000 387.405
39.56000 387.604
39.57000 387.488
39.58000 387.387
39.59000 383.081
39.60000 378.772
39.61000 376.893
39.62000 384.875
39.63000 393.905
39.64000 400.619
39.65000 400.876
39.66000 400.752
39.67000 400.670
39.68000 394.095
39.69000 389.112
39.70000 385.869
39.71000 384.923
39.72000 383.984
39.73000 379.167
39.74000 370.965
39.75000 362.846
39.76000 363.513
39.77000 369.242
39.78000 374.929
39.79000 379.694
39.80000 384.083
39.81000 387.586
39.82000 381.012
39.83000 371.596
39.84000 363.203
39.85000 368.949
39.86000 376.286
39.87000 381.750
39.88000 378.755
39.89000 374.728
39.90000 371.815
39.91000 372.339
39.92000 373.105
39.93000 373.633
39.94000 376.799
39.95000 379.242
39.96000 379.899
39.97000 377.932
39.98000 375.942
39.99000 373.641
40.00000 371.037
40.01000 368.450
40.02000 368.208
40.03000 369.482
40.04000 370.809
40.05000 373.571
40.06000 376.981
40.07000 380.135
40.08000 379.875
40.09000 378.546
40.10000 377.344
40.11000 376.802
40.12000 376.448
40.13000 375.210
40.14000 369.508
40.15000 363.187
40.16000 360.071
40.17000 367.912
40.18000 376.665
40.19000 382.890
40.20000 377.924
40.21000 373.783
40.22000 372.862
40.23000 377.196
40.24000 381.606
40.25000 383.629
40.26000 383.026
40.27000 382.424
40.28000 379.396
40.29000 374.640
40.30000 370.011
40.31000 369.903
40.32000 372.053
40.33000 373.950
40.34000 371.818
40.35000 368.292
40.36000 365.058
40.37000 368.021
40.38000 371.972
40.39000 375.784
40.40000 378.812
40.41000 381.716
40.42000 384.058
40.43000 384.266
40.44000 384.268
40.45000 384.269
40.46000 381.565
40.47000 379.368
40.48000 375.608
40.49000 369.023
40.50000 362.380
40.51000 362.016
40.52000 369.384
40.53000 376.763
40.54000 381.879
40.55000 385.145
40.56000 388.252
40.57000 383.655
40.58000 374.798
40.59000 366.379
40.60000 366.385
40.61000 369.616
40.62000 372.616
40.63000 375.139
40.64000 377.301
40.65000 378.216
40.66000 371.190
40.67000 362.761
40.68000 357.807
40.69000 367.502
40.70000 378.835
40.71000 387.385
40.72000 380.459
40.73000 374.269
40.74000 370.547
40.75000 371.767
40.76000 373.126
40.77000 367.980
40.78000 353.903
40.79000 339.776
40.80000 340.330
40.81000 354.218
40.82000 367.969
40.83000 372.090
40.84000 370.312
40.85000 368.680
40.86000 370.526
40.87000 373.845
40.88000 376.963
40.89000 372.401
40.90000 366.187
40.91000 360.962
40.92000 362.868
40.93000 366.188
40.94000 368.246
40.95000 364.374
40.96000 359.745
40.97000 356.158
40.98000 359.085
40.99000 361.797
41.00000 365.610
41.01000 371.859
41.02000 378.197
41.03000 379.347
41.04000 372.576
41.05000 365.722
41.06000 362.258
41.07000 362.583
41.08000 362.806
41.09000 363.761
41.10000 365.213
41.11000 366.566
41.12000 364.950
41.13000 361.942
41.14000 359.087
41.15000 361.162
41.16000 364.551
41.17000 367.437
41.18000 366.188
41.19000 364.023
41.20000 362.231
41.21000 362.404
41.22000 362.861
41.23000 363.224
41.24000 359.893
41.25000 356.951
41.26000 354.692
41.27000 354.108
41.28000 353.602
41.29000 356.686
41.30000 365.853
41.31000 375.121
41.32000 380.072
41.33000 367.530
41.34000 358.989
41.35000 355.419
41.36000 355.613
41.37000 355.876
41.38000 358.896
41.39000 363.342
41.40000 367.603
41.41000 366.360
41.42000 363.356
41.43000 360.015
41.44000 353.498
41.45000 346.199
41.46000 340.490
41.47000 344.162
41.48000 349.372
41.49000 353.606
41.50000 352.414
41.51000 350.989
41.52000 350.227
41.53000 351.259
41.54000 352.392
41.55000 353.147
41.56000 353.195
41.57000 353.227
41.58000 353.245
41.59000 355.605
41.60000 357.247
41.61000 357.857
41.62000 357.595
41.63000 357.348
41.64000 357.961
41.65000 359.067
41.66000 360.136
41.67000 355.180
41.68000 348.250
41.69000 342.068
41.70000 344.034
41.71000 348.232
41.72000 351.941
41.73000 352.404
41.74000 352.268
41.75000 352.156
41.76000 351.599
41.77000 351.096
41.78000 350.416
41.79000 349.206
41.80000 347.960
41.81000 346.624
41.82000 345.102
41.83000 343.574
41.84000 342.673
41.85000 338.843
41.86000 336.125
41.87000 333.485
41.88000 330.922
41.89000 328.396
41.90000 328.938
41.91000 331.431
41.92000 333.859
41.93000 336.432
41.94000 338.945
41.95000 341.702
41.96000 347.561
41.97000 354.363
41.98000 360.208
41.99000 358.832
42.00000 355.967
42.01000 353.540
42.02000 353.389
42.03000 353.518
42.04000 353.340
42.05000 352.144
42.06000 350.867
42.07000 349.042
42.08000 345.957
42.09000 342.823
42.10000 340.892
42.11000 343.783
42.12000 345.901
42.13000 345.113
42.14000 341.229
42.15000 337.350
42.16000 334.253
42.17000 331.710
42.18000 329.216
42.19000 333.609
42.20000 341.051
42.21000 348.254
42.22000 351.845
42.23000 354.221
42.24000 355.674
42.25000 349.178
42.26000 340.854
42.27000 333.669
42.28000 335.858
42.29000 338.922
42.30000 341.464
42.31000 342.080
42.32000 342.518
42.33000 340.447
42.34000 332.007
42.35000 323.254
42.36000 317.639
42.37000 322.156
42.38000 325.587
42.39000 330.704
42.40000 337.831
42.41000 344.932
42.42000 343.155
42.43000 334.390
42.44000 325.752
42.45000 325.874
42.46000 330.559
42.47000 335.064
42.48000 336.319
42.49000 336.363
42.50000 336.109
42.51000 332.901
42.52000 328.937
42.53000 325.455
42.54000 329.667
42.55000 334.417
42.56000 338.323
42.57000 338.782
42.58000 338.871
42.59000 337.383
42.60000 331.468
42.61000 325.289
42.62000 321.172
42.63000 324.682
42.64000 327.425
42.65000 329.297
42.66000 330.011
42.67000 330.717
42.68000 329.023
42.69000 325.217
42.70000 321.450
42.71000 319.978
42.72000 319.874
42.73000 319.852
42.74000 321.655
42.75000 324.209
42.76000 326.830
42.77000 330.217
42.78000 333.823
42.79000 337.041
42.80000 335.249
42.81000 332.854
42.82000 332.425
42.83000 340.956
42.84000 350.589
42.85000 357.065
42.86000 353.728
42.87000 349.689
42.88000 346.903
42.89000 329.832
42.90000 316.643
42.91000 312.389
42.92000 321.370
42.93000 330.473
42.94000 333.804
42.95000 331.433
42.96000 329.076
42.97000 321.433
42.98000 310.456
42.99000 300.006
43.00000 304.331
43.01000 315.375
43.02000 326.081
43.03000 332.216
43.04000 336.912
43.05000 341.165
43.06000 337.112
43.07000 331.971
43.08000 328.185
43.09000 331.303
43.10000 335.387
43.11000 337.873
43.12000 334.857
43.13000 331.378
43.14000 328.899
43.15000 326.405
43.16000 324.504
43.17000 322.243
43.18000 319.390
43.19000 316.529
43.20000 318.576
43.21000 326.070
43.22000 333.543
43.23000 332.185
43.24000 324.406
43.25000 316.817
43.26000 316.152
43.27000 318.970
43.28000 321.448
43.29000 318.473
43.30000 313.597
43.31000 309.120
43.32000 309.886
43.33000 311.688
43.34000 313.627
43.35000 316.350
43.36000 319.198
43.37000 322.142
43.38000 325.456
43.39000 328.806
43.40000 331.268
43.41000 326.876
43.42000 323.200
43.43000 321.839
43.44000 324.694
43.45000 327.638
43.46000 330.515
43.47000 333.307
43.48000 336.095
43.49000 333.174
43.50000 325.607
43.51000 318.169
43.52000 317.180
43.53000 319.785
43.54000 322.335
43.55000 323.849
43.56000 324.963
43.57000 325.999
43.58000 321.753
43.59000 316.654
43.60000 312.989
43.61000 318.534
43.62000 325.720
43.63000 331.101
43.64000 328.808
43.65000 325.649
43.66000 323.261
43.67000 322.699
43.68000 322.350
43.69000 322.504
43.70000 323.674
43.71000 324.872
43.72000 319.691
43.73000 305.683
43.74000 291.622
43.75000 294.765
43.76000 313.661
43.77000 332.374
43.78000 337.754
43.79000 334.902
43.80000 331.973
43.81000 327.175
43.82000 321.580
43.83000 316.319
43.84000 317.847
43.85000 321.070
43.86000 323.607
43.87000 321.152
43.88000 317.701
43.89000 315.361
43.90000 318.290
43.91000 321.898
43.92000 324.699
43.93000 315.405
43.94000 307.287
43.95000 301.860
43.96000 302.437
43.97000 303.235
43.98000 305.708
43.99000 310.758
44.00000 315.836
44.01000 318.413
44.02000 317.590
44.03000 317.025
44.04000 314.825
44.05000 311.505
44.06000 308.401
44.07000 311.903
44.08000 318.521
44.09000 324.809
44.10000 315.795
44.11000 302.852
44.12000 291.512
44.13000 293.454
44.14000 298.358
44.15000 303.077
44.16000 306.815
44.17000 310.411
44.18000 313.271
44.19000 305.369
44.20000 298.230
44.21000 294.720
44.22000 300.166
44.23000 306.027
44.24000 310.674
44.25000 313.251
44.26000 315.793
44.27000 317.156
44.28000 316.729
44.29000 316.441
44.30000 317.182
44.31000 318.708
44.32000 320.031
44.33000 313.142
44.34000 301.967
44.35000 291.251
44.36000 286.215
44.37000 283.429
44.38000 281.460
44.39000 287.266
44.40000 295.002
44.41000 301.853
44.42000 303.438
44.43000 304.153
44.44000 304.735
44.45000 310.427
44.46000 315.506
44.47000 317.088
44.48000 309.126
44.49000 300.623
44.50000 294.657
44.51000 293.485
44.52000 292.426
44.53000 291.829
44.54000 305.449
44.55000 314.940
44.56000 316.004
44.57000 309.888
44.58000 303.805
44.59000 299.630
44.60000 296.556
44.61000 293.584
44.62000 294.606
44.63000 297.078
44.64000 299.124
44.65000 296.483
44.66000 292.548
44.67000 289.848
44.68000 295.434
44.69000 302.559
44.70000 308.484
44.71000 303.718
44.72000 298.725
44.73000 294.762
44.74000 293.908
44.75000 293.265
44.76000 294.537
44.77000 299.813
44.78000 305.215
44.79000 308.411
44.80000 310.514
44.81000 311.994
44.82000 309.325
44.83000 302.694
44.84000 296.112
44.85000 293.710
44.86000 293.987
44.87000 294.256
44.88000 296.619
44.89000 299.754
44.90000 302.574
44.91000 301.336
44.92000 298.857
44.93000 296.715
44.94000 297.145
44.95000 298.111
44.96000 298.929
44.97000 292.791
44.98000 286.856
44.99000 284.482
45.00000 294.015
45.01000 304.505
45.02000 311.712
45.03000 311.326
45.04000 310.635
45.05000 310.208
45.06000 304.937
45.07000 301.105
45.08000 297.249
45.09000 293.367
45.10000 289.515
45.11000 290.019
45.12000 293.624
45.13000 297.160
45.14000 297.383
45.15000 296.039
45.16000 294.486
45.17000 289.743
45.18000 283.920
45.19000 278.773
45.20000 279.501
45.21000 281.591
45.22000 283.397
45.23000 286.755
45.24000 289.809
45.25000 292.110
45.26000 291.615
45.27000 290.858
45.28000 290.958
45.29000 293.252
45.30000 295.656
45.31000 297.202
45.32000 293.555
45.33000 290.821
45.34000 293.173
45.35000 301.640
45.36000 310.102
45.37000 313.229
45.38000 312.122
45.39000 311.031
45.40000 304.538
45.41000 295.390
45.42000 286.622
45.43000 284.832
45.44000 285.656
45.45000 286.777
45.46000 290.859
45.47000 295.706
45.48000 299.967
45.49000 299.145
45.50000 297.684
45.51000 295.417
45.52000 289.830
45.53000 283.883
45.54000 281.837
45.55000 290.826
45.56000 300.485
45.57000 306.936
45.58000 298.613
45.59000 292.158
45.60000 291.984
45.61000 300.237
45.62000 308.525
45.63000 307.617
45.64000 298.549
45.65000 289.568
45.66000 288.291
45.67000 291.562
45.68000 294.816
45.69000 297.675
45.70000 300.370
45.71000 302.649
45.72000 300.096
45.73000 296.160
45.74000 292.644
45.75000 289.684
45.76000 287.200
45.77000 286.263
45.78000 292.433
45.79000 299.485
45.80000 303.295
45.81000 296.955
45.82000 289.880
45.83000 284.987
45.84000 290.369
45.85000 294.682
45.86000 294.564
45.87000 287.831
45.88000 281.035
45.89000 280.020
45.90000 284.765
45.91000 289.482
45.92000 291.977
45.93000 292.980
45.94000 294.092
45.95000 298.292
45.96000 303.907
45.97000 309.073
45.98000 308.100
45.99000 305.179
46.00000 302.532
46.01000 300.044
46.02000 297.881
46.03000 295.701
46.04000 293.436
46.05000 291.159
46.06000 287.859
46.07000 281.009
46.08000 273.856
46.09000 268.746
46.10000 273.288
46.11000 277.074
46.12000 280.156
46.13000 282.071
46.14000 283.969
46.15000 284.784
46.16000 284.390
46.17000 283.996
46.18000 283.506
46.19000 282.949
46.20000 282.471
46.21000 284.967
46.22000 288.970
46.23000 292.612
46.24000 290.374
46.25000 286.072
46.26000 282.118
46.27000 281.764
46.28000 282.221
46.29000 282.803
46.30000 284.099
46.31000 285.508
46.32000 287.198
46.33000 289.971
46.34000 292.850
46.35000 294.970
46.36000 289.412
46.37000 284.790
46.38000 281.148
46.39000 279.302
46.40000 277.496
46.41000 278.846
46.42000 284.147
46.43000 289.453
46.44000 289.368
46.45000 284.848
46.46000 280.394
46.47000 279.364
46.48000 280.253
46.49000 281.237
46.50000 284.083
46.51000 287.654
46.52000 290.976
46.53000 285.597
46.54000 278.633
46.55000 273.584
46.56000 280.952
46.57000 290.551
46.58000 296.644
46.59000 287.723
46.60000 277.091
46.61000 269.038
46.62000 276.016
46.63000 282.258
46.64000 285.429
46.65000 282.361
46.66000 279.111
46.67000 275.774
46.68000 272.316
46.69000 268.857
46.70000 267.318
46.71000 267.552
46.72000 267.844
46.73000 272.513
46.74000 279.904
46.75000 287.063
46.76000 288.542
46.77000 287.582
46.78000 286.678
46.79000 286.373
46.80000 286.258
46.81000 285.850
46.82000 283.303
46.83000 280.326
46.84000 277.533
46.85000 275.622
46.86000 273.827
46.87000 272.430
46.88000 275.950
46.89000 279.052
46.90000 279.508
46.91000 274.018
46.92000 268.306
46.93000 268.492
46.94000 277.821
46.95000 287.255
46.96000 292.061
46.97000 292.091
46.98000 292.100
46.99000 290.870
47.00000 288.783
47.01000 286.652
47.02000 283.169
47.03000 279.044
47.04000 275.121
47.05000 275.982
47.06000 278.233
47.07000 280.422
47.08000 282.088
47.09000 283.637
47.10000 284.451
47.11000 281.335
47.12000 277.640
47.13000 274.695
47.14000 272.135
47.15000 270.098
47.16000 269.184
47.17000 271.060
47.18000 273.067
47.19000 273.606
47.20000 271.620
47.21000 269.591
47.22000 268.498
47.23000 274.964
47.24000 279.376
47.25000 280.215
47.26000 278.307
47.27000 276.393
47.28000 274.257
47.29000 272.003
47.30000 269.841
47.31000 269.587
47.32000 270.000
47.33000 269.981
47.34000 265.822
47.35000 260.626
47.36000 257.176
47.37000 264.205
47.38000 272.981
47.39000 280.135
47.40000 279.061
47.41000 277.483
47.42000 276.681
47.43000 278.014
47.44000 279.471
47.45000 281.947
47.46000 286.365
47.47000 290.829
47.48000 293.358
47.49000 281.213
47.50000 272.727
47.51000 269.677
47.52000 271.297
47.53000 272.834
47.54000 269.563
47.55000 263.494
47.56000 257.621
47.57000 261.733
47.58000 269.416
47.59000 276.136
47.60000 272.152
47.61000 265.193
47.62000 259.320
47.63000 260.802
47.64000 263.661
47.65000 266.043
47.66000 261.868
47.67000 257.760
47.68000 255.707
47.69000 259.904
47.70000 264.532
47.71000 267.917
47.72000 268.682
47.73000 269.363
47.74000 269.767
47.75000 275.501
47.76000 279.588
47.77000 275.310
47.78000 262.975
47.79000 250.785
47.80000 251.257
47.81000 259.903
47.82000 268.331
47.83000 271.649
47.84000 272.644
47.85000 273.477
47.86000 272.197
47.87000 270.266
47.88000 268.233
47.89000 265.419
47.90000 262.441
47.91000 259.912
47.92000 265.535
47.93000 271.187
47.94000 274.391
47.95000 269.352
47.96000 263.643
47.97000 262.653
47.98000 272.658
47.99000 283.112
48.00000 289.591
48.01000 285.270
48.02000 282.059
48.03000 277.313
48.04000 270.907
48.05000 264.504
48.06000 258.714
48.07000 253.363
48.08000 248.115
48.09000 252.266
48.10000 260.724
48.11000 268.478
48.12000 265.340
48.13000 258.485
48.14000 252.882
48.15000 258.274
48.16000 266.233
48.17000 273.121
48.18000 271.770
48.19000 269.540
48.20000 267.261
48.21000 264.802
48.22000 262.326
48.23000 259.156
48.24000 254.200
48.25000 249.152
48.26000 245.896
48.27000 262.630
48.28000 275.142
48.29000 279.483
48.30000 273.919
48.31000 268.337
48.32000 264.475
48.33000 261.988
48.34000 259.535
48.35000 258.342
48.36000 257.848
48.37000 257.281
48.38000 255.327
48.39000 252.850
48.40000 250.801
48.41000 253.079
48.42000 256.481
48.43000 259.475
48.44000 264.692
48.45000 269.516
48.46000 272.982
48.47000 270.805
48.48000 268.011
48.49000 265.555
48.50000 264.064
48.51000 262.632
48.52000 261.673
48.53000 255.134
48.54000 250.173
48.55000 248.762
48.56000 252.153
48.57000 255.570
48.58000 257.260
48.59000 257.407
48.60000 257.553
48.61000 258.359
48.62000 259.540
48.63000 260.699
48.64000 261.344
48.65000 261.775
48.66000 261.853
48.67000 257.777
48.68000 252.503
48.69000 247.786
48.70000 249.938
48.71000 252.982
48.72000 255.926
48.73000 258.405
48.74000 260.825
48.75000 262.090
48.76000 259.709
48.77000 257.062
48.78000 255.226
48.79000 263.160
48.80000 269.390
48.81000 270.625
48.82000 264.347
48.83000 257.994
48.84000 254.222
48.85000 253.044
48.86000 251.872
48.87000 250.101
48.88000 247.958
48.89000 245.826
48.90000 244.032
48.91000 242.393
48.92000 241.422
48.93000 249.685
48.94000 260.898
48.95000 271.074
48.96000 267.015
48.97000 260.694
48.98000 255.526
48.99000 256.321
49.00000 257.966
49.01000 259.728
49.02000 261.896
49.03000 264.098
49.04000 265.675
49.05000 262.671
49.06000 260.222
49.07000 257.410
49.08000 253.995
49.09000 250.570
49.10000 246.675
49.11000 242.249
49.12000 237.837
49.13000 242.060
49.14000 252.643
49.15000 262.889
49.16000 260.293
49.17000 251.142
49.18000 242.842
49.19000 248.580
49.20000 259.283
49.21000 269.128
49.22000 263.537
49.23000 255.194
49.24000 248.342
49.25000 250.141
49.26000 253.335
49.27000 255.879
49.28000 255.905
49.29000 255.679
49.30000 255.512
49.31000 254.685
49.32000 254.016
49.33000 253.451
49.34000 253.077
49.35000 252.706
49.36000 253.679
49.37000 256.345
49.38000 259.014
49.39000 258.459
49.40000 255.231
49.41000 252.051
49.42000 251.348
49.43000 252.045
49.44000 252.660
49.45000 251.613
49.46000 249.917
49.47000 248.337
49.48000 244.785
49.49000 241.091
49.50000 238.925
49.51000 246.745
49.52000 256.374
49.53000 262.777
49.54000 255.254
49.55000 246.128
49.56000 239.203
49.57000 246.516
49.58000 252.995
49.59000 256.568
49.60000 254.193
49.61000 251.642
49.62000 249.504
49.63000 247.946
49.64000 246.393
49.65000 246.351
49.66000 247.715
49.67000 249.046
49.68000 247.812
49.69000 244.972
49.70000 242.317
49.71000 244.249
49.72000 248.167
49.73000 251.856
49.74000 253.944
49.75000 255.417
49.76000 256.394
49.77000 253.702
49.78000 250.265
49.79000 248.090
49.80000 251.990
49.81000 256.688
49.82000 260.348
49.83000 249.966
49.84000 240.826
49.85000 235.778
49.86000 239.992
49.87000 244.560
49.88000 248.658
49.89000 252.022
49.90000 255.377
49.91000 257.093
49.92000 254.337
49.93000 252.504
49.94000 253.100
49.95000 255.387
49.96000 257.528
49.97000 254.991
49.98000 250.216
49.99000 245.673
50.00000 247.002
50.01000 250.032
50.02000 252.384
50.03000 249.011
50.04000 244.342
50.05000 241.065
50.06000 245.288
50.07000 250.628
50.08000 254.891
50.09000 251.152
50.10000 247.546
50.11000 246.911
50.12000 253.713
50.13000 260.871
50.14000 263.233
50.15000 257.289
50.16000 251.199
50.17000 247.907
50.18000 252.343
50.19000 255.371
50.20000 254.062
50.21000 249.392
50.22000 244.868
50.23000 246.517
50.24000 251.433
50.25000 256.153
50.26000 251.413
50.27000 243.733
50.28000 236.911
50.29000 238.421
50.30000 242.031
50.31000 245.005
50.32000 244.126
50.33000 242.600
50.34000 241.353
50.35000 240.042
50.36000 238.963
50.37000 238.129
50.38000 237.973
50.39000 237.856
50.40000 239.453
50.41000 244.339
50.42000 249.305
50.43000 252.128
50.44000 247.311
50.45000 243.931
50.46000 239.805
50.47000 235.033
50.48000 230.334
50.49000 229.985
50.50000 232.185
50.51000 234.316
50.52000 238.114
50.53000 242.345
50.54000 246.281
50.55000 246.900
50.56000 246.589
50.57000 246.056
50.58000 244.000
50.59000 241.658
50.60000 239.704
50.61000 236.618
50.62000 233.947
50.63000 232.223
50.64000 233.405
50.65000 234.788
50.66000 237.100
50.67000 241.381
50.68000 245.726
50.69000 248.314
50.70000 248.211
50.71000 248.123
50.72000 249.114
50.73000 251.155
50.74000 253.171
50.75000 252.965
50.76000 251.312
50.77000 249.701
50.78000 249.732
50.79000 250.465
50.80000 250.964
50.81000 248.392
50.82000 244.867
50.83000 241.486
50.84000 239.224
50.85000 237.198
50.86000 235.474
50.87000 242.061
50.88000 248.554
50.89000 253.601
50.90000 253.739
50.91000 253.474
50.92000 253.012
50.93000 252.088
50.94000 251.145
50.95000 250.558
50.96000 254.452
50.97000 257.301
50.98000 258.113
50.99000 256.702
51.00000 255.282
51.01000 252.620
51.02000 249.059
51.03000 245.565
51.04000 245.778
51.05000 247.755
51.06000 249.573
51.07000 248.880
51.08000 247.325
51.09000 245.942
51.10000 246.092
51.11000 246.603
51.12000 247.045
51.13000 240.553
51.14000 234.110
51.15000 229.837
51.16000 233.734
51.17000 238.414
51.18000 241.512
51.19000 240.506
51.20000 239.288
51.21000 238.501
51.22000 235.166
51.23000 232.689
51.24000 233.010
51.25000 236.749
51.26000 240.489
51.27000 241.768
51.28000 241.063
51.29000 240.368
51.30000 238.181
51.31000 235.258
51.32000 232.652
51.33000 236.074
51.34000 241.787
51.35000 247.141
51.36000 248.835
51.37000 249.571
51.38000 250.220
51.39000 243.024
51.40000 235.637
51.41000 231.029
51.42000 238.047
51.43000 246.352
51.44000 251.027
51.45000 245.284
51.46000 238.891
51.47000 234.600
51.48000 235.131
51.49000 235.624
51.50000 236.333
51.51000 237.337
51.52000 238.343
51.53000 239.275
51.54000 240.141
51.55000 240.998
51.56000 238.416
51.57000 233.834
51.58000 229.453
51.59000 229.754
51.60000 232.024
51.61000 234.705
51.62000 242.269
51.63000 251.251
51.64000 259.293
51.65000 257.732
51.66000 254.721
51.67000 251.668
51.68000 248.415
51.69000 245.136
51.70000 243.853
51.71000 248.906
51.72000 254.430
51.73000 258.268
51.74000 254.523
51.75000 251.497
51.76000 248.783
51.77000 246.541
51.78000 244.304
51.79000 243.936
51.80000 245.463
51.81000 246.982
51.82000 245.531
51.83000 242.120
51.84000 238.842
51.85000 239.525
51.86000 242.048
51.87000 244.440
51.88000 244.985
51.89000 244.936
51.90000 244.891
51.91000 243.121
51.92000 241.223
51.93000 239.588
51.94000 239.328
51.95000 239.267
51.96000 238.939
51.97000 237.670
51.98000 236.320
51.99000 235.352
52.00000 238.645
52.01000 241.309
52.02000 243.326
52.03000 244.251
52.04000 245.159
52.05000 244.438
52.06000 241.864
52.07000 239.295
52.08000 238.304
52.09000 238.496
52.10000 238.647
52.11000 237.216
52.12000 234.971
52.13000 232.927
52.14000 234.236
52.15000 236.739
52.16000 239.044
52.17000 240.301
52.18000 241.197
52.19000 242.138
52.20000 243.345
52.21000 244.596
52.22000 245.740
52.23000 246.472
52.24000 247.162
52.25000 247.673
52.26000 245.179
52.27000 243.116
52.28000 241.640
52.29000 241.260
52.30000 240.904
52.31000 243.146
52.32000 248.689
52.33000 254.238
52.34000 255.878
52.35000 254.243
52.36000 252.575
52.37000 249.063
52.38000 244.501
52.39000 240.146
52.40000 239.990
52.41000 241.489
52.42000 242.886
52.43000 244.244
52.44000 245.463
52.45000 246.765
52.46000 248.608
52.47000 250.550
52.48000 251.407
52.49000 247.546
52.50000 243.137
52.51000 239.784
52.52000 237.985
52.53000 236.651
52.54000 236.034
52.55000 236.898
52.56000 237.806
52.57000 240.926
52.58000 247.177
52.59000 253.449
52.60000 254.729
52.61000 251.319
52.62000 247.922
52.63000 245.546
52.64000 243.815
52.65000 242.220
52.66000 244.056
52.67000 247.389
52.68000 250.529
52.69000 246.350
52.70000 240.503
52.71000 235.777
52.72000 239.429
52.73000 244.796
52.74000 249.131
52.75000 248.465
52.76000 247.135
52.77000 246.098
52.78000 243.281
52.79000 240.923
52.80000 241.264
52.81000 247.760
52.82000 254.494
52.83000 255.766
52.84000 248.444
52.85000 241.018
52.86000 237.203
52.87000 244.325
52.88000 249.103
52.89000 251.924
52.90000 253.373
52.91000 254.701
52.92000 252.091
52.93000 247.583
52.94000 243.291
52.95000 241.210
52.96000 239.967
52.97000 239.043
52.98000 240.842
52.99000 243.264
53.00000 244.978
53.01000 242.845
53.02000 240.135
53.03000 237.967
53.04000 237.733
53.05000 237.686
53.06000 237.785
53.07000 238.249
53.08000 238.730
53.09000 239.330
53.10000 240.136
53.11000 240.946
53.12000 241.385
53.13000 241.135
53.14000 240.960
53.15000 240.156
53.16000 238.860
53.17000 237.617
53.18000 238.690
53.19000 240.996
53.20000 243.212
53.21000 243.681
53.22000 243.516
53.23000 243.193
53.24000 241.329
53.25000 239.073
53.26000 237.601
53.27000 240.911
53.28000 245.032
53.29000 248.402
53.30000 251.240
53.31000 253.518
53.32000 254.892
53.33000 253.744
53.34000 252.446
53.35000 251.959
53.36000 253.038
53.37000 254.156
53.38000 254.793
53.39000 252.701
53.40000 251.236
53.41000 252.532
53.42000 256.239
53.43000 259.893
53.44000 260.352
53.45000 258.924
53.46000 257.540
53.47000 259.403
53.48000 262.420
53.49000 265.043
53.50000 263.176
53.51000 260.043
53.52000 257.113
53.53000 255.585
53.54000 254.324
53.55000 253.270
53.56000 245.526
53.57000 238.421
53.58000 234.345
53.59000 239.616
53.60000 245.547
53.61000 250.257
53.62000 252.357
53.63000 254.370
53.64000 255.573
53.65000 251.006
53.66000 247.731
53.67000 248.754
53.68000 253.986
53.69000 259.130
53.70000 255.922
53.71000 247.242
53.72000 238.774
53.73000 235.364
53.74000 234.290
53.75000 233.717
53.76000 239.847
53.77000 248.071
53.78000 255.452
53.79000 256.221
53.80000 255.585
53.81000 255.042
53.82000 246.900
53.83000 239.168
53.84000 233.879
53.85000 236.944
53.86000 240.704
53.87000 243.265
53.88000 242.995
53.89000 242.605
53.90000 242.361
53.91000 245.394
53.92000 247.613
53.93000 245.991
53.94000 240.140
53.95000 234.312
53.96000 232.611
53.97000 233.917
53.98000 235.199
53.99000 233.599
54.00000 230.665
54.01000 228.498
54.02000 238.490
54.03000 252.692
54.04000 264.947
54.05000 259.768
54.06000 250.453
54.07000 242.372
54.08000 244.189
54.09000 247.060
54.10000 249.625
54.11000 251.027
54.12000 252.317
54.13000 252.287
54.14000 248.810
54.15000 245.152
54.16000 242.780
54.17000 247.500
54.18000 251.064
54.19000 253.007
54.20000 252.955
54.21000 252.901
54.22000 253.858
54.23000 255.638
54.24000 257.393
54.25000 255.542
54.26000 251.800
54.27000 248.288
54.28000 249.225
54.29000 251.864
54.30000 254.371
54.31000 255.513
54.32000 256.294
54.33000 256.984
54.34000 256.601
54.35000 256.107
54.36000 256.162
54.37000 258.531
54.38000 261.158
54.39000 261.768
54.40000 256.551
54.41000 250.965
54.42000 247.206
54.43000 247.290
54.44000 247.434
54.45000 246.772
54.46000 245.005
54.47000 243.233
54.48000 244.494
54.49000 248.512
54.50000 252.496
54.51000 257.306
54.52000 262.522
54.53000 267.543
54.54000 267.919
54.55000 266.328
54.56000 264.856
54.57000 264.812
54.58000 265.185
54.59000 265.519
54.60000 265.242
54.61000 264.895
54.62000 263.507
54.63000 257.227
54.64000 250.322
54.65000 244.345
54.66000 241.341
54.67000 238.560
54.68000 236.622
54.69000 244.786
54.70000 251.222
54.71000 256.263
54.72000 259.173
54.73000 262.060
54.74000 264.916
54.75000 267.741
54.76000 270.550
54.77000 268.631
54.78000 263.558
54.79000 258.593
54.80000 256.878
54.81000 256.685
54.82000 256.182
54.83000 251.307
54.84000 245.014
54.85000 239.291
54.86000 244.462
54.87000 251.168
54.88000 256.703
54.89000 256.087
54.90000 254.577
54.91000 254.612
54.92000 260.123
54.93000 266.116
54.94000 270.426
54.95000 270.059
54.96000 269.615
54.97000 268.359
54.98000 265.728
54.99000 263.074
55.00000 262.210
55.01000 263.398
55.02000 264.585
55.03000 266.049
55.04000 267.710
55.05000 269.334
55.06000 269.527
55.07000 268.977
55.08000 268.530
55.09000 269.822
55.10000 271.737
55.11000 273.502
55.12000 269.907
55.13000 265.507
55.14000 261.915
55.15000 263.098
55.16000 265.063
55.17000 266.911
55.18000 268.303
55.19000 269.647
55.20000 270.643
55.21000 264.864
55.22000 260.084
55.23000 259.830
55.24000 268.071
55.25000 276.509
55.26000 278.714
55.27000 272.938
55.28000 267.138
55.29000 263.837
55.30000 262.652
55.31000 261.502
55.32000 262.269
55.33000 264.135
55.34000 266.017
55.35000 268.222
55.36000 270.555
55.37000 272.732
55.38000 274.111
55.39000 275.162
55.40000 275.841
55.41000 274.040
55.42000 271.781
55.43000 269.845
55.44000 269.325
55.45000 268.970
55.46000 268.700
55.47000 269.729
55.48000 270.607
55.49000 272.237
55.50000 275.427
55.51000 278.665
55.52000 279.345
55.53000 276.377
55.54000 273.381
55.55000 267.472
55.56000 258.805
55.57000 250.279
55.58000 253.261
55.59000 263.562
55.60000 273.734
55.61000 280.588
55.62000 285.985
55.63000 291.076
55.64000 287.649
55.65000 282.138
55.66000 276.556
55.67000 270.438
55.68000 264.209
55.69000 259.566
55.70000 262.685
55.71000 266.842
55.72000 270.092
55.73000 270.993
55.74000 271.562
55.75000 272.850
55.76000 275.788
55.77000 278.792
55.78000 276.796
55.79000 266.876
55.80000 256.856
55.81000 251.688
55.82000 260.624
55.83000 266.611
55.84000 267.624
55.85000 265.122
55.86000 262.755
55.87000 264.864
55.88000 269.145
55.89000 273.223
55.90000 274.795
55.91000 275.471
55.92000 276.302
55.93000 278.472
55.94000 280.950
55.95000 281.995
55.96000 275.192
55.97000 267.198
55.98000 260.795
55.99000 275.004
56.00000 288.049
56.01000 296.573
56.02000 293.620
56.03000 290.101
56.04000 284.790
56.05000 276.330
56.06000 267.811
56.07000 263.172
56.08000 271.412
56.09000 277.069
56.10000 278.632
56.11000 276.973
56.12000 275.283
56.13000 272.237
56.14000 268.464
56.15000 264.836
56.16000 263.433
56.17000 262.893
56.18000 262.931
56.19000 268.703
56.20000 275.943
56.21000 283.014
56.22000 289.050
56.23000 294.908
56.24000 299.707
56.25000 292.001
56.26000 284.582
56.27000 278.921
56.28000 278.195
56.29000 277.765
56.30000 277.255
56.31000 276.589
56.32000 275.919
56.33000 275.535
56.34000 276.889
56.35000 277.840
56.36000 278.460
56.37000 278.789
56.38000 279.154
56.39000 281.766
56.40000 285.714
56.41000 289.541
56.42000 291.064
56.43000 291.609
56.44000 292.238
56.45000 293.825
56.46000 295.684
56.47000 296.609
56.48000 291.036
56.49000 284.215
56.50000 278.509
56.51000 270.995
56.52000 264.568
56.53000 261.725
56.54000 270.020
56.55000 279.112
56.56000 285.540
56.57000 286.234
56.58000 286.733
56.59000 287.033
56.60000 286.118
56.61000 285.460
56.62000 287.709
56.63000 292.828
56.64000 297.873
56.65000 295.737
56.66000 288.858
56.67000 282.144
56.68000 281.874
56.69000 284.419
56.70000 287.106
56.71000 291.705
56.72000 296.907
56.73000 301.530
56.74000 301.574
56.75000 300.636
56.76000 299.836
56.77000 300.335
56.78000 300.909
56.79000 300.305
56.80000 295.648
56.81000 290.649
56.82000 288.864
56.83000 294.727
56.84000 300.918
56.85000 304.789
56.86000 305.592
56.87000 306.139
56.88000 303.874
56.89000 298.490
56.90000 293.121
56.91000 290.765
56.92000 290.621
56.93000 290.481
56.94000 290.296
56.95000 290.095
56.96000 290.038
56.97000 292.280
56.98000 295.323
56.99000 297.664
57.00000 293.652
57.01000 288.121
57.02000 283.316
57.03000 294.770
57.04000 306.730
57.05000 317.483
57.06000 323.626
57.07000 329.317
57.08000 331.388
57.09000 323.932
57.10000 315.971
57.11000 310.793
57.12000 315.617
57.13000 319.307
57.14000 317.425
57.15000 308.623
57.16000 299.814
57.17000 296.313
57.18000 297.158
57.19000 297.991
57.20000 297.786
57.21000 297.022
57.22000 296.349
57.23000 297.430
57.24000 299.189
57.25000 301.276
57.26000 306.795
57.27000 313.225
57.28000 318.905
57.29000 319.833
57.30000 319.903
57.31000 319.288
57.32000 315.761
57.33000 311.905
57.34000 307.897
57.35000 303.446
57.36000 298.966
57.37000 295.943
57.38000 295.233
57.39000 294.755
57.40000 297.092
57.41000 303.325
57.42000 309.581
57.43000 312.505
57.44000 312.374
57.45000 312.244
57.46000 310.863
57.47000 308.750
57.48000 306.960
57.49000 312.941
57.50000 322.237
57.51000 330.762
57.52000 329.923
57.53000 326.322
57.54000 323.092
57.55000 326.139
57.56000 329.900
57.57000 332.160
57.58000 327.308
57.59000 321.538
57.60000 317.148
57.61000 317.210
57.62000 317.608
57.63000 317.887
57.64000 322.593
57.65000 326.272
57.66000 327.337
57.67000 324.383
57.68000 321.385
57.69000 319.290
57.70000 318.127
57.71000 316.970
57.72000 319.292
57.73000 323.943
57.74000 328.514
57.75000 330.618
57.76000 331.560
57.77000 332.263
57.78000 329.549
57.79000 325.718
57.80000 322.231
57.81000 317.346
57.82000 312.747
57.83000 309.736
57.84000 315.145
57.85000 321.786
57.86000 325.828
57.87000 320.582
57.88000 314.509
57.89000 310.132
57.90000 318.514
57.91000 325.390
57.92000 327.540
57.93000 321.624
57.94000 315.573
57.95000 315.032
57.96000 320.857
57.97000 326.676
57.98000 324.599
57.99000 316.546
58.00000 308.752
58.01000 311.477
58.02000 319.690
58.03000 327.572
58.04000 329.772
58.05000 329.919
58.06000 330.054
58.07000 323.747
58.08000 316.664
58.09000 311.128
58.10000 314.806
58.11000 320.006
58.12000 323.619
58.13000 320.931
58.14000 317.594
58.15000 315.116
58.16000 328.024
58.17000 338.733
58.18000 344.734
58.19000 341.836
58.20000 338.727
58.21000 337.138
58.22000 337.512
58.23000 337.893
58.24000 330.975
58.25000 317.866
58.26000 305.025
58.27000 307.304
58.28000 318.318
58.29000 328.758
58.30000 327.180
58.31000 320.797
58.32000 314.838
58.33000 319.421
58.34000 326.212
58.35000 332.122
58.36000 332.109
58.37000 330.997
58.38000 329.685
58.39000 327.491
58.40000 325.192
58.41000 323.438
58.42000 317.527
58.43000 312.645
58.44000 312.880
58.45000 323.818
58.46000 335.092
58.47000 341.377
58.48000 340.490
58.49000 339.547
58.50000 337.664
58.51000 334.883
58.52000 332.146
58.53000 333.061
58.54000 336.316
58.55000 339.381
58.56000 337.458
58.57000 333.330
58.58000 329.434
58.59000 328.577
58.60000 328.644
58.61000 328.973
58.62000 331.296
58.63000 334.035
58.64000 336.777
58.65000 339.536
58.66000 342.297
58.67000 344.460
58.68000 337.624
58.69000 331.584
58.70000 327.624
58.71000 328.477
58.72000 329.524
58.73000 332.257
58.74000 337.684
58.75000 343.147
58.76000 345.975
58.77000 343.421
58.78000 341.679
58.79000 337.385
58.80000 331.276
58.81000 325.290
58.82000 323.491
58.83000 323.739
58.84000 323.975
58.85000 328.369
58.86000 333.750
58.87000 339.026
58.88000 343.398
58.89000 347.561
58.90000 351.055
58.91000 350.858
58.92000 350.096
58.93000 349.485
58.94000 346.797
58.95000 344.462
58.96000 341.881
58.97000 338.673
58.98000 335.434
58.99000 335.589
59.00000 341.752
59.01000 348.030
59.02000 351.461
59.03000 349.263
59.04000 347.756
59.05000 350.079
59.06000 355.442
59.07000 360.633
59.08000 358.089
59.09000 351.360
59.10000 344.887
59.11000 346.096
59.12000 349.929
59.13000 353.271
59.14000 351.702
59.15000 348.867
59.16000 347.274
59.17000 353.395
59.18000 360.847
59.19000 366.960
59.20000 357.752
59.21000 348.831
59.22000 344.585
59.23000 353.562
59.24000 363.342
59.25000 370.335
59.26000 371.867
59.27000 373.255
59.28000 374.052
59.29000 370.508
59.30000 368.015
59.31000 366.186
59.32000 364.948
59.33000 363.705
59.34000 362.103
59.35000 360.286
59.36000 358.524
59.37000 360.003
59.38000 362.677
59.39000 365.416
59.40000 368.919
59.41000 372.640
59.42000 374.814
59.43000 366.132
59.44000 355.351
59.45000 346.319
59.46000 350.865
59.47000 356.047
59.48000 360.424
59.49000 362.274
59.50000 363.941
59.51000 367.624
59.52000 375.675
59.53000 383.878
59.54000 388.808
59.55000 376.396
59.56000 367.453
59.57000 364.180
59.58000 366.553
59.59000 368.930
59.60000 371.763
59.61000 374.899
59.62000 377.961
59.63000 374.362
59.64000 367.997
59.65000 361.988
59.66000 360.842
59.67000 361.240
59.68000 362.590
59.69000 371.537
59.70000 382.128
59.71000 391.174
59.72000 387.916
59.73000 383.708
59.74000 381.653
59.75000 387.071
59.76000 393.125
59.77000 394.000
59.78000 382.458
59.79000 370.375
59.80000 362.797
59.81000 373.409
59.82000 381.275
59.83000 383.828
59.84000 380.439
59.85000 377.050
59.86000 374.527
59.87000 372.645
59.88000 370.796
59.89000 372.458
59.90000 375.782
59.91000 379.376
59.92000 387.357
59.93000 396.878
59.94000 405.144
59.95000 401.939
59.96000 395.971
59.97000 390.780
59.98000 388.907
59.99000 387.762
60.00000 386.850
60.01000 386.840
60.02000 386.919
60.03000 388.880
60.04000 395.830
60.05000 403.047
60.06000 407.755
60.07000 395.881
60.08000 386.905
60.09000 383.063
60.10000 385.645
60.11000 388.250
60.12000 391.894
60.13000 396.396
60.14000 400.843
60.15000 402.907
60.16000 403.615
60.17000 404.294
60.18000 404.392
60.19000 404.264
60.20000 404.201
60.21000 404.822
60.22000 405.627
60.23000 406.339
60.24000 397.606
60.25000 388.592
60.26000 382.394
60.27000 388.253
60.28000 395.486
60.29000 400.680
60.30000 399.895
60.31000 398.722
60.32000 397.929
60.33000 398.990
60.34000 399.820
60.35000 402.002
60.36000 406.068
60.37000 410.146
60.38000 411.227
60.39000 409.538
60.40000 407.863
60.41000 409.958
60.42000 414.317
60.43000 418.322
60.44000 413.634
60.45000 405.212
60.46000 398.147
60.47000 407.767
60.48000 422.345
60.49000 435.438
60.50000 425.752
60.51000 413.264
60.52000 401.933
60.53000 396.129
60.54000 391.043
60.55000 387.587
60.56000 389.423
60.57000 391.665
60.58000 393.234
60.59000 399.843
60.60000 404.983
60.61000 408.083
60.62000 408.022
60.63000 407.924
60.64000 408.605
60.65000 410.095
60.66000 411.577
60.67000 409.830
60.68000 405.896
60.69000 401.897
60.70000 395.846
60.71000 388.820
60.72000 382.850
60.73000 392.210
60.74000 406.614
60.75000 419.737
60.76000 422.142
60.77000 422.138
60.78000 421.147
60.79000 414.879
60.80000 407.832
60.81000 404.118
60.82000 412.401
60.83000 421.763
60.84000 428.526
60.85000 421.594
60.86000 415.783
60.87000 412.436
60.88000 413.326
60.89000 414.289
60.90000 413.664
60.91000 411.189
60.92000 408.717
60.93000 407.242
60.94000 406.536
60.95000 405.951
60.96000 410.326
60.97000 417.308
60.98000 423.924
60.99000 424.157
61.00000 422.066
61.01000 420.135
61.02000 419.815
61.03000 419.889
61.04000 419.799
61.05000 418.727
61.06000 417.491
61.07000 419.095
61.08000 432.052
61.09000 446.192
61.10000 456.712
61.11000 446.189
61.12000 437.062
61.13000 432.099
61.14000 435.064
61.15000 438.221
61.16000 439.788
61.17000 439.287
61.18000 438.778
61.19000 437.417
61.20000 435.329
61.21000 433.286
61.22000 433.838
61.23000 435.902
61.24000 437.715
61.25000 434.213
61.26000 428.570
61.27000 423.298
61.28000 425.522
61.29000 429.429
61.30000 432.840
61.31000 432.884
61.32000 432.297
61.33000 432.093
61.34000 433.587
61.35000 435.285
61.36000 436.583
61.37000 440.526
61.38000 443.780
61.39000 445.011
61.40000 441.980
61.41000 438.813
61.42000 439.178
61.43000 444.658
61.44000 450.180
61.45000 452.263
61.46000 451.033
61.47000 449.823
61.48000 450.477
61.49000 452.332
61.50000 454.176
61.51000 455.699
61.52000 457.079
61.53000 458.383
61.54000 463.937
61.55000 470.237
61.56000 476.858
61.57000 485.948
61.58000 495.556
61.59000 503.753
61.60000 504.936
61.61000 505.162
61.62000 505.340
61.63000 508.702
61.64000 511.598
61.65000 513.751
61.66000 514.175
61.67000 514.527
61.68000 512.919
61.69000 508.157
61.70000 503.353
61.71000 500.855
61.72000 496.606
61.73000 493.754
61.74000 493.590
61.75000 495.357
61.76000 496.848
61.77000 488.833
61.78000 476.136
61.79000 464.024
61.80000 464.030
61.81000 467.873
61.82000 470.766
61.83000 465.310
61.84000 457.904
61.85000 450.704
61.86000 444.652
61.87000 438.778
61.88000 434.058
61.89000 445.013
61.90000 455.099
61.91000 464.130
61.92000 470.444
61.93000 476.620
61.94000 478.633
61.95000 473.222
61.96000 467.665
61.97000 464.616
61.98000 460.300
61.99000 457.326
62.00000 453.632
62.01000 449.363
62.02000 445.324
62.03000 451.952
62.04000 464.393
62.05000 476.368
62.06000 482.616
62.07000 486.451
62.08000 489.852
62.09000 488.869
62.10000 486.747
62.11000 484.532
62.12000 481.735
62.13000 478.836
62.14000 476.454
62.15000 468.375
62.16000 461.226
62.17000 457.861
62.18000 465.278
62.19000 473.358
62.20000 478.016
62.21000 475.917
62.22000 473.636
62.23000 472.322
62.24000 467.708
62.25000 464.469
62.26000 464.897
62.27000 468.607
62.28000 472.311
62.29000 475.580
62.30000 478.588
62.31000 481.506
62.32000 481.493
62.33000 480.320
62.34000 479.237
62.35000 479.200
62.36000 479.465
62.37000 480.377
62.38000 485.866
62.39000 492.249
62.40000 497.604
62.41000 488.348
62.42000 479.118
62.43000 473.029
62.44000 476.842
62.45000 481.381
62.46000 483.951
62.47000 482.218
62.48000 480.335
62.49000 479.199
62.50000 490.430
62.51000 498.512
62.52000 497.435
62.53000 487.158
62.54000 476.955
62.55000 474.598
62.56000 477.498
62.57000 480.332
62.58000 478.279
62.59000 474.155
62.60000 470.441
62.61000 472.404
62.62000 476.182
62.63000 480.431
62.64000 488.474
62.65000 497.344
62.66000 504.931
62.67000 500.630
62.68000 495.575
62.69000 491.249
62.70000 489.473
62.71000 487.917
62.72000 487.693
62.73000 490.688
62.74000 493.825
62.75000 495.797
62.76000 473.964
62.77000 457.905
62.78000 458.582
62.79000 478.137
62.80000 497.645
62.81000 505.044
62.82000 503.413
62.83000 501.810
62.84000 497.766
62.85000 492.651
62.86000 488.032
62.87000 491.581
62.88000 498.019
62.89000 503.366
62.90000 498.656
62.91000 491.504
62.92000 485.276
62.93000 491.767
62.94000 499.061
62.95000 503.363
62.96000 496.050
62.97000 487.577
62.98000 484.182
62.99000 494.350
63.00000 505.256
63.01000 512.388
63.02000 519.941
63.03000 525.495
63.04000 525.325
63.05000 517.937
63.06000 510.538
63.07000 509.891
63.08000 514.862
63.09000 519.773
63.10000 518.146
63.11000 512.955
63.12000 507.792
63.13000 503.163
63.14000 498.743
63.15000 495.197
63.16000 500.968
63.17000 509.253
63.18000 516.588
63.19000 516.623
63.20000 515.508
63.21000 515.804
63.22000 522.188
63.23000 529.271
63.24000 531.106
63.25000 517.433
63.26000 502.743
63.27000 492.781
63.28000 504.254
63.29000 513.286
63.30000 517.193
63.31000 513.901
63.32000 510.561
63.33000 512.579
63.34000 519.592
63.35000 526.550
63.36000 531.566
63.37000 535.301
63.38000 539.066
63.39000 543.599
63.40000 548.465
63.41000 552.055
63.42000 539.773
63.43000 522.741
63.44000 507.427
63.45000 513.830
63.46000 523.300
63.47000 531.174
63.48000 531.368
63.49000 530.554
63.50000 528.112
63.51000 520.345
63.52000 512.163
63.53000 506.424
63.54000 522.472
63.55000 535.249
63.56000 540.670
63.57000 534.604
63.58000 528.403
63.59000 529.017
63.60000 536.770
63.61000 544.489
63.62000 547.615
63.63000 547.546
63.64000 547.307
63.65000 541.655
63.66000 533.414
63.67000 526.216
63.68000 534.361
63.69000 547.592
63.70000 559.659
63.71000 553.011
63.72000 543.358
63.73000 536.120
63.74000 541.890
63.75000 549.599
63.76000 554.943
63.77000 551.711
63.78000 547.699
63.79000 544.795
63.80000 541.849
63.81000 539.586
63.82000 538.013
63.83000 537.635
63.84000 537.279
63.85000 538.225
63.86000 540.701
63.87000 543.174
63.88000 542.753
63.89000 540.106
63.90000 537.573
63.91000 539.876
63.92000 544.739
63.93000 549.480
63.94000 552.055
63.95000 553.836
63.96000 555.482
63.97000 558.365
63.98000 561.232
63.99000 564.078
64.00000 566.798
64.01000 569.497
64.02000 570.762
64.03000 566.250
64.04000 561.129
64.05000 557.312
64.06000 552.428
64.07000 548.576
64.08000 549.456
64.09000 559.411
64.10000 569.590
64.11000 576.720
64.12000 579.852
64.13000 582.964
64.14000 584.004
64.15000 583.251
64.16000 582.433
64.17000 577.766
64.18000 570.841
64.19000 564.564
64.20000 572.258
64.21000 585.619
64.22000 598.112
64.23000 602.918
64.24000 605.327
64.25000 607.248
64.26000 605.843
64.27000 603.809
64.28000 602.544
64.29000 604.732
64.30000 607.336
64.31000 609.331
64.32000 619.223
64.33000 627.468
64.34000 634.528
64.35000 639.074
64.36000 643.538
64.37000 646.487
64.38000 647.226
64.39000 647.946
64.40000 646.866
64.41000 644.036
64.42000 641.262
64.43000 643.605
64.44000 649.276
64.45000 654.771
64.46000 655.464
64.47000 654.004
64.48000 652.623
64.49000 646.154
64.50000 638.760
64.51000 633.111
64.52000 641.000
64.53000 651.747
64.54000 661.150
64.55000 663.819
64.56000 665.562
64.57000 666.931
64.58000 659.559
64.59000 653.082
64.60000 648.082
64.61000 646.548
64.62000 645.159
64.63000 645.876
64.64000 650.008
64.65000 654.187
64.66000 656.369
64.67000 651.243
64.68000 647.779
64.69000 645.213
64.70000 643.296
64.71000 641.291
64.72000 636.210
64.73000 629.604
64.74000 623.296
64.75000 626.902
64.76000 633.417
64.77000 638.968
64.78000 635.974
64.79000 630.969
64.80000 626.371
64.81000 624.061
64.82000 622.108
64.83000 620.536
64.84000 628.875
64.85000 636.412
64.86000 640.667
64.87000 636.406
64.88000 631.706
64.89000 624.677
64.90000 613.461
64.91000 602.162
64.92000 595.941
64.93000 596.316
64.94000 596.604
64.95000 603.272
64.96000 615.084
64.97000 626.728
64.98000 630.398
64.99000 629.690
65.00000 629.009
65.01000 628.148
65.02000 627.276
65.03000 626.533
65.04000 627.107
65.05000 628.026
65.06000 627.643
65.07000 619.031
65.08000 608.977
65.09000 600.703
65.10000 612.579
65.11000 624.176
65.12000 631.912
65.13000 628.562
65.14000 624.523
65.15000 619.593
65.16000 612.894
65.17000 606.147
65.18000 602.246
65.19000 618.520
65.20000 630.002
65.21000 631.519
65.22000 624.050
65.23000 616.645
65.24000 613.602
65.25000 613.213
65.26000 612.834
65.27000 613.978
65.28000 615.670
65.29000 617.192
65.30000 616.695
65.31000 615.612
65.32000 614.452
65.33000 612.737
65.34000 610.914
65.35000 609.381
65.36000 617.820
65.37000 625.901
65.38000 633.635
65.39000 640.268
65.40000 646.820
65.41000 649.843
65.42000 645.108
65.43000 640.095
65.44000 637.063
65.45000 642.383
65.46000 646.236
65.47000 645.910
65.48000 641.349
65.49000 636.807
65.50000 634.278
65.51000 633.110
65.52000 631.968
65.53000 640.776
65.54000 653.648
65.55000 665.335
65.56000 660.425
65.57000 650.172
65.58000 640.975
65.59000 640.366
65.60000 641.645
65.61000 642.739
65.62000 646.984
65.63000 650.950
65.64000 657.700
65.65000 674.256
65.66000 691.666
65.67000 708.601
65.68000 724.379
65.69000 740.105
65.70000 750.024
65.71000 800.673
65.72000 837.819
65.73000 867.439
65.74000 888.501
65.75000 909.540
65.76000 927.514
65.77000 943.184
65.78000 958.594
65.79000 960.138
65.80000 954.735
65.81000 949.795
65.82000 952.601
65.83000 958.167
65.84000 964.306
65.85000 975.776
65.86000 988.550
65.87000 999.688
65.88000 990.331
65.89000 979.485
65.90000 968.544
65.91000 957.229
65.92000 945.877
65.93000 926.408
65.94000 885.109
65.95000 842.606
65.96000 814.732
65.97000 790.023
65.98000 771.904
65.99000 754.734
66.00000 738.768
66.01000 722.813
66.02000 710.392
66.03000 700.934
66.04000 691.587
66.05000 680.976
66.06000 669.922
66.07000 659.368
66.08000 658.991
66.09000 662.625
66.10000 666.455
66.11000 672.410
66.12000 678.941
66.13000 684.731
66.14000 685.461
66.15000 685.293
66.16000 684.630
66.17000 681.815
66.18000 678.750
66.19000 678.186
66.20000 685.066
66.21000 692.441
66.22000 697.455
66.23000 708.432
66.24000 716.761
66.25000 722.574
66.26000 724.823
66.27000 727.048
66.28000 735.027
66.29000 748.413
66.30000 761.698
66.31000 763.552
66.32000 758.281
66.33000 753.175
66.34000 752.242
66.35000 753.126
66.36000 753.438
66.37000 746.532
66.38000 737.451
66.39000 729.277
66.40000 736.661
66.41000 745.924
66.42000 755.343
66.43000 765.521
66.44000 775.800
66.45000 783.694
66.46000 783.730
66.47000 783.149
66.48000 782.741
66.49000 745.263
66.50000 715.777
66.51000 698.717
66.52000 701.209
66.53000 703.940
66.54000 703.796
66.55000 700.616
66.56000 697.448
66.57000 694.091
66.58000 690.637
66.59000 687.423
66.60000 692.040
66.61000 700.429
66.62000 708.426
66.63000 710.583
66.64000 710.790
66.65000 710.980
66.66000 717.993
66.67000 725.599
66.68000 730.572
66.69000 721.242
66.70000 709.761
66.71000 702.716
66.72000 711.882
66.73000 722.537
66.74000 730.268
66.75000 714.336
66.76000 701.209
66.77000 701.000
66.78000 723.328
66.79000 746.066
66.80000 754.313
66.81000 745.406
66.82000 736.488
66.83000 735.546
66.84000 740.807
66.85000 746.039
66.86000 749.984
66.87000 753.242
66.88000 756.072
66.89000 751.235
66.90000 743.566
66.91000 736.474
66.92000 737.761
66.93000 740.830
66.94000 742.903
66.95000 738.895
66.96000 733.856
66.97000 731.122
66.98000 737.746
66.99000 745.364
67.00000 751.055
67.01000 744.469
67.02000 738.770
67.03000 737.049
67.04000 743.015
67.05000 749.175
67.06000 754.438
67.07000 758.515
67.08000 762.583
67.09000 770.153
67.10000 780.760
67.11000 791.151
67.12000 788.258
67.13000 777.519
67.14000 767.046
67.15000 762.406
67.16000 760.148
67.17000 758.035
67.18000 759.619
67.19000 762.007
67.20000 763.709
67.21000 760.688
67.22000 756.767
67.23000 753.805
67.24000 755.177
67.25000 757.077
67.26000 758.536
67.27000 775.587
67.28000 789.935
67.29000 799.771
67.30000 799.964
67.31000 799.836
67.32000 798.496
67.33000 795.371
67.34000 792.230
67.35000 783.442
67.36000 769.122
67.37000 755.031
67.38000 762.443
67.39000 783.948
67.40000 804.631
67.41000 802.655
67.42000 790.445
67.43000 778.894
67.44000 781.483
67.45000 787.928
67.46000 794.361
67.47000 800.694
67.48000 807.006
67.49000 813.023
67.50000 817.552
67.51000 821.875
67.52000 825.278
67.53000 822.302
67.54000 819.492
67.55000 816.639
67.56000 813.687
67.57000 810.730
67.58000 811.691
67.59000 819.049
67.60000 826.497
67.61000 830.401
67.62000 834.659
67.63000 837.505
67.64000 833.983
67.65000 825.821
67.66000 817.926
67.67000 819.603
67.68000 826.063
67.69000 832.233
67.70000 833.093
67.71000 832.184
67.72000 832.393
67.73000 842.620
67.74000 855.224
67.75000 863.777
67.76000 849.396
67.77000 831.412
67.78000 816.914
67.79000 834.029
67.80000 850.418
67.81000 858.769
67.82000 846.114
67.83000 832.363
67.84000 829.406
67.85000 845.983
67.86000 862.963
67.87000 872.346
67.88000 860.698
67.89000 852.634
67.90000 847.559
67.91000 844.913
67.92000 842.347
67.93000 843.695
67.94000 847.208
67.95000 850.592
67.96000 849.596
67.97000 847.083
67.98000 845.195
67.99000 849.755
68.00000 856.018
68.01000 862.016
68.02000 866.332
68.03000 870.350
68.04000 873.661
68.05000 886.285
68.06000 897.532
68.07000 903.919
68.08000 896.261
68.09000 887.718
68.10000 883.495
68.11000 887.929
68.12000 892.605
68.13000 895.317
68.14000 909.326
68.15000 919.200
68.16000 919.824
68.17000 912.039
68.18000 904.383
68.19000 905.880
68.20000 912.987
68.21000 919.889
68.22000 922.251
68.23000 922.668
68.24000 922.784
68.25000 919.274
68.26000 914.703
68.27000 911.867
68.28000 921.536
68.29000 933.685
68.30000 943.905
68.31000 944.036
68.32000 943.069
68.33000 943.172
68.34000 946.699
68.35000 950.483
68.36000 955.323
68.37000 962.501
68.38000 969.764
68.39000 974.172
68.40000 970.231
68.41000 967.355
68.42000 965.479
68.43000 964.623
68.44000 963.864
68.45000 973.981
68.46000 991.499
68.47000 1008.630
68.48000 1009.744
68.49000 1003.620
68.50000 998.448
68.51000 1006.766
68.52000 1019.458
68.53000 1032.421
68.54000 1047.593
68.55000 1063.254
68.56000 1076.685
68.57000 1092.132
68.58000 1105.428
68.59000 1118.178
68.60000 1128.993
68.61000 1139.638
68.62000 1154.444
68.63000 1179.443
68.64000 1204.908
68.65000 1221.018
68.66000 1279.279
68.67000 1322.016
68.68000 1356.219
68.69000 1380.637
68.70000 1405.008
68.71000 1421.775
68.72000 1432.781
68.73000 1443.608
68.74000 1470.496
68.75000 1504.570
68.76000 1537.911
68.77000 1558.820
68.78000 1575.266
68.79000 1592.067
68.80000 1612.198
68.81000 1633.150
68.82000 1651.440
68.83000 1722.396
68.84000 1790.494
68.85000 1860.733
68.86000 1939.400
68.87000 2018.928
68.88000 2136.300
68.89000 2356.190
68.90000 2581.818
68.91000 2730.180
68.92000 3741.238
68.93000 4500.289
68.94000 5883.968
68.95000 8067.784
68.96000 10255.787
68.97000 13144.057
68.98000 16624.379
68.99000 20064.998
69.00000 22686.951
69.01000 24787.852
69.02000 26830.068
69.03000 27660.619
69.04000 28010.199
69.05000 28304.107
69.06000 27991.732
69.07000 27513.311
69.08000 27088.752
69.09000 26691.623
69.10000 26351.891
69.11000 26117.877
69.12000 26347.244
69.13000 26630.992
69.14000 26929.285
69.15000 27271.170
69.16000 27615.988
69.17000 27851.018
69.18000 27014.408
69.19000 26364.443
69.20000 25079.305
69.21000 22887.930
69.22000 20689.775
69.23000 18977.793
69.24000 17726.436
69.25000 16484.307
69.26000 15668.927
69.27000 15133.967
69.28000 14605.933
69.29000 14256.185
69.30000 13984.688
69.31000 13716.885
69.32000 13496.132
69.33000 13289.667
69.34000 13103.638
69.35000 12498.460
69.36000 11891.667
69.37000 11181.521
69.38000 9965.840
69.39000 8682.489
69.40000 7386.398
69.41000 6048.012
69.42000 4706.262
69.43000 3760.609
69.44000 3036.098
69.45000 2493.265
69.46000 2097.006
69.47000 1933.076
69.48000 1772.072
69.49000 1654.318
69.50000 1582.631
69.51000 1511.258
69.52000 1469.716
69.53000 1449.464
69.54000 1428.959
69.55000 1400.048
69.56000 1367.058
69.57000 1334.438
69.58000 1307.405
69.59000 1282.251
69.60000 1259.267
69.61000 1237.826
69.62000 1219.099
69.63000 1201.547
69.64000 1190.428
69.65000 1180.285
69.66000 1170.009
69.67000 1159.242
69.68000 1148.429
69.69000 1140.568
69.70000 1117.806
69.71000 1099.730
69.72000 1086.774
69.73000 1082.818
69.74000 1079.029
69.75000 1077.463
69.76000 1078.549
69.77000 1079.639
69.78000 1073.323
69.79000 1061.238
69.80000 1049.451
69.81000 1050.861
69.82000 1059.360
69.83000 1066.953
69.84000 1058.108
69.85000 1043.146
69.86000 1029.297
69.87000 1019.167
69.88000 1010.917
69.89000 1004.550
69.90000 1009.777
69.91000 1016.988
69.92000 1022.079
69.93000 1018.505
69.94000 1013.999
69.95000 1010.627
69.96000 1025.475
69.97000 1037.911
69.98000 1042.640
69.99000 1032.367
70.00000 1021.707
